PE IR       SUBTECH     SPECTRUM    ASCII       PEDS        4.00        
   -1
BH-1(1)35-37_1.asc
24/05/14
10:37:50.00
24/05/14
10:38:03.00
Administrator
?品 001 用? Administrator 日期 Tuesday, May 14 2024
550.000000
#HDR
-1
-1
#GR
cm-1
%T
1.0
0.0
4000.000000
-1.000000
3451
8
100.846895
94.216239
#DATA
4000.000000	100.791560
3999.000000	100.792875
3998.000000	100.794387
3997.000000	100.795516
3996.000000	100.795844
3995.000000	100.795181
3994.000000	100.793672
3993.000000	100.791808
3992.000000	100.790172
3991.000000	100.788998
3990.000000	100.787998
3989.000000	100.786696
3988.000000	100.785052
3987.000000	100.783718
3986.000000	100.783473
3985.000000	100.784406
3984.000000	100.785686
3983.000000	100.786252
3982.000000	100.785714
3981.000000	100.784528
3980.000000	100.783523
3979.000000	100.783287
3978.000000	100.783873
3977.000000	100.784839
3976.000000	100.785549
3975.000000	100.785622
3974.000000	100.785121
3973.000000	100.784391
3972.000000	100.783736
3971.000000	100.783159
3970.000000	100.782301
3969.000000	100.780713
3968.000000	100.778406
3967.000000	100.776157
3966.000000	100.775101
3965.000000	100.775860
3964.000000	100.778026
3963.000000	100.780394
3962.000000	100.781768
3961.000000	100.781670
3960.000000	100.780437
3959.000000	100.778812
3958.000000	100.777251
3957.000000	100.775532
3956.000000	100.773105
3955.000000	100.769872
3954.000000	100.766592
3953.000000	100.764423
3952.000000	100.764102
3951.000000	100.765574
3950.000000	100.768146
3949.000000	100.770831
3948.000000	100.772814
3947.000000	100.773821
3946.000000	100.774150
3945.000000	100.774336
3944.000000	100.774644
3943.000000	100.774831
3942.000000	100.774498
3941.000000	100.773630
3940.000000	100.772701
3939.000000	100.772229
3938.000000	100.772235
3937.000000	100.772343
3936.000000	100.772371
3935.000000	100.772674
3934.000000	100.773738
3933.000000	100.775488
3932.000000	100.777145
3931.000000	100.777871
3930.000000	100.777472
3929.000000	100.776350
3928.000000	100.775097
3927.000000	100.774187
3926.000000	100.773886
3925.000000	100.774188
3924.000000	100.774790
3923.000000	100.775305
3922.000000	100.775582
3921.000000	100.775724
3920.000000	100.775870
3919.000000	100.776087
3918.000000	100.776387
3917.000000	100.776719
3916.000000	100.776961
3915.000000	100.777015
3914.000000	100.776912
3913.000000	100.776784
3912.000000	100.776765
3911.000000	100.776888
3910.000000	100.777098
3909.000000	100.777301
3908.000000	100.777427
3907.000000	100.777450
3906.000000	100.777387
3905.000000	100.777278
3904.000000	100.777181
3903.000000	100.777129
3902.000000	100.777126
3901.000000	100.777166
3900.000000	100.777226
3899.000000	100.777257
3898.000000	100.777204
3897.000000	100.777052
3896.000000	100.776832
3895.000000	100.776593
3894.000000	100.776359
3893.000000	100.776127
3892.000000	100.775879
3891.000000	100.775591
3890.000000	100.775245
3889.000000	100.774852
3888.000000	100.774444
3887.000000	100.774037
3886.000000	100.773629
3885.000000	100.773212
3884.000000	100.772777
3883.000000	100.772330
3882.000000	100.771886
3881.000000	100.771456
3880.000000	100.771036
3879.000000	100.770611
3878.000000	100.770166
3877.000000	100.769698
3876.000000	100.769208
3875.000000	100.768703
3874.000000	100.768183
3873.000000	100.767650
3872.000000	100.767115
3871.000000	100.766595
3870.000000	100.766102
3869.000000	100.765633
3868.000000	100.765170
3867.000000	100.764705
3866.000000	100.764252
3865.000000	100.763853
3864.000000	100.763540
3863.000000	100.763302
3862.000000	100.763080
3861.000000	100.762818
3860.000000	100.762501
3859.000000	100.762185
3858.000000	100.761956
3857.000000	100.761864
3856.000000	100.761866
3855.000000	100.761840
3854.000000	100.761684
3853.000000	100.761434
3852.000000	100.761151
3851.000000	100.760881
3850.000000	100.760808
3849.000000	100.761003
3848.000000	100.761253
3847.000000	100.761314
3846.000000	100.761163
3845.000000	100.761000
3844.000000	100.761078
3843.000000	100.761522
3842.000000	100.762243
3841.000000	100.763058
3840.000000	100.763776
3839.000000	100.764220
3838.000000	100.764335
3837.000000	100.764300
3836.000000	100.764358
3835.000000	100.764586
3834.000000	100.764930
3833.000000	100.765385
3832.000000	100.766049
3831.000000	100.766958
3830.000000	100.767987
3829.000000	100.768977
3828.000000	100.769879
3827.000000	100.770751
3826.000000	100.771606
3825.000000	100.772353
3824.000000	100.772940
3823.000000	100.773403
3822.000000	100.773688
3821.000000	100.773724
3820.000000	100.773537
3819.000000	100.773338
3818.000000	100.773505
3817.000000	100.774192
3816.000000	100.775200
3815.000000	100.776066
3814.000000	100.776493
3813.000000	100.776579
3812.000000	100.776600
3811.000000	100.776672
3810.000000	100.776790
3809.000000	100.777000
3808.000000	100.777395
3807.000000	100.777974
3806.000000	100.778548
3805.000000	100.778907
3804.000000	100.779053
3803.000000	100.779178
3802.000000	100.779394
3801.000000	100.779605
3800.000000	100.779597
3799.000000	100.779356
3798.000000	100.779218
3797.000000	100.779459
3796.000000	100.780003
3795.000000	100.780548
3794.000000	100.780912
3793.000000	100.781144
3792.000000	100.781325
3791.000000	100.781472
3790.000000	100.781653
3789.000000	100.781975
3788.000000	100.782395
3787.000000	100.782677
3786.000000	100.782645
3785.000000	100.782383
3784.000000	100.782085
3783.000000	100.781780
3782.000000	100.781386
3781.000000	100.780889
3780.000000	100.780355
3779.000000	100.779893
3778.000000	100.779563
3777.000000	100.779384
3776.000000	100.779344
3775.000000	100.779286
3774.000000	100.778879
3773.000000	100.778046
3772.000000	100.777365
3771.000000	100.777707
3770.000000	100.779235
3769.000000	100.780907
3768.000000	100.781402
3767.000000	100.780462
3766.000000	100.778991
3765.000000	100.778010
3764.000000	100.777500
3763.000000	100.776715
3762.000000	100.775254
3761.000000	100.773346
3760.000000	100.771382
3759.000000	100.769672
3758.000000	100.768445
3757.000000	100.767847
3756.000000	100.767851
3755.000000	100.768304
3754.000000	100.768887
3753.000000	100.768978
3752.000000	100.768104
3751.000000	100.766727
3750.000000	100.765939
3749.000000	100.765840
3748.000000	100.765361
3747.000000	100.763941
3746.000000	100.762324
3745.000000	100.761646
3744.000000	100.762053
3743.000000	100.762122
3742.000000	100.761053
3741.000000	100.760099
3740.000000	100.760186
3739.000000	100.760704
3738.000000	100.760631
3737.000000	100.759646
3736.000000	100.758133
3735.000000	100.756597
3734.000000	100.755432
3733.000000	100.754977
3732.000000	100.755167
3731.000000	100.755300
3730.000000	100.754843
3729.000000	100.754181
3728.000000	100.754125
3727.000000	100.754811
3726.000000	100.755448
3725.000000	100.755301
3724.000000	100.754694
3723.000000	100.754396
3722.000000	100.754281
3721.000000	100.753420
3720.000000	100.751313
3719.000000	100.748494
3718.000000	100.745874
3717.000000	100.743808
3716.000000	100.742183
3715.000000	100.741219
3714.000000	100.741501
3713.000000	100.742821
3712.000000	100.743510
3711.000000	100.741938
3710.000000	100.738364
3709.000000	100.734669
3708.000000	100.732237
3707.000000	100.730801
3706.000000	100.729095
3705.000000	100.726162
3704.000000	100.722262
3703.000000	100.718739
3702.000000	100.716865
3701.000000	100.716622
3700.000000	100.716751
3699.000000	100.716084
3698.000000	100.714540
3697.000000	100.712521
3696.000000	100.710015
3695.000000	100.706752
3694.000000	100.702937
3693.000000	100.699205
3692.000000	100.695937
3691.000000	100.693192
3690.000000	100.691234
3689.000000	100.690577
3688.000000	100.690975
3687.000000	100.690976
3686.000000	100.689467
3685.000000	100.686842
3684.000000	100.684001
3683.000000	100.681147
3682.000000	100.678004
3681.000000	100.674506
3680.000000	100.670814
3679.000000	100.666807
3678.000000	100.662562
3677.000000	100.658906
3676.000000	100.656453
3675.000000	100.653933
3674.000000	100.648943
3673.000000	100.641144
3672.000000	100.633299
3671.000000	100.628371
3670.000000	100.626820
3669.000000	100.626547
3668.000000	100.625163
3667.000000	100.622488
3666.000000	100.619515
3665.000000	100.616506
3664.000000	100.612798
3663.000000	100.607811
3662.000000	100.601812
3661.000000	100.595630
3660.000000	100.589930
3659.000000	100.585039
3658.000000	100.581264
3657.000000	100.578571
3656.000000	100.575843
3655.000000	100.571108
3654.000000	100.563636
3653.000000	100.555319
3652.000000	100.548964
3651.000000	100.545438
3650.000000	100.543156
3649.000000	100.540328
3648.000000	100.537174
3647.000000	100.534763
3646.000000	100.533120
3645.000000	100.531990
3644.000000	100.531591
3643.000000	100.531830
3642.000000	100.531573
3641.000000	100.529613
3640.000000	100.526143
3639.000000	100.522543
3638.000000	100.519566
3637.000000	100.516537
3636.000000	100.512899
3635.000000	100.509326
3634.000000	100.506370
3633.000000	100.502892
3632.000000	100.497565
3631.000000	100.491707
3630.000000	100.489179
3629.000000	100.492390
3628.000000	100.497951
3627.000000	100.499568
3626.000000	100.495844
3625.000000	100.489725
3624.000000	100.483322
3623.000000	100.476945
3622.000000	100.471327
3621.000000	100.468540
3620.000000	100.469931
3619.000000	100.473839
3618.000000	100.476721
3617.000000	100.476975
3616.000000	100.476462
3615.000000	100.477873
3614.000000	100.481522
3613.000000	100.485151
3612.000000	100.486895
3611.000000	100.487888
3610.000000	100.491106
3609.000000	100.497677
3608.000000	100.504935
3607.000000	100.508977
3606.000000	100.508587
3605.000000	100.505745
3604.000000	100.503187
3603.000000	100.502195
3602.000000	100.502513
3601.000000	100.503264
3600.000000	100.503542
3599.000000	100.502610
3598.000000	100.500403
3597.000000	100.497901
3596.000000	100.496921
3595.000000	100.498811
3594.000000	100.503068
3593.000000	100.507526
3592.000000	100.510445
3591.000000	100.511990
3590.000000	100.513657
3589.000000	100.516544
3588.000000	100.520045
3587.000000	100.522199
3586.000000	100.521560
3585.000000	100.518571
3584.000000	100.514981
3583.000000	100.512419
3582.000000	100.511493
3581.000000	100.511913
3580.000000	100.512955
3579.000000	100.513768
3578.000000	100.513728
3577.000000	100.512705
3576.000000	100.511151
3575.000000	100.509922
3574.000000	100.509749
3573.000000	100.510661
3572.000000	100.511848
3571.000000	100.512187
3570.000000	100.511081
3569.000000	100.509013
3568.000000	100.507354
3567.000000	100.507215
3566.000000	100.508407
3565.000000	100.509881
3564.000000	100.510912
3563.000000	100.511267
3562.000000	100.510647
3561.000000	100.508692
3560.000000	100.505644
3559.000000	100.502548
3558.000000	100.500484
3557.000000	100.499662
3556.000000	100.499336
3555.000000	100.498600
3554.000000	100.497281
3553.000000	100.495942
3552.000000	100.494987
3551.000000	100.494055
3550.000000	100.492618
3549.000000	100.490941
3548.000000	100.490021
3547.000000	100.490556
3546.000000	100.492148
3545.000000	100.493588
3544.000000	100.493999
3543.000000	100.493446
3542.000000	100.492531
3541.000000	100.491696
3540.000000	100.491012
3539.000000	100.490471
3538.000000	100.490238
3537.000000	100.490524
3536.000000	100.491259
3535.000000	100.491950
3534.000000	100.491944
3533.000000	100.490834
3532.000000	100.488651
3531.000000	100.485823
3530.000000	100.482964
3529.000000	100.480516
3528.000000	100.478671
3527.000000	100.477590
3526.000000	100.477543
3525.000000	100.478658
3524.000000	100.480433
3523.000000	100.481706
3522.000000	100.481475
3521.000000	100.479655
3520.000000	100.477010
3519.000000	100.474500
3518.000000	100.472695
3517.000000	100.471707
3516.000000	100.471373
3515.000000	100.471272
3514.000000	100.470752
3513.000000	100.469342
3512.000000	100.467256
3511.000000	100.465371
3510.000000	100.464468
3509.000000	100.464529
3508.000000	100.464845
3507.000000	100.464762
3506.000000	100.464241
3505.000000	100.463713
3504.000000	100.463598
3503.000000	100.463928
3502.000000	100.464286
3501.000000	100.464079
3500.000000	100.462994
3499.000000	100.461268
3498.000000	100.459513
3497.000000	100.458202
3496.000000	100.457323
3495.000000	100.456598
3494.000000	100.456025
3493.000000	100.456013
3492.000000	100.456915
3491.000000	100.458550
3490.000000	100.460114
3489.000000	100.460674
3488.000000	100.459815
3487.000000	100.457815
3486.000000	100.455469
3485.000000	100.453569
3484.000000	100.452476
3483.000000	100.452048
3482.000000	100.451814
3481.000000	100.451328
3480.000000	100.450493
3479.000000	100.449513
3478.000000	100.448611
3477.000000	100.447831
3476.000000	100.447105
3475.000000	100.446391
3474.000000	100.445715
3473.000000	100.445107
3472.000000	100.444553
3471.000000	100.443993
3470.000000	100.443361
3469.000000	100.442635
3468.000000	100.441859
3467.000000	100.441100
3466.000000	100.440377
3465.000000	100.439645
3464.000000	100.438846
3463.000000	100.437965
3462.000000	100.437061
3461.000000	100.436228
3460.000000	100.435523
3459.000000	100.434903
3458.000000	100.434209
3457.000000	100.433277
3456.000000	100.432067
3455.000000	100.430736
3454.000000	100.429588
3453.000000	100.428912
3452.000000	100.428753
3451.000000	100.428760
3450.000000	100.428397
3449.000000	100.427286
3448.000000	100.425366
3447.000000	100.422855
3446.000000	100.420204
3445.000000	100.417987
3444.000000	100.416594
3443.000000	100.415974
3442.000000	100.415623
3441.000000	100.414910
3440.000000	100.413485
3439.000000	100.411417
3438.000000	100.409106
3437.000000	100.407245
3436.000000	100.406671
3435.000000	100.407862
3434.000000	100.410273
3433.000000	100.412354
3432.000000	100.412676
3431.000000	100.411099
3430.000000	100.408747
3429.000000	100.406900
3428.000000	100.406068
3427.000000	100.406126
3426.000000	100.406861
3425.000000	100.408051
3424.000000	100.409139
3423.000000	100.409174
3422.000000	100.407276
3421.000000	100.403227
3420.000000	100.397803
3419.000000	100.392497
3418.000000	100.388454
3417.000000	100.385437
3416.000000	100.382088
3415.000000	100.377504
3414.000000	100.372505
3413.000000	100.369068
3412.000000	100.368623
3411.000000	100.371167
3410.000000	100.375538
3409.000000	100.380069
3408.000000	100.383140
3407.000000	100.383818
3406.000000	100.382470
3405.000000	100.380587
3404.000000	100.379683
3403.000000	100.380314
3402.000000	100.382105
3401.000000	100.384426
3400.000000	100.386922
3399.000000	100.389522
3398.000000	100.392129
3397.000000	100.394234
3396.000000	100.394879
3395.000000	100.393270
3394.000000	100.389615
3393.000000	100.385388
3392.000000	100.382522
3391.000000	100.382059
3390.000000	100.383742
3389.000000	100.386681
3388.000000	100.390167
3387.000000	100.393823
3386.000000	100.397104
3385.000000	100.399046
3384.000000	100.398810
3383.000000	100.396497
3382.000000	100.393340
3381.000000	100.391007
3380.000000	100.390503
3379.000000	100.391637
3378.000000	100.393292
3377.000000	100.394187
3376.000000	100.393703
3375.000000	100.392229
3374.000000	100.390803
3373.000000	100.390300
3372.000000	100.390849
3371.000000	100.392024
3370.000000	100.393465
3369.000000	100.395178
3368.000000	100.397257
3367.000000	100.399517
3366.000000	100.401555
3365.000000	100.403128
3364.000000	100.404341
3363.000000	100.405412
3362.000000	100.406318
3361.000000	100.406779
3360.000000	100.406641
3359.000000	100.406201
3358.000000	100.406092
3357.000000	100.406764
3356.000000	100.408065
3355.000000	100.409313
3354.000000	100.409857
3353.000000	100.409607
3352.000000	100.409034
3351.000000	100.408777
3350.000000	100.409128
3349.000000	100.409908
3348.000000	100.410688
3347.000000	100.411132
3346.000000	100.411227
3345.000000	100.411215
3344.000000	100.411333
3343.000000	100.411589
3342.000000	100.411830
3341.000000	100.411986
3340.000000	100.412198
3339.000000	100.412658
3338.000000	100.413403
3337.000000	100.414269
3336.000000	100.415014
3335.000000	100.415494
3334.000000	100.415713
3333.000000	100.415801
3332.000000	100.415957
3331.000000	100.416298
3330.000000	100.416796
3329.000000	100.417333
3328.000000	100.417806
3327.000000	100.418204
3326.000000	100.418592
3325.000000	100.419046
3324.000000	100.419626
3323.000000	100.420338
3322.000000	100.421075
3321.000000	100.421655
3320.000000	100.422021
3319.000000	100.422414
3318.000000	100.423167
3317.000000	100.424285
3316.000000	100.425345
3315.000000	100.425962
3314.000000	100.426227
3313.000000	100.426543
3312.000000	100.427088
3311.000000	100.427600
3310.000000	100.427652
3309.000000	100.427050
3308.000000	100.426028
3307.000000	100.425168
3306.000000	100.425048
3305.000000	100.425984
3304.000000	100.428047
3303.000000	100.431136
3302.000000	100.434964
3301.000000	100.438942
3300.000000	100.442208
3299.000000	100.444020
3298.000000	100.444158
3297.000000	100.443072
3296.000000	100.441689
3295.000000	100.440922
3294.000000	100.441178
3293.000000	100.442308
3292.000000	100.443988
3291.000000	100.446076
3290.000000	100.448616
3289.000000	100.451605
3288.000000	100.454861
3287.000000	100.458055
3286.000000	100.460772
3285.000000	100.462647
3284.000000	100.463612
3283.000000	100.463946
3282.000000	100.463960
3281.000000	100.463719
3280.000000	100.463257
3279.000000	100.462860
3278.000000	100.462823
3277.000000	100.463125
3276.000000	100.463729
3275.000000	100.465043
3274.000000	100.467654
3273.000000	100.471541
3272.000000	100.475757
3271.000000	100.479025
3270.000000	100.480500
3269.000000	100.480042
3268.000000	100.478217
3267.000000	100.476112
3266.000000	100.474810
3265.000000	100.474746
3264.000000	100.475546
3263.000000	100.476430
3262.000000	100.476746
3261.000000	100.476305
3260.000000	100.475535
3259.000000	100.475314
3258.000000	100.476353
3257.000000	100.478587
3256.000000	100.481255
3255.000000	100.483564
3254.000000	100.485207
3253.000000	100.486333
3252.000000	100.487300
3251.000000	100.488379
3250.000000	100.489447
3249.000000	100.490028
3248.000000	100.489959
3247.000000	100.489899
3246.000000	100.490694
3245.000000	100.492208
3244.000000	100.493317
3243.000000	100.493388
3242.000000	100.493372
3241.000000	100.495102
3240.000000	100.499638
3239.000000	100.506292
3238.000000	100.512841
3237.000000	100.516949
3236.000000	100.517872
3235.000000	100.517124
3234.000000	100.517346
3233.000000	100.519859
3232.000000	100.523467
3231.000000	100.525769
3230.000000	100.525351
3229.000000	100.522516
3228.000000	100.518646
3227.000000	100.515298
3226.000000	100.513452
3225.000000	100.513170
3224.000000	100.513879
3223.000000	100.515105
3222.000000	100.516830
3221.000000	100.519066
3220.000000	100.521538
3219.000000	100.524089
3218.000000	100.526937
3217.000000	100.530119
3216.000000	100.533037
3215.000000	100.535035
3214.000000	100.536223
3213.000000	100.537229
3212.000000	100.538313
3211.000000	100.539245
3210.000000	100.539935
3209.000000	100.540600
3208.000000	100.541306
3207.000000	100.541889
3206.000000	100.542468
3205.000000	100.543585
3204.000000	100.545588
3203.000000	100.548127
3202.000000	100.550430
3201.000000	100.551974
3200.000000	100.552810
3199.000000	100.553429
3198.000000	100.554442
3197.000000	100.556197
3196.000000	100.558530
3195.000000	100.560882
3194.000000	100.562755
3193.000000	100.564086
3192.000000	100.565176
3191.000000	100.566296
3190.000000	100.567435
3189.000000	100.568413
3188.000000	100.569154
3187.000000	100.569839
3186.000000	100.570806
3185.000000	100.572240
3184.000000	100.574031
3183.000000	100.575867
3182.000000	100.577505
3181.000000	100.578955
3180.000000	100.580372
3179.000000	100.581869
3178.000000	100.583412
3177.000000	100.584862
3176.000000	100.586131
3175.000000	100.587266
3174.000000	100.588421
3173.000000	100.589723
3172.000000	100.591187
3171.000000	100.592756
3170.000000	100.594331
3169.000000	100.595805
3168.000000	100.597104
3167.000000	100.598251
3166.000000	100.599411
3165.000000	100.600762
3164.000000	100.602340
3163.000000	100.604015
3162.000000	100.605648
3161.000000	100.607227
3160.000000	100.608814
3159.000000	100.610437
3158.000000	100.612035
3157.000000	100.613471
3156.000000	100.614605
3155.000000	100.615441
3154.000000	100.616227
3153.000000	100.617259
3152.000000	100.618554
3151.000000	100.619846
3150.000000	100.620934
3149.000000	100.621937
3148.000000	100.623109
3147.000000	100.624492
3146.000000	100.625873
3145.000000	100.627066
3144.000000	100.628107
3143.000000	100.629155
3142.000000	100.630320
3141.000000	100.631659
3140.000000	100.633285
3139.000000	100.635331
3138.000000	100.637711
3137.000000	100.639966
3136.000000	100.641529
3135.000000	100.642199
3134.000000	100.642397
3133.000000	100.642952
3132.000000	100.644376
3131.000000	100.646544
3130.000000	100.648895
3129.000000	100.650935
3128.000000	100.652551
3127.000000	100.653899
3126.000000	100.655124
3125.000000	100.656157
3124.000000	100.656807
3123.000000	100.657097
3122.000000	100.657416
3121.000000	100.658120
3120.000000	100.659068
3119.000000	100.659837
3118.000000	100.660385
3117.000000	100.661161
3116.000000	100.662437
3115.000000	100.663854
3114.000000	100.664874
3113.000000	100.665491
3112.000000	100.666162
3111.000000	100.667134
3110.000000	100.668190
3109.000000	100.669113
3108.000000	100.670046
3107.000000	100.671187
3106.000000	100.672344
3105.000000	100.673064
3104.000000	100.673197
3103.000000	100.673150
3102.000000	100.673520
3101.000000	100.674433
3100.000000	100.675332
3099.000000	100.675514
3098.000000	100.674861
3097.000000	100.674006
3096.000000	100.673712
3095.000000	100.674157
3094.000000	100.674963
3093.000000	100.675810
3092.000000	100.676781
3091.000000	100.678110
3090.000000	100.679765
3089.000000	100.681313
3088.000000	100.682263
3087.000000	100.682503
3086.000000	100.682359
3085.000000	100.682325
3084.000000	100.682609
3083.000000	100.683044
3082.000000	100.683374
3081.000000	100.683451
3080.000000	100.683223
3079.000000	100.682803
3078.000000	100.682605
3077.000000	100.683128
3076.000000	100.684454
3075.000000	100.686065
3074.000000	100.687299
3073.000000	100.687986
3072.000000	100.688445
3071.000000	100.689007
3070.000000	100.689723
3069.000000	100.690494
3068.000000	100.691270
3067.000000	100.692045
3066.000000	100.692792
3065.000000	100.693477
3064.000000	100.694102
3063.000000	100.694687
3062.000000	100.695241
3061.000000	100.695749
3060.000000	100.696137
3059.000000	100.696300
3058.000000	100.696224
3057.000000	100.696064
3056.000000	100.696028
3055.000000	100.696179
3054.000000	100.696397
3053.000000	100.696536
3052.000000	100.696599
3051.000000	100.696749
3050.000000	100.697172
3049.000000	100.697913
3048.000000	100.698774
3047.000000	100.699373
3046.000000	100.699439
3045.000000	100.699095
3044.000000	100.698910
3043.000000	100.699510
3042.000000	100.701107
3041.000000	100.703171
3040.000000	100.704728
3039.000000	100.705180
3038.000000	100.704674
3037.000000	100.703835
3036.000000	100.703135
3035.000000	100.702619
3034.000000	100.702189
3033.000000	100.701917
3032.000000	100.702010
3031.000000	100.702457
3030.000000	100.702787
3029.000000	100.702338
3028.000000	100.700869
3027.000000	100.698936
3026.000000	100.697555
3025.000000	100.697394
3024.000000	100.698316
3023.000000	100.699699
3022.000000	100.701062
3021.000000	100.702151
3020.000000	100.702546
3019.000000	100.701709
3018.000000	100.699590
3017.000000	100.696817
3016.000000	100.693975
3015.000000	100.691086
3014.000000	100.688219
3013.000000	100.686290
3012.000000	100.686724
3011.000000	100.690182
3010.000000	100.695667
3009.000000	100.700755
3008.000000	100.702943
3007.000000	100.701491
3006.000000	100.698358
3005.000000	100.696816
3004.000000	100.698402
3003.000000	100.701434
3002.000000	100.702849
3001.000000	100.701080
3000.000000	100.696766
2999.000000	100.691332
2998.000000	100.685731
2997.000000	100.680471
2996.000000	100.675927
2995.000000	100.672175
2994.000000	100.668968
2993.000000	100.666185
2992.000000	100.664053
2991.000000	100.662623
2990.000000	100.661071
2989.000000	100.657712
2988.000000	100.651103
2987.000000	100.641481
2986.000000	100.631116
2985.000000	100.622714
2984.000000	100.617143
2983.000000	100.612900
2982.000000	100.607874
2981.000000	100.601463
2980.000000	100.594971
2979.000000	100.590358
2978.000000	100.588740
2977.000000	100.589532
2976.000000	100.590783
2975.000000	100.591133
2974.000000	100.591931
2973.000000	100.596560
2972.000000	100.606875
2971.000000	100.620873
2970.000000	100.634734
2969.000000	100.646770
2968.000000	100.658206
2967.000000	100.670389
2966.000000	100.682781
2965.000000	100.693958
2964.000000	100.703097
2963.000000	100.709765
2962.000000	100.713594
2961.000000	100.715368
2960.000000	100.717486
2959.000000	100.721779
2958.000000	100.727097
2957.000000	100.730536
2956.000000	100.731185
2955.000000	100.731235
2954.000000	100.732680
2953.000000	100.734131
2952.000000	100.732376
2951.000000	100.726762
2950.000000	100.720672
2949.000000	100.718240
2948.000000	100.720432
2947.000000	100.724792
2946.000000	100.728142
2945.000000	100.728796
2944.000000	100.726905
2943.000000	100.724049
2942.000000	100.722647
2941.000000	100.724661
2940.000000	100.730113
2939.000000	100.736914
2938.000000	100.742339
2937.000000	100.744622
2936.000000	100.743540
2935.000000	100.740339
2934.000000	100.737224
2933.000000	100.736047
2932.000000	100.736922
2931.000000	100.738556
2930.000000	100.740279
2929.000000	100.743277
2928.000000	100.749477
2927.000000	100.759587
2926.000000	100.772349
2925.000000	100.785031
2924.000000	100.794452
2923.000000	100.798502
2922.000000	100.797593
2921.000000	100.794279
2920.000000	100.790850
2919.000000	100.787779
2918.000000	100.784784
2917.000000	100.782144
2916.000000	100.779800
2915.000000	100.776083
2914.000000	100.769104
2913.000000	100.759327
2912.000000	100.749459
2911.000000	100.741550
2910.000000	100.735257
2909.000000	100.729226
2908.000000	100.723209
2907.000000	100.718333
2906.000000	100.715912
2905.000000	100.716333
2904.000000	100.718564
2903.000000	100.720402
2902.000000	100.719769
2901.000000	100.716357
2900.000000	100.711826
2899.000000	100.708282
2898.000000	100.706985
2897.000000	100.708218
2896.000000	100.711563
2895.000000	100.715746
2894.000000	100.718854
2893.000000	100.719619
2892.000000	100.718545
2891.000000	100.717401
2890.000000	100.717520
2889.000000	100.718603
2888.000000	100.718956
2887.000000	100.716878
2886.000000	100.712322
2885.000000	100.707591
2884.000000	100.705980
2883.000000	100.709018
2882.000000	100.714891
2881.000000	100.719761
2880.000000	100.721155
2879.000000	100.720090
2878.000000	100.719732
2877.000000	100.722138
2876.000000	100.726511
2875.000000	100.730508
2874.000000	100.732769
2873.000000	100.733616
2872.000000	100.733507
2871.000000	100.731975
2870.000000	100.728853
2869.000000	100.725800
2868.000000	100.725236
2867.000000	100.727633
2866.000000	100.730941
2865.000000	100.733170
2864.000000	100.734760
2863.000000	100.737490
2862.000000	100.741712
2861.000000	100.745887
2860.000000	100.748896
2859.000000	100.751692
2858.000000	100.756040
2857.000000	100.762141
2856.000000	100.768105
2855.000000	100.771744
2854.000000	100.772467
2853.000000	100.771510
2852.000000	100.770681
2851.000000	100.770828
2850.000000	100.771283
2849.000000	100.770634
2848.000000	100.768147
2847.000000	100.764618
2846.000000	100.761742
2845.000000	100.760375
2844.000000	100.759558
2843.000000	100.757588
2842.000000	100.754043
2841.000000	100.750466
2840.000000	100.748884
2839.000000	100.749861
2838.000000	100.752217
2837.000000	100.754192
2836.000000	100.754677
2835.000000	100.753691
2834.000000	100.752237
2833.000000	100.751661
2832.000000	100.752619
2831.000000	100.754441
2830.000000	100.755749
2829.000000	100.755891
2828.000000	100.755541
2827.000000	100.755819
2826.000000	100.757047
2825.000000	100.758523
2824.000000	100.759389
2823.000000	100.759594
2822.000000	100.759965
2821.000000	100.761243
2820.000000	100.763055
2819.000000	100.764078
2818.000000	100.763438
2817.000000	100.761688
2816.000000	100.760113
2815.000000	100.759264
2814.000000	100.758611
2813.000000	100.757585
2812.000000	100.756449
2811.000000	100.755971
2810.000000	100.756649
2809.000000	100.758521
2808.000000	100.761369
2807.000000	100.764716
2806.000000	100.767703
2805.000000	100.769420
2804.000000	100.769527
2803.000000	100.768465
2802.000000	100.767042
2801.000000	100.765779
2800.000000	100.764765
2799.000000	100.763980
2798.000000	100.763546
2797.000000	100.763657
2796.000000	100.764335
2795.000000	100.765307
2794.000000	100.766156
2793.000000	100.766656
2792.000000	100.766983
2791.000000	100.767529
2790.000000	100.768402
2789.000000	100.769145
2788.000000	100.769070
2787.000000	100.767966
2786.000000	100.766479
2785.000000	100.765695
2784.000000	100.766251
2783.000000	100.767946
2782.000000	100.770087
2781.000000	100.772136
2780.000000	100.773990
2779.000000	100.775718
2778.000000	100.777200
2777.000000	100.778104
2776.000000	100.778196
2775.000000	100.777650
2774.000000	100.777022
2773.000000	100.776782
2772.000000	100.776889
2771.000000	100.776919
2770.000000	100.776636
2769.000000	100.776383
2768.000000	100.776748
2767.000000	100.777919
2766.000000	100.779503
2765.000000	100.780961
2764.000000	100.782066
2763.000000	100.782851
2762.000000	100.783264
2761.000000	100.783151
2760.000000	100.782603
2759.000000	100.782098
2758.000000	100.782145
2757.000000	100.782775
2756.000000	100.783502
2755.000000	100.783837
2754.000000	100.783799
2753.000000	100.783842
2752.000000	100.784337
2751.000000	100.785230
2750.000000	100.786148
2749.000000	100.786738
2748.000000	100.786900
2747.000000	100.786770
2746.000000	100.786638
2745.000000	100.786788
2744.000000	100.787289
2743.000000	100.787917
2742.000000	100.788342
2741.000000	100.788437
2740.000000	100.788372
2739.000000	100.788391
2738.000000	100.788522
2737.000000	100.788541
2736.000000	100.788210
2735.000000	100.787523
2734.000000	100.786756
2733.000000	100.786270
2732.000000	100.786227
2731.000000	100.786492
2730.000000	100.786819
2729.000000	100.787130
2728.000000	100.787537
2727.000000	100.788096
2726.000000	100.788595
2725.000000	100.788696
2724.000000	100.788310
2723.000000	100.787803
2722.000000	100.787730
2721.000000	100.788284
2720.000000	100.789053
2719.000000	100.789385
2718.000000	100.789008
2717.000000	100.788215
2716.000000	100.787544
2715.000000	100.787378
2714.000000	100.787865
2713.000000	100.788888
2712.000000	100.789951
2711.000000	100.790389
2710.000000	100.789989
2709.000000	100.789326
2708.000000	100.789294
2707.000000	100.790264
2706.000000	100.791853
2705.000000	100.793293
2704.000000	100.793899
2703.000000	100.793378
2702.000000	100.792048
2701.000000	100.790695
2700.000000	100.789855
2699.000000	100.789320
2698.000000	100.788576
2697.000000	100.787549
2696.000000	100.786639
2695.000000	100.786128
2694.000000	100.785879
2693.000000	100.785607
2692.000000	100.785188
2691.000000	100.784723
2690.000000	100.784464
2689.000000	100.784564
2688.000000	100.784710
2687.000000	100.784338
2686.000000	100.783485
2685.000000	100.783076
2684.000000	100.783930
2683.000000	100.785855
2682.000000	100.788040
2681.000000	100.790032
2680.000000	100.791780
2679.000000	100.792881
2678.000000	100.792675
2677.000000	100.791252
2676.000000	100.789737
2675.000000	100.789170
2674.000000	100.789467
2673.000000	100.789869
2672.000000	100.790034
2671.000000	100.790289
2670.000000	100.790969
2669.000000	100.791916
2668.000000	100.792599
2667.000000	100.792488
2666.000000	100.791312
2665.000000	100.789228
2664.000000	100.786872
2663.000000	100.785032
2662.000000	100.784223
2661.000000	100.784607
2660.000000	100.786079
2659.000000	100.788200
2658.000000	100.790169
2657.000000	100.791238
2656.000000	100.791290
2655.000000	100.790900
2654.000000	100.790717
2653.000000	100.790797
2652.000000	100.790735
2651.000000	100.790390
2650.000000	100.790230
2649.000000	100.790764
2648.000000	100.791794
2647.000000	100.792470
2646.000000	100.792195
2645.000000	100.791278
2644.000000	100.790657
2643.000000	100.790977
2642.000000	100.792131
2641.000000	100.793463
2640.000000	100.794249
2639.000000	100.794066
2638.000000	100.792957
2637.000000	100.791396
2636.000000	100.789883
2635.000000	100.788486
2634.000000	100.786990
2633.000000	100.785493
2632.000000	100.784574
2631.000000	100.784648
2630.000000	100.785484
2629.000000	100.786502
2628.000000	100.787306
2627.000000	100.787731
2626.000000	100.787592
2625.000000	100.786773
2624.000000	100.785528
2623.000000	100.784461
2622.000000	100.784075
2621.000000	100.784452
2620.000000	100.785317
2619.000000	100.786185
2618.000000	100.786560
2617.000000	100.786179
2616.000000	100.785183
2615.000000	100.784020
2614.000000	100.783075
2613.000000	100.782418
2612.000000	100.781941
2611.000000	100.781571
2610.000000	100.781331
2609.000000	100.781302
2608.000000	100.781520
2607.000000	100.781828
2606.000000	100.781845
2605.000000	100.781306
2604.000000	100.780390
2603.000000	100.779552
2602.000000	100.778966
2601.000000	100.778294
2600.000000	100.777166
2599.000000	100.775676
2598.000000	100.774268
2597.000000	100.773260
2596.000000	100.772637
2595.000000	100.772215
2594.000000	100.771919
2593.000000	100.771866
2592.000000	100.772145
2591.000000	100.772572
2590.000000	100.772737
2589.000000	100.772365
2588.000000	100.771585
2587.000000	100.770833
2586.000000	100.770469
2585.000000	100.770523
2584.000000	100.770774
2583.000000	100.770927
2582.000000	100.770685
2581.000000	100.769807
2580.000000	100.768273
2579.000000	100.766472
2578.000000	100.765050
2577.000000	100.764368
2576.000000	100.764251
2575.000000	100.764218
2574.000000	100.763982
2573.000000	100.763648
2572.000000	100.763436
2571.000000	100.763428
2570.000000	100.763613
2569.000000	100.763972
2568.000000	100.764352
2567.000000	100.764367
2566.000000	100.763724
2565.000000	100.762613
2564.000000	100.761608
2563.000000	100.761097
2562.000000	100.760936
2561.000000	100.760724
2560.000000	100.760273
2559.000000	100.759743
2558.000000	100.759411
2557.000000	100.759442
2556.000000	100.759856
2555.000000	100.760550
2554.000000	100.761281
2553.000000	100.761736
2552.000000	100.761710
2551.000000	100.761237
2550.000000	100.760567
2549.000000	100.759966
2548.000000	100.759533
2547.000000	100.759228
2546.000000	100.759018
2545.000000	100.758933
2544.000000	100.758938
2543.000000	100.758883
2542.000000	100.758701
2541.000000	100.758592
2540.000000	100.758812
2539.000000	100.759315
2538.000000	100.759786
2537.000000	100.760016
2536.000000	100.760109
2535.000000	100.760237
2534.000000	100.760390
2533.000000	100.760465
2532.000000	100.760494
2531.000000	100.760634
2530.000000	100.760954
2529.000000	100.761333
2528.000000	100.761584
2527.000000	100.761637
2526.000000	100.761606
2525.000000	100.761718
2524.000000	100.762109
2523.000000	100.762727
2522.000000	100.763382
2521.000000	100.763937
2520.000000	100.764394
2519.000000	100.764778
2518.000000	100.765045
2517.000000	100.765181
2516.000000	100.765288
2515.000000	100.765494
2514.000000	100.765791
2513.000000	100.766068
2512.000000	100.766246
2511.000000	100.766362
2510.000000	100.766526
2509.000000	100.766826
2508.000000	100.767270
2507.000000	100.767793
2506.000000	100.768276
2505.000000	100.768648
2504.000000	100.768935
2503.000000	100.769222
2502.000000	100.769543
2501.000000	100.769852
2500.000000	100.770109
2499.000000	100.770324
2498.000000	100.770519
2497.000000	100.770703
2496.000000	100.770896
2495.000000	100.771137
2494.000000	100.771427
2493.000000	100.771704
2492.000000	100.771927
2491.000000	100.772127
2490.000000	100.772368
2489.000000	100.772697
2488.000000	100.773156
2487.000000	100.773747
2486.000000	100.774339
2485.000000	100.774720
2484.000000	100.774834
2483.000000	100.774884
2482.000000	100.775112
2481.000000	100.775526
2480.000000	100.775947
2479.000000	100.776214
2478.000000	100.776275
2477.000000	100.776162
2476.000000	100.775973
2475.000000	100.775868
2474.000000	100.775965
2473.000000	100.776252
2472.000000	100.776607
2471.000000	100.776896
2470.000000	100.777051
2469.000000	100.777136
2468.000000	100.777333
2467.000000	100.777785
2466.000000	100.778411
2465.000000	100.778966
2464.000000	100.779351
2463.000000	100.779709
2462.000000	100.780130
2461.000000	100.780445
2460.000000	100.780446
2459.000000	100.780191
2458.000000	100.779985
2457.000000	100.780056
2456.000000	100.780375
2455.000000	100.780780
2454.000000	100.781189
2453.000000	100.781667
2452.000000	100.782326
2451.000000	100.783165
2450.000000	100.783978
2449.000000	100.784495
2448.000000	100.784649
2447.000000	100.784658
2446.000000	100.784781
2445.000000	100.785024
2444.000000	100.785174
2443.000000	100.785089
2442.000000	100.784880
2441.000000	100.784836
2440.000000	100.785185
2439.000000	100.785923
2438.000000	100.786801
2437.000000	100.787504
2436.000000	100.787892
2435.000000	100.788018
2434.000000	100.787982
2433.000000	100.787845
2432.000000	100.787713
2431.000000	100.787743
2430.000000	100.787973
2429.000000	100.788248
2428.000000	100.788462
2427.000000	100.788789
2426.000000	100.789485
2425.000000	100.790443
2424.000000	100.791127
2423.000000	100.791137
2422.000000	100.790556
2421.000000	100.789764
2420.000000	100.789041
2419.000000	100.788455
2418.000000	100.788091
2417.000000	100.788141
2416.000000	100.788697
2415.000000	100.789579
2414.000000	100.790426
2413.000000	100.790960
2412.000000	100.791131
2411.000000	100.791055
2410.000000	100.790916
2409.000000	100.790878
2408.000000	100.791035
2407.000000	100.791380
2406.000000	100.791802
2405.000000	100.792139
2404.000000	100.792302
2403.000000	100.792354
2402.000000	100.792477
2401.000000	100.792831
2400.000000	100.793414
2399.000000	100.794024
2398.000000	100.794427
2397.000000	100.794599
2396.000000	100.794770
2395.000000	100.795142
2394.000000	100.795619
2393.000000	100.795925
2392.000000	100.795963
2391.000000	100.795950
2390.000000	100.796145
2389.000000	100.796566
2388.000000	100.797095
2387.000000	100.797754
2386.000000	100.798720
2385.000000	100.800031
2384.000000	100.801427
2383.000000	100.802532
2382.000000	100.803163
2381.000000	100.803401
2380.000000	100.803470
2379.000000	100.803616
2378.000000	100.804013
2377.000000	100.804730
2376.000000	100.805714
2375.000000	100.806788
2374.000000	100.807728
2373.000000	100.808404
2372.000000	100.808832
2371.000000	100.809135
2370.000000	100.809446
2369.000000	100.809829
2368.000000	100.810252
2367.000000	100.810625
2366.000000	100.810907
2365.000000	100.811182
2364.000000	100.811628
2363.000000	100.812416
2362.000000	100.813513
2361.000000	100.814728
2360.000000	100.815889
2359.000000	100.816765
2358.000000	100.817180
2357.000000	100.817115
2356.000000	100.816823
2355.000000	100.816711
2354.000000	100.816918
2353.000000	100.817336
2352.000000	100.817677
2351.000000	100.817823
2350.000000	100.817943
2349.000000	100.818210
2348.000000	100.818684
2347.000000	100.819100
2346.000000	100.819152
2345.000000	100.818757
2344.000000	100.818146
2343.000000	100.817731
2342.000000	100.817572
2341.000000	100.817598
2340.000000	100.817749
2339.000000	100.818028
2338.000000	100.818252
2337.000000	100.818139
2336.000000	100.817593
2335.000000	100.816822
2334.000000	100.816069
2333.000000	100.815473
2332.000000	100.815035
2331.000000	100.814682
2330.000000	100.814293
2329.000000	100.813710
2328.000000	100.813086
2327.000000	100.812533
2326.000000	100.812065
2325.000000	100.811523
2324.000000	100.810860
2323.000000	100.810207
2322.000000	100.809550
2321.000000	100.808780
2320.000000	100.807816
2319.000000	100.806813
2318.000000	100.805922
2317.000000	100.805131
2316.000000	100.804337
2315.000000	100.803520
2314.000000	100.802773
2313.000000	100.802147
2312.000000	100.801608
2311.000000	100.801029
2310.000000	100.800347
2309.000000	100.799591
2308.000000	100.798856
2307.000000	100.798179
2306.000000	100.797510
2305.000000	100.796765
2304.000000	100.795949
2303.000000	100.795131
2302.000000	100.794357
2301.000000	100.793596
2300.000000	100.792798
2299.000000	100.791960
2298.000000	100.791128
2297.000000	100.790335
2296.000000	100.789582
2295.000000	100.788843
2294.000000	100.788094
2293.000000	100.787326
2292.000000	100.786544
2291.000000	100.785770
2290.000000	100.785028
2289.000000	100.784316
2288.000000	100.783600
2287.000000	100.782846
2286.000000	100.782045
2285.000000	100.781235
2284.000000	100.780474
2283.000000	100.779795
2282.000000	100.779167
2281.000000	100.778510
2280.000000	100.777768
2279.000000	100.776977
2278.000000	100.776258
2277.000000	100.775701
2276.000000	100.775276
2275.000000	100.774864
2274.000000	100.774371
2273.000000	100.773769
2272.000000	100.773060
2271.000000	100.772249
2270.000000	100.771358
2269.000000	100.770451
2268.000000	100.769606
2267.000000	100.768881
2266.000000	100.768289
2265.000000	100.767779
2264.000000	100.767258
2263.000000	100.766612
2262.000000	100.765751
2261.000000	100.764689
2260.000000	100.763570
2259.000000	100.762582
2258.000000	100.761807
2257.000000	100.761231
2256.000000	100.760871
2255.000000	100.760787
2254.000000	100.760895
2253.000000	100.760900
2252.000000	100.760532
2251.000000	100.759762
2250.000000	100.758791
2249.000000	100.757890
2248.000000	100.757252
2247.000000	100.756967
2246.000000	100.756986
2245.000000	100.757083
2244.000000	100.756954
2243.000000	100.756430
2242.000000	100.755548
2241.000000	100.754494
2240.000000	100.753517
2239.000000	100.752833
2238.000000	100.752546
2237.000000	100.752590
2236.000000	100.752806
2235.000000	100.753090
2234.000000	100.753393
2233.000000	100.753615
2232.000000	100.753614
2231.000000	100.753334
2230.000000	100.752867
2229.000000	100.752366
2228.000000	100.751953
2227.000000	100.751692
2226.000000	100.751583
2225.000000	100.751535
2224.000000	100.751405
2223.000000	100.751127
2222.000000	100.750794
2221.000000	100.750581
2220.000000	100.750564
2219.000000	100.750655
2218.000000	100.750706
2217.000000	100.750667
2216.000000	100.750610
2215.000000	100.750606
2214.000000	100.750625
2213.000000	100.750585
2212.000000	100.750451
2211.000000	100.750283
2210.000000	100.750169
2209.000000	100.750135
2208.000000	100.750142
2207.000000	100.750161
2206.000000	100.750202
2205.000000	100.750269
2204.000000	100.750339
2203.000000	100.750388
2202.000000	100.750410
2201.000000	100.750423
2200.000000	100.750438
2199.000000	100.750455
2198.000000	100.750473
2197.000000	100.750488
2196.000000	100.750496
2195.000000	100.750495
2194.000000	100.750486
2193.000000	100.750477
2192.000000	100.750468
2191.000000	100.750459
2190.000000	100.750450
2189.000000	100.750443
2188.000000	100.750442
2187.000000	100.750452
2186.000000	100.750473
2185.000000	100.750505
2184.000000	100.750549
2183.000000	100.750604
2182.000000	100.750672
2181.000000	100.750749
2180.000000	100.750827
2179.000000	100.750898
2178.000000	100.750959
2177.000000	100.751016
2176.000000	100.751077
2175.000000	100.751146
2174.000000	100.751221
2173.000000	100.751299
2172.000000	100.751377
2171.000000	100.751456
2170.000000	100.751540
2169.000000	100.751634
2168.000000	100.751742
2167.000000	100.751863
2166.000000	100.751994
2165.000000	100.752130
2164.000000	100.752267
2163.000000	100.752404
2162.000000	100.752543
2161.000000	100.752680
2160.000000	100.752823
2159.000000	100.752993
2158.000000	100.753207
2157.000000	100.753443
2156.000000	100.753655
2155.000000	100.753827
2154.000000	100.754003
2153.000000	100.754247
2152.000000	100.754587
2151.000000	100.754980
2150.000000	100.755321
2149.000000	100.755515
2148.000000	100.755584
2147.000000	100.755711
2146.000000	100.756096
2145.000000	100.756810
2144.000000	100.757751
2143.000000	100.758722
2142.000000	100.759503
2141.000000	100.759893
2140.000000	100.759810
2139.000000	100.759407
2138.000000	100.759004
2137.000000	100.758844
2136.000000	100.758955
2135.000000	100.759221
2134.000000	100.759497
2133.000000	100.759666
2132.000000	100.759695
2131.000000	100.759755
2130.000000	100.760201
2129.000000	100.761297
2128.000000	100.762944
2127.000000	100.764739
2126.000000	100.766258
2125.000000	100.767248
2124.000000	100.767651
2123.000000	100.767600
2122.000000	100.767403
2121.000000	100.767410
2120.000000	100.767781
2119.000000	100.768404
2118.000000	100.769060
2117.000000	100.769611
2116.000000	100.770031
2115.000000	100.770383
2114.000000	100.770859
2113.000000	100.771718
2112.000000	100.772976
2111.000000	100.774174
2110.000000	100.774713
2109.000000	100.774474
2108.000000	100.773913
2107.000000	100.773509
2106.000000	100.773271
2105.000000	100.772996
2104.000000	100.772799
2103.000000	100.773088
2102.000000	100.774045
2101.000000	100.775413
2100.000000	100.776775
2099.000000	100.777869
2098.000000	100.778626
2097.000000	100.779147
2096.000000	100.779647
2095.000000	100.780263
2094.000000	100.780892
2093.000000	100.781339
2092.000000	100.781593
2091.000000	100.781801
2090.000000	100.782002
2089.000000	100.782096
2088.000000	100.782113
2087.000000	100.782323
2086.000000	100.782959
2085.000000	100.783941
2084.000000	100.784919
2083.000000	100.785571
2082.000000	100.785819
2081.000000	100.785793
2080.000000	100.785719
2079.000000	100.785780
2078.000000	100.785989
2077.000000	100.786233
2076.000000	100.786446
2075.000000	100.786697
2074.000000	100.787036
2073.000000	100.787382
2072.000000	100.787667
2071.000000	100.788019
2070.000000	100.788614
2069.000000	100.789397
2068.000000	100.790076
2067.000000	100.790448
2066.000000	100.790569
2065.000000	100.790599
2064.000000	100.790594
2063.000000	100.790544
2062.000000	100.790494
2061.000000	100.790537
2060.000000	100.790748
2059.000000	100.791170
2058.000000	100.791794
2057.000000	100.792476
2056.000000	100.792950
2055.000000	100.793064
2054.000000	100.792953
2053.000000	100.792904
2052.000000	100.793010
2051.000000	100.793117
2050.000000	100.793098
2049.000000	100.793018
2048.000000	100.792963
2047.000000	100.792880
2046.000000	100.792711
2045.000000	100.792571
2044.000000	100.792620
2043.000000	100.792814
2042.000000	100.792948
2041.000000	100.792967
2040.000000	100.793037
2039.000000	100.793260
2038.000000	100.793466
2037.000000	100.793421
2036.000000	100.793116
2035.000000	100.792750
2034.000000	100.792475
2033.000000	100.792304
2032.000000	100.792228
2031.000000	100.792252
2030.000000	100.792336
2029.000000	100.792395
2028.000000	100.792386
2027.000000	100.792264
2026.000000	100.791898
2025.000000	100.791180
2024.000000	100.790255
2023.000000	100.789526
2022.000000	100.789255
2021.000000	100.789360
2020.000000	100.789575
2019.000000	100.789759
2018.000000	100.789917
2017.000000	100.789982
2016.000000	100.789810
2015.000000	100.789421
2014.000000	100.789012
2013.000000	100.788692
2012.000000	100.788395
2011.000000	100.788079
2010.000000	100.787789
2009.000000	100.787446
2008.000000	100.786827
2007.000000	100.785889
2006.000000	100.784988
2005.000000	100.784530
2004.000000	100.784496
2003.000000	100.784453
2002.000000	100.784051
2001.000000	100.783379
2000.000000	100.782797
1999.000000	100.782573
1998.000000	100.782690
1997.000000	100.782874
1996.000000	100.782817
1995.000000	100.782474
1994.000000	100.782128
1993.000000	100.782068
1992.000000	100.782222
1991.000000	100.782231
1990.000000	100.781909
1989.000000	100.781399
1988.000000	100.780893
1987.000000	100.780428
1986.000000	100.780019
1985.000000	100.779764
1984.000000	100.779698
1983.000000	100.779676
1982.000000	100.779587
1981.000000	100.779569
1980.000000	100.779823
1979.000000	100.780243
1978.000000	100.780422
1977.000000	100.780077
1976.000000	100.779299
1975.000000	100.778423
1974.000000	100.777704
1973.000000	100.777161
1972.000000	100.776678
1971.000000	100.776151
1970.000000	100.775602
1969.000000	100.775151
1968.000000	100.774877
1967.000000	100.774708
1966.000000	100.774480
1965.000000	100.774120
1964.000000	100.773689
1963.000000	100.773253
1962.000000	100.772812
1961.000000	100.772364
1960.000000	100.771956
1959.000000	100.771631
1958.000000	100.771353
1957.000000	100.771027
1956.000000	100.770572
1955.000000	100.769976
1954.000000	100.769284
1953.000000	100.768592
1952.000000	100.767994
1951.000000	100.767513
1950.000000	100.767078
1949.000000	100.766577
1948.000000	100.765952
1947.000000	100.765228
1946.000000	100.764476
1945.000000	100.763782
1944.000000	100.763217
1943.000000	100.762787
1942.000000	100.762369
1941.000000	100.761795
1940.000000	100.761032
1939.000000	100.760189
1938.000000	100.759366
1937.000000	100.758535
1936.000000	100.757646
1935.000000	100.756740
1934.000000	100.755910
1933.000000	100.755178
1932.000000	100.754468
1931.000000	100.753692
1930.000000	100.752819
1929.000000	100.751840
1928.000000	100.750737
1927.000000	100.749534
1926.000000	100.748381
1925.000000	100.747505
1924.000000	100.747050
1923.000000	100.746953
1922.000000	100.746919
1921.000000	100.746615
1920.000000	100.745864
1919.000000	100.744664
1918.000000	100.743184
1917.000000	100.741697
1916.000000	100.740395
1915.000000	100.739296
1914.000000	100.738294
1913.000000	100.737303
1912.000000	100.736393
1911.000000	100.735728
1910.000000	100.735302
1909.000000	100.734712
1908.000000	100.733441
1907.000000	100.731496
1906.000000	100.729593
1905.000000	100.728537
1904.000000	100.728381
1903.000000	100.728335
1902.000000	100.727657
1901.000000	100.726393
1900.000000	100.725112
1899.000000	100.724127
1898.000000	100.723227
1897.000000	100.722156
1896.000000	100.721034
1895.000000	100.720077
1894.000000	100.719114
1893.000000	100.717589
1892.000000	100.715062
1891.000000	100.711638
1890.000000	100.708032
1889.000000	100.705120
1888.000000	100.703314
1887.000000	100.702540
1886.000000	100.702617
1885.000000	100.703324
1884.000000	100.704291
1883.000000	100.705150
1882.000000	100.705898
1881.000000	100.706759
1880.000000	100.707514
1879.000000	100.707305
1878.000000	100.705364
1877.000000	100.701975
1876.000000	100.698445
1875.000000	100.695858
1874.000000	100.694213
1873.000000	100.692952
1872.000000	100.691845
1871.000000	100.691048
1870.000000	100.690577
1869.000000	100.690230
1868.000000	100.690086
1867.000000	100.690714
1866.000000	100.692462
1865.000000	100.694821
1864.000000	100.697040
1863.000000	100.699105
1862.000000	100.701506
1861.000000	100.704149
1860.000000	100.706129
1859.000000	100.706781
1858.000000	100.706466
1857.000000	100.706058
1856.000000	100.706150
1855.000000	100.707106
1854.000000	100.709305
1853.000000	100.712582
1852.000000	100.715620
1851.000000	100.716944
1850.000000	100.716444
1849.000000	100.715469
1848.000000	100.715251
1847.000000	100.715518
1846.000000	100.715126
1845.000000	100.713759
1844.000000	100.712653
1843.000000	100.713028
1842.000000	100.714616
1841.000000	100.716587
1840.000000	100.718658
1839.000000	100.720852
1838.000000	100.722757
1837.000000	100.723665
1836.000000	100.723496
1835.000000	100.723034
1834.000000	100.723047
1833.000000	100.723541
1832.000000	100.724142
1831.000000	100.724731
1830.000000	100.725284
1829.000000	100.725546
1828.000000	100.725443
1827.000000	100.725236
1826.000000	100.725059
1825.000000	100.724769
1824.000000	100.724280
1823.000000	100.723824
1822.000000	100.723692
1821.000000	100.723844
1820.000000	100.724048
1819.000000	100.724244
1818.000000	100.724493
1817.000000	100.724724
1816.000000	100.724715
1815.000000	100.724424
1814.000000	100.724131
1813.000000	100.723962
1812.000000	100.723557
1811.000000	100.722396
1810.000000	100.720735
1809.000000	100.719939
1808.000000	100.721120
1807.000000	100.723757
1806.000000	100.726068
1805.000000	100.726845
1804.000000	100.726590
1803.000000	100.726634
1802.000000	100.727437
1801.000000	100.727973
1800.000000	100.727172
1799.000000	100.725623
1798.000000	100.725124
1797.000000	100.726704
1796.000000	100.729595
1795.000000	100.732093
1794.000000	100.733026
1793.000000	100.732391
1792.000000	100.731277
1791.000000	100.730682
1790.000000	100.730578
1789.000000	100.730566
1788.000000	100.730616
1787.000000	100.731166
1786.000000	100.732696
1785.000000	100.735072
1784.000000	100.737394
1783.000000	100.739024
1782.000000	100.740373
1781.000000	100.742037
1780.000000	100.744040
1779.000000	100.746124
1778.000000	100.748315
1777.000000	100.750605
1776.000000	100.752259
1775.000000	100.752603
1774.000000	100.752303
1773.000000	100.753523
1772.000000	100.757939
1771.000000	100.764415
1770.000000	100.770421
1769.000000	100.774636
1768.000000	100.777053
1767.000000	100.778152
1766.000000	100.778467
1765.000000	100.778592
1764.000000	100.779404
1763.000000	100.782148
1762.000000	100.787517
1761.000000	100.793971
1760.000000	100.798764
1759.000000	100.800432
1758.000000	100.799154
1757.000000	100.795796
1756.000000	100.791275
1755.000000	100.786633
1754.000000	100.783089
1753.000000	100.781791
1752.000000	100.783319
1751.000000	100.786539
1750.000000	100.788418
1749.000000	100.786945
1748.000000	100.782953
1747.000000	100.778500
1746.000000	100.774966
1745.000000	100.772761
1744.000000	100.772024
1743.000000	100.772381
1742.000000	100.772651
1741.000000	100.771997
1740.000000	100.771089
1739.000000	100.771132
1738.000000	100.771784
1737.000000	100.771468
1736.000000	100.769215
1735.000000	100.765954
1734.000000	100.764752
1733.000000	100.766747
1732.000000	100.769651
1731.000000	100.771665
1730.000000	100.772497
1729.000000	100.772091
1728.000000	100.770419
1727.000000	100.767791
1726.000000	100.764952
1725.000000	100.762786
1724.000000	100.761890
1723.000000	100.761964
1722.000000	100.761936
1721.000000	100.760956
1720.000000	100.758970
1719.000000	100.756517
1718.000000	100.754325
1717.000000	100.752779
1716.000000	100.751676
1715.000000	100.750622
1714.000000	100.749374
1713.000000	100.747864
1712.000000	100.746170
1711.000000	100.744470
1710.000000	100.742914
1709.000000	100.741492
1708.000000	100.740110
1707.000000	100.738831
1706.000000	100.737876
1705.000000	100.737286
1704.000000	100.736739
1703.000000	100.735880
1702.000000	100.734453
1701.000000	100.732219
1700.000000	100.729425
1699.000000	100.726717
1698.000000	100.724593
1697.000000	100.723501
1696.000000	100.723722
1695.000000	100.724508
1694.000000	100.724728
1693.000000	100.724166
1692.000000	100.723217
1691.000000	100.722208
1690.000000	100.721269
1689.000000	100.720371
1688.000000	100.719370
1687.000000	100.718204
1686.000000	100.716835
1685.000000	100.715422
1684.000000	100.714389
1683.000000	100.713688
1682.000000	100.713176
1681.000000	100.712883
1680.000000	100.712697
1679.000000	100.712515
1678.000000	100.712277
1677.000000	100.711892
1676.000000	100.711174
1675.000000	100.710136
1674.000000	100.709169
1673.000000	100.708695
1672.000000	100.708884
1671.000000	100.709586
1670.000000	100.710289
1669.000000	100.710456
1668.000000	100.710159
1667.000000	100.709892
1666.000000	100.709902
1665.000000	100.710175
1664.000000	100.710690
1663.000000	100.711319
1662.000000	100.711771
1661.000000	100.711917
1660.000000	100.711992
1659.000000	100.712310
1658.000000	100.712936
1657.000000	100.713748
1656.000000	100.714633
1655.000000	100.715532
1654.000000	100.716139
1653.000000	100.716008
1652.000000	100.715486
1651.000000	100.715421
1650.000000	100.715813
1649.000000	100.716331
1648.000000	100.716795
1647.000000	100.717315
1646.000000	100.718135
1645.000000	100.719180
1644.000000	100.720187
1643.000000	100.721040
1642.000000	100.721807
1641.000000	100.722561
1640.000000	100.723325
1639.000000	100.724129
1638.000000	100.725010
1637.000000	100.725960
1636.000000	100.726884
1635.000000	100.727694
1634.000000	100.728443
1633.000000	100.729215
1632.000000	100.730030
1631.000000	100.730914
1630.000000	100.731893
1629.000000	100.732927
1628.000000	100.733888
1627.000000	100.734681
1626.000000	100.735340
1625.000000	100.736005
1624.000000	100.736800
1623.000000	100.737756
1622.000000	100.738778
1621.000000	100.739732
1620.000000	100.740568
1619.000000	100.741323
1618.000000	100.742067
1617.000000	100.742863
1616.000000	100.743740
1615.000000	100.744724
1614.000000	100.745842
1613.000000	100.747052
1612.000000	100.748205
1611.000000	100.749129
1610.000000	100.749774
1609.000000	100.750270
1608.000000	100.750840
1607.000000	100.751672
1606.000000	100.752810
1605.000000	100.754133
1604.000000	100.755464
1603.000000	100.756781
1602.000000	100.758215
1601.000000	100.759761
1600.000000	100.761140
1599.000000	100.762055
1598.000000	100.762517
1597.000000	100.762899
1596.000000	100.763632
1595.000000	100.764833
1594.000000	100.766248
1593.000000	100.767492
1592.000000	100.768422
1591.000000	100.769269
1590.000000	100.770422
1589.000000	100.772029
1588.000000	100.773765
1587.000000	100.775097
1586.000000	100.775830
1585.000000	100.776332
1584.000000	100.777088
1583.000000	100.778143
1582.000000	100.779092
1581.000000	100.779645
1580.000000	100.780084
1579.000000	100.781011
1578.000000	100.782606
1577.000000	100.784122
1576.000000	100.784582
1575.000000	100.784275
1574.000000	100.784275
1573.000000	100.784650
1572.000000	100.784717
1571.000000	100.784238
1570.000000	100.784137
1569.000000	100.785448
1568.000000	100.787618
1567.000000	100.789355
1566.000000	100.790158
1565.000000	100.790359
1564.000000	100.790336
1563.000000	100.789843
1562.000000	100.788196
1561.000000	100.784837
1560.000000	100.780690
1559.000000	100.779446
1558.000000	100.780949
1557.000000	100.781925
1556.000000	100.781831
1555.000000	100.781073
1554.000000	100.780075
1553.000000	100.779055
1552.000000	100.778332
1551.000000	100.778467
1550.000000	100.779442
1549.000000	100.780392
1548.000000	100.780334
1547.000000	100.778912
1546.000000	100.776220
1545.000000	100.773055
1544.000000	100.771093
1543.000000	100.771861
1542.000000	100.775490
1541.000000	100.780132
1540.000000	100.782117
1539.000000	100.779744
1538.000000	100.775445
1537.000000	100.771063
1536.000000	100.766375
1535.000000	100.761103
1534.000000	100.755716
1533.000000	100.751163
1532.000000	100.747665
1531.000000	100.744827
1530.000000	100.742356
1529.000000	100.740207
1528.000000	100.738187
1527.000000	100.735719
1526.000000	100.732438
1525.000000	100.728805
1524.000000	100.725792
1523.000000	100.723933
1522.000000	100.722959
1521.000000	100.722021
1520.000000	100.720326
1519.000000	100.718003
1518.000000	100.715653
1517.000000	100.713847
1516.000000	100.713001
1515.000000	100.712935
1514.000000	100.713001
1513.000000	100.712670
1512.000000	100.712396
1511.000000	100.713451
1510.000000	100.716530
1509.000000	100.720870
1508.000000	100.724462
1507.000000	100.724637
1506.000000	100.720488
1505.000000	100.715314
1504.000000	100.711923
1503.000000	100.710255
1502.000000	100.709986
1501.000000	100.710638
1500.000000	100.711272
1499.000000	100.711028
1498.000000	100.709854
1497.000000	100.708533
1496.000000	100.707896
1495.000000	100.707942
1494.000000	100.708180
1493.000000	100.708284
1492.000000	100.708132
1491.000000	100.707748
1490.000000	100.707286
1489.000000	100.706820
1488.000000	100.706382
1487.000000	100.706023
1486.000000	100.705761
1485.000000	100.705544
1484.000000	100.705338
1483.000000	100.705395
1482.000000	100.706036
1481.000000	100.707177
1480.000000	100.708247
1479.000000	100.708730
1478.000000	100.708561
1477.000000	100.708021
1476.000000	100.707466
1475.000000	100.707064
1474.000000	100.706869
1473.000000	100.707023
1472.000000	100.707564
1471.000000	100.708199
1470.000000	100.708601
1469.000000	100.708681
1468.000000	100.708539
1467.000000	100.708356
1466.000000	100.708275
1465.000000	100.708278
1464.000000	100.708286
1463.000000	100.708422
1462.000000	100.708769
1461.000000	100.709081
1460.000000	100.709036
1459.000000	100.708640
1458.000000	100.708365
1457.000000	100.708553
1456.000000	100.708592
1455.000000	100.708069
1454.000000	100.707462
1453.000000	100.707118
1452.000000	100.706712
1451.000000	100.705668
1450.000000	100.704045
1449.000000	100.702744
1448.000000	100.702529
1447.000000	100.702939
1446.000000	100.702977
1445.000000	100.702461
1444.000000	100.702084
1443.000000	100.702316
1442.000000	100.702588
1441.000000	100.701883
1440.000000	100.699896
1439.000000	100.697370
1438.000000	100.695405
1437.000000	100.694934
1436.000000	100.695923
1435.000000	100.697114
1434.000000	100.697460
1433.000000	100.696816
1432.000000	100.695530
1431.000000	100.694414
1430.000000	100.694350
1429.000000	100.695603
1428.000000	100.697624
1427.000000	100.699346
1426.000000	100.699859
1425.000000	100.698937
1424.000000	100.697464
1423.000000	100.696822
1422.000000	100.697427
1421.000000	100.698680
1420.000000	100.700088
1419.000000	100.701779
1418.000000	100.703391
1417.000000	100.704147
1416.000000	100.704180
1415.000000	100.704197
1414.000000	100.704504
1413.000000	100.704827
1412.000000	100.705016
1411.000000	100.705625
1410.000000	100.707315
1409.000000	100.710153
1408.000000	100.713760
1407.000000	100.717605
1406.000000	100.720981
1405.000000	100.723016
1404.000000	100.723427
1403.000000	100.723106
1402.000000	100.723241
1401.000000	100.724136
1400.000000	100.725225
1399.000000	100.725921
1398.000000	100.726328
1397.000000	100.727247
1396.000000	100.729568
1395.000000	100.733386
1394.000000	100.737374
1393.000000	100.739875
1392.000000	100.740772
1391.000000	100.741188
1390.000000	100.741956
1389.000000	100.743064
1388.000000	100.744396
1387.000000	100.746264
1386.000000	100.748533
1385.000000	100.750306
1384.000000	100.751196
1383.000000	100.752025
1382.000000	100.753599
1381.000000	100.755274
1380.000000	100.755607
1379.000000	100.754457
1378.000000	100.753382
1377.000000	100.753791
1376.000000	100.755770
1375.000000	100.758974
1374.000000	100.763447
1373.000000	100.769053
1372.000000	100.775242
1371.000000	100.781480
1370.000000	100.787047
1369.000000	100.790520
1368.000000	100.790916
1367.000000	100.789486
1366.000000	100.788898
1365.000000	100.790368
1364.000000	100.792661
1363.000000	100.794029
1362.000000	100.794156
1361.000000	100.793661
1360.000000	100.792849
1359.000000	100.792072
1358.000000	100.792260
1357.000000	100.793782
1356.000000	100.795404
1355.000000	100.795414
1354.000000	100.793434
1353.000000	100.790500
1352.000000	100.787892
1351.000000	100.786505
1350.000000	100.786835
1349.000000	100.788283
1348.000000	100.789246
1347.000000	100.788858
1346.000000	100.787943
1345.000000	100.787551
1344.000000	100.787386
1343.000000	100.786635
1342.000000	100.785548
1341.000000	100.785079
1340.000000	100.785449
1339.000000	100.786254
1338.000000	100.787688
1337.000000	100.790209
1336.000000	100.793019
1335.000000	100.794345
1334.000000	100.793429
1333.000000	100.791333
1332.000000	100.789702
1331.000000	100.789361
1330.000000	100.790229
1329.000000	100.791771
1328.000000	100.793246
1327.000000	100.794101
1326.000000	100.794490
1325.000000	100.794948
1324.000000	100.795501
1323.000000	100.795502
1322.000000	100.794556
1321.000000	100.793212
1320.000000	100.792440
1319.000000	100.792637
1318.000000	100.793292
1317.000000	100.793580
1316.000000	100.793122
1315.000000	100.792230
1314.000000	100.791616
1313.000000	100.791796
1312.000000	100.792662
1311.000000	100.793590
1310.000000	100.793955
1309.000000	100.793514
1308.000000	100.792439
1307.000000	100.791242
1306.000000	100.790626
1305.000000	100.791062
1304.000000	100.792365
1303.000000	100.793729
1302.000000	100.794398
1301.000000	100.794269
1300.000000	100.793745
1299.000000	100.793186
1298.000000	100.792737
1297.000000	100.792640
1296.000000	100.793232
1295.000000	100.794346
1294.000000	100.795045
1293.000000	100.794491
1292.000000	100.792940
1291.000000	100.791596
1290.000000	100.791328
1289.000000	100.791914
1288.000000	100.792538
1287.000000	100.792580
1286.000000	100.791790
1285.000000	100.790193
1284.000000	100.788258
1283.000000	100.786819
1282.000000	100.786360
1281.000000	100.786587
1280.000000	100.786988
1279.000000	100.787503
1278.000000	100.788128
1277.000000	100.788354
1276.000000	100.787852
1275.000000	100.787472
1274.000000	100.788484
1273.000000	100.790746
1272.000000	100.792532
1271.000000	100.792361
1270.000000	100.790284
1269.000000	100.787408
1268.000000	100.785118
1267.000000	100.784671
1266.000000	100.786194
1265.000000	100.787986
1264.000000	100.788359
1263.000000	100.788373
1262.000000	100.790939
1261.000000	100.796467
1260.000000	100.801247
1259.000000	100.801531
1258.000000	100.797728
1257.000000	100.793160
1256.000000	100.789826
1255.000000	100.787084
1254.000000	100.783890
1253.000000	100.780582
1252.000000	100.778332
1251.000000	100.777876
1250.000000	100.778909
1249.000000	100.780090
1248.000000	100.779807
1247.000000	100.777544
1246.000000	100.774385
1245.000000	100.771838
1244.000000	100.770551
1243.000000	100.770466
1242.000000	100.771445
1241.000000	100.772943
1240.000000	100.773607
1239.000000	100.772112
1238.000000	100.768273
1237.000000	100.762830
1236.000000	100.756706
1235.000000	100.751092
1234.000000	100.747335
1233.000000	100.745536
1232.000000	100.743818
1231.000000	100.740287
1230.000000	100.735330
1229.000000	100.730449
1228.000000	100.725151
1227.000000	100.717275
1226.000000	100.707039
1225.000000	100.698377
1224.000000	100.694182
1223.000000	100.691511
1222.000000	100.684229
1221.000000	100.670219
1220.000000	100.653594
1219.000000	100.639280
1218.000000	100.627459
1217.000000	100.615026
1216.000000	100.600868
1215.000000	100.587151
1214.000000	100.575802
1213.000000	100.565955
1212.000000	100.555176
1211.000000	100.541236
1210.000000	100.522356
1209.000000	100.497968
1208.000000	100.470491
1207.000000	100.444713
1206.000000	100.423595
1205.000000	100.405668
1204.000000	100.387938
1203.000000	100.369873
1202.000000	100.352506
1201.000000	100.334660
1200.000000	100.312967
1199.000000	100.286324
1198.000000	100.258389
1197.000000	100.234431
1196.000000	100.216535
1195.000000	100.202557
1194.000000	100.188689
1193.000000	100.171903
1192.000000	100.150487
1191.000000	100.123976
1190.000000	100.093635
1189.000000	100.062420
1188.000000	100.033277
1187.000000	100.007110
1186.000000	99.982885
1185.000000	99.959698
1184.000000	99.937557
1183.000000	99.915537
1182.000000	99.890750
1181.000000	99.861002
1180.000000	99.827807
1179.000000	99.794867
1178.000000	99.763797
1177.000000	99.733312
1176.000000	99.702628
1175.000000	99.673282
1174.000000	99.646743
1173.000000	99.622089
1172.000000	99.597133
1171.000000	99.570581
1170.000000	99.542407
1169.000000	99.513389
1168.000000	99.484862
1167.000000	99.457876
1166.000000	99.432586
1165.000000	99.410105
1164.000000	99.394693
1163.000000	99.391347
1162.000000	99.400175
1161.000000	99.414957
1160.000000	99.428160
1159.000000	99.435981
1158.000000	99.438159
1157.000000	99.435425
1156.000000	99.428429
1155.000000	99.417229
1154.000000	99.400530
1153.000000	99.377028
1152.000000	99.348539
1151.000000	99.319992
1150.000000	99.294768
1149.000000	99.271487
1148.000000	99.246916
1147.000000	99.220598
1146.000000	99.195042
1145.000000	99.172505
1144.000000	99.153158
1143.000000	99.135676
1142.000000	99.118234
1141.000000	99.099253
1140.000000	99.077691
1139.000000	99.052342
1138.000000	99.021489
1137.000000	98.984945
1136.000000	98.946412
1135.000000	98.911703
1134.000000	98.883652
1133.000000	98.860108
1132.000000	98.836928
1131.000000	98.810896
1130.000000	98.779984
1129.000000	98.743941
1128.000000	98.705745
1127.000000	98.670100
1126.000000	98.639131
1125.000000	98.611202
1124.000000	98.584250
1123.000000	98.557708
1122.000000	98.530656
1121.000000	98.501216
1120.000000	98.469304
1119.000000	98.437542
1118.000000	98.407984
1117.000000	98.380159
1116.000000	98.353428
1115.000000	98.328615
1114.000000	98.305595
1113.000000	98.281419
1112.000000	98.252622
1111.000000	98.218170
1110.000000	98.179648
1109.000000	98.140684
1108.000000	98.106498
1107.000000	98.080392
1106.000000	98.059018
1105.000000	98.034309
1104.000000	98.001899
1103.000000	97.964762
1102.000000	97.927604
1101.000000	97.891534
1100.000000	97.856193
1099.000000	97.822579
1098.000000	97.790885
1097.000000	97.758786
1096.000000	97.724653
1095.000000	97.689788
1094.000000	97.655351
1093.000000	97.620387
1092.000000	97.585206
1091.000000	97.553323
1090.000000	97.527378
1089.000000	97.506056
1088.000000	97.487221
1087.000000	97.471026
1086.000000	97.457848
1085.000000	97.446249
1084.000000	97.435035
1083.000000	97.424316
1082.000000	97.412797
1081.000000	97.397338
1080.000000	97.377058
1079.000000	97.355000
1078.000000	97.334487
1077.000000	97.316995
1076.000000	97.304097
1075.000000	97.296389
1074.000000	97.288648
1073.000000	97.271311
1072.000000	97.239654
1071.000000	97.197953
1070.000000	97.152956
1069.000000	97.107058
1068.000000	97.059641
1067.000000	97.009857
1066.000000	96.955158
1065.000000	96.892325
1064.000000	96.823593
1063.000000	96.756905
1062.000000	96.695704
1061.000000	96.632955
1060.000000	96.560136
1059.000000	96.478348
1058.000000	96.396113
1057.000000	96.319462
1056.000000	96.248884
1055.000000	96.183189
1054.000000	96.121151
1053.000000	96.060723
1052.000000	96.000615
1051.000000	95.942017
1050.000000	95.886549
1049.000000	95.834083
1048.000000	95.783472
1047.000000	95.732346
1046.000000	95.676224
1045.000000	95.612637
1044.000000	95.546516
1043.000000	95.485941
1042.000000	95.431357
1041.000000	95.374736
1040.000000	95.311031
1039.000000	95.244015
1038.000000	95.178208
1037.000000	95.112414
1036.000000	95.045720
1035.000000	94.983349
1034.000000	94.930785
1033.000000	94.886819
1032.000000	94.847347
1031.000000	94.811753
1030.000000	94.780810
1029.000000	94.752396
1028.000000	94.724419
1027.000000	94.698821
1026.000000	94.678072
1025.000000	94.660264
1024.000000	94.641545
1023.000000	94.621111
1022.000000	94.600708
1021.000000	94.581611
1020.000000	94.564550
1019.000000	94.549716
1018.000000	94.534587
1017.000000	94.514770
1016.000000	94.489094
1015.000000	94.461055
1014.000000	94.433892
1013.000000	94.407554
1012.000000	94.381495
1011.000000	94.356305
1010.000000	94.331463
1009.000000	94.306086
1008.000000	94.283111
1007.000000	94.267561
1006.000000	94.259037
1005.000000	94.251275
1004.000000	94.240998
1003.000000	94.231545
1002.000000	94.225675
1001.000000	94.221170
1000.000000	94.216785
999.000000	94.216239
998.000000	94.221762
997.000000	94.228798
996.000000	94.231958
995.000000	94.232234
994.000000	94.233720
993.000000	94.237010
992.000000	94.240659
991.000000	94.245968
990.000000	94.255199
989.000000	94.267268
988.000000	94.280087
987.000000	94.295912
986.000000	94.319771
985.000000	94.352490
984.000000	94.388451
983.000000	94.420850
982.000000	94.448025
981.000000	94.474894
980.000000	94.509054
979.000000	94.554905
978.000000	94.610491
977.000000	94.670064
976.000000	94.729500
975.000000	94.788431
974.000000	94.848301
973.000000	94.910756
972.000000	94.977808
971.000000	95.050917
970.000000	95.128680
969.000000	95.206425
968.000000	95.278915
967.000000	95.344200
966.000000	95.406332
965.000000	95.474115
964.000000	95.553999
963.000000	95.642302
962.000000	95.726816
961.000000	95.798392
960.000000	95.858722
959.000000	95.915481
958.000000	95.973768
957.000000	96.035161
956.000000	96.100823
955.000000	96.170015
954.000000	96.237526
953.000000	96.297709
952.000000	96.350139
951.000000	96.397515
950.000000	96.439985
949.000000	96.476204
948.000000	96.508489
947.000000	96.541605
946.000000	96.576899
945.000000	96.612445
944.000000	96.648179
943.000000	96.685297
942.000000	96.720699
941.000000	96.748213
940.000000	96.766960
939.000000	96.783590
938.000000	96.804128
937.000000	96.827648
936.000000	96.850174
935.000000	96.870838
934.000000	96.891459
933.000000	96.912998
932.000000	96.935299
931.000000	96.958838
930.000000	96.984670
929.000000	97.013136
928.000000	97.042903
927.000000	97.070508
926.000000	97.092000
925.000000	97.107283
924.000000	97.121790
923.000000	97.140840
922.000000	97.162730
921.000000	97.180314
920.000000	97.188976
919.000000	97.190298
918.000000	97.188988
917.000000	97.190048
916.000000	97.198330
915.000000	97.216095
914.000000	97.240137
913.000000	97.265260
912.000000	97.291266
911.000000	97.322633
910.000000	97.361077
909.000000	97.403173
908.000000	97.446555
907.000000	97.493944
906.000000	97.549017
905.000000	97.612112
904.000000	97.681658
903.000000	97.756011
902.000000	97.831716
901.000000	97.903328
900.000000	97.968174
899.000000	98.029996
898.000000	98.095610
897.000000	98.168139
896.000000	98.244101
895.000000	98.316580
894.000000	98.381282
893.000000	98.439925
892.000000	98.496890
891.000000	98.552228
890.000000	98.600355
889.000000	98.637660
888.000000	98.669007
887.000000	98.703397
886.000000	98.744589
885.000000	98.789749
884.000000	98.835986
883.000000	98.883010
882.000000	98.929374
881.000000	98.972001
880.000000	99.011683
879.000000	99.054450
878.000000	99.104402
877.000000	99.158576
876.000000	99.211824
875.000000	99.263635
874.000000	99.316626
873.000000	99.370842
872.000000	99.423985
871.000000	99.476513
870.000000	99.532095
869.000000	99.591629
868.000000	99.649858
867.000000	99.700661
866.000000	99.744813
865.000000	99.789665
864.000000	99.840117
863.000000	99.892107
862.000000	99.937242
861.000000	99.972448
860.000000	100.002301
859.000000	100.032493
858.000000	100.064175
857.000000	100.094951
856.000000	100.122066
855.000000	100.143776
854.000000	100.160970
853.000000	100.178776
852.000000	100.203158
851.000000	100.233777
850.000000	100.263288
849.000000	100.285951
848.000000	100.303598
847.000000	100.320626
846.000000	100.337032
845.000000	100.350360
844.000000	100.360636
843.000000	100.367774
842.000000	100.366960
841.000000	100.353544
840.000000	100.331748
839.000000	100.311560
838.000000	100.295652
837.000000	100.275752
836.000000	100.244899
835.000000	100.208209
834.000000	100.177888
833.000000	100.160863
832.000000	100.154567
831.000000	100.151597
830.000000	100.144930
829.000000	100.131589
828.000000	100.115993
827.000000	100.108661
826.000000	100.117012
825.000000	100.137109
824.000000	100.158023
823.000000	100.174397
822.000000	100.190802
821.000000	100.212306
820.000000	100.234260
819.000000	100.244614
818.000000	100.236094
817.000000	100.214119
816.000000	100.190952
815.000000	100.171899
814.000000	100.149291
813.000000	100.111310
812.000000	100.054036
811.000000	99.981964
810.000000	99.898616
809.000000	99.801164
808.000000	99.684875
807.000000	99.548945
806.000000	99.396506
805.000000	99.232256
804.000000	99.062832
803.000000	98.897831
802.000000	98.748073
801.000000	98.623153
800.000000	98.529960
799.000000	98.470074
798.000000	98.437853
797.000000	98.424611
796.000000	98.425403
795.000000	98.438852
794.000000	98.461549
793.000000	98.487722
792.000000	98.514561
791.000000	98.543014
790.000000	98.572585
789.000000	98.599426
788.000000	98.619524
787.000000	98.628966
786.000000	98.621005
785.000000	98.588911
784.000000	98.534331
783.000000	98.468826
782.000000	98.404854
781.000000	98.348456
780.000000	98.302070
779.000000	98.269496
778.000000	98.254768
777.000000	98.259370
776.000000	98.283153
775.000000	98.325209
774.000000	98.382054
773.000000	98.447587
772.000000	98.516004
771.000000	98.582446
770.000000	98.641205
769.000000	98.687744
768.000000	98.723853
767.000000	98.756968
766.000000	98.792041
765.000000	98.826212
764.000000	98.852653
763.000000	98.867372
762.000000	98.871746
761.000000	98.871448
760.000000	98.874192
759.000000	98.885833
758.000000	98.906821
757.000000	98.933729
756.000000	98.963949
755.000000	98.996380
754.000000	99.028484
753.000000	99.056995
752.000000	99.082416
751.000000	99.109538
750.000000	99.142599
749.000000	99.182351
748.000000	99.227358
747.000000	99.274194
746.000000	99.316449
745.000000	99.348657
744.000000	99.373080
743.000000	99.398543
742.000000	99.430495
741.000000	99.465771
740.000000	99.499175
739.000000	99.531349
738.000000	99.567506
737.000000	99.611206
736.000000	99.661902
735.000000	99.716247
734.000000	99.769164
733.000000	99.815039
732.000000	99.849998
731.000000	99.873008
730.000000	99.885298
729.000000	99.890475
728.000000	99.894249
727.000000	99.900821
726.000000	99.909194
725.000000	99.915823
724.000000	99.921423
723.000000	99.932221
722.000000	99.953689
721.000000	99.985713
720.000000	100.024179
719.000000	100.063589
718.000000	100.096864
717.000000	100.116793
716.000000	100.121703
715.000000	100.118957
714.000000	100.120324
713.000000	100.132988
712.000000	100.154682
711.000000	100.176463
710.000000	100.190608
709.000000	100.197158
708.000000	100.202005
707.000000	100.206928
706.000000	100.204267
705.000000	100.186083
704.000000	100.156743
703.000000	100.129318
702.000000	100.107268
701.000000	100.076079
700.000000	100.016779
699.000000	99.923940
698.000000	99.809984
697.000000	99.697651
696.000000	99.611273
695.000000	99.569024
694.000000	99.574623
693.000000	99.615026
692.000000	99.668841
691.000000	99.718696
690.000000	99.757771
689.000000	99.788734
688.000000	99.819498
687.000000	99.857015
686.000000	99.900964
685.000000	99.944553
684.000000	99.981929
683.000000	100.011693
682.000000	100.033898
681.000000	100.048954
680.000000	100.060759
679.000000	100.074993
678.000000	100.091897
677.000000	100.107147
676.000000	100.121338
675.000000	100.141809
674.000000	100.171479
673.000000	100.200026
672.000000	100.211339
671.000000	100.199643
670.000000	100.176081
669.000000	100.165399
668.000000	100.188196
667.000000	100.231038
666.000000	100.267984
665.000000	100.292923
664.000000	100.311492
663.000000	100.330889
662.000000	100.353741
661.000000	100.376018
660.000000	100.390794
659.000000	100.393037
658.000000	100.384440
657.000000	100.375107
656.000000	100.376716
655.000000	100.391916
654.000000	100.411795
653.000000	100.424372
652.000000	100.424236
651.000000	100.414893
650.000000	100.404336
649.000000	100.399031
648.000000	100.399883
647.000000	100.402436
646.000000	100.402371
645.000000	100.402430
644.000000	100.412260
643.000000	100.437683
642.000000	100.469505
641.000000	100.488563
640.000000	100.484836
639.000000	100.468377
638.000000	100.460264
637.000000	100.473931
636.000000	100.507041
635.000000	100.546277
634.000000	100.576850
633.000000	100.592571
632.000000	100.598914
631.000000	100.605824
630.000000	100.618944
629.000000	100.639381
628.000000	100.668789
627.000000	100.707262
626.000000	100.745752
625.000000	100.770705
624.000000	100.781117
623.000000	100.791322
622.000000	100.811238
621.000000	100.831211
620.000000	100.833670
619.000000	100.814583
618.000000	100.788658
617.000000	100.775984
616.000000	100.787867
615.000000	100.819326
614.000000	100.846895
613.000000	100.843096
612.000000	100.801715
611.000000	100.746478
610.000000	100.711413
609.000000	100.709704
608.000000	100.729415
607.000000	100.750993
606.000000	100.761622
605.000000	100.760362
604.000000	100.756402
603.000000	100.760003
602.000000	100.770689
601.000000	100.777271
600.000000	100.772371
599.000000	100.761629
598.000000	100.753910
597.000000	100.749066
596.000000	100.742199
595.000000	100.734683
594.000000	100.733586
593.000000	100.743154
592.000000	100.762799
591.000000	100.789286
590.000000	100.815051
589.000000	100.829172
588.000000	100.826162
587.000000	100.811432
586.000000	100.794966
585.000000	100.781723
584.000000	100.772815
583.000000	100.772653
582.000000	100.785222
581.000000	100.803521
580.000000	100.812173
579.000000	100.803861
578.000000	100.788474
577.000000	100.783449
576.000000	100.796506
575.000000	100.818208
574.000000	100.829503
573.000000	100.820509
572.000000	100.800127
571.000000	100.788075
570.000000	100.792833
569.000000	100.801750
568.000000	100.798613
567.000000	100.783578
566.000000	100.769170
565.000000	100.760871
564.000000	100.754297
563.000000	100.749100
562.000000	100.752336
561.000000	100.766927
560.000000	100.784475
559.000000	100.791227
558.000000	100.779153
557.000000	100.749480
556.000000	100.713946
555.000000	100.691167
554.000000	100.691241
553.000000	100.710624
552.000000	100.736383
551.000000	100.757500
550.000000	100.770766
