PE IR       SUBTECH     SPECTRUM    ASCII       PEDS        4.00        
   -1
BH-2(1)70-71_1.asc
24/05/14
12:01:04.00
24/05/14
12:02:28.00
Administrator
?品 025 用? Administrator 日期 Tuesday, May 14 2024
550.000000
#HDR
-1
-1
#GR
cm-1
%T
1.0
0.0
4000.000000
-1.000000
3451
8
102.101288
87.441388
#DATA
4000.000000	101.984909
3999.000000	101.981708
3998.000000	101.978312
3997.000000	101.975044
3996.000000	101.972306
3995.000000	101.970327
3994.000000	101.969054
3993.000000	101.968258
3992.000000	101.967706
3991.000000	101.967118
3990.000000	101.966052
3989.000000	101.964036
3988.000000	101.960917
3987.000000	101.957097
3986.000000	101.953462
3985.000000	101.950884
3984.000000	101.949677
3983.000000	101.949390
3982.000000	101.948973
3981.000000	101.947537
3980.000000	101.944953
3979.000000	101.941801
3978.000000	101.938837
3977.000000	101.936449
3976.000000	101.934541
3975.000000	101.932744
3974.000000	101.930637
3973.000000	101.927896
3972.000000	101.924476
3971.000000	101.920739
3970.000000	101.917308
3969.000000	101.914645
3968.000000	101.912683
3967.000000	101.911018
3966.000000	101.909495
3965.000000	101.908541
3964.000000	101.908765
3963.000000	101.910111
3962.000000	101.911487
3961.000000	101.911486
3960.000000	101.909446
3959.000000	101.905793
3958.000000	101.901433
3957.000000	101.896981
3956.000000	101.892631
3955.000000	101.888488
3954.000000	101.884695
3953.000000	101.881318
3952.000000	101.878342
3951.000000	101.875829
3950.000000	101.874068
3949.000000	101.873317
3948.000000	101.873243
3947.000000	101.872799
3946.000000	101.871076
3945.000000	101.868226
3944.000000	101.865325
3943.000000	101.863189
3942.000000	101.861511
3941.000000	101.859446
3940.000000	101.856881
3939.000000	101.854546
3938.000000	101.852890
3937.000000	101.851519
3936.000000	101.849742
3935.000000	101.847410
3934.000000	101.844999
3933.000000	101.843015
3932.000000	101.841551
3931.000000	101.840315
3930.000000	101.838983
3929.000000	101.837416
3928.000000	101.835627
3927.000000	101.833693
3926.000000	101.831663
3925.000000	101.829466
3924.000000	101.826989
3923.000000	101.824321
3922.000000	101.821833
3921.000000	101.819866
3920.000000	101.818380
3919.000000	101.817066
3918.000000	101.815630
3917.000000	101.814011
3916.000000	101.812299
3915.000000	101.810590
3914.000000	101.808922
3913.000000	101.807270
3912.000000	101.805587
3911.000000	101.803852
3910.000000	101.802078
3909.000000	101.800279
3908.000000	101.798459
3907.000000	101.796615
3906.000000	101.794738
3905.000000	101.792824
3904.000000	101.790875
3903.000000	101.788898
3902.000000	101.786903
3901.000000	101.784894
3900.000000	101.782875
3899.000000	101.780843
3898.000000	101.778800
3897.000000	101.776742
3896.000000	101.774660
3895.000000	101.772554
3894.000000	101.770429
3893.000000	101.768302
3892.000000	101.766242
3891.000000	101.764337
3890.000000	101.762524
3889.000000	101.760610
3888.000000	101.758554
3887.000000	101.756551
3886.000000	101.754781
3885.000000	101.753087
3884.000000	101.751047
3883.000000	101.748610
3882.000000	101.746280
3881.000000	101.744458
3880.000000	101.742957
3879.000000	101.741162
3878.000000	101.738756
3877.000000	101.736247
3876.000000	101.734340
3875.000000	101.733023
3874.000000	101.731296
3873.000000	101.727896
3872.000000	101.722807
3871.000000	101.717982
3870.000000	101.715524
3869.000000	101.715231
3868.000000	101.714855
3867.000000	101.713458
3866.000000	101.711592
3865.000000	101.708926
3864.000000	101.704580
3863.000000	101.698963
3862.000000	101.693540
3861.000000	101.689455
3860.000000	101.686923
3859.000000	101.686309
3858.000000	101.688022
3857.000000	101.691742
3856.000000	101.695788
3855.000000	101.698103
3854.000000	101.698990
3853.000000	101.700373
3852.000000	101.699939
3851.000000	101.695703
3850.000000	101.691300
3849.000000	101.689211
3848.000000	101.687778
3847.000000	101.684913
3846.000000	101.680547
3845.000000	101.676084
3844.000000	101.672779
3843.000000	101.670701
3842.000000	101.668886
3841.000000	101.666846
3840.000000	101.664672
3839.000000	101.662141
3838.000000	101.658511
3837.000000	101.653745
3836.000000	101.648837
3835.000000	101.645019
3834.000000	101.642737
3833.000000	101.641685
3832.000000	101.641572
3831.000000	101.642291
3830.000000	101.643306
3829.000000	101.643770
3828.000000	101.643309
3827.000000	101.642310
3826.000000	101.640937
3825.000000	101.638513
3824.000000	101.634470
3823.000000	101.629370
3822.000000	101.624806
3821.000000	101.622228
3820.000000	101.620484
3819.000000	101.617791
3818.000000	101.615040
3817.000000	101.613639
3816.000000	101.613450
3815.000000	101.613081
3814.000000	101.611572
3813.000000	101.609606
3812.000000	101.608024
3811.000000	101.606521
3810.000000	101.604485
3809.000000	101.601972
3808.000000	101.599673
3807.000000	101.598065
3806.000000	101.596787
3805.000000	101.595196
3804.000000	101.593344
3803.000000	101.591704
3802.000000	101.590506
3801.000000	101.589567
3800.000000	101.588327
3799.000000	101.586636
3798.000000	101.584859
3797.000000	101.583147
3796.000000	101.581314
3795.000000	101.579254
3794.000000	101.577129
3793.000000	101.575167
3792.000000	101.573420
3791.000000	101.571800
3790.000000	101.570196
3789.000000	101.568526
3788.000000	101.566742
3787.000000	101.564859
3786.000000	101.562952
3785.000000	101.561092
3784.000000	101.559286
3783.000000	101.557515
3782.000000	101.555776
3781.000000	101.554076
3780.000000	101.552410
3779.000000	101.550759
3778.000000	101.549102
3777.000000	101.547449
3776.000000	101.545837
3775.000000	101.544286
3774.000000	101.542744
3773.000000	101.541116
3772.000000	101.539363
3771.000000	101.537556
3770.000000	101.535742
3769.000000	101.533815
3768.000000	101.531672
3767.000000	101.529479
3766.000000	101.527557
3765.000000	101.526018
3764.000000	101.524614
3763.000000	101.523004
3762.000000	101.521123
3761.000000	101.519069
3760.000000	101.516892
3759.000000	101.514751
3758.000000	101.512923
3757.000000	101.511500
3756.000000	101.510172
3755.000000	101.508526
3754.000000	101.506361
3753.000000	101.503628
3752.000000	101.500451
3751.000000	101.497405
3750.000000	101.495072
3749.000000	101.493021
3748.000000	101.490340
3747.000000	101.487270
3746.000000	101.485108
3745.000000	101.484959
3744.000000	101.486484
3743.000000	101.486770
3742.000000	101.484250
3741.000000	101.481000
3740.000000	101.478711
3739.000000	101.476583
3738.000000	101.473520
3737.000000	101.469893
3736.000000	101.466747
3735.000000	101.464132
3734.000000	101.461405
3733.000000	101.458620
3732.000000	101.455906
3731.000000	101.452234
3730.000000	101.446785
3729.000000	101.440640
3728.000000	101.435938
3727.000000	101.433582
3726.000000	101.432328
3725.000000	101.430093
3724.000000	101.426384
3723.000000	101.422329
3722.000000	101.418847
3721.000000	101.415605
3720.000000	101.411634
3719.000000	101.406724
3718.000000	101.401525
3717.000000	101.396700
3716.000000	101.392406
3715.000000	101.388715
3714.000000	101.385342
3713.000000	101.381070
3712.000000	101.375016
3711.000000	101.367982
3710.000000	101.361015
3709.000000	101.354274
3708.000000	101.347614
3707.000000	101.341094
3706.000000	101.334977
3705.000000	101.329643
3704.000000	101.325395
3703.000000	101.322344
3702.000000	101.320455
3701.000000	101.318761
3700.000000	101.314754
3699.000000	101.306918
3698.000000	101.296962
3697.000000	101.287901
3696.000000	101.281378
3695.000000	101.277686
3694.000000	101.277038
3693.000000	101.278882
3692.000000	101.280588
3691.000000	101.279043
3690.000000	101.274024
3689.000000	101.268737
3688.000000	101.264851
3687.000000	101.260370
3686.000000	101.254902
3685.000000	101.251277
3684.000000	101.250220
3683.000000	101.248738
3682.000000	101.244484
3681.000000	101.239090
3680.000000	101.235376
3679.000000	101.232238
3678.000000	101.226661
3677.000000	101.218783
3676.000000	101.213373
3675.000000	101.211992
3674.000000	101.206460
3673.000000	101.192959
3672.000000	101.178298
3671.000000	101.167107
3670.000000	101.158011
3669.000000	101.147418
3668.000000	101.132849
3667.000000	101.117236
3666.000000	101.105210
3665.000000	101.097431
3664.000000	101.091159
3663.000000	101.083793
3662.000000	101.075102
3661.000000	101.066513
3660.000000	101.058639
3659.000000	101.050154
3658.000000	101.039778
3657.000000	101.028333
3656.000000	101.017930
3655.000000	101.007489
3654.000000	100.994970
3653.000000	100.982113
3652.000000	100.971820
3651.000000	100.964716
3650.000000	100.960642
3649.000000	100.959206
3648.000000	100.957809
3647.000000	100.953276
3646.000000	100.944912
3645.000000	100.934638
3644.000000	100.924602
3643.000000	100.915143
3642.000000	100.904344
3641.000000	100.890351
3640.000000	100.874264
3639.000000	100.860372
3638.000000	100.852291
3637.000000	100.849556
3636.000000	100.849378
3635.000000	100.849753
3634.000000	100.849618
3633.000000	100.846936
3632.000000	100.839492
3631.000000	100.826951
3630.000000	100.812341
3629.000000	100.803095
3628.000000	100.802276
3627.000000	100.802747
3626.000000	100.800827
3625.000000	100.798030
3624.000000	100.792474
3623.000000	100.781457
3622.000000	100.766930
3621.000000	100.754970
3620.000000	100.750435
3619.000000	100.753126
3618.000000	100.758280
3617.000000	100.761963
3616.000000	100.765310
3615.000000	100.771336
3614.000000	100.780511
3613.000000	100.790772
3612.000000	100.800303
3611.000000	100.809499
3610.000000	100.819608
3609.000000	100.829715
3608.000000	100.836966
3607.000000	100.839882
3606.000000	100.840295
3605.000000	100.841546
3604.000000	100.845011
3603.000000	100.849457
3602.000000	100.853481
3601.000000	100.856564
3600.000000	100.858050
3599.000000	100.857258
3598.000000	100.855440
3597.000000	100.855444
3596.000000	100.859547
3595.000000	100.866924
3594.000000	100.873899
3593.000000	100.876616
3592.000000	100.874255
3591.000000	100.868875
3590.000000	100.863106
3589.000000	100.858592
3588.000000	100.856417
3587.000000	100.856875
3586.000000	100.858805
3585.000000	100.861356
3584.000000	100.864354
3583.000000	100.866128
3582.000000	100.864323
3581.000000	100.859050
3580.000000	100.853713
3579.000000	100.851666
3578.000000	100.852895
3577.000000	100.854318
3576.000000	100.853252
3575.000000	100.849909
3574.000000	100.846618
3573.000000	100.845339
3572.000000	100.846215
3571.000000	100.848172
3570.000000	100.850075
3569.000000	100.851242
3568.000000	100.851289
3567.000000	100.849892
3566.000000	100.846698
3565.000000	100.842132
3564.000000	100.838078
3563.000000	100.836270
3562.000000	100.836594
3561.000000	100.837356
3560.000000	100.836697
3559.000000	100.833800
3558.000000	100.829117
3557.000000	100.823805
3556.000000	100.818867
3555.000000	100.814891
3554.000000	100.812243
3553.000000	100.811075
3552.000000	100.810903
3551.000000	100.810588
3550.000000	100.809238
3549.000000	100.806992
3548.000000	100.804808
3547.000000	100.803675
3546.000000	100.803909
3545.000000	100.804859
3544.000000	100.805402
3543.000000	100.804870
3542.000000	100.803291
3541.000000	100.800908
3540.000000	100.797801
3539.000000	100.794144
3538.000000	100.790563
3537.000000	100.787883
3536.000000	100.786452
3535.000000	100.785898
3534.000000	100.785753
3533.000000	100.785929
3532.000000	100.786477
3531.000000	100.787168
3530.000000	100.787638
3529.000000	100.787686
3528.000000	100.787295
3527.000000	100.786501
3526.000000	100.785461
3525.000000	100.784485
3524.000000	100.783725
3523.000000	100.782930
3522.000000	100.781676
3521.000000	100.779796
3520.000000	100.777450
3519.000000	100.774909
3518.000000	100.772514
3517.000000	100.770798
3516.000000	100.770281
3515.000000	100.770892
3514.000000	100.771747
3513.000000	100.771741
3512.000000	100.770495
3511.000000	100.768626
3510.000000	100.767200
3509.000000	100.766852
3508.000000	100.767327
3507.000000	100.767710
3506.000000	100.767182
3505.000000	100.765655
3504.000000	100.763821
3503.000000	100.762431
3502.000000	100.761343
3501.000000	100.759645
3500.000000	100.756838
3499.000000	100.753577
3498.000000	100.751075
3497.000000	100.749874
3496.000000	100.749455
3495.000000	100.749062
3494.000000	100.748634
3493.000000	100.748615
3492.000000	100.748996
3491.000000	100.748905
3490.000000	100.747412
3489.000000	100.744505
3488.000000	100.741098
3487.000000	100.738071
3486.000000	100.735481
3485.000000	100.732976
3484.000000	100.730553
3483.000000	100.728609
3482.000000	100.727329
3481.000000	100.726298
3480.000000	100.724905
3479.000000	100.722948
3478.000000	100.720685
3477.000000	100.718378
3476.000000	100.715988
3475.000000	100.713370
3474.000000	100.710568
3473.000000	100.707831
3472.000000	100.705362
3471.000000	100.703146
3470.000000	100.701003
3469.000000	100.698777
3468.000000	100.696478
3467.000000	100.694223
3466.000000	100.692082
3465.000000	100.690013
3464.000000	100.687918
3463.000000	100.685708
3462.000000	100.683330
3461.000000	100.680780
3460.000000	100.678162
3459.000000	100.675677
3458.000000	100.673475
3457.000000	100.671515
3456.000000	100.669579
3455.000000	100.667444
3454.000000	100.665067
3453.000000	100.662564
3452.000000	100.660077
3451.000000	100.657626
3450.000000	100.655187
3449.000000	100.652852
3448.000000	100.650753
3447.000000	100.648785
3446.000000	100.646586
3445.000000	100.643998
3444.000000	100.641428
3443.000000	100.639473
3442.000000	100.638191
3441.000000	100.636891
3440.000000	100.634771
3439.000000	100.631603
3438.000000	100.627863
3437.000000	100.624362
3436.000000	100.621674
3435.000000	100.619831
3434.000000	100.618402
3433.000000	100.616929
3432.000000	100.615324
3431.000000	100.613724
3430.000000	100.612055
3429.000000	100.609975
3428.000000	100.607418
3427.000000	100.605002
3426.000000	100.603564
3425.000000	100.603226
3424.000000	100.603062
3423.000000	100.601807
3422.000000	100.598841
3421.000000	100.594508
3420.000000	100.589718
3419.000000	100.585294
3418.000000	100.581536
3417.000000	100.578128
3416.000000	100.574511
3415.000000	100.570574
3414.000000	100.566985
3413.000000	100.564601
3412.000000	100.563538
3411.000000	100.562928
3410.000000	100.561699
3409.000000	100.559538
3408.000000	100.557091
3407.000000	100.555434
3406.000000	100.555296
3405.000000	100.556452
3404.000000	100.557637
3403.000000	100.557372
3402.000000	100.555180
3401.000000	100.552002
3400.000000	100.549399
3399.000000	100.548209
3398.000000	100.547984
3397.000000	100.547527
3396.000000	100.545903
3395.000000	100.543076
3394.000000	100.539844
3393.000000	100.537279
3392.000000	100.535952
3391.000000	100.535523
3390.000000	100.535043
3389.000000	100.533792
3388.000000	100.531906
3387.000000	100.530190
3386.000000	100.529343
3385.000000	100.529366
3384.000000	100.529725
3383.000000	100.529916
3382.000000	100.529757
3381.000000	100.529094
3380.000000	100.527548
3379.000000	100.524878
3378.000000	100.521468
3377.000000	100.518254
3376.000000	100.516017
3375.000000	100.514817
3374.000000	100.514107
3373.000000	100.513205
3372.000000	100.511713
3371.000000	100.509701
3370.000000	100.507666
3369.000000	100.506226
3368.000000	100.505617
3367.000000	100.505471
3366.000000	100.505116
3365.000000	100.504246
3364.000000	100.503097
3363.000000	100.502013
3362.000000	100.500996
3361.000000	100.499787
3360.000000	100.498319
3359.000000	100.496869
3358.000000	100.495699
3357.000000	100.494748
3356.000000	100.493767
3355.000000	100.492642
3354.000000	100.491492
3353.000000	100.490466
3352.000000	100.489536
3351.000000	100.488524
3350.000000	100.487309
3349.000000	100.485999
3348.000000	100.484860
3347.000000	100.484045
3346.000000	100.483408
3345.000000	100.482589
3344.000000	100.481325
3343.000000	100.479665
3342.000000	100.477951
3341.000000	100.476555
3340.000000	100.475595
3339.000000	100.474856
3338.000000	100.473961
3337.000000	100.472687
3336.000000	100.471132
3335.000000	100.469567
3334.000000	100.468121
3333.000000	100.466674
3332.000000	100.465094
3331.000000	100.463494
3330.000000	100.462180
3329.000000	100.461347
3328.000000	100.460889
3327.000000	100.460517
3326.000000	100.460038
3325.000000	100.459478
3324.000000	100.458933
3323.000000	100.458311
3322.000000	100.457297
3321.000000	100.455701
3320.000000	100.453738
3319.000000	100.451889
3318.000000	100.450427
3317.000000	100.449194
3316.000000	100.447869
3315.000000	100.446375
3314.000000	100.444935
3313.000000	100.443779
3312.000000	100.442857
3311.000000	100.441854
3310.000000	100.440469
3309.000000	100.438663
3308.000000	100.436687
3307.000000	100.434923
3306.000000	100.433568
3305.000000	100.432531
3304.000000	100.431559
3303.000000	100.430479
3302.000000	100.429285
3301.000000	100.428020
3300.000000	100.426676
3299.000000	100.425227
3298.000000	100.423718
3297.000000	100.422260
3296.000000	100.420938
3295.000000	100.419745
3294.000000	100.418600
3293.000000	100.417418
3292.000000	100.416159
3291.000000	100.414821
3290.000000	100.413393
3289.000000	100.411834
3288.000000	100.410107
3287.000000	100.408236
3286.000000	100.406329
3285.000000	100.404522
3284.000000	100.402862
3283.000000	100.401267
3282.000000	100.399585
3281.000000	100.397769
3280.000000	100.395951
3279.000000	100.394312
3278.000000	100.392869
3277.000000	100.391400
3276.000000	100.389636
3275.000000	100.387515
3274.000000	100.385253
3273.000000	100.383174
3272.000000	100.381476
3271.000000	100.380167
3270.000000	100.379087
3269.000000	100.378000
3268.000000	100.376702
3267.000000	100.375061
3266.000000	100.373047
3265.000000	100.370784
3264.000000	100.368609
3263.000000	100.366899
3262.000000	100.365687
3261.000000	100.364546
3260.000000	100.363066
3259.000000	100.361371
3258.000000	100.359916
3257.000000	100.358775
3256.000000	100.357487
3255.000000	100.355681
3254.000000	100.353462
3253.000000	100.351001
3252.000000	100.348144
3251.000000	100.344792
3250.000000	100.341418
3249.000000	100.338749
3248.000000	100.337040
3247.000000	100.335993
3246.000000	100.335224
3245.000000	100.334457
3244.000000	100.333350
3243.000000	100.331720
3242.000000	100.330019
3241.000000	100.329048
3240.000000	100.329039
3239.000000	100.329401
3238.000000	100.329447
3237.000000	100.328968
3236.000000	100.327883
3235.000000	100.325915
3234.000000	100.323122
3233.000000	100.320414
3232.000000	100.318811
3231.000000	100.318317
3230.000000	100.318129
3229.000000	100.317876
3228.000000	100.317910
3227.000000	100.318146
3226.000000	100.317503
3225.000000	100.315148
3224.000000	100.311775
3223.000000	100.309049
3222.000000	100.307817
3221.000000	100.307427
3220.000000	100.306747
3219.000000	100.305274
3218.000000	100.303131
3217.000000	100.300568
3216.000000	100.297857
3215.000000	100.295431
3214.000000	100.293768
3213.000000	100.293078
3212.000000	100.293203
3211.000000	100.293714
3210.000000	100.294063
3209.000000	100.293742
3208.000000	100.292475
3207.000000	100.290322
3206.000000	100.287607
3205.000000	100.284711
3204.000000	100.281880
3203.000000	100.279184
3202.000000	100.276656
3201.000000	100.274368
3200.000000	100.272244
3199.000000	100.269850
3198.000000	100.266692
3197.000000	100.262894
3196.000000	100.259327
3195.000000	100.256769
3194.000000	100.255132
3193.000000	100.253838
3192.000000	100.252764
3191.000000	100.252304
3190.000000	100.252473
3189.000000	100.252431
3188.000000	100.251196
3187.000000	100.248634
3186.000000	100.245613
3185.000000	100.243389
3184.000000	100.242862
3183.000000	100.244114
3182.000000	100.246231
3181.000000	100.247711
3180.000000	100.247504
3179.000000	100.245739
3178.000000	100.243523
3177.000000	100.242024
3176.000000	100.241629
3175.000000	100.241847
3174.000000	100.241788
3173.000000	100.240786
3172.000000	100.238760
3171.000000	100.236112
3170.000000	100.233314
3169.000000	100.230571
3168.000000	100.227884
3167.000000	100.225353
3166.000000	100.223308
3165.000000	100.222099
3164.000000	100.221793
3163.000000	100.222069
3162.000000	100.222365
3161.000000	100.222174
3160.000000	100.221253
3159.000000	100.219717
3158.000000	100.218012
3157.000000	100.216687
3156.000000	100.215985
3155.000000	100.215647
3154.000000	100.215184
3153.000000	100.214395
3152.000000	100.213499
3151.000000	100.212786
3150.000000	100.212262
3149.000000	100.211706
3148.000000	100.210913
3147.000000	100.209774
3146.000000	100.208230
3145.000000	100.206390
3144.000000	100.204579
3143.000000	100.203132
3142.000000	100.202096
3141.000000	100.201166
3140.000000	100.199957
3139.000000	100.198306
3138.000000	100.196357
3137.000000	100.194460
3136.000000	100.192924
3135.000000	100.191809
3134.000000	100.190944
3133.000000	100.190078
3132.000000	100.189063
3131.000000	100.187885
3130.000000	100.186603
3129.000000	100.185319
3128.000000	100.184141
3127.000000	100.183091
3126.000000	100.182070
3125.000000	100.180952
3124.000000	100.179710
3123.000000	100.178414
3122.000000	100.177119
3121.000000	100.175821
3120.000000	100.174500
3119.000000	100.173158
3118.000000	100.171815
3117.000000	100.170496
3116.000000	100.169218
3115.000000	100.167985
3114.000000	100.166780
3113.000000	100.165571
3112.000000	100.164339
3111.000000	100.163088
3110.000000	100.161836
3109.000000	100.160583
3108.000000	100.159315
3107.000000	100.158022
3106.000000	100.156716
3105.000000	100.155423
3104.000000	100.154180
3103.000000	100.152999
3102.000000	100.151869
3101.000000	100.150748
3100.000000	100.149609
3099.000000	100.148449
3098.000000	100.147286
3097.000000	100.146143
3096.000000	100.145035
3095.000000	100.143958
3094.000000	100.142897
3093.000000	100.141839
3092.000000	100.140775
3091.000000	100.139702
3090.000000	100.138618
3089.000000	100.137527
3088.000000	100.136435
3087.000000	100.135347
3086.000000	100.134263
3085.000000	100.133176
3084.000000	100.132079
3083.000000	100.130966
3082.000000	100.129840
3081.000000	100.128710
3080.000000	100.127589
3079.000000	100.126483
3078.000000	100.125396
3077.000000	100.124324
3076.000000	100.123257
3075.000000	100.122185
3074.000000	100.121101
3073.000000	100.120000
3072.000000	100.118884
3071.000000	100.117755
3070.000000	100.116611
3069.000000	100.115452
3068.000000	100.114287
3067.000000	100.113131
3066.000000	100.111997
3065.000000	100.110893
3064.000000	100.109824
3063.000000	100.108780
3062.000000	100.107745
3061.000000	100.106680
3060.000000	100.105468
3059.000000	100.103971
3058.000000	100.102257
3057.000000	100.100735
3056.000000	100.099840
3055.000000	100.099582
3054.000000	100.099432
3053.000000	100.098738
3052.000000	100.097250
3051.000000	100.095297
3050.000000	100.093591
3049.000000	100.092750
3048.000000	100.092823
3047.000000	100.093152
3046.000000	100.092819
3045.000000	100.091355
3044.000000	100.089003
3043.000000	100.086448
3042.000000	100.084431
3041.000000	100.083598
3040.000000	100.084319
3039.000000	100.086200
3038.000000	100.087912
3037.000000	100.087989
3036.000000	100.085912
3035.000000	100.082304
3034.000000	100.078184
3033.000000	100.074407
3032.000000	100.071785
3031.000000	100.070987
3030.000000	100.071822
3029.000000	100.073045
3028.000000	100.073364
3027.000000	100.072555
3026.000000	100.071509
3025.000000	100.071444
3024.000000	100.072990
3023.000000	100.075513
3022.000000	100.077260
3021.000000	100.076937
3020.000000	100.075474
3019.000000	100.075508
3018.000000	100.078553
3017.000000	100.083224
3016.000000	100.086848
3015.000000	100.088401
3014.000000	100.089177
3013.000000	100.091105
3012.000000	100.095313
3011.000000	100.102028
3010.000000	100.110597
3009.000000	100.119208
3008.000000	100.125379
3007.000000	100.127450
3006.000000	100.125646
3005.000000	100.121675
3004.000000	100.117415
3003.000000	100.113887
3002.000000	100.111054
3001.000000	100.108336
3000.000000	100.105469
2999.000000	100.103053
2998.000000	100.102255
2997.000000	100.103974
2996.000000	100.108208
2995.000000	100.113915
2994.000000	100.119283
2993.000000	100.122514
2992.000000	100.122992
2991.000000	100.121859
2990.000000	100.121215
2989.000000	100.122756
2988.000000	100.127387
2987.000000	100.135796
2986.000000	100.148376
2985.000000	100.163968
2984.000000	100.179254
2983.000000	100.190628
2982.000000	100.197311
2981.000000	100.202341
2980.000000	100.210048
2979.000000	100.222542
2978.000000	100.238783
2977.000000	100.256651
2976.000000	100.275318
2975.000000	100.295567
2974.000000	100.318488
2973.000000	100.344448
2972.000000	100.372937
2971.000000	100.402668
2970.000000	100.431774
2969.000000	100.458681
2968.000000	100.483471
2967.000000	100.508325
2966.000000	100.536134
2965.000000	100.568240
2964.000000	100.603270
2963.000000	100.638108
2962.000000	100.670187
2961.000000	100.699011
2960.000000	100.725386
2959.000000	100.749177
2958.000000	100.768131
2957.000000	100.779262
2956.000000	100.781365
2955.000000	100.776241
2954.000000	100.767848
2953.000000	100.760349
2952.000000	100.756311
2951.000000	100.756096
2950.000000	100.759060
2949.000000	100.765500
2948.000000	100.777020
2947.000000	100.794792
2946.000000	100.818217
2945.000000	100.846031
2944.000000	100.878217
2943.000000	100.916087
2942.000000	100.961038
2941.000000	101.014236
2940.000000	101.076916
2939.000000	101.149150
2938.000000	101.228006
2937.000000	101.308607
2936.000000	101.388144
2935.000000	101.467887
2934.000000	101.550131
2933.000000	101.633742
2932.000000	101.713970
2931.000000	101.786690
2930.000000	101.851762
2929.000000	101.911460
2928.000000	101.965886
2927.000000	102.010921
2926.000000	102.041200
2925.000000	102.054153
2924.000000	102.049889
2923.000000	102.027928
2922.000000	101.986630
2921.000000	101.926570
2920.000000	101.852151
2919.000000	101.768307
2918.000000	101.677383
2917.000000	101.581037
2916.000000	101.483193
2915.000000	101.388266
2914.000000	101.297532
2913.000000	101.210573
2912.000000	101.129944
2911.000000	101.060687
2910.000000	101.003929
2909.000000	100.953985
2908.000000	100.904284
2907.000000	100.854638
2906.000000	100.810490
2905.000000	100.775950
2904.000000	100.749834
2903.000000	100.727974
2902.000000	100.706922
2901.000000	100.684945
2900.000000	100.661319
2899.000000	100.636320
2898.000000	100.611701
2897.000000	100.589467
2896.000000	100.569654
2895.000000	100.549675
2894.000000	100.526887
2893.000000	100.502207
2892.000000	100.480290
2891.000000	100.465158
2890.000000	100.456039
2889.000000	100.448564
2888.000000	100.439706
2887.000000	100.430120
2886.000000	100.421540
2885.000000	100.413844
2884.000000	100.405894
2883.000000	100.398037
2882.000000	100.392307
2881.000000	100.390450
2880.000000	100.392708
2879.000000	100.398201
2878.000000	100.405737
2877.000000	100.414477
2876.000000	100.424439
2875.000000	100.436272
2874.000000	100.450313
2873.000000	100.466212
2872.000000	100.483461
2871.000000	100.501391
2870.000000	100.518380
2869.000000	100.532334
2868.000000	100.543098
2867.000000	100.553974
2866.000000	100.570007
2865.000000	100.594953
2864.000000	100.630017
2863.000000	100.674592
2862.000000	100.727287
2861.000000	100.786556
2860.000000	100.850704
2859.000000	100.916707
2858.000000	100.979243
2857.000000	101.032567
2856.000000	101.074147
2855.000000	101.104696
2854.000000	101.123376
2853.000000	101.124588
2852.000000	101.101668
2851.000000	101.053312
2850.000000	100.984952
2849.000000	100.904656
2848.000000	100.819304
2847.000000	100.734033
2846.000000	100.652599
2845.000000	100.577006
2844.000000	100.507889
2843.000000	100.445955
2842.000000	100.392187
2841.000000	100.346435
2840.000000	100.307268
2839.000000	100.273907
2838.000000	100.246999
2837.000000	100.226330
2836.000000	100.208843
2835.000000	100.190692
2834.000000	100.171268
2833.000000	100.153897
2832.000000	100.142027
2831.000000	100.135471
2830.000000	100.130745
2829.000000	100.124504
2828.000000	100.116033
2827.000000	100.106778
2826.000000	100.098489
2825.000000	100.092087
2824.000000	100.087546
2823.000000	100.084011
2822.000000	100.080306
2821.000000	100.076160
2820.000000	100.072927
2819.000000	100.072205
2818.000000	100.073571
2817.000000	100.074643
2816.000000	100.073885
2815.000000	100.072493
2814.000000	100.072621
2813.000000	100.074365
2812.000000	100.075510
2811.000000	100.074080
2810.000000	100.070301
2809.000000	100.066155
2808.000000	100.063794
2807.000000	100.064351
2806.000000	100.067249
2805.000000	100.070093
2804.000000	100.069821
2803.000000	100.064905
2802.000000	100.056847
2801.000000	100.049399
2800.000000	100.046037
2799.000000	100.047718
2798.000000	100.052599
2797.000000	100.057736
2796.000000	100.061209
2795.000000	100.063040
2794.000000	100.064594
2793.000000	100.067287
2792.000000	100.071423
2791.000000	100.075733
2790.000000	100.078201
2789.000000	100.077861
2788.000000	100.075673
2787.000000	100.073191
2786.000000	100.070762
2785.000000	100.067928
2784.000000	100.065336
2783.000000	100.064935
2782.000000	100.067714
2781.000000	100.072152
2780.000000	100.075645
2779.000000	100.077067
2778.000000	100.077348
2777.000000	100.077869
2776.000000	100.079013
2775.000000	100.080335
2774.000000	100.081504
2773.000000	100.082654
2772.000000	100.083982
2771.000000	100.085411
2770.000000	100.086786
2769.000000	100.088148
2768.000000	100.089639
2767.000000	100.091216
2766.000000	100.092665
2765.000000	100.093863
2764.000000	100.094911
2763.000000	100.095967
2762.000000	100.097133
2761.000000	100.098396
2760.000000	100.099701
2759.000000	100.101006
2758.000000	100.102295
2757.000000	100.103571
2756.000000	100.104835
2755.000000	100.106093
2754.000000	100.107348
2753.000000	100.108602
2752.000000	100.109852
2751.000000	100.111098
2750.000000	100.112347
2749.000000	100.113608
2748.000000	100.114890
2747.000000	100.116201
2746.000000	100.117544
2745.000000	100.118914
2744.000000	100.120304
2743.000000	100.121708
2742.000000	100.123121
2741.000000	100.124542
2740.000000	100.125969
2739.000000	100.127400
2738.000000	100.128830
2737.000000	100.130255
2736.000000	100.131667
2735.000000	100.133065
2734.000000	100.134449
2733.000000	100.135822
2732.000000	100.137189
2731.000000	100.138554
2730.000000	100.139925
2729.000000	100.141305
2728.000000	100.142695
2727.000000	100.144091
2726.000000	100.145492
2725.000000	100.146898
2724.000000	100.148308
2723.000000	100.149719
2722.000000	100.151121
2721.000000	100.152497
2720.000000	100.153847
2719.000000	100.155189
2718.000000	100.156551
2717.000000	100.157944
2716.000000	100.159364
2715.000000	100.160802
2714.000000	100.162246
2713.000000	100.163693
2712.000000	100.165153
2711.000000	100.166641
2710.000000	100.168163
2709.000000	100.169698
2708.000000	100.171202
2707.000000	100.172653
2706.000000	100.174048
2705.000000	100.175406
2704.000000	100.176765
2703.000000	100.178166
2702.000000	100.179609
2701.000000	100.181016
2700.000000	100.182301
2699.000000	100.183491
2698.000000	100.184699
2697.000000	100.185937
2696.000000	100.187055
2695.000000	100.187937
2694.000000	100.188664
2693.000000	100.189447
2692.000000	100.190461
2691.000000	100.191803
2690.000000	100.193497
2689.000000	100.195417
2688.000000	100.197240
2687.000000	100.198607
2686.000000	100.199372
2685.000000	100.199746
2684.000000	100.200233
2683.000000	100.201259
2682.000000	100.202771
2681.000000	100.204236
2680.000000	100.205252
2679.000000	100.206095
2678.000000	100.207395
2677.000000	100.209241
2676.000000	100.210941
2675.000000	100.211867
2674.000000	100.212225
2673.000000	100.212796
2672.000000	100.214051
2671.000000	100.215755
2670.000000	100.217282
2669.000000	100.218077
2668.000000	100.217894
2667.000000	100.216812
2666.000000	100.215168
2665.000000	100.213499
2664.000000	100.212531
2663.000000	100.212964
2662.000000	100.215021
2661.000000	100.218051
2660.000000	100.220787
2659.000000	100.222364
2658.000000	100.222903
2657.000000	100.223178
2656.000000	100.223860
2655.000000	100.225010
2654.000000	100.226228
2653.000000	100.227209
2652.000000	100.228112
2651.000000	100.229297
2650.000000	100.230692
2649.000000	100.231682
2648.000000	100.231852
2647.000000	100.231623
2646.000000	100.231794
2645.000000	100.232499
2644.000000	100.233127
2643.000000	100.233327
2642.000000	100.233546
2641.000000	100.234309
2640.000000	100.235427
2639.000000	100.236278
2638.000000	100.236639
2637.000000	100.236836
2636.000000	100.237223
2635.000000	100.237815
2634.000000	100.238489
2633.000000	100.239293
2632.000000	100.240392
2631.000000	100.241723
2630.000000	100.242869
2629.000000	100.243419
2628.000000	100.243448
2627.000000	100.243502
2626.000000	100.243973
2625.000000	100.244624
2624.000000	100.244988
2623.000000	100.245182
2622.000000	100.245841
2621.000000	100.247182
2620.000000	100.248624
2619.000000	100.249536
2618.000000	100.250126
2617.000000	100.251148
2616.000000	100.252902
2615.000000	100.254906
2614.000000	100.256479
2613.000000	100.257257
2612.000000	100.257204
2611.000000	100.256612
2610.000000	100.256131
2609.000000	100.256396
2608.000000	100.257560
2607.000000	100.259367
2606.000000	100.261604
2605.000000	100.264083
2604.000000	100.266268
2603.000000	100.267496
2602.000000	100.267764
2601.000000	100.268017
2600.000000	100.269271
2599.000000	100.271636
2598.000000	100.274386
2597.000000	100.276818
2596.000000	100.278789
2595.000000	100.280432
2594.000000	100.281701
2593.000000	100.282376
2592.000000	100.282479
2591.000000	100.282493
2590.000000	100.282991
2589.000000	100.284038
2588.000000	100.285104
2587.000000	100.285688
2586.000000	100.285880
2585.000000	100.286120
2584.000000	100.286547
2583.000000	100.286922
2582.000000	100.287175
2581.000000	100.287664
2580.000000	100.288764
2579.000000	100.290456
2578.000000	100.292393
2577.000000	100.294219
2576.000000	100.295667
2575.000000	100.296501
2574.000000	100.296605
2573.000000	100.296234
2572.000000	100.296060
2571.000000	100.296765
2570.000000	100.298451
2569.000000	100.300488
2568.000000	100.302203
2567.000000	100.303636
2566.000000	100.305289
2565.000000	100.307209
2564.000000	100.308752
2563.000000	100.309405
2562.000000	100.309459
2561.000000	100.309612
2560.000000	100.310134
2559.000000	100.310722
2558.000000	100.310954
2557.000000	100.310579
2556.000000	100.309664
2555.000000	100.308780
2554.000000	100.308799
2553.000000	100.310146
2552.000000	100.312359
2551.000000	100.314571
2550.000000	100.316346
2549.000000	100.317818
2548.000000	100.319205
2547.000000	100.320525
2546.000000	100.321714
2545.000000	100.322801
2544.000000	100.323922
2543.000000	100.325267
2542.000000	100.326930
2541.000000	100.328729
2540.000000	100.330276
2539.000000	100.331343
2538.000000	100.332061
2537.000000	100.332684
2536.000000	100.333297
2535.000000	100.333906
2534.000000	100.334647
2533.000000	100.335710
2532.000000	100.337118
2531.000000	100.338706
2530.000000	100.340286
2529.000000	100.341720
2528.000000	100.342867
2527.000000	100.343662
2526.000000	100.344218
2525.000000	100.344791
2524.000000	100.345605
2523.000000	100.346714
2522.000000	100.348032
2521.000000	100.349398
2520.000000	100.350671
2519.000000	100.351812
2518.000000	100.352907
2517.000000	100.354088
2516.000000	100.355396
2515.000000	100.356743
2514.000000	100.358000
2513.000000	100.359122
2512.000000	100.360167
2511.000000	100.361247
2510.000000	100.362445
2509.000000	100.363751
2508.000000	100.365074
2507.000000	100.366325
2506.000000	100.367518
2505.000000	100.368753
2504.000000	100.370108
2503.000000	100.371555
2502.000000	100.373002
2501.000000	100.374370
2500.000000	100.375644
2499.000000	100.376844
2498.000000	100.377991
2497.000000	100.379074
2496.000000	100.380060
2495.000000	100.380968
2494.000000	100.381944
2493.000000	100.383194
2492.000000	100.384809
2491.000000	100.386678
2490.000000	100.388532
2489.000000	100.390143
2488.000000	100.391476
2487.000000	100.392671
2486.000000	100.393909
2485.000000	100.395227
2484.000000	100.396514
2483.000000	100.397697
2482.000000	100.398881
2481.000000	100.400249
2480.000000	100.401869
2479.000000	100.403623
2478.000000	100.405293
2477.000000	100.406685
2476.000000	100.407740
2475.000000	100.408596
2474.000000	100.409511
2473.000000	100.410651
2472.000000	100.411938
2471.000000	100.413161
2470.000000	100.414215
2469.000000	100.415169
2468.000000	100.416124
2467.000000	100.417113
2466.000000	100.418145
2465.000000	100.419255
2464.000000	100.420467
2463.000000	100.421784
2462.000000	100.423219
2461.000000	100.424735
2460.000000	100.426163
2459.000000	100.427319
2458.000000	100.428257
2457.000000	100.429283
2456.000000	100.430618
2455.000000	100.432138
2454.000000	100.433555
2453.000000	100.434770
2452.000000	100.435906
2451.000000	100.437046
2450.000000	100.438119
2449.000000	100.439057
2448.000000	100.439890
2447.000000	100.440656
2446.000000	100.441400
2445.000000	100.442262
2444.000000	100.443380
2443.000000	100.444679
2442.000000	100.445850
2441.000000	100.446653
2440.000000	100.447174
2439.000000	100.447761
2438.000000	100.448736
2437.000000	100.450176
2436.000000	100.451892
2435.000000	100.453532
2434.000000	100.454762
2433.000000	100.455509
2432.000000	100.456046
2431.000000	100.456764
2430.000000	100.457782
2429.000000	100.458885
2428.000000	100.459926
2427.000000	100.461109
2426.000000	100.462706
2425.000000	100.464654
2424.000000	100.466652
2423.000000	100.468572
2422.000000	100.470482
2421.000000	100.472270
2420.000000	100.473600
2419.000000	100.474358
2418.000000	100.474919
2417.000000	100.475759
2416.000000	100.476922
2415.000000	100.478123
2414.000000	100.479192
2413.000000	100.480206
2412.000000	100.481304
2411.000000	100.482562
2410.000000	100.483998
2409.000000	100.485542
2408.000000	100.487090
2407.000000	100.488671
2406.000000	100.490431
2405.000000	100.492291
2404.000000	100.493783
2403.000000	100.494504
2402.000000	100.494620
2401.000000	100.494799
2400.000000	100.495581
2399.000000	100.496982
2398.000000	100.498682
2397.000000	100.500325
2396.000000	100.501677
2395.000000	100.502708
2394.000000	100.503657
2393.000000	100.504863
2392.000000	100.506439
2391.000000	100.508162
2390.000000	100.509718
2389.000000	100.510953
2388.000000	100.511855
2387.000000	100.512465
2386.000000	100.512882
2385.000000	100.513249
2384.000000	100.513659
2383.000000	100.514128
2382.000000	100.514653
2381.000000	100.515210
2380.000000	100.515712
2379.000000	100.516089
2378.000000	100.516400
2377.000000	100.516831
2376.000000	100.517537
2375.000000	100.518518
2374.000000	100.519646
2373.000000	100.520689
2372.000000	100.521420
2371.000000	100.521790
2370.000000	100.521975
2369.000000	100.522240
2368.000000	100.522675
2367.000000	100.523177
2366.000000	100.523649
2365.000000	100.524113
2364.000000	100.524625
2363.000000	100.525166
2362.000000	100.525691
2361.000000	100.526191
2360.000000	100.526682
2359.000000	100.527168
2358.000000	100.527633
2357.000000	100.528066
2356.000000	100.528480
2355.000000	100.528898
2354.000000	100.529342
2353.000000	100.529818
2352.000000	100.530307
2351.000000	100.530789
2350.000000	100.531277
2349.000000	100.531800
2348.000000	100.532358
2347.000000	100.532924
2346.000000	100.533480
2345.000000	100.534054
2344.000000	100.534697
2343.000000	100.535424
2342.000000	100.536215
2341.000000	100.537018
2340.000000	100.537768
2339.000000	100.538418
2338.000000	100.539030
2337.000000	100.539790
2336.000000	100.540805
2335.000000	100.541917
2334.000000	100.542823
2333.000000	100.543447
2332.000000	100.544101
2331.000000	100.545145
2330.000000	100.546579
2329.000000	100.548178
2328.000000	100.549756
2327.000000	100.551322
2326.000000	100.552799
2325.000000	100.553989
2324.000000	100.554846
2323.000000	100.555620
2322.000000	100.556759
2321.000000	100.558441
2320.000000	100.560437
2319.000000	100.562181
2318.000000	100.563175
2317.000000	100.563374
2316.000000	100.563285
2315.000000	100.563649
2314.000000	100.564806
2313.000000	100.566640
2312.000000	100.568938
2311.000000	100.571719
2310.000000	100.574923
2309.000000	100.578193
2308.000000	100.581030
2307.000000	100.583157
2306.000000	100.584557
2305.000000	100.585383
2304.000000	100.586032
2303.000000	100.587114
2302.000000	100.589079
2301.000000	100.591907
2300.000000	100.595229
2299.000000	100.598642
2298.000000	100.601666
2297.000000	100.603893
2296.000000	100.605512
2295.000000	100.607486
2294.000000	100.610378
2293.000000	100.613366
2292.000000	100.615130
2291.000000	100.615554
2290.000000	100.615728
2289.000000	100.616235
2288.000000	100.616537
2287.000000	100.616345
2286.000000	100.616489
2285.000000	100.617779
2284.000000	100.619844
2283.000000	100.621791
2282.000000	100.623512
2281.000000	100.625597
2280.000000	100.628336
2279.000000	100.631448
2278.000000	100.634514
2277.000000	100.637059
2276.000000	100.638451
2275.000000	100.638479
2274.000000	100.637946
2273.000000	100.638073
2272.000000	100.639268
2271.000000	100.640986
2270.000000	100.642589
2269.000000	100.643862
2268.000000	100.644747
2267.000000	100.645119
2266.000000	100.645007
2265.000000	100.644748
2264.000000	100.644736
2263.000000	100.645143
2262.000000	100.645911
2261.000000	100.646843
2260.000000	100.647724
2259.000000	100.648447
2258.000000	100.649042
2257.000000	100.649541
2256.000000	100.649959
2255.000000	100.650450
2254.000000	100.651265
2253.000000	100.652430
2252.000000	100.653615
2251.000000	100.654447
2250.000000	100.654904
2249.000000	100.655262
2248.000000	100.655775
2247.000000	100.656491
2246.000000	100.657317
2245.000000	100.658122
2244.000000	100.658802
2243.000000	100.659333
2242.000000	100.659781
2241.000000	100.660249
2240.000000	100.660785
2239.000000	100.661379
2238.000000	100.662007
2237.000000	100.662662
2236.000000	100.663342
2235.000000	100.664034
2234.000000	100.664730
2233.000000	100.665429
2232.000000	100.666135
2231.000000	100.666850
2230.000000	100.667575
2229.000000	100.668315
2228.000000	100.669074
2227.000000	100.669852
2226.000000	100.670647
2225.000000	100.671457
2224.000000	100.672278
2223.000000	100.673108
2222.000000	100.673950
2221.000000	100.674810
2220.000000	100.675698
2219.000000	100.676614
2218.000000	100.677556
2217.000000	100.678519
2216.000000	100.679497
2215.000000	100.680478
2214.000000	100.681449
2213.000000	100.682418
2212.000000	100.683427
2211.000000	100.684529
2210.000000	100.685731
2209.000000	100.686941
2208.000000	100.688034
2207.000000	100.688967
2206.000000	100.689869
2205.000000	100.690931
2204.000000	100.692199
2203.000000	100.693521
2202.000000	100.694769
2201.000000	100.696038
2200.000000	100.697524
2199.000000	100.699271
2198.000000	100.701056
2197.000000	100.702551
2196.000000	100.703591
2195.000000	100.704272
2194.000000	100.704915
2193.000000	100.705802
2192.000000	100.706976
2191.000000	100.708268
2190.000000	100.709511
2189.000000	100.710698
2188.000000	100.711941
2187.000000	100.713300
2186.000000	100.714724
2185.000000	100.716076
2184.000000	100.717252
2183.000000	100.718308
2182.000000	100.719478
2181.000000	100.720972
2180.000000	100.722740
2179.000000	100.724516
2178.000000	100.726137
2177.000000	100.727711
2176.000000	100.729384
2175.000000	100.731043
2174.000000	100.732403
2173.000000	100.733380
2172.000000	100.734176
2171.000000	100.734997
2170.000000	100.735832
2169.000000	100.736593
2168.000000	100.737332
2167.000000	100.738210
2166.000000	100.739326
2165.000000	100.740662
2164.000000	100.742155
2163.000000	100.743728
2162.000000	100.745240
2161.000000	100.746515
2160.000000	100.747498
2159.000000	100.748303
2158.000000	100.749134
2157.000000	100.750139
2156.000000	100.751351
2155.000000	100.752730
2154.000000	100.754186
2153.000000	100.755591
2152.000000	100.756864
2151.000000	100.758033
2150.000000	100.759183
2149.000000	100.760363
2148.000000	100.761572
2147.000000	100.762831
2146.000000	100.764210
2145.000000	100.765730
2144.000000	100.767302
2143.000000	100.768787
2142.000000	100.770133
2141.000000	100.771377
2140.000000	100.772617
2139.000000	100.773937
2138.000000	100.775380
2137.000000	100.776931
2136.000000	100.778521
2135.000000	100.780089
2134.000000	100.781641
2133.000000	100.783221
2132.000000	100.784830
2131.000000	100.786410
2130.000000	100.787914
2129.000000	100.789386
2128.000000	100.790941
2127.000000	100.792661
2126.000000	100.794500
2125.000000	100.796305
2124.000000	100.797961
2123.000000	100.799524
2122.000000	100.801175
2121.000000	100.802979
2120.000000	100.804737
2119.000000	100.806183
2118.000000	100.807344
2117.000000	100.808552
2116.000000	100.810055
2115.000000	100.811843
2114.000000	100.813872
2113.000000	100.816174
2112.000000	100.818695
2111.000000	100.821304
2110.000000	100.824011
2109.000000	100.826834
2108.000000	100.829450
2107.000000	100.831378
2106.000000	100.832607
2105.000000	100.833666
2104.000000	100.834906
2103.000000	100.836169
2102.000000	100.837385
2101.000000	100.838941
2100.000000	100.841063
2099.000000	100.843269
2098.000000	100.844909
2097.000000	100.846001
2096.000000	100.847118
2095.000000	100.848581
2094.000000	100.850108
2093.000000	100.851178
2092.000000	100.851573
2091.000000	100.851700
2090.000000	100.852476
2089.000000	100.854634
2088.000000	100.857945
2087.000000	100.861283
2086.000000	100.863724
2085.000000	100.865396
2084.000000	100.867101
2083.000000	100.869461
2082.000000	100.872624
2081.000000	100.876405
2080.000000	100.880250
2079.000000	100.883246
2078.000000	100.884704
2077.000000	100.884798
2076.000000	100.884437
2075.000000	100.884400
2074.000000	100.884700
2073.000000	100.884897
2072.000000	100.884830
2071.000000	100.884828
2070.000000	100.885244
2069.000000	100.886073
2068.000000	100.887251
2067.000000	100.889168
2066.000000	100.892372
2065.000000	100.896604
2064.000000	100.900579
2063.000000	100.903219
2062.000000	100.904682
2061.000000	100.905786
2060.000000	100.906849
2059.000000	100.907681
2058.000000	100.908457
2057.000000	100.909652
2056.000000	100.911078
2055.000000	100.911862
2054.000000	100.911701
2053.000000	100.911489
2052.000000	100.912306
2051.000000	100.914167
2050.000000	100.916118
2049.000000	100.917305
2048.000000	100.917653
2047.000000	100.917618
2046.000000	100.917583
2045.000000	100.917563
2044.000000	100.917356
2043.000000	100.916950
2042.000000	100.916688
2041.000000	100.916927
2040.000000	100.917631
2039.000000	100.918418
2038.000000	100.918950
2037.000000	100.919104
2036.000000	100.918957
2035.000000	100.918860
2034.000000	100.919357
2033.000000	100.920723
2032.000000	100.922575
2031.000000	100.924078
2030.000000	100.924753
2029.000000	100.924822
2028.000000	100.924818
2027.000000	100.925034
2026.000000	100.925404
2025.000000	100.925782
2024.000000	100.926162
2023.000000	100.926644
2022.000000	100.927269
2021.000000	100.927909
2020.000000	100.928346
2019.000000	100.928500
2018.000000	100.928531
2017.000000	100.928684
2016.000000	100.929039
2015.000000	100.929476
2014.000000	100.929895
2013.000000	100.930343
2012.000000	100.930893
2011.000000	100.931521
2010.000000	100.932144
2009.000000	100.932724
2008.000000	100.933276
2007.000000	100.933787
2006.000000	100.934220
2005.000000	100.934576
2004.000000	100.934920
2003.000000	100.935345
2002.000000	100.935907
2001.000000	100.936594
2000.000000	100.937313
1999.000000	100.937949
1998.000000	100.938468
1997.000000	100.938924
1996.000000	100.939396
1995.000000	100.939919
1994.000000	100.940509
1993.000000	100.941172
1992.000000	100.941878
1991.000000	100.942569
1990.000000	100.943245
1989.000000	100.943989
1988.000000	100.944861
1987.000000	100.945811
1986.000000	100.946743
1985.000000	100.947629
1984.000000	100.948474
1983.000000	100.949219
1982.000000	100.949749
1981.000000	100.950034
1980.000000	100.950205
1979.000000	100.950527
1978.000000	100.951238
1977.000000	100.952400
1976.000000	100.953843
1975.000000	100.955233
1974.000000	100.956305
1973.000000	100.956992
1972.000000	100.957422
1971.000000	100.957798
1970.000000	100.958270
1969.000000	100.958915
1968.000000	100.959793
1967.000000	100.960924
1966.000000	100.962187
1965.000000	100.963339
1964.000000	100.964258
1963.000000	100.965087
1962.000000	100.966069
1961.000000	100.967175
1960.000000	100.968026
1959.000000	100.968313
1958.000000	100.968165
1957.000000	100.968048
1956.000000	100.968357
1955.000000	100.969172
1954.000000	100.970318
1953.000000	100.971455
1952.000000	100.972253
1951.000000	100.972570
1950.000000	100.972537
1949.000000	100.972423
1948.000000	100.972299
1947.000000	100.972073
1946.000000	100.971884
1945.000000	100.972143
1944.000000	100.973026
1943.000000	100.974212
1942.000000	100.975360
1941.000000	100.976584
1940.000000	100.978125
1939.000000	100.979775
1938.000000	100.981010
1937.000000	100.981669
1936.000000	100.982088
1935.000000	100.982567
1934.000000	100.983062
1933.000000	100.983415
1932.000000	100.983636
1931.000000	100.983606
1930.000000	100.983016
1929.000000	100.981859
1928.000000	100.980379
1927.000000	100.979059
1926.000000	100.978367
1925.000000	100.978714
1924.000000	100.980239
1923.000000	100.982379
1922.000000	100.984297
1921.000000	100.985607
1920.000000	100.986371
1919.000000	100.986653
1918.000000	100.986668
1917.000000	100.986944
1916.000000	100.987741
1915.000000	100.988768
1914.000000	100.989582
1913.000000	100.989921
1912.000000	100.989697
1911.000000	100.988765
1910.000000	100.987357
1909.000000	100.986450
1908.000000	100.986748
1907.000000	100.987914
1906.000000	100.988899
1905.000000	100.989072
1904.000000	100.988460
1903.000000	100.986914
1902.000000	100.984362
1901.000000	100.981458
1900.000000	100.979131
1899.000000	100.977817
1898.000000	100.977385
1897.000000	100.977737
1896.000000	100.978819
1895.000000	100.979914
1894.000000	100.980052
1893.000000	100.979284
1892.000000	100.978801
1891.000000	100.979473
1890.000000	100.980631
1889.000000	100.980474
1888.000000	100.977917
1887.000000	100.973918
1886.000000	100.970723
1885.000000	100.969974
1884.000000	100.971636
1883.000000	100.974345
1882.000000	100.976913
1881.000000	100.979160
1880.000000	100.981182
1879.000000	100.982822
1878.000000	100.983765
1877.000000	100.983680
1876.000000	100.982402
1875.000000	100.980068
1874.000000	100.977378
1873.000000	100.975508
1872.000000	100.975189
1871.000000	100.976234
1870.000000	100.978298
1869.000000	100.981615
1868.000000	100.985819
1867.000000	100.989157
1866.000000	100.990369
1865.000000	100.989985
1864.000000	100.989612
1863.000000	100.990738
1862.000000	100.993992
1861.000000	100.999100
1860.000000	101.004982
1859.000000	101.010114
1858.000000	101.013363
1857.000000	101.014602
1856.000000	101.014552
1855.000000	101.014169
1854.000000	101.014178
1853.000000	101.015055
1852.000000	101.016646
1851.000000	101.018574
1850.000000	101.020710
1849.000000	101.022993
1848.000000	101.025348
1847.000000	101.027709
1846.000000	101.030086
1845.000000	101.032340
1844.000000	101.034230
1843.000000	101.035568
1842.000000	101.036780
1841.000000	101.038684
1840.000000	101.041360
1839.000000	101.044288
1838.000000	101.046885
1837.000000	101.048830
1836.000000	101.050094
1835.000000	101.050838
1834.000000	101.051481
1833.000000	101.052437
1832.000000	101.053861
1831.000000	101.056037
1830.000000	101.059157
1829.000000	101.061995
1828.000000	101.062885
1827.000000	101.062139
1826.000000	101.061677
1825.000000	101.062858
1824.000000	101.065194
1823.000000	101.067385
1822.000000	101.069520
1821.000000	101.072312
1820.000000	101.075195
1819.000000	101.076763
1818.000000	101.076305
1817.000000	101.075040
1816.000000	101.074762
1815.000000	101.075598
1814.000000	101.076940
1813.000000	101.078449
1812.000000	101.080178
1811.000000	101.081785
1810.000000	101.082673
1809.000000	101.083698
1808.000000	101.085535
1807.000000	101.086919
1806.000000	101.087293
1805.000000	101.088967
1804.000000	101.094272
1803.000000	101.101744
1802.000000	101.108307
1801.000000	101.112631
1800.000000	101.115080
1799.000000	101.115144
1798.000000	101.112015
1797.000000	101.107438
1796.000000	101.103791
1795.000000	101.101079
1794.000000	101.098249
1793.000000	101.096500
1792.000000	101.099212
1791.000000	101.105802
1790.000000	101.112176
1789.000000	101.117337
1788.000000	101.122570
1787.000000	101.128356
1786.000000	101.134511
1785.000000	101.141219
1784.000000	101.148184
1783.000000	101.154216
1782.000000	101.160303
1781.000000	101.167940
1780.000000	101.176655
1779.000000	101.184389
1778.000000	101.189992
1777.000000	101.194886
1776.000000	101.199852
1775.000000	101.204665
1774.000000	101.209551
1773.000000	101.215709
1772.000000	101.224050
1771.000000	101.233015
1770.000000	101.241951
1769.000000	101.253708
1768.000000	101.270203
1767.000000	101.288889
1766.000000	101.306008
1765.000000	101.321407
1764.000000	101.338479
1763.000000	101.360326
1762.000000	101.386966
1761.000000	101.412931
1760.000000	101.432715
1759.000000	101.446582
1758.000000	101.459272
1757.000000	101.476501
1756.000000	101.499800
1755.000000	101.526950
1754.000000	101.556692
1753.000000	101.589592
1752.000000	101.625566
1751.000000	101.663565
1750.000000	101.700719
1749.000000	101.734280
1748.000000	101.762470
1747.000000	101.783810
1746.000000	101.799244
1745.000000	101.810284
1744.000000	101.817400
1743.000000	101.819373
1742.000000	101.813739
1741.000000	101.798684
1740.000000	101.775011
1739.000000	101.746139
1738.000000	101.715628
1737.000000	101.684173
1736.000000	101.648048
1735.000000	101.603131
1734.000000	101.559499
1733.000000	101.528917
1732.000000	101.507261
1731.000000	101.488763
1730.000000	101.472278
1729.000000	101.458154
1728.000000	101.445880
1727.000000	101.433290
1726.000000	101.418757
1725.000000	101.401764
1724.000000	101.384902
1723.000000	101.371084
1722.000000	101.360390
1721.000000	101.352083
1720.000000	101.345711
1719.000000	101.339992
1718.000000	101.333445
1717.000000	101.326744
1716.000000	101.321735
1715.000000	101.319033
1714.000000	101.317419
1713.000000	101.315705
1712.000000	101.313995
1711.000000	101.312333
1710.000000	101.310470
1709.000000	101.308385
1708.000000	101.306285
1707.000000	101.305170
1706.000000	101.305734
1705.000000	101.307743
1704.000000	101.309242
1703.000000	101.309209
1702.000000	101.306669
1701.000000	101.301128
1700.000000	101.298189
1699.000000	101.297858
1698.000000	101.298034
1697.000000	101.302822
1696.000000	101.312507
1695.000000	101.319705
1694.000000	101.319001
1693.000000	101.314778
1692.000000	101.312467
1691.000000	101.312175
1690.000000	101.312294
1689.000000	101.311971
1688.000000	101.310627
1687.000000	101.309948
1686.000000	101.311390
1685.000000	101.315822
1684.000000	101.323419
1683.000000	101.326001
1682.000000	101.322709
1681.000000	101.321554
1680.000000	101.323239
1679.000000	101.325378
1678.000000	101.328203
1677.000000	101.332974
1676.000000	101.339511
1675.000000	101.346091
1674.000000	101.350875
1673.000000	101.353442
1672.000000	101.355463
1671.000000	101.357950
1670.000000	101.361678
1669.000000	101.366439
1668.000000	101.369794
1667.000000	101.371508
1666.000000	101.373601
1665.000000	101.377004
1664.000000	101.381146
1663.000000	101.384646
1662.000000	101.386881
1661.000000	101.387991
1660.000000	101.388472
1659.000000	101.388930
1658.000000	101.389873
1657.000000	101.391363
1656.000000	101.393028
1655.000000	101.394283
1654.000000	101.394923
1653.000000	101.398111
1652.000000	101.398991
1651.000000	101.394403
1650.000000	101.390985
1649.000000	101.391223
1648.000000	101.394122
1647.000000	101.399040
1646.000000	101.403922
1645.000000	101.406773
1644.000000	101.408784
1643.000000	101.411144
1642.000000	101.413671
1641.000000	101.415751
1640.000000	101.416794
1639.000000	101.416989
1638.000000	101.416702
1637.000000	101.416212
1636.000000	101.416854
1635.000000	101.419376
1634.000000	101.421557
1633.000000	101.422886
1632.000000	101.424452
1631.000000	101.425863
1630.000000	101.427061
1629.000000	101.428437
1628.000000	101.429748
1627.000000	101.430528
1626.000000	101.432253
1625.000000	101.436813
1624.000000	101.443482
1623.000000	101.448797
1622.000000	101.450146
1621.000000	101.448821
1620.000000	101.447805
1619.000000	101.449177
1618.000000	101.454036
1617.000000	101.463416
1616.000000	101.474246
1615.000000	101.481227
1614.000000	101.485179
1613.000000	101.490206
1612.000000	101.497668
1611.000000	101.506107
1610.000000	101.513737
1609.000000	101.519521
1608.000000	101.523206
1607.000000	101.525866
1606.000000	101.530175
1605.000000	101.537865
1604.000000	101.548199
1603.000000	101.559416
1602.000000	101.569574
1601.000000	101.577184
1600.000000	101.581839
1599.000000	101.584607
1598.000000	101.587167
1597.000000	101.590134
1596.000000	101.592840
1595.000000	101.594482
1594.000000	101.595389
1593.000000	101.596929
1592.000000	101.600285
1591.000000	101.605422
1590.000000	101.610877
1589.000000	101.614551
1588.000000	101.615395
1587.000000	101.614577
1586.000000	101.614571
1585.000000	101.617273
1584.000000	101.622558
1583.000000	101.629900
1582.000000	101.638640
1581.000000	101.646512
1580.000000	101.651090
1579.000000	101.653043
1578.000000	101.655169
1577.000000	101.658359
1576.000000	101.660502
1575.000000	101.658712
1574.000000	101.654740
1573.000000	101.651892
1572.000000	101.649450
1571.000000	101.645169
1570.000000	101.641288
1569.000000	101.642081
1568.000000	101.645847
1567.000000	101.649442
1566.000000	101.651886
1565.000000	101.652840
1564.000000	101.652126
1563.000000	101.651531
1562.000000	101.652256
1561.000000	101.653909
1560.000000	101.653370
1559.000000	101.661342
1558.000000	101.674694
1557.000000	101.678523
1556.000000	101.678556
1555.000000	101.679175
1554.000000	101.679056
1553.000000	101.677597
1552.000000	101.676264
1551.000000	101.678240
1550.000000	101.682977
1549.000000	101.687514
1548.000000	101.689879
1547.000000	101.691196
1546.000000	101.693136
1545.000000	101.695861
1544.000000	101.698493
1543.000000	101.699879
1542.000000	101.698709
1541.000000	101.694694
1540.000000	101.690224
1539.000000	101.683229
1538.000000	101.670809
1537.000000	101.655438
1536.000000	101.638534
1535.000000	101.618689
1534.000000	101.599005
1533.000000	101.585873
1532.000000	101.579749
1531.000000	101.576685
1530.000000	101.573914
1529.000000	101.569955
1528.000000	101.564024
1527.000000	101.556357
1526.000000	101.548882
1525.000000	101.542426
1524.000000	101.535533
1523.000000	101.526637
1522.000000	101.518310
1521.000000	101.515834
1520.000000	101.516775
1519.000000	101.516046
1518.000000	101.513570
1517.000000	101.510131
1516.000000	101.504676
1515.000000	101.495535
1514.000000	101.484737
1513.000000	101.476030
1512.000000	101.471866
1511.000000	101.472054
1510.000000	101.473209
1509.000000	101.472364
1508.000000	101.468223
1507.000000	101.465918
1506.000000	101.466832
1505.000000	101.467182
1504.000000	101.468549
1503.000000	101.472500
1502.000000	101.477588
1501.000000	101.482291
1500.000000	101.485506
1499.000000	101.487019
1498.000000	101.486922
1497.000000	101.486433
1496.000000	101.487928
1495.000000	101.490862
1494.000000	101.493983
1493.000000	101.497671
1492.000000	101.501505
1491.000000	101.504033
1490.000000	101.505684
1489.000000	101.508711
1488.000000	101.514987
1487.000000	101.523887
1486.000000	101.533619
1485.000000	101.543547
1484.000000	101.552056
1483.000000	101.559050
1482.000000	101.567295
1481.000000	101.579406
1480.000000	101.593754
1479.000000	101.605567
1478.000000	101.612618
1477.000000	101.617735
1476.000000	101.626723
1475.000000	101.643935
1474.000000	101.674151
1473.000000	101.721790
1472.000000	101.780301
1471.000000	101.833958
1470.000000	101.876561
1469.000000	101.911959
1468.000000	101.942497
1467.000000	101.966262
1466.000000	101.980544
1465.000000	101.985780
1464.000000	101.985800
1463.000000	101.985625
1462.000000	101.987425
1461.000000	101.990178
1460.000000	101.991711
1459.000000	101.991412
1458.000000	101.990121
1457.000000	101.987567
1456.000000	101.979004
1455.000000	101.964173
1454.000000	101.949103
1453.000000	101.935273
1452.000000	101.921208
1451.000000	101.907584
1450.000000	101.897118
1449.000000	101.891794
1448.000000	101.890835
1447.000000	101.889871
1446.000000	101.885912
1445.000000	101.879900
1444.000000	101.875301
1443.000000	101.874856
1442.000000	101.876462
1441.000000	101.874990
1440.000000	101.867449
1439.000000	101.855898
1438.000000	101.843720
1437.000000	101.834635
1436.000000	101.830247
1435.000000	101.827751
1434.000000	101.824491
1433.000000	101.819751
1432.000000	101.812828
1431.000000	101.804552
1430.000000	101.797574
1429.000000	101.793861
1428.000000	101.793388
1427.000000	101.794055
1426.000000	101.794859
1425.000000	101.796424
1424.000000	101.800403
1423.000000	101.807712
1422.000000	101.816323
1421.000000	101.822878
1420.000000	101.824853
1419.000000	101.823447
1418.000000	101.820011
1417.000000	101.814750
1416.000000	101.809781
1415.000000	101.806765
1414.000000	101.805643
1413.000000	101.806086
1412.000000	101.808426
1411.000000	101.812707
1410.000000	101.816802
1409.000000	101.818429
1408.000000	101.819031
1407.000000	101.822160
1406.000000	101.829258
1405.000000	101.836658
1404.000000	101.838761
1403.000000	101.834786
1402.000000	101.828576
1401.000000	101.823609
1400.000000	101.820882
1399.000000	101.820655
1398.000000	101.823230
1397.000000	101.828649
1396.000000	101.835796
1395.000000	101.842132
1394.000000	101.846724
1393.000000	101.851647
1392.000000	101.859549
1391.000000	101.869936
1390.000000	101.879537
1389.000000	101.886894
1388.000000	101.894924
1387.000000	101.906821
1386.000000	101.920840
1385.000000	101.932973
1384.000000	101.942100
1383.000000	101.949853
1382.000000	101.957787
1381.000000	101.966420
1380.000000	101.975090
1379.000000	101.981967
1378.000000	101.985090
1377.000000	101.983885
1376.000000	101.979434
1375.000000	101.973531
1374.000000	101.967894
1373.000000	101.963237
1372.000000	101.959979
1371.000000	101.959032
1370.000000	101.961779
1369.000000	101.968471
1368.000000	101.976618
1367.000000	101.982014
1366.000000	101.981755
1365.000000	101.976292
1364.000000	101.968957
1363.000000	101.963661
1362.000000	101.961868
1361.000000	101.962394
1360.000000	101.963933
1359.000000	101.965758
1358.000000	101.966826
1357.000000	101.965976
1356.000000	101.963245
1355.000000	101.960219
1354.000000	101.958587
1353.000000	101.958686
1352.000000	101.959858
1351.000000	101.961034
1350.000000	101.961758
1349.000000	101.962010
1348.000000	101.961898
1347.000000	101.961808
1346.000000	101.962151
1345.000000	101.962938
1344.000000	101.963660
1343.000000	101.963774
1342.000000	101.963217
1341.000000	101.962467
1340.000000	101.962028
1339.000000	101.961813
1338.000000	101.961301
1337.000000	101.960503
1336.000000	101.960161
1335.000000	101.960666
1334.000000	101.961302
1333.000000	101.960981
1332.000000	101.959622
1331.000000	101.958414
1330.000000	101.958742
1329.000000	101.961148
1328.000000	101.965304
1327.000000	101.970143
1326.000000	101.974035
1325.000000	101.975478
1324.000000	101.974417
1323.000000	101.972596
1322.000000	101.971824
1321.000000	101.972290
1320.000000	101.973209
1319.000000	101.974503
1318.000000	101.976778
1317.000000	101.979936
1316.000000	101.982914
1315.000000	101.984865
1314.000000	101.985913
1313.000000	101.986653
1312.000000	101.987382
1311.000000	101.987787
1310.000000	101.987087
1309.000000	101.984652
1308.000000	101.981120
1307.000000	101.978721
1306.000000	101.979721
1305.000000	101.984071
1304.000000	101.989062
1303.000000	101.991563
1302.000000	101.990315
1301.000000	101.986175
1300.000000	101.980822
1299.000000	101.975575
1298.000000	101.971147
1297.000000	101.968049
1296.000000	101.966885
1295.000000	101.968152
1294.000000	101.971584
1293.000000	101.975658
1292.000000	101.978170
1291.000000	101.977781
1290.000000	101.975181
1289.000000	101.972512
1288.000000	101.971330
1287.000000	101.971236
1286.000000	101.970789
1285.000000	101.969481
1284.000000	101.968149
1283.000000	101.967431
1282.000000	101.966759
1281.000000	101.965382
1280.000000	101.963502
1279.000000	101.961667
1278.000000	101.959849
1277.000000	101.958331
1276.000000	101.958725
1275.000000	101.962252
1274.000000	101.967098
1273.000000	101.969497
1272.000000	101.968246
1271.000000	101.966456
1270.000000	101.967526
1269.000000	101.970819
1268.000000	101.973257
1267.000000	101.974374
1266.000000	101.977315
1265.000000	101.984309
1264.000000	101.992838
1263.000000	101.997637
1262.000000	101.995947
1261.000000	101.989735
1260.000000	101.982840
1259.000000	101.977165
1258.000000	101.972360
1257.000000	101.968193
1256.000000	101.965220
1255.000000	101.962815
1254.000000	101.958576
1253.000000	101.951366
1252.000000	101.943770
1251.000000	101.939510
1250.000000	101.938779
1249.000000	101.938017
1248.000000	101.934156
1247.000000	101.927068
1246.000000	101.917770
1245.000000	101.906752
1244.000000	101.895266
1243.000000	101.886220
1242.000000	101.881761
1241.000000	101.880428
1240.000000	101.877750
1239.000000	101.869568
1238.000000	101.854963
1237.000000	101.837043
1236.000000	101.821145
1235.000000	101.811010
1234.000000	101.806012
1233.000000	101.802519
1232.000000	101.797441
1231.000000	101.789298
1230.000000	101.776950
1229.000000	101.760103
1228.000000	101.741268
1227.000000	101.724405
1226.000000	101.710228
1225.000000	101.694700
1224.000000	101.673303
1223.000000	101.645086
1222.000000	101.611889
1221.000000	101.575827
1220.000000	101.538959
1219.000000	101.503373
1218.000000	101.469223
1217.000000	101.433585
1216.000000	101.392907
1215.000000	101.346017
1214.000000	101.294238
1213.000000	101.239852
1212.000000	101.185235
1211.000000	101.131935
1210.000000	101.079674
1209.000000	101.027546
1208.000000	100.976392
1207.000000	100.927872
1206.000000	100.880897
1205.000000	100.831816
1204.000000	100.779118
1203.000000	100.725477
1202.000000	100.674454
1201.000000	100.627568
1200.000000	100.584779
1199.000000	100.544505
1198.000000	100.502354
1197.000000	100.453593
1196.000000	100.398696
1195.000000	100.343687
1194.000000	100.293347
1193.000000	100.246401
1192.000000	100.198492
1191.000000	100.146987
1190.000000	100.091546
1189.000000	100.032933
1188.000000	99.972941
1187.000000	99.913201
1186.000000	99.852945
1185.000000	99.790361
1184.000000	99.726541
1183.000000	99.664644
1182.000000	99.604446
1181.000000	99.541607
1180.000000	99.473410
1179.000000	99.401105
1178.000000	99.325439
1177.000000	99.244797
1176.000000	99.160135
1175.000000	99.076969
1174.000000	98.999066
1173.000000	98.923814
1172.000000	98.846858
1171.000000	98.767738
1170.000000	98.688191
1169.000000	98.608971
1168.000000	98.531875
1167.000000	98.461654
1166.000000	98.402727
1165.000000	98.357134
1164.000000	98.328316
1163.000000	98.322873
1162.000000	98.344480
1161.000000	98.387590
1160.000000	98.438600
1159.000000	98.481235
1158.000000	98.501270
1157.000000	98.491349
1156.000000	98.454716
1155.000000	98.402264
1154.000000	98.343247
1153.000000	98.279728
1152.000000	98.210374
1151.000000	98.135738
1150.000000	98.058013
1149.000000	97.979414
1148.000000	97.903088
1147.000000	97.832092
1146.000000	97.765216
1145.000000	97.697234
1144.000000	97.625158
1143.000000	97.550929
1142.000000	97.476924
1141.000000	97.403339
1140.000000	97.331500
1139.000000	97.264467
1138.000000	97.201733
1137.000000	97.138007
1136.000000	97.069916
1135.000000	96.999553
1134.000000	96.929206
1133.000000	96.857505
1132.000000	96.783563
1131.000000	96.710226
1130.000000	96.640152
1129.000000	96.572694
1128.000000	96.506949
1127.000000	96.443436
1126.000000	96.380676
1125.000000	96.315154
1124.000000	96.247071
1123.000000	96.181271
1122.000000	96.120148
1121.000000	96.060598
1120.000000	95.999949
1119.000000	95.939138
1118.000000	95.877534
1117.000000	95.811091
1116.000000	95.739413
1115.000000	95.669164
1114.000000	95.606267
1113.000000	95.549218
1112.000000	95.493389
1111.000000	95.436632
1110.000000	95.377674
1109.000000	95.314411
1108.000000	95.247509
1107.000000	95.181725
1106.000000	95.121263
1105.000000	95.067187
1104.000000	95.019152
1103.000000	94.974169
1102.000000	94.924628
1101.000000	94.865349
1100.000000	94.803023
1099.000000	94.749940
1098.000000	94.707604
1097.000000	94.665030
1096.000000	94.614266
1095.000000	94.558142
1094.000000	94.500912
1093.000000	94.441699
1092.000000	94.380605
1091.000000	94.321831
1090.000000	94.267186
1089.000000	94.215299
1088.000000	94.169397
1087.000000	94.135287
1086.000000	94.108576
1085.000000	94.075456
1084.000000	94.031088
1083.000000	93.986542
1082.000000	93.952095
1081.000000	93.923552
1080.000000	93.891139
1079.000000	93.852286
1078.000000	93.809164
1077.000000	93.762651
1076.000000	93.715924
1075.000000	93.675982
1074.000000	93.643507
1073.000000	93.606657
1072.000000	93.551003
1071.000000	93.470933
1070.000000	93.368524
1069.000000	93.248206
1068.000000	93.116798
1067.000000	92.982177
1066.000000	92.846563
1065.000000	92.706185
1064.000000	92.560877
1063.000000	92.417938
1062.000000	92.283670
1061.000000	92.157884
1060.000000	92.039195
1059.000000	91.928050
1058.000000	91.822046
1057.000000	91.715924
1056.000000	91.607942
1055.000000	91.498472
1054.000000	91.382421
1053.000000	91.253890
1052.000000	91.119390
1051.000000	90.992735
1050.000000	90.873019
1049.000000	90.742929
1048.000000	90.593542
1047.000000	90.434552
1046.000000	90.275555
1045.000000	90.113768
1044.000000	89.946019
1043.000000	89.778141
1042.000000	89.615526
1041.000000	89.456063
1040.000000	89.298882
1039.000000	89.149622
1038.000000	89.011409
1037.000000	88.881065
1036.000000	88.758896
1035.000000	88.651171
1034.000000	88.558435
1033.000000	88.472975
1032.000000	88.392590
1031.000000	88.325225
1030.000000	88.274993
1029.000000	88.235101
1028.000000	88.199570
1027.000000	88.171077
1026.000000	88.152280
1025.000000	88.139696
1024.000000	88.130270
1023.000000	88.123648
1022.000000	88.114819
1021.000000	88.095395
1020.000000	88.065133
1019.000000	88.031431
1018.000000	87.995627
1017.000000	87.951940
1016.000000	87.901852
1015.000000	87.855678
1014.000000	87.816031
1013.000000	87.773122
1012.000000	87.721269
1011.000000	87.667713
1010.000000	87.620268
1009.000000	87.578191
1008.000000	87.540011
1007.000000	87.508794
1006.000000	87.484851
1005.000000	87.464023
1004.000000	87.447280
1003.000000	87.441388
1002.000000	87.446518
1001.000000	87.454234
1000.000000	87.460886
999.000000	87.471731
998.000000	87.488783
997.000000	87.506415
996.000000	87.522514
995.000000	87.542510
994.000000	87.568656
993.000000	87.596352
992.000000	87.624226
991.000000	87.656640
990.000000	87.693110
989.000000	87.726656
988.000000	87.756033
987.000000	87.788945
986.000000	87.830739
985.000000	87.881186
984.000000	87.944003
983.000000	88.026277
982.000000	88.124664
981.000000	88.224463
980.000000	88.317272
979.000000	88.409412
978.000000	88.509731
977.000000	88.620246
976.000000	88.741579
975.000000	88.875651
974.000000	89.018847
973.000000	89.163220
972.000000	89.308267
971.000000	89.461534
970.000000	89.624730
969.000000	89.789555
968.000000	89.950095
967.000000	90.109031
966.000000	90.268861
965.000000	90.427511
964.000000	90.585539
963.000000	90.746810
962.000000	90.908249
961.000000	91.059440
960.000000	91.197053
959.000000	91.330548
958.000000	91.468983
957.000000	91.609903
956.000000	91.745040
955.000000	91.869270
954.000000	91.980961
953.000000	92.081504
952.000000	92.177684
951.000000	92.276755
950.000000	92.376118
949.000000	92.465322
948.000000	92.540253
947.000000	92.607143
946.000000	92.670995
945.000000	92.729554
944.000000	92.781786
943.000000	92.832335
942.000000	92.883036
941.000000	92.929220
940.000000	92.969937
939.000000	93.013302
938.000000	93.065449
937.000000	93.121131
936.000000	93.171410
935.000000	93.214788
934.000000	93.255462
933.000000	93.295782
932.000000	93.335687
931.000000	93.375743
930.000000	93.416814
929.000000	93.459738
928.000000	93.506736
927.000000	93.558500
926.000000	93.609224
925.000000	93.650861
924.000000	93.683885
923.000000	93.717780
922.000000	93.759354
921.000000	93.806469
920.000000	93.853872
919.000000	93.897944
918.000000	93.934728
917.000000	93.961452
916.000000	93.982536
915.000000	94.007239
914.000000	94.039410
913.000000	94.076339
912.000000	94.118542
911.000000	94.172303
910.000000	94.240849
909.000000	94.321597
908.000000	94.413995
907.000000	94.521111
906.000000	94.641260
905.000000	94.767249
904.000000	94.896561
903.000000	95.032954
902.000000	95.175096
901.000000	95.313609
900.000000	95.443712
899.000000	95.571776
898.000000	95.704451
897.000000	95.839415
896.000000	95.971883
895.000000	96.102748
894.000000	96.234510
893.000000	96.365133
892.000000	96.491282
891.000000	96.612961
890.000000	96.730684
889.000000	96.842480
888.000000	96.947275
887.000000	97.046925
886.000000	97.142054
885.000000	97.230561
884.000000	97.312853
883.000000	97.393282
882.000000	97.473674
881.000000	97.551375
880.000000	97.626889
879.000000	97.706775
878.000000	97.794483
877.000000	97.884640
876.000000	97.971389
875.000000	98.056433
874.000000	98.143879
873.000000	98.233322
872.000000	98.324098
871.000000	98.420947
870.000000	98.528357
869.000000	98.642327
868.000000	98.753731
867.000000	98.858138
866.000000	98.958056
865.000000	99.057321
864.000000	99.157309
863.000000	99.257456
862.000000	99.355900
861.000000	99.449799
860.000000	99.537050
859.000000	99.617493
858.000000	99.692139
857.000000	99.762977
856.000000	99.833521
855.000000	99.906040
854.000000	99.976815
853.000000	100.037711
852.000000	100.085214
851.000000	100.125616
850.000000	100.168801
849.000000	100.218927
848.000000	100.273218
847.000000	100.326803
846.000000	100.375432
845.000000	100.415685
844.000000	100.446161
843.000000	100.467956
842.000000	100.481857
841.000000	100.486111
840.000000	100.478966
839.000000	100.462047
838.000000	100.438735
837.000000	100.410097
836.000000	100.375071
835.000000	100.334647
834.000000	100.294208
833.000000	100.261619
832.000000	100.243080
831.000000	100.238542
830.000000	100.239699
829.000000	100.235454
828.000000	100.222978
827.000000	100.212980
826.000000	100.221577
825.000000	100.256233
824.000000	100.309165
823.000000	100.362121
822.000000	100.397172
821.000000	100.406894
820.000000	100.397956
819.000000	100.384965
818.000000	100.378329
817.000000	100.375541
816.000000	100.362650
815.000000	100.324097
814.000000	100.252855
813.000000	100.152369
812.000000	100.027921
811.000000	99.875458
810.000000	99.680554
809.000000	99.429967
808.000000	99.122749
807.000000	98.768967
806.000000	98.381639
805.000000	97.975490
804.000000	97.571519
803.000000	97.193592
802.000000	96.857532
801.000000	96.570105
800.000000	96.339414
799.000000	96.176303
798.000000	96.082456
797.000000	96.046824
796.000000	96.057264
795.000000	96.106245
794.000000	96.182204
793.000000	96.266446
792.000000	96.344816
791.000000	96.414873
790.000000	96.476536
789.000000	96.521884
788.000000	96.538370
787.000000	96.516875
786.000000	96.454022
785.000000	96.352794
784.000000	96.224586
783.000000	96.085431
782.000000	95.946733
781.000000	95.814474
780.000000	95.699098
779.000000	95.618088
778.000000	95.584085
777.000000	95.596451
776.000000	95.647573
775.000000	95.730566
774.000000	95.837680
773.000000	95.958038
772.000000	96.081231
771.000000	96.199602
770.000000	96.307072
769.000000	96.401905
768.000000	96.490517
767.000000	96.580572
766.000000	96.668786
765.000000	96.743378
764.000000	96.800458
763.000000	96.849482
762.000000	96.899330
761.000000	96.947263
760.000000	96.986398
759.000000	97.017352
758.000000	97.047643
757.000000	97.084999
756.000000	97.135091
755.000000	97.200024
754.000000	97.274926
753.000000	97.350928
752.000000	97.424387
751.000000	97.498170
750.000000	97.572625
749.000000	97.642878
748.000000	97.708215
747.000000	97.776280
746.000000	97.853070
745.000000	97.935726
744.000000	98.020805
743.000000	98.112682
742.000000	98.216122
741.000000	98.325558
740.000000	98.429854
739.000000	98.525518
738.000000	98.618942
737.000000	98.716564
736.000000	98.817414
735.000000	98.914574
734.000000	99.000265
733.000000	99.070384
732.000000	99.127628
731.000000	99.180064
730.000000	99.234223
729.000000	99.289408
728.000000	99.339550
727.000000	99.379426
726.000000	99.409066
725.000000	99.435094
724.000000	99.468584
723.000000	99.517897
722.000000	99.580906
721.000000	99.646003
720.000000	99.702296
719.000000	99.747617
718.000000	99.787162
717.000000	99.828199
716.000000	99.876450
715.000000	99.932223
714.000000	99.987879
713.000000	100.033636
712.000000	100.068148
711.000000	100.099177
710.000000	100.131743
709.000000	100.160520
708.000000	100.177231
707.000000	100.181019
706.000000	100.176991
705.000000	100.167643
704.000000	100.149295
703.000000	100.112924
702.000000	100.043992
701.000000	99.925017
700.000000	99.745392
699.000000	99.512009
698.000000	99.250541
697.000000	98.998061
696.000000	98.793280
695.000000	98.665547
694.000000	98.625665
693.000000	98.664492
692.000000	98.759089
691.000000	98.880960
690.000000	99.004876
689.000000	99.119781
688.000000	99.233488
687.000000	99.359437
686.000000	99.494764
685.000000	99.617001
684.000000	99.706681
683.000000	99.768713
682.000000	99.825870
681.000000	99.893566
680.000000	99.966325
679.000000	100.029474
678.000000	100.078562
677.000000	100.121956
676.000000	100.168622
675.000000	100.220699
674.000000	100.276941
673.000000	100.337424
672.000000	100.401280
671.000000	100.461683
670.000000	100.506953
669.000000	100.528776
668.000000	100.537572
667.000000	100.561742
666.000000	100.609482
665.000000	100.667431
664.000000	100.726542
663.000000	100.780223
662.000000	100.818245
661.000000	100.836141
660.000000	100.845125
659.000000	100.861533
658.000000	100.886585
657.000000	100.906690
656.000000	100.915317
655.000000	100.921634
654.000000	100.933738
653.000000	100.949571
652.000000	100.969141
651.000000	100.996386
650.000000	101.022331
649.000000	101.026444
648.000000	101.005693
647.000000	100.986489
646.000000	100.995448
645.000000	101.032362
644.000000	101.084579
643.000000	101.151143
642.000000	101.235298
641.000000	101.324483
640.000000	101.396346
639.000000	101.439022
638.000000	101.455131
637.000000	101.453126
636.000000	101.448209
635.000000	101.462227
634.000000	101.503506
633.000000	101.554662
632.000000	101.597660
631.000000	101.641014
630.000000	101.704483
629.000000	101.783313
628.000000	101.848172
627.000000	101.879823
626.000000	101.886469
625.000000	101.884486
624.000000	101.879368
623.000000	101.875368
622.000000	101.886976
621.000000	101.926442
620.000000	101.988007
619.000000	102.050298
618.000000	102.088193
617.000000	102.082967
616.000000	102.033411
615.000000	101.966187
614.000000	101.924191
613.000000	101.930978
612.000000	101.973934
611.000000	102.022266
610.000000	102.052855
609.000000	102.060496
608.000000	102.050530
607.000000	102.027324
606.000000	101.988370
605.000000	101.926575
604.000000	101.839369
603.000000	101.737426
602.000000	101.645712
601.000000	101.598735
600.000000	101.629563
599.000000	101.740226
598.000000	101.871647
597.000000	101.936054
596.000000	101.899485
595.000000	101.816149
594.000000	101.766705
593.000000	101.768295
592.000000	101.773499
591.000000	101.748660
590.000000	101.719150
589.000000	101.730206
588.000000	101.790841
587.000000	101.863461
586.000000	101.895598
585.000000	101.869050
584.000000	101.820308
583.000000	101.802772
582.000000	101.823634
581.000000	101.840801
580.000000	101.835138
579.000000	101.846305
578.000000	101.909525
577.000000	101.997326
576.000000	102.061457
575.000000	102.093118
574.000000	102.101288
573.000000	102.066804
572.000000	101.972406
571.000000	101.852755
570.000000	101.758745
569.000000	101.687746
568.000000	101.607457
567.000000	101.521441
566.000000	101.453268
565.000000	101.388513
564.000000	101.288054
563.000000	101.141644
562.000000	100.966425
561.000000	100.779530
560.000000	100.617614
559.000000	100.537461
558.000000	100.529374
557.000000	100.485398
556.000000	100.328842
555.000000	100.113223
554.000000	99.930946
553.000000	99.762917
552.000000	99.531727
551.000000	99.263676
550.000000	99.073648
