PE IR       SUBTECH     SPECTRUM    ASCII       PEDS        4.00        
   -1
BH-2(1)25-26_1.asc
24/05/14
11:39:00.00
24/05/14
11:39:05.00
Administrator
?品 016 用? Administrator 日期 Tuesday, May 14 2024
550.000000
#HDR
-1
-1
#GR
cm-1
%T
1.0
0.0
4000.000000
-1.000000
3451
8
101.530075
89.553547
#DATA
4000.000000	101.300665
3999.000000	101.297806
3998.000000	101.295270
3997.000000	101.293576
3996.000000	101.292824
3995.000000	101.292516
3994.000000	101.291759
3993.000000	101.289966
3992.000000	101.287460
3991.000000	101.285358
3990.000000	101.284652
3989.000000	101.285594
3988.000000	101.287653
3987.000000	101.289782
3986.000000	101.290964
3985.000000	101.290683
3984.000000	101.289097
3983.000000	101.286841
3982.000000	101.284514
3981.000000	101.282307
3980.000000	101.280089
3979.000000	101.277712
3978.000000	101.275198
3977.000000	101.272798
3976.000000	101.270928
3975.000000	101.269910
3974.000000	101.269631
3973.000000	101.269484
3972.000000	101.268784
3971.000000	101.267314
3970.000000	101.265470
3969.000000	101.263980
3968.000000	101.263421
3967.000000	101.263830
3966.000000	101.264624
3965.000000	101.264899
3964.000000	101.264021
3963.000000	101.262020
3962.000000	101.259490
3961.000000	101.257118
3960.000000	101.255296
3959.000000	101.254118
3958.000000	101.253583
3957.000000	101.253638
3956.000000	101.254046
3955.000000	101.254293
3954.000000	101.253820
3953.000000	101.252423
3952.000000	101.250490
3951.000000	101.248820
3950.000000	101.248137
3949.000000	101.248662
3948.000000	101.249934
3947.000000	101.250974
3946.000000	101.250966
3945.000000	101.249830
3944.000000	101.248172
3943.000000	101.246645
3942.000000	101.245331
3941.000000	101.243817
3940.000000	101.241759
3939.000000	101.239220
3938.000000	101.236527
3937.000000	101.234028
3936.000000	101.232074
3935.000000	101.231028
3934.000000	101.231034
3933.000000	101.231760
3932.000000	101.232510
3931.000000	101.232638
3930.000000	101.231821
3929.000000	101.230087
3928.000000	101.227801
3927.000000	101.225532
3926.000000	101.223667
3925.000000	101.222091
3924.000000	101.220433
3923.000000	101.218601
3922.000000	101.216913
3921.000000	101.215699
3920.000000	101.214866
3919.000000	101.213967
3918.000000	101.212645
3917.000000	101.210956
3916.000000	101.209271
3915.000000	101.207943
3914.000000	101.207039
3913.000000	101.206344
3912.000000	101.205497
3911.000000	101.204220
3910.000000	101.202467
3909.000000	101.200379
3908.000000	101.198201
3907.000000	101.196221
3906.000000	101.194676
3905.000000	101.193585
3904.000000	101.192728
3903.000000	101.191795
3902.000000	101.190656
3901.000000	101.189419
3900.000000	101.188271
3899.000000	101.187291
3898.000000	101.186418
3897.000000	101.185519
3896.000000	101.184506
3895.000000	101.183377
3894.000000	101.182206
3893.000000	101.181072
3892.000000	101.180002
3891.000000	101.178964
3890.000000	101.177918
3889.000000	101.176855
3888.000000	101.175794
3887.000000	101.174748
3886.000000	101.173724
3885.000000	101.172719
3884.000000	101.171735
3883.000000	101.170773
3882.000000	101.169834
3881.000000	101.168905
3880.000000	101.167971
3879.000000	101.167014
3878.000000	101.166027
3877.000000	101.165012
3876.000000	101.163981
3875.000000	101.162945
3874.000000	101.161911
3873.000000	101.160888
3872.000000	101.159888
3871.000000	101.158930
3870.000000	101.158020
3869.000000	101.157154
3868.000000	101.156328
3867.000000	101.155552
3866.000000	101.154816
3865.000000	101.154065
3864.000000	101.153237
3863.000000	101.152327
3862.000000	101.151391
3861.000000	101.150472
3860.000000	101.149554
3859.000000	101.148598
3858.000000	101.147577
3857.000000	101.146523
3856.000000	101.145567
3855.000000	101.144843
3854.000000	101.144219
3853.000000	101.143380
3852.000000	101.142304
3851.000000	101.141255
3850.000000	101.140445
3849.000000	101.139878
3848.000000	101.139390
3847.000000	101.138875
3846.000000	101.138453
3845.000000	101.138344
3844.000000	101.138536
3843.000000	101.138608
3842.000000	101.138008
3841.000000	101.136503
3840.000000	101.134364
3839.000000	101.132120
3838.000000	101.130194
3837.000000	101.128686
3836.000000	101.127496
3835.000000	101.126632
3834.000000	101.126320
3833.000000	101.126773
3832.000000	101.127820
3831.000000	101.128864
3830.000000	101.129330
3829.000000	101.129080
3828.000000	101.128356
3827.000000	101.127396
3826.000000	101.126175
3825.000000	101.124660
3824.000000	101.123339
3823.000000	101.122930
3822.000000	101.123119
3821.000000	101.122604
3820.000000	101.120922
3819.000000	101.118881
3818.000000	101.117676
3817.000000	101.117794
3816.000000	101.118327
3815.000000	101.118065
3814.000000	101.117177
3813.000000	101.116756
3812.000000	101.117308
3811.000000	101.118300
3810.000000	101.118893
3809.000000	101.118827
3808.000000	101.118278
3807.000000	101.117329
3806.000000	101.116151
3805.000000	101.115133
3804.000000	101.114589
3803.000000	101.114293
3802.000000	101.113295
3801.000000	101.111042
3800.000000	101.108204
3799.000000	101.105859
3798.000000	101.104536
3797.000000	101.104096
3796.000000	101.104063
3795.000000	101.104075
3794.000000	101.104018
3793.000000	101.103800
3792.000000	101.103211
3791.000000	101.102082
3790.000000	101.100520
3789.000000	101.098889
3788.000000	101.097543
3787.000000	101.096580
3786.000000	101.095868
3785.000000	101.095254
3784.000000	101.094681
3783.000000	101.094139
3782.000000	101.093580
3781.000000	101.092736
3780.000000	101.091111
3779.000000	101.088490
3778.000000	101.085429
3777.000000	101.082922
3776.000000	101.081577
3775.000000	101.081172
3774.000000	101.080806
3773.000000	101.079863
3772.000000	101.078585
3771.000000	101.077465
3770.000000	101.076377
3769.000000	101.074828
3768.000000	101.072808
3767.000000	101.070920
3766.000000	101.069712
3765.000000	101.069001
3764.000000	101.068091
3763.000000	101.066686
3762.000000	101.065177
3761.000000	101.063927
3760.000000	101.062836
3759.000000	101.062027
3758.000000	101.061967
3757.000000	101.062136
3756.000000	101.061035
3755.000000	101.057895
3754.000000	101.053668
3753.000000	101.049890
3752.000000	101.046641
3751.000000	101.043349
3750.000000	101.040448
3749.000000	101.037985
3748.000000	101.035107
3747.000000	101.032348
3746.000000	101.032438
3745.000000	101.035869
3744.000000	101.038475
3743.000000	101.037776
3742.000000	101.035810
3741.000000	101.035111
3740.000000	101.036193
3739.000000	101.038136
3738.000000	101.040324
3737.000000	101.041824
3736.000000	101.040454
3735.000000	101.035231
3734.000000	101.028596
3733.000000	101.024246
3732.000000	101.022952
3731.000000	101.022499
3730.000000	101.020792
3729.000000	101.017969
3728.000000	101.015611
3727.000000	101.014416
3726.000000	101.013508
3725.000000	101.012169
3724.000000	101.010770
3723.000000	101.009761
3722.000000	101.008727
3721.000000	101.007130
3720.000000	101.005331
3719.000000	101.004207
3718.000000	101.003850
3717.000000	101.002823
3716.000000	100.999523
3715.000000	100.994060
3714.000000	100.988084
3713.000000	100.982449
3712.000000	100.976409
3711.000000	100.970332
3710.000000	100.966129
3709.000000	100.964291
3708.000000	100.963186
3707.000000	100.960918
3706.000000	100.957114
3705.000000	100.953137
3704.000000	100.950562
3703.000000	100.949201
3702.000000	100.947101
3701.000000	100.942815
3700.000000	100.936736
3699.000000	100.930466
3698.000000	100.925604
3697.000000	100.922406
3696.000000	100.919380
3695.000000	100.915065
3694.000000	100.909523
3693.000000	100.903617
3692.000000	100.897361
3691.000000	100.889926
3690.000000	100.882138
3689.000000	100.877171
3688.000000	100.876791
3687.000000	100.879375
3686.000000	100.882603
3685.000000	100.885387
3684.000000	100.887047
3683.000000	100.886601
3682.000000	100.883635
3681.000000	100.878309
3680.000000	100.870167
3679.000000	100.858662
3678.000000	100.845717
3677.000000	100.834750
3676.000000	100.825128
3675.000000	100.814294
3674.000000	100.802738
3673.000000	100.792716
3672.000000	100.786918
3671.000000	100.785471
3670.000000	100.784258
3669.000000	100.780870
3668.000000	100.777093
3667.000000	100.774419
3666.000000	100.772045
3665.000000	100.768293
3664.000000	100.762386
3663.000000	100.755175
3662.000000	100.748305
3661.000000	100.742002
3660.000000	100.734555
3659.000000	100.724821
3658.000000	100.714596
3657.000000	100.707082
3656.000000	100.702434
3655.000000	100.696774
3654.000000	100.686652
3653.000000	100.673848
3652.000000	100.664053
3651.000000	100.658531
3650.000000	100.650889
3649.000000	100.637863
3648.000000	100.625079
3647.000000	100.618151
3646.000000	100.616754
3645.000000	100.617653
3644.000000	100.618512
3643.000000	100.618400
3642.000000	100.616868
3641.000000	100.613857
3640.000000	100.610049
3639.000000	100.605624
3638.000000	100.599342
3637.000000	100.590292
3636.000000	100.579978
3635.000000	100.570824
3634.000000	100.562105
3633.000000	100.550385
3632.000000	100.535271
3631.000000	100.523231
3630.000000	100.520186
3629.000000	100.523115
3628.000000	100.526106
3627.000000	100.527062
3626.000000	100.525999
3625.000000	100.522478
3624.000000	100.515121
3623.000000	100.503853
3622.000000	100.492712
3621.000000	100.488233
3620.000000	100.493590
3619.000000	100.505687
3618.000000	100.518247
3617.000000	100.526844
3616.000000	100.531577
3615.000000	100.535243
3614.000000	100.538840
3613.000000	100.540290
3612.000000	100.538280
3611.000000	100.536161
3610.000000	100.540325
3609.000000	100.553979
3608.000000	100.573374
3607.000000	100.590796
3606.000000	100.600703
3605.000000	100.602823
3604.000000	100.601192
3603.000000	100.601128
3602.000000	100.605815
3601.000000	100.614429
3600.000000	100.623403
3599.000000	100.629682
3598.000000	100.632586
3597.000000	100.633110
3596.000000	100.632714
3595.000000	100.632913
3594.000000	100.634394
3593.000000	100.636172
3592.000000	100.636469
3591.000000	100.635232
3590.000000	100.634971
3589.000000	100.637677
3588.000000	100.642235
3587.000000	100.646623
3586.000000	100.650288
3585.000000	100.653341
3584.000000	100.655796
3583.000000	100.657768
3582.000000	100.659507
3581.000000	100.661000
3580.000000	100.661715
3579.000000	100.661146
3578.000000	100.659650
3577.000000	100.658620
3576.000000	100.659527
3575.000000	100.662788
3574.000000	100.667298
3573.000000	100.671021
3572.000000	100.672468
3571.000000	100.671804
3570.000000	100.670738
3569.000000	100.670978
3568.000000	100.672439
3567.000000	100.673676
3566.000000	100.673847
3565.000000	100.673490
3564.000000	100.673703
3563.000000	100.675034
3562.000000	100.677024
3561.000000	100.678726
3560.000000	100.679587
3559.000000	100.679807
3558.000000	100.679988
3557.000000	100.680560
3556.000000	100.681571
3555.000000	100.682775
3554.000000	100.683756
3553.000000	100.684133
3552.000000	100.683845
3551.000000	100.683259
3550.000000	100.682884
3549.000000	100.682952
3548.000000	100.683300
3547.000000	100.683573
3546.000000	100.683597
3545.000000	100.683485
3544.000000	100.683447
3543.000000	100.683661
3542.000000	100.684262
3541.000000	100.685254
3540.000000	100.686439
3539.000000	100.687517
3538.000000	100.688269
3537.000000	100.688552
3536.000000	100.688189
3535.000000	100.687126
3534.000000	100.685800
3533.000000	100.685111
3532.000000	100.685662
3531.000000	100.687158
3530.000000	100.688661
3529.000000	100.689568
3528.000000	100.690049
3527.000000	100.690539
3526.000000	100.691147
3525.000000	100.691700
3524.000000	100.692025
3523.000000	100.691988
3522.000000	100.691505
3521.000000	100.690705
3520.000000	100.690032
3519.000000	100.689947
3518.000000	100.690487
3517.000000	100.691176
3516.000000	100.691428
3515.000000	100.690992
3514.000000	100.690070
3513.000000	100.689100
3512.000000	100.688424
3511.000000	100.688225
3510.000000	100.688782
3509.000000	100.690441
3508.000000	100.692884
3507.000000	100.694630
3506.000000	100.693979
3505.000000	100.690560
3504.000000	100.685938
3503.000000	100.682395
3502.000000	100.680762
3501.000000	100.679953
3500.000000	100.678527
3499.000000	100.676288
3498.000000	100.674160
3497.000000	100.672966
3496.000000	100.672745
3495.000000	100.673109
3494.000000	100.673838
3493.000000	100.675057
3492.000000	100.677014
3491.000000	100.679732
3490.000000	100.682678
3489.000000	100.684778
3488.000000	100.685188
3487.000000	100.684257
3486.000000	100.683551
3485.000000	100.684357
3484.000000	100.686107
3483.000000	100.686795
3482.000000	100.685296
3481.000000	100.682758
3480.000000	100.681218
3479.000000	100.681118
3478.000000	100.681049
3477.000000	100.679789
3476.000000	100.677619
3475.000000	100.675481
3474.000000	100.673631
3473.000000	100.671810
3472.000000	100.670236
3471.000000	100.669560
3470.000000	100.669920
3469.000000	100.670702
3468.000000	100.671245
3467.000000	100.671299
3466.000000	100.670706
3465.000000	100.669253
3464.000000	100.667142
3463.000000	100.665231
3462.000000	100.664300
3461.000000	100.664158
3460.000000	100.663895
3459.000000	100.662925
3458.000000	100.661481
3457.000000	100.660042
3456.000000	100.658626
3455.000000	100.656872
3454.000000	100.654699
3453.000000	100.652592
3452.000000	100.651129
3451.000000	100.650400
3450.000000	100.650004
3449.000000	100.649536
3448.000000	100.648915
3447.000000	100.648171
3446.000000	100.647118
3445.000000	100.645468
3444.000000	100.643232
3443.000000	100.640794
3442.000000	100.638605
3441.000000	100.636848
3440.000000	100.635407
3439.000000	100.633962
3438.000000	100.632124
3437.000000	100.629681
3436.000000	100.626883
3435.000000	100.624412
3434.000000	100.622872
3433.000000	100.622325
3432.000000	100.622299
3431.000000	100.622180
3430.000000	100.621578
3429.000000	100.620374
3428.000000	100.618644
3427.000000	100.616646
3426.000000	100.614757
3425.000000	100.613304
3424.000000	100.612431
3423.000000	100.612049
3422.000000	100.611820
3421.000000	100.611213
3420.000000	100.609729
3419.000000	100.607207
3418.000000	100.603989
3417.000000	100.600862
3416.000000	100.598631
3415.000000	100.597633
3414.000000	100.597609
3413.000000	100.597920
3412.000000	100.598019
3411.000000	100.597754
3410.000000	100.597170
3409.000000	100.596229
3408.000000	100.594819
3407.000000	100.592946
3406.000000	100.590758
3405.000000	100.588412
3404.000000	100.586033
3403.000000	100.583857
3402.000000	100.582270
3401.000000	100.581585
3400.000000	100.581767
3399.000000	100.582396
3398.000000	100.582892
3397.000000	100.582885
3396.000000	100.582367
3395.000000	100.581545
3394.000000	100.580568
3393.000000	100.579454
3392.000000	100.578247
3391.000000	100.577118
3390.000000	100.576212
3389.000000	100.575456
3388.000000	100.574625
3387.000000	100.573589
3386.000000	100.572429
3385.000000	100.571309
3384.000000	100.570292
3383.000000	100.569305
3382.000000	100.568236
3381.000000	100.567047
3380.000000	100.565829
3379.000000	100.564728
3378.000000	100.563813
3377.000000	100.563014
3376.000000	100.562170
3375.000000	100.561151
3374.000000	100.559940
3373.000000	100.558615
3372.000000	100.557319
3371.000000	100.556181
3370.000000	100.555217
3369.000000	100.554345
3368.000000	100.553435
3367.000000	100.552431
3366.000000	100.551365
3365.000000	100.550280
3364.000000	100.549199
3363.000000	100.548125
3362.000000	100.547055
3361.000000	100.545995
3360.000000	100.544941
3359.000000	100.543886
3358.000000	100.542818
3357.000000	100.541726
3356.000000	100.540601
3355.000000	100.539447
3354.000000	100.538277
3353.000000	100.537104
3352.000000	100.535921
3351.000000	100.534718
3350.000000	100.533495
3349.000000	100.532269
3348.000000	100.531060
3347.000000	100.529875
3346.000000	100.528700
3345.000000	100.527501
3344.000000	100.526254
3343.000000	100.524961
3342.000000	100.523656
3341.000000	100.522385
3340.000000	100.521160
3339.000000	100.519948
3338.000000	100.518701
3337.000000	100.517435
3336.000000	100.516231
3335.000000	100.515130
3334.000000	100.514064
3333.000000	100.512923
3332.000000	100.511680
3331.000000	100.510422
3330.000000	100.509244
3329.000000	100.508115
3328.000000	100.506917
3327.000000	100.505608
3326.000000	100.504283
3325.000000	100.503058
3324.000000	100.501949
3323.000000	100.500891
3322.000000	100.499853
3321.000000	100.498846
3320.000000	100.497844
3319.000000	100.496772
3318.000000	100.495569
3317.000000	100.494263
3316.000000	100.492961
3315.000000	100.491787
3314.000000	100.490795
3313.000000	100.489912
3312.000000	100.488969
3311.000000	100.487873
3310.000000	100.486717
3309.000000	100.485638
3308.000000	100.484558
3307.000000	100.483252
3306.000000	100.481714
3305.000000	100.480291
3304.000000	100.479290
3303.000000	100.478547
3302.000000	100.477537
3301.000000	100.475893
3300.000000	100.473714
3299.000000	100.471479
3298.000000	100.469744
3297.000000	100.468826
3296.000000	100.468641
3295.000000	100.468665
3294.000000	100.468189
3293.000000	100.466863
3292.000000	100.465046
3291.000000	100.463568
3290.000000	100.462931
3289.000000	100.462756
3288.000000	100.462141
3287.000000	100.460636
3286.000000	100.458770
3285.000000	100.457520
3284.000000	100.457354
3283.000000	100.457966
3282.000000	100.458810
3281.000000	100.459578
3280.000000	100.460060
3279.000000	100.459938
3278.000000	100.459032
3277.000000	100.457582
3276.000000	100.455944
3275.000000	100.454085
3274.000000	100.451713
3273.000000	100.448903
3272.000000	100.446358
3271.000000	100.444854
3270.000000	100.444468
3269.000000	100.444386
3268.000000	100.443498
3267.000000	100.441355
3266.000000	100.438646
3265.000000	100.436686
3264.000000	100.436245
3263.000000	100.436846
3262.000000	100.437172
3261.000000	100.436174
3260.000000	100.433771
3259.000000	100.430641
3258.000000	100.427627
3257.000000	100.425281
3256.000000	100.423691
3255.000000	100.422560
3254.000000	100.421558
3253.000000	100.420816
3252.000000	100.420993
3251.000000	100.422629
3250.000000	100.425375
3249.000000	100.428006
3248.000000	100.429375
3247.000000	100.429341
3246.000000	100.428734
3245.000000	100.428423
3244.000000	100.428442
3243.000000	100.428009
3242.000000	100.426316
3241.000000	100.423264
3240.000000	100.419647
3239.000000	100.416666
3238.000000	100.415069
3237.000000	100.414519
3236.000000	100.413823
3235.000000	100.412081
3234.000000	100.409741
3233.000000	100.408260
3232.000000	100.408483
3231.000000	100.409540
3230.000000	100.409648
3229.000000	100.408107
3228.000000	100.406113
3227.000000	100.405428
3226.000000	100.406501
3225.000000	100.408221
3224.000000	100.409208
3223.000000	100.408983
3222.000000	100.407767
3221.000000	100.405849
3220.000000	100.403602
3219.000000	100.401711
3218.000000	100.400724
3217.000000	100.400319
3216.000000	100.399427
3215.000000	100.397298
3214.000000	100.394241
3213.000000	100.391215
3212.000000	100.388905
3211.000000	100.387383
3210.000000	100.386443
3209.000000	100.385904
3208.000000	100.385647
3207.000000	100.385699
3206.000000	100.386334
3205.000000	100.387782
3204.000000	100.389723
3203.000000	100.391340
3202.000000	100.391983
3201.000000	100.391634
3200.000000	100.390622
3199.000000	100.389127
3198.000000	100.387221
3197.000000	100.385248
3196.000000	100.383760
3195.000000	100.382952
3194.000000	100.382439
3193.000000	100.381794
3192.000000	100.381088
3191.000000	100.380700
3190.000000	100.380728
3189.000000	100.380835
3188.000000	100.380635
3187.000000	100.379950
3186.000000	100.378711
3185.000000	100.376859
3184.000000	100.374610
3183.000000	100.372650
3182.000000	100.371673
3181.000000	100.371786
3180.000000	100.372355
3179.000000	100.372493
3178.000000	100.371814
3177.000000	100.370598
3176.000000	100.369429
3175.000000	100.368671
3174.000000	100.368258
3173.000000	100.367896
3172.000000	100.367352
3171.000000	100.366579
3170.000000	100.365633
3169.000000	100.364599
3168.000000	100.363588
3167.000000	100.362722
3166.000000	100.362048
3165.000000	100.361468
3164.000000	100.360790
3163.000000	100.359880
3162.000000	100.358761
3161.000000	100.357563
3160.000000	100.356400
3159.000000	100.355332
3158.000000	100.354432
3157.000000	100.353808
3156.000000	100.353496
3155.000000	100.353356
3154.000000	100.353152
3153.000000	100.352729
3152.000000	100.352110
3151.000000	100.351413
3150.000000	100.350724
3149.000000	100.350040
3148.000000	100.349336
3147.000000	100.348660
3146.000000	100.348127
3145.000000	100.347802
3144.000000	100.347629
3143.000000	100.347447
3142.000000	100.347089
3141.000000	100.346508
3140.000000	100.345777
3139.000000	100.345057
3138.000000	100.344465
3137.000000	100.343999
3136.000000	100.343544
3135.000000	100.342966
3134.000000	100.342231
3133.000000	100.341412
3132.000000	100.340616
3131.000000	100.339893
3130.000000	100.339231
3129.000000	100.338592
3128.000000	100.337946
3127.000000	100.337280
3126.000000	100.336605
3125.000000	100.335948
3124.000000	100.335329
3123.000000	100.334731
3122.000000	100.334111
3121.000000	100.333447
3120.000000	100.332757
3119.000000	100.332090
3118.000000	100.331471
3117.000000	100.330890
3116.000000	100.330308
3115.000000	100.329690
3114.000000	100.329004
3113.000000	100.328234
3112.000000	100.327397
3111.000000	100.326560
3110.000000	100.325796
3109.000000	100.325143
3108.000000	100.324572
3107.000000	100.324031
3106.000000	100.323472
3105.000000	100.322841
3104.000000	100.322077
3103.000000	100.321137
3102.000000	100.320054
3101.000000	100.318958
3100.000000	100.317989
3099.000000	100.317204
3098.000000	100.316548
3097.000000	100.315929
3096.000000	100.315311
3095.000000	100.314715
3094.000000	100.314170
3093.000000	100.313676
3092.000000	100.313198
3091.000000	100.312674
3090.000000	100.312060
3089.000000	100.311362
3088.000000	100.310636
3087.000000	100.309942
3086.000000	100.309307
3085.000000	100.308745
3084.000000	100.308283
3083.000000	100.307921
3082.000000	100.307587
3081.000000	100.307158
3080.000000	100.306572
3079.000000	100.305877
3078.000000	100.305179
3077.000000	100.304534
3076.000000	100.303923
3075.000000	100.303320
3074.000000	100.302736
3073.000000	100.302181
3072.000000	100.301622
3071.000000	100.300999
3070.000000	100.300286
3069.000000	100.299509
3068.000000	100.298733
3067.000000	100.298023
3066.000000	100.297400
3065.000000	100.296839
3064.000000	100.296283
3063.000000	100.295684
3062.000000	100.295036
3061.000000	100.294367
3060.000000	100.293720
3059.000000	100.293115
3058.000000	100.292529
3057.000000	100.291915
3056.000000	100.291256
3055.000000	100.290583
3054.000000	100.289943
3053.000000	100.289348
3052.000000	100.288759
3051.000000	100.288141
3050.000000	100.287509
3049.000000	100.286885
3048.000000	100.286226
3047.000000	100.285446
3046.000000	100.284540
3045.000000	100.283661
3044.000000	100.282989
3043.000000	100.282530
3042.000000	100.282037
3041.000000	100.281183
3040.000000	100.279846
3039.000000	100.278259
3038.000000	100.276898
3037.000000	100.276118
3036.000000	100.275852
3035.000000	100.275643
3034.000000	100.274985
3033.000000	100.273600
3032.000000	100.271469
3031.000000	100.268805
3030.000000	100.266201
3029.000000	100.264718
3028.000000	100.265334
3027.000000	100.267869
3026.000000	100.270693
3025.000000	100.271904
3024.000000	100.270651
3023.000000	100.267178
3022.000000	100.262021
3021.000000	100.255880
3020.000000	100.250197
3019.000000	100.246887
3018.000000	100.246882
3017.000000	100.249256
3016.000000	100.252213
3015.000000	100.254802
3014.000000	100.257260
3013.000000	100.259925
3012.000000	100.262484
3011.000000	100.264480
3010.000000	100.266124
3009.000000	100.268203
3008.000000	100.271081
3007.000000	100.273800
3006.000000	100.274369
3005.000000	100.271312
3004.000000	100.265121
3003.000000	100.257908
3002.000000	100.251435
3001.000000	100.245816
3000.000000	100.240379
2999.000000	100.235377
2998.000000	100.232076
2997.000000	100.231060
2996.000000	100.230928
2995.000000	100.229092
2994.000000	100.224070
2993.000000	100.217139
2992.000000	100.211589
2991.000000	100.209836
2990.000000	100.211061
2989.000000	100.212050
2988.000000	100.210861
2987.000000	100.209245
2986.000000	100.210768
2985.000000	100.216752
2984.000000	100.224761
2983.000000	100.231030
2982.000000	100.233796
2981.000000	100.234256
2980.000000	100.235052
2979.000000	100.238185
2978.000000	100.243930
2977.000000	100.251319
2976.000000	100.259699
2975.000000	100.269649
2974.000000	100.282066
2973.000000	100.296816
2972.000000	100.313122
2971.000000	100.331198
2970.000000	100.352259
2969.000000	100.376373
2968.000000	100.401546
2967.000000	100.426032
2966.000000	100.450674
2965.000000	100.477336
2964.000000	100.505405
2963.000000	100.531532
2962.000000	100.553093
2961.000000	100.570315
2960.000000	100.584327
2959.000000	100.594744
2958.000000	100.600706
2957.000000	100.603437
2956.000000	100.605886
2955.000000	100.609642
2954.000000	100.613483
2953.000000	100.615432
2952.000000	100.615246
2951.000000	100.614410
2950.000000	100.614653
2949.000000	100.617310
2948.000000	100.623527
2947.000000	100.633977
2946.000000	100.648341
2945.000000	100.665849
2944.000000	100.686478
2943.000000	100.711003
2942.000000	100.739573
2941.000000	100.770747
2940.000000	100.802543
2939.000000	100.834618
2938.000000	100.869406
2937.000000	100.910853
2936.000000	100.961197
2935.000000	101.017971
2934.000000	101.074199
2933.000000	101.122630
2932.000000	101.160868
2931.000000	101.192473
2930.000000	101.222970
2929.000000	101.254752
2928.000000	101.285626
2927.000000	101.311510
2926.000000	101.329572
2925.000000	101.338786
2924.000000	101.338376
2923.000000	101.326859
2922.000000	101.303150
2921.000000	101.268266
2920.000000	101.225187
2919.000000	101.176679
2918.000000	101.123712
2917.000000	101.066463
2916.000000	101.006426
2915.000000	100.946804
2914.000000	100.890957
2913.000000	100.841146
2912.000000	100.798643
2911.000000	100.763953
2910.000000	100.736254
2909.000000	100.713082
2908.000000	100.691379
2907.000000	100.669025
2906.000000	100.645414
2905.000000	100.621166
2904.000000	100.597753
2903.000000	100.576910
2902.000000	100.559484
2901.000000	100.544744
2900.000000	100.531380
2899.000000	100.519147
2898.000000	100.508796
2897.000000	100.500119
2896.000000	100.490858
2895.000000	100.478422
2894.000000	100.462702
2893.000000	100.446719
2892.000000	100.434256
2891.000000	100.426856
2890.000000	100.422891
2889.000000	100.419123
2888.000000	100.413262
2887.000000	100.405626
2886.000000	100.398843
2885.000000	100.395941
2884.000000	100.398159
2883.000000	100.403966
2882.000000	100.410083
2881.000000	100.413782
2880.000000	100.414602
2879.000000	100.414226
2878.000000	100.415021
2877.000000	100.418652
2876.000000	100.425548
2875.000000	100.434917
2874.000000	100.445139
2873.000000	100.454645
2872.000000	100.462882
2871.000000	100.470470
2870.000000	100.478355
2869.000000	100.486943
2868.000000	100.496143
2867.000000	100.506122
2866.000000	100.518018
2865.000000	100.534050
2864.000000	100.556703
2863.000000	100.587132
2862.000000	100.623915
2861.000000	100.663544
2860.000000	100.702525
2859.000000	100.738933
2858.000000	100.772053
2857.000000	100.801049
2856.000000	100.824455
2855.000000	100.840673
2854.000000	100.848302
2853.000000	100.845808
2852.000000	100.831270
2851.000000	100.803204
2850.000000	100.762411
2849.000000	100.713329
2848.000000	100.662780
2847.000000	100.616097
2846.000000	100.574078
2845.000000	100.534234
2844.000000	100.495056
2843.000000	100.458434
2842.000000	100.427689
2841.000000	100.404026
2840.000000	100.385705
2839.000000	100.370277
2838.000000	100.356679
2837.000000	100.344969
2836.000000	100.334844
2835.000000	100.325193
2834.000000	100.315123
2833.000000	100.304974
2832.000000	100.295972
2831.000000	100.288890
2830.000000	100.283339
2829.000000	100.278576
2828.000000	100.274644
2827.000000	100.272303
2826.000000	100.272081
2825.000000	100.273935
2824.000000	100.277599
2823.000000	100.282433
2822.000000	100.287020
2821.000000	100.290005
2820.000000	100.291609
2819.000000	100.293125
2818.000000	100.294245
2817.000000	100.292101
2816.000000	100.284307
2815.000000	100.272612
2814.000000	100.262313
2813.000000	100.257898
2812.000000	100.259661
2811.000000	100.264275
2810.000000	100.267908
2809.000000	100.269064
2808.000000	100.269149
2807.000000	100.270466
2806.000000	100.273510
2805.000000	100.276462
2804.000000	100.277360
2803.000000	100.275944
2802.000000	100.272959
2801.000000	100.268815
2800.000000	100.264302
2799.000000	100.261810
2798.000000	100.263847
2797.000000	100.269997
2796.000000	100.276566
2795.000000	100.279791
2794.000000	100.278760
2793.000000	100.275226
2792.000000	100.271738
2791.000000	100.270240
2790.000000	100.271314
2789.000000	100.273925
2788.000000	100.276241
2787.000000	100.277233
2786.000000	100.277289
2785.000000	100.277265
2784.000000	100.277467
2783.000000	100.277784
2782.000000	100.278262
2781.000000	100.279129
2780.000000	100.280405
2779.000000	100.281758
2778.000000	100.282785
2777.000000	100.283403
2776.000000	100.283883
2775.000000	100.284518
2774.000000	100.285341
2773.000000	100.286212
2772.000000	100.287056
2771.000000	100.287890
2770.000000	100.288738
2769.000000	100.289597
2768.000000	100.290465
2767.000000	100.291339
2766.000000	100.292223
2765.000000	100.293120
2764.000000	100.294032
2763.000000	100.294954
2762.000000	100.295884
2761.000000	100.296820
2760.000000	100.297742
2759.000000	100.298626
2758.000000	100.299481
2757.000000	100.300337
2756.000000	100.301208
2755.000000	100.302091
2754.000000	100.302976
2753.000000	100.303853
2752.000000	100.304732
2751.000000	100.305680
2750.000000	100.306783
2749.000000	100.307984
2748.000000	100.309022
2747.000000	100.309691
2746.000000	100.310128
2745.000000	100.310725
2744.000000	100.311646
2743.000000	100.312663
2742.000000	100.313555
2741.000000	100.314486
2740.000000	100.315767
2739.000000	100.317367
2738.000000	100.318862
2737.000000	100.319884
2736.000000	100.320533
2735.000000	100.321310
2734.000000	100.322637
2733.000000	100.324407
2732.000000	100.326086
2731.000000	100.327340
2730.000000	100.328438
2729.000000	100.329841
2728.000000	100.331453
2727.000000	100.332638
2726.000000	100.332995
2725.000000	100.332788
2724.000000	100.332446
2723.000000	100.332010
2722.000000	100.331375
2721.000000	100.330793
2720.000000	100.330838
2719.000000	100.331868
2718.000000	100.333637
2717.000000	100.335377
2716.000000	100.336398
2715.000000	100.336653
2714.000000	100.336674
2713.000000	100.337024
2712.000000	100.337837
2711.000000	100.338929
2710.000000	100.340174
2709.000000	100.341553
2708.000000	100.342891
2707.000000	100.343804
2706.000000	100.344059
2705.000000	100.343895
2704.000000	100.343896
2703.000000	100.344517
2702.000000	100.345726
2701.000000	100.347020
2700.000000	100.347816
2699.000000	100.347957
2698.000000	100.347836
2697.000000	100.347930
2696.000000	100.348233
2695.000000	100.348307
2694.000000	100.347942
2693.000000	100.347568
2692.000000	100.347886
2691.000000	100.349248
2690.000000	100.351481
2689.000000	100.354078
2688.000000	100.356360
2687.000000	100.357653
2686.000000	100.357722
2685.000000	100.357245
2684.000000	100.357593
2683.000000	100.359720
2682.000000	100.363214
2681.000000	100.366505
2680.000000	100.368300
2679.000000	100.368667
2678.000000	100.368644
2677.000000	100.368927
2676.000000	100.369180
2675.000000	100.368636
2674.000000	100.366922
2673.000000	100.364314
2672.000000	100.361632
2671.000000	100.359984
2670.000000	100.360214
2669.000000	100.362287
2668.000000	100.365247
2667.000000	100.367942
2666.000000	100.369852
2665.000000	100.371122
2664.000000	100.372068
2663.000000	100.372871
2662.000000	100.373562
2661.000000	100.374056
2660.000000	100.374278
2659.000000	100.374425
2658.000000	100.375002
2657.000000	100.376349
2656.000000	100.378105
2655.000000	100.379356
2654.000000	100.379469
2653.000000	100.378624
2652.000000	100.377638
2651.000000	100.377273
2650.000000	100.377677
2649.000000	100.378435
2648.000000	100.379019
2647.000000	100.379261
2646.000000	100.379387
2645.000000	100.379636
2644.000000	100.379953
2643.000000	100.380124
2642.000000	100.380088
2641.000000	100.379958
2640.000000	100.379847
2639.000000	100.379808
2638.000000	100.379922
2637.000000	100.380269
2636.000000	100.380806
2635.000000	100.381392
2634.000000	100.381887
2633.000000	100.382224
2632.000000	100.382405
2631.000000	100.382484
2630.000000	100.382549
2629.000000	100.382668
2628.000000	100.382833
2627.000000	100.383004
2626.000000	100.383159
2625.000000	100.383301
2624.000000	100.383437
2623.000000	100.383568
2622.000000	100.383691
2621.000000	100.383807
2620.000000	100.383926
2619.000000	100.384053
2618.000000	100.384191
2617.000000	100.384338
2616.000000	100.384492
2615.000000	100.384649
2614.000000	100.384807
2613.000000	100.384969
2612.000000	100.385143
2611.000000	100.385339
2610.000000	100.385562
2609.000000	100.385804
2608.000000	100.386050
2607.000000	100.386287
2606.000000	100.386512
2605.000000	100.386728
2604.000000	100.386946
2603.000000	100.387174
2602.000000	100.387416
2601.000000	100.387678
2600.000000	100.387967
2599.000000	100.388289
2598.000000	100.388643
2597.000000	100.389017
2596.000000	100.389394
2595.000000	100.389760
2594.000000	100.390115
2593.000000	100.390467
2592.000000	100.390823
2591.000000	100.391187
2590.000000	100.391563
2589.000000	100.391957
2588.000000	100.392370
2587.000000	100.392797
2586.000000	100.393233
2585.000000	100.393674
2584.000000	100.394120
2583.000000	100.394574
2582.000000	100.395039
2581.000000	100.395515
2580.000000	100.396001
2579.000000	100.396494
2578.000000	100.396992
2577.000000	100.397492
2576.000000	100.397997
2575.000000	100.398509
2574.000000	100.399028
2573.000000	100.399553
2572.000000	100.400080
2571.000000	100.400608
2570.000000	100.401140
2569.000000	100.401677
2568.000000	100.402214
2567.000000	100.402748
2566.000000	100.403278
2565.000000	100.403808
2564.000000	100.404340
2563.000000	100.404875
2562.000000	100.405409
2561.000000	100.405937
2560.000000	100.406461
2559.000000	100.406981
2558.000000	100.407496
2557.000000	100.408000
2556.000000	100.408488
2555.000000	100.408960
2554.000000	100.409427
2553.000000	100.409898
2552.000000	100.410391
2551.000000	100.410917
2550.000000	100.411465
2549.000000	100.412025
2548.000000	100.412597
2547.000000	100.413159
2546.000000	100.413665
2545.000000	100.414103
2544.000000	100.414539
2543.000000	100.415068
2542.000000	100.415736
2541.000000	100.416506
2540.000000	100.417275
2539.000000	100.417929
2538.000000	100.418382
2537.000000	100.418632
2536.000000	100.418795
2535.000000	100.419031
2534.000000	100.419420
2533.000000	100.419891
2532.000000	100.420299
2531.000000	100.420613
2530.000000	100.421023
2529.000000	100.421750
2528.000000	100.422705
2527.000000	100.423445
2526.000000	100.423614
2525.000000	100.423322
2524.000000	100.423075
2523.000000	100.423245
2522.000000	100.423826
2521.000000	100.424695
2520.000000	100.425839
2519.000000	100.427173
2518.000000	100.428428
2517.000000	100.429434
2516.000000	100.430304
2515.000000	100.431204
2514.000000	100.432102
2513.000000	100.432911
2512.000000	100.433714
2511.000000	100.434629
2510.000000	100.435535
2509.000000	100.436165
2508.000000	100.436437
2507.000000	100.436527
2506.000000	100.436704
2505.000000	100.437189
2504.000000	100.438077
2503.000000	100.439223
2502.000000	100.440327
2501.000000	100.441320
2500.000000	100.442505
2499.000000	100.444070
2498.000000	100.445652
2497.000000	100.446694
2496.000000	100.447157
2495.000000	100.447608
2494.000000	100.448548
2493.000000	100.449944
2492.000000	100.451457
2491.000000	100.452815
2490.000000	100.453830
2489.000000	100.454388
2488.000000	100.454722
2487.000000	100.455406
2486.000000	100.456732
2485.000000	100.458285
2484.000000	100.459466
2483.000000	100.460261
2482.000000	100.461025
2481.000000	100.461616
2480.000000	100.461426
2479.000000	100.460393
2478.000000	100.459528
2477.000000	100.459988
2476.000000	100.461950
2475.000000	100.464738
2474.000000	100.467638
2473.000000	100.470371
2472.000000	100.472784
2471.000000	100.474589
2470.000000	100.475655
2469.000000	100.476220
2468.000000	100.476634
2467.000000	100.477018
2466.000000	100.477274
2465.000000	100.477279
2464.000000	100.477048
2463.000000	100.476815
2462.000000	100.476993
2461.000000	100.477895
2460.000000	100.479418
2459.000000	100.481071
2458.000000	100.482362
2457.000000	100.483158
2456.000000	100.483673
2455.000000	100.484252
2454.000000	100.485161
2453.000000	100.486462
2452.000000	100.487990
2451.000000	100.489485
2450.000000	100.490776
2449.000000	100.491854
2448.000000	100.492789
2447.000000	100.493668
2446.000000	100.494581
2445.000000	100.495577
2444.000000	100.496623
2443.000000	100.497669
2442.000000	100.498728
2441.000000	100.499814
2440.000000	100.500853
2439.000000	100.501751
2438.000000	100.502545
2437.000000	100.503360
2436.000000	100.504274
2435.000000	100.505250
2434.000000	100.506229
2433.000000	100.507181
2432.000000	100.508105
2431.000000	100.509016
2430.000000	100.509923
2429.000000	100.510835
2428.000000	100.511756
2427.000000	100.512684
2426.000000	100.513614
2425.000000	100.514538
2424.000000	100.515449
2423.000000	100.516347
2422.000000	100.517230
2421.000000	100.518098
2420.000000	100.518953
2419.000000	100.519795
2418.000000	100.520619
2417.000000	100.521428
2416.000000	100.522239
2415.000000	100.523065
2414.000000	100.523905
2413.000000	100.524737
2412.000000	100.525549
2411.000000	100.526353
2410.000000	100.527175
2409.000000	100.528022
2408.000000	100.528856
2407.000000	100.529618
2406.000000	100.530297
2405.000000	100.530955
2404.000000	100.531673
2403.000000	100.532447
2402.000000	100.533181
2401.000000	100.533804
2400.000000	100.534353
2399.000000	100.534941
2398.000000	100.535610
2397.000000	100.536314
2396.000000	100.536980
2395.000000	100.537566
2394.000000	100.538072
2393.000000	100.538523
2392.000000	100.538960
2391.000000	100.539409
2390.000000	100.539873
2389.000000	100.540340
2388.000000	100.540806
2387.000000	100.541271
2386.000000	100.541734
2385.000000	100.542192
2384.000000	100.542641
2383.000000	100.543082
2382.000000	100.543524
2381.000000	100.543974
2380.000000	100.544443
2379.000000	100.544931
2378.000000	100.545435
2377.000000	100.545944
2376.000000	100.546446
2375.000000	100.546934
2374.000000	100.547405
2373.000000	100.547862
2372.000000	100.548306
2371.000000	100.548739
2370.000000	100.549161
2369.000000	100.549577
2368.000000	100.549991
2367.000000	100.550404
2366.000000	100.550813
2365.000000	100.551218
2364.000000	100.551616
2363.000000	100.552014
2362.000000	100.552418
2361.000000	100.552838
2360.000000	100.553278
2359.000000	100.553734
2358.000000	100.554193
2357.000000	100.554642
2356.000000	100.555082
2355.000000	100.555526
2354.000000	100.555991
2353.000000	100.556485
2352.000000	100.557007
2351.000000	100.557551
2350.000000	100.558109
2349.000000	100.558676
2348.000000	100.559248
2347.000000	100.559822
2346.000000	100.560392
2345.000000	100.560948
2344.000000	100.561486
2343.000000	100.562008
2342.000000	100.562529
2341.000000	100.563056
2340.000000	100.563593
2339.000000	100.564133
2338.000000	100.564667
2337.000000	100.565191
2336.000000	100.565704
2335.000000	100.566208
2334.000000	100.566710
2333.000000	100.567217
2332.000000	100.567732
2331.000000	100.568252
2330.000000	100.568776
2329.000000	100.569304
2328.000000	100.569842
2327.000000	100.570390
2326.000000	100.570946
2325.000000	100.571505
2324.000000	100.572067
2323.000000	100.572633
2322.000000	100.573206
2321.000000	100.573786
2320.000000	100.574367
2319.000000	100.574941
2318.000000	100.575516
2317.000000	100.576097
2316.000000	100.576656
2315.000000	100.577157
2314.000000	100.577622
2313.000000	100.578136
2312.000000	100.578718
2311.000000	100.579282
2310.000000	100.579749
2309.000000	100.580137
2308.000000	100.580495
2307.000000	100.580832
2306.000000	100.581129
2305.000000	100.581411
2304.000000	100.581716
2303.000000	100.582043
2302.000000	100.582392
2301.000000	100.582834
2300.000000	100.583410
2299.000000	100.584011
2298.000000	100.584452
2297.000000	100.584711
2296.000000	100.584952
2295.000000	100.585341
2294.000000	100.585896
2293.000000	100.586499
2292.000000	100.586944
2291.000000	100.587026
2290.000000	100.586730
2289.000000	100.586367
2288.000000	100.586362
2287.000000	100.586843
2286.000000	100.587576
2285.000000	100.588312
2284.000000	100.589081
2283.000000	100.590004
2282.000000	100.590940
2281.000000	100.591493
2280.000000	100.591349
2279.000000	100.590501
2278.000000	100.589259
2277.000000	100.588175
2276.000000	100.587747
2275.000000	100.588099
2274.000000	100.588976
2273.000000	100.590063
2272.000000	100.591233
2271.000000	100.592396
2270.000000	100.593339
2269.000000	100.593935
2268.000000	100.594352
2267.000000	100.594765
2266.000000	100.594980
2265.000000	100.594656
2264.000000	100.593846
2263.000000	100.593065
2262.000000	100.592764
2261.000000	100.592928
2260.000000	100.593245
2259.000000	100.593486
2258.000000	100.593662
2257.000000	100.593905
2256.000000	100.594300
2255.000000	100.594773
2254.000000	100.595153
2253.000000	100.595377
2252.000000	100.595622
2251.000000	100.596103
2250.000000	100.596751
2249.000000	100.597212
2248.000000	100.597230
2247.000000	100.596926
2246.000000	100.596663
2245.000000	100.596709
2244.000000	100.597091
2243.000000	100.597698
2242.000000	100.598393
2241.000000	100.599054
2240.000000	100.599592
2239.000000	100.599964
2238.000000	100.600206
2237.000000	100.600471
2236.000000	100.600991
2235.000000	100.601835
2234.000000	100.602714
2233.000000	100.603183
2232.000000	100.603115
2231.000000	100.602860
2230.000000	100.602876
2229.000000	100.603294
2228.000000	100.603926
2227.000000	100.604551
2226.000000	100.605025
2225.000000	100.605219
2224.000000	100.605141
2223.000000	100.605106
2222.000000	100.605502
2221.000000	100.606287
2220.000000	100.606990
2219.000000	100.607353
2218.000000	100.607731
2217.000000	100.608618
2216.000000	100.609946
2215.000000	100.611081
2214.000000	100.611496
2213.000000	100.611298
2212.000000	100.611099
2211.000000	100.611421
2210.000000	100.612296
2209.000000	100.613395
2208.000000	100.614490
2207.000000	100.615682
2206.000000	100.617142
2205.000000	100.618819
2204.000000	100.620504
2203.000000	100.622064
2202.000000	100.623410
2201.000000	100.624408
2200.000000	100.625066
2199.000000	100.625738
2198.000000	100.626798
2197.000000	100.628091
2196.000000	100.629038
2195.000000	100.629374
2194.000000	100.629425
2193.000000	100.629601
2192.000000	100.629952
2191.000000	100.630438
2190.000000	100.631254
2189.000000	100.632492
2188.000000	100.633742
2187.000000	100.634490
2186.000000	100.634835
2185.000000	100.635390
2184.000000	100.636475
2183.000000	100.637796
2182.000000	100.638941
2181.000000	100.639853
2180.000000	100.640670
2179.000000	100.641477
2178.000000	100.642400
2177.000000	100.643622
2176.000000	100.645063
2175.000000	100.646283
2174.000000	100.647020
2173.000000	100.647583
2172.000000	100.648406
2171.000000	100.649333
2170.000000	100.649840
2169.000000	100.649880
2168.000000	100.650055
2167.000000	100.650853
2166.000000	100.652041
2165.000000	100.652992
2164.000000	100.653429
2163.000000	100.653658
2162.000000	100.654160
2161.000000	100.655117
2160.000000	100.656352
2159.000000	100.657579
2158.000000	100.658724
2157.000000	100.659979
2156.000000	100.661543
2155.000000	100.663324
2154.000000	100.664979
2153.000000	100.666251
2152.000000	100.667128
2151.000000	100.667688
2150.000000	100.667987
2149.000000	100.668181
2148.000000	100.668538
2147.000000	100.669176
2146.000000	100.669933
2145.000000	100.670613
2144.000000	100.671266
2143.000000	100.672090
2142.000000	100.673137
2141.000000	100.674270
2140.000000	100.675317
2139.000000	100.676206
2138.000000	100.676971
2137.000000	100.677762
2136.000000	100.678758
2135.000000	100.679985
2134.000000	100.681261
2133.000000	100.682409
2132.000000	100.683457
2131.000000	100.684542
2130.000000	100.685660
2129.000000	100.686653
2128.000000	100.687443
2127.000000	100.688159
2126.000000	100.689025
2125.000000	100.690136
2124.000000	100.691413
2123.000000	100.692708
2122.000000	100.693921
2121.000000	100.695044
2120.000000	100.696116
2119.000000	100.697183
2118.000000	100.698264
2117.000000	100.699352
2116.000000	100.700432
2115.000000	100.701495
2114.000000	100.702551
2113.000000	100.703611
2112.000000	100.704683
2111.000000	100.705770
2110.000000	100.706872
2109.000000	100.707991
2108.000000	100.709124
2107.000000	100.710268
2106.000000	100.711420
2105.000000	100.712580
2104.000000	100.713750
2103.000000	100.714928
2102.000000	100.716114
2101.000000	100.717304
2100.000000	100.718495
2099.000000	100.719682
2098.000000	100.720865
2097.000000	100.722054
2096.000000	100.723260
2095.000000	100.724481
2094.000000	100.725701
2093.000000	100.726895
2092.000000	100.728047
2091.000000	100.729154
2090.000000	100.730246
2089.000000	100.731385
2088.000000	100.732603
2087.000000	100.733836
2086.000000	100.734964
2085.000000	100.735959
2084.000000	100.736928
2083.000000	100.737942
2082.000000	100.738949
2081.000000	100.739946
2080.000000	100.741096
2079.000000	100.742544
2078.000000	100.744187
2077.000000	100.745714
2076.000000	100.746879
2075.000000	100.747661
2074.000000	100.748279
2073.000000	100.749051
2072.000000	100.750147
2071.000000	100.751461
2070.000000	100.752774
2069.000000	100.754022
2068.000000	100.755269
2067.000000	100.756487
2066.000000	100.757599
2065.000000	100.758728
2064.000000	100.760105
2063.000000	100.761665
2062.000000	100.763033
2061.000000	100.763979
2060.000000	100.764535
2059.000000	100.764651
2058.000000	100.764201
2057.000000	100.763494
2056.000000	100.763317
2055.000000	100.764084
2054.000000	100.765328
2053.000000	100.766324
2052.000000	100.767031
2051.000000	100.767953
2050.000000	100.769220
2049.000000	100.770360
2048.000000	100.771035
2047.000000	100.771500
2046.000000	100.772125
2045.000000	100.772794
2044.000000	100.773060
2043.000000	100.772720
2042.000000	100.772021
2041.000000	100.771409
2040.000000	100.771228
2039.000000	100.771591
2038.000000	100.772347
2037.000000	100.773127
2036.000000	100.773563
2035.000000	100.773553
2034.000000	100.773294
2033.000000	100.773089
2032.000000	100.773092
2031.000000	100.773216
2030.000000	100.773278
2029.000000	100.773207
2028.000000	100.773128
2027.000000	100.773249
2026.000000	100.773675
2025.000000	100.774323
2024.000000	100.774973
2023.000000	100.775395
2022.000000	100.775471
2021.000000	100.775242
2020.000000	100.774857
2019.000000	100.774499
2018.000000	100.774329
2017.000000	100.774449
2016.000000	100.774835
2015.000000	100.775279
2014.000000	100.775539
2013.000000	100.775582
2012.000000	100.775602
2011.000000	100.775728
2010.000000	100.775809
2009.000000	100.775628
2008.000000	100.775244
2007.000000	100.774966
2006.000000	100.774972
2005.000000	100.775168
2004.000000	100.775451
2003.000000	100.775907
2002.000000	100.776607
2001.000000	100.777352
2000.000000	100.777789
1999.000000	100.777774
1998.000000	100.777524
1997.000000	100.777392
1996.000000	100.777579
1995.000000	100.778108
1994.000000	100.778959
1993.000000	100.780058
1992.000000	100.781167
1991.000000	100.781949
1990.000000	100.782228
1989.000000	100.782110
1988.000000	100.781799
1987.000000	100.781287
1986.000000	100.780424
1985.000000	100.779343
1984.000000	100.778617
1983.000000	100.778753
1982.000000	100.779614
1981.000000	100.780549
1980.000000	100.781086
1979.000000	100.781298
1978.000000	100.781431
1977.000000	100.781511
1976.000000	100.781435
1975.000000	100.781212
1974.000000	100.780896
1973.000000	100.780493
1972.000000	100.780140
1971.000000	100.780177
1970.000000	100.780731
1969.000000	100.781423
1968.000000	100.781792
1967.000000	100.781940
1966.000000	100.782403
1965.000000	100.783406
1964.000000	100.784637
1963.000000	100.785716
1962.000000	100.786518
1961.000000	100.786983
1960.000000	100.786926
1959.000000	100.786259
1958.000000	100.785224
1957.000000	100.784281
1956.000000	100.783805
1955.000000	100.783927
1954.000000	100.784514
1953.000000	100.785172
1952.000000	100.785544
1951.000000	100.785691
1950.000000	100.785981
1949.000000	100.786529
1948.000000	100.786912
1947.000000	100.786698
1946.000000	100.786135
1945.000000	100.785931
1944.000000	100.786314
1943.000000	100.786629
1942.000000	100.786175
1941.000000	100.785160
1940.000000	100.784419
1939.000000	100.784450
1938.000000	100.785139
1937.000000	100.786071
1936.000000	100.786789
1935.000000	100.786825
1934.000000	100.785850
1933.000000	100.783965
1932.000000	100.781748
1931.000000	100.779746
1930.000000	100.778082
1929.000000	100.776786
1928.000000	100.776105
1927.000000	100.776343
1926.000000	100.777298
1925.000000	100.778250
1924.000000	100.778615
1923.000000	100.778401
1922.000000	100.778011
1921.000000	100.777666
1920.000000	100.777221
1919.000000	100.776645
1918.000000	100.776250
1917.000000	100.776360
1916.000000	100.776718
1915.000000	100.776534
1914.000000	100.775354
1913.000000	100.773549
1912.000000	100.771842
1911.000000	100.770441
1910.000000	100.769017
1909.000000	100.767558
1908.000000	100.766542
1907.000000	100.766270
1906.000000	100.766254
1905.000000	100.765665
1904.000000	100.764135
1903.000000	100.761768
1902.000000	100.758845
1901.000000	100.755862
1900.000000	100.753526
1899.000000	100.752561
1898.000000	100.753235
1897.000000	100.755011
1896.000000	100.756721
1895.000000	100.757311
1894.000000	100.756664
1893.000000	100.755495
1892.000000	100.754279
1891.000000	100.752629
1890.000000	100.750017
1889.000000	100.747041
1888.000000	100.745150
1887.000000	100.744972
1886.000000	100.745983
1885.000000	100.747578
1884.000000	100.749587
1883.000000	100.751655
1882.000000	100.752868
1881.000000	100.752504
1880.000000	100.750761
1879.000000	100.748578
1878.000000	100.746863
1877.000000	100.746001
1876.000000	100.746043
1875.000000	100.746965
1874.000000	100.748716
1873.000000	100.751204
1872.000000	100.754135
1871.000000	100.756860
1870.000000	100.758567
1869.000000	100.758926
1868.000000	100.758629
1867.000000	100.758604
1866.000000	100.759104
1865.000000	100.760138
1864.000000	100.761715
1863.000000	100.763167
1862.000000	100.763276
1861.000000	100.761857
1860.000000	100.760689
1859.000000	100.761860
1858.000000	100.765637
1857.000000	100.770498
1856.000000	100.774775
1855.000000	100.777795
1854.000000	100.779550
1853.000000	100.780442
1852.000000	100.781223
1851.000000	100.782730
1850.000000	100.785273
1849.000000	100.788409
1848.000000	100.791564
1847.000000	100.794526
1846.000000	100.797154
1845.000000	100.798870
1844.000000	100.799059
1843.000000	100.798208
1842.000000	100.797532
1841.000000	100.797657
1840.000000	100.798618
1839.000000	100.800402
1838.000000	100.802825
1837.000000	100.805460
1836.000000	100.807878
1835.000000	100.809729
1834.000000	100.810754
1833.000000	100.810953
1832.000000	100.810728
1831.000000	100.810787
1830.000000	100.811357
1829.000000	100.811988
1828.000000	100.812454
1827.000000	100.813082
1826.000000	100.814255
1825.000000	100.815706
1824.000000	100.816910
1823.000000	100.817996
1822.000000	100.819433
1821.000000	100.821427
1820.000000	100.823987
1819.000000	100.826990
1818.000000	100.829476
1817.000000	100.829883
1816.000000	100.827870
1815.000000	100.824968
1814.000000	100.823117
1813.000000	100.823007
1812.000000	100.824448
1811.000000	100.827140
1810.000000	100.830220
1809.000000	100.832536
1808.000000	100.833869
1807.000000	100.834891
1806.000000	100.835761
1805.000000	100.835703
1804.000000	100.834533
1803.000000	100.833407
1802.000000	100.833895
1801.000000	100.836114
1800.000000	100.839014
1799.000000	100.841820
1798.000000	100.844074
1797.000000	100.845516
1796.000000	100.846545
1795.000000	100.847941
1794.000000	100.849878
1793.000000	100.850882
1792.000000	100.849806
1791.000000	100.849159
1790.000000	100.852161
1789.000000	100.858175
1788.000000	100.864031
1787.000000	100.867535
1786.000000	100.868758
1785.000000	100.869088
1784.000000	100.870146
1783.000000	100.873056
1782.000000	100.878737
1781.000000	100.886376
1780.000000	100.893334
1779.000000	100.898448
1778.000000	100.903400
1777.000000	100.909958
1776.000000	100.916719
1775.000000	100.920768
1774.000000	100.922356
1773.000000	100.925268
1772.000000	100.931432
1771.000000	100.938865
1770.000000	100.945329
1769.000000	100.951584
1768.000000	100.960606
1767.000000	100.973325
1766.000000	100.986827
1765.000000	100.997512
1764.000000	101.005501
1763.000000	101.015168
1762.000000	101.030868
1761.000000	101.051390
1760.000000	101.071951
1759.000000	101.090070
1758.000000	101.106709
1757.000000	101.122683
1756.000000	101.136585
1755.000000	101.148609
1754.000000	101.162210
1753.000000	101.180954
1752.000000	101.204613
1751.000000	101.228284
1750.000000	101.246950
1749.000000	101.260394
1748.000000	101.271058
1747.000000	101.280862
1746.000000	101.291340
1745.000000	101.302508
1744.000000	101.312257
1743.000000	101.317904
1742.000000	101.317793
1741.000000	101.310902
1740.000000	101.297048
1739.000000	101.278849
1738.000000	101.260746
1737.000000	101.243214
1736.000000	101.222247
1735.000000	101.194393
1734.000000	101.161647
1733.000000	101.133004
1732.000000	101.112742
1731.000000	101.097641
1730.000000	101.085980
1729.000000	101.078490
1728.000000	101.074940
1727.000000	101.073518
1726.000000	101.072280
1725.000000	101.068838
1724.000000	101.061247
1723.000000	101.050143
1722.000000	101.038743
1721.000000	101.030574
1720.000000	101.027444
1719.000000	101.028760
1718.000000	101.029809
1717.000000	101.026741
1716.000000	101.023914
1715.000000	101.026366
1714.000000	101.032000
1713.000000	101.035029
1712.000000	101.032518
1711.000000	101.026353
1710.000000	101.020292
1709.000000	101.016315
1708.000000	101.013507
1707.000000	101.010273
1706.000000	101.005898
1705.000000	101.001133
1704.000000	100.997766
1703.000000	100.995959
1702.000000	100.994946
1701.000000	100.994530
1700.000000	100.993077
1699.000000	100.992235
1698.000000	100.993713
1697.000000	100.994745
1696.000000	100.992186
1695.000000	100.986962
1694.000000	100.983507
1693.000000	100.983537
1692.000000	100.985500
1691.000000	100.987402
1690.000000	100.988288
1689.000000	100.988281
1688.000000	100.987247
1687.000000	100.985281
1686.000000	100.984266
1685.000000	100.986700
1684.000000	100.989423
1683.000000	100.988538
1682.000000	100.986274
1681.000000	100.985416
1680.000000	100.986351
1679.000000	100.988070
1678.000000	100.989652
1677.000000	100.990964
1676.000000	100.992133
1675.000000	100.993006
1674.000000	100.994226
1673.000000	100.996357
1672.000000	100.998998
1671.000000	101.001537
1670.000000	101.003514
1669.000000	101.004929
1668.000000	101.006064
1667.000000	101.006966
1666.000000	101.007714
1665.000000	101.008460
1664.000000	101.009265
1663.000000	101.009720
1662.000000	101.009862
1661.000000	101.010467
1660.000000	101.011569
1659.000000	101.012583
1658.000000	101.013203
1657.000000	101.013229
1656.000000	101.011698
1655.000000	101.007777
1654.000000	101.002399
1653.000000	100.998947
1652.000000	101.000549
1651.000000	101.004617
1650.000000	101.007891
1649.000000	101.010488
1648.000000	101.013051
1647.000000	101.014959
1646.000000	101.015702
1645.000000	101.016295
1644.000000	101.017399
1643.000000	101.018552
1642.000000	101.019223
1641.000000	101.019430
1640.000000	101.019492
1639.000000	101.019549
1638.000000	101.019215
1637.000000	101.018477
1636.000000	101.018188
1635.000000	101.019990
1634.000000	101.024017
1633.000000	101.027842
1632.000000	101.029508
1631.000000	101.028982
1630.000000	101.027956
1629.000000	101.028592
1628.000000	101.031371
1627.000000	101.034717
1626.000000	101.037301
1625.000000	101.039438
1624.000000	101.042165
1623.000000	101.045705
1622.000000	101.049683
1621.000000	101.053647
1620.000000	101.056756
1619.000000	101.058592
1618.000000	101.060249
1617.000000	101.063472
1616.000000	101.067603
1615.000000	101.070074
1614.000000	101.070388
1613.000000	101.070797
1612.000000	101.073670
1611.000000	101.079075
1610.000000	101.085200
1609.000000	101.090738
1608.000000	101.096028
1607.000000	101.101758
1606.000000	101.107902
1605.000000	101.113753
1604.000000	101.118528
1603.000000	101.122294
1602.000000	101.125760
1601.000000	101.129023
1600.000000	101.131275
1599.000000	101.132276
1598.000000	101.133537
1597.000000	101.136788
1596.000000	101.141525
1595.000000	101.145166
1594.000000	101.146035
1593.000000	101.145144
1592.000000	101.144635
1591.000000	101.145701
1590.000000	101.148500
1589.000000	101.152638
1588.000000	101.156737
1587.000000	101.158577
1586.000000	101.156908
1585.000000	101.153196
1584.000000	101.150233
1583.000000	101.149715
1582.000000	101.151735
1581.000000	101.155525
1580.000000	101.159892
1579.000000	101.163516
1578.000000	101.165517
1577.000000	101.165714
1576.000000	101.164464
1575.000000	101.162464
1574.000000	101.160275
1573.000000	101.157893
1572.000000	101.155508
1571.000000	101.154033
1570.000000	101.154209
1569.000000	101.156446
1568.000000	101.160597
1567.000000	101.165450
1566.000000	101.169233
1565.000000	101.170999
1564.000000	101.171128
1563.000000	101.171018
1562.000000	101.171589
1561.000000	101.173946
1560.000000	101.180564
1559.000000	101.184830
1558.000000	101.182236
1557.000000	101.179721
1556.000000	101.178700
1555.000000	101.176932
1554.000000	101.173723
1553.000000	101.169682
1552.000000	101.166672
1551.000000	101.166254
1550.000000	101.167690
1549.000000	101.168615
1548.000000	101.168198
1547.000000	101.167705
1546.000000	101.168294
1545.000000	101.168634
1544.000000	101.166369
1543.000000	101.162743
1542.000000	101.161553
1541.000000	101.162566
1540.000000	101.159455
1539.000000	101.151092
1538.000000	101.143286
1537.000000	101.137297
1536.000000	101.130580
1535.000000	101.121613
1534.000000	101.111756
1533.000000	101.103909
1532.000000	101.098806
1531.000000	101.093508
1530.000000	101.084790
1529.000000	101.073056
1528.000000	101.062044
1527.000000	101.055352
1526.000000	101.052993
1525.000000	101.051137
1524.000000	101.046095
1523.000000	101.038260
1522.000000	101.031428
1521.000000	101.028093
1520.000000	101.026141
1519.000000	101.022351
1518.000000	101.017134
1517.000000	101.012978
1516.000000	101.010839
1515.000000	101.009232
1514.000000	101.006422
1513.000000	101.001818
1512.000000	100.995555
1511.000000	100.987655
1510.000000	100.978723
1509.000000	100.970859
1508.000000	100.967801
1507.000000	100.969968
1506.000000	100.973798
1505.000000	100.976444
1504.000000	100.976597
1503.000000	100.975415
1502.000000	100.975401
1501.000000	100.978387
1500.000000	100.984165
1499.000000	100.990138
1498.000000	100.993228
1497.000000	100.992299
1496.000000	100.989362
1495.000000	100.986344
1494.000000	100.982928
1493.000000	100.979187
1492.000000	100.977391
1491.000000	100.979509
1490.000000	100.983025
1489.000000	100.983243
1488.000000	100.980134
1487.000000	100.977251
1486.000000	100.976684
1485.000000	100.978936
1484.000000	100.983565
1483.000000	100.990002
1482.000000	100.997337
1481.000000	101.003688
1480.000000	101.007806
1479.000000	101.010539
1478.000000	101.014165
1477.000000	101.020179
1476.000000	101.028774
1475.000000	101.040277
1474.000000	101.057271
1473.000000	101.082018
1472.000000	101.112092
1471.000000	101.142958
1470.000000	101.172092
1469.000000	101.198052
1468.000000	101.219564
1467.000000	101.236304
1466.000000	101.248731
1465.000000	101.255862
1464.000000	101.255869
1463.000000	101.250765
1462.000000	101.244901
1461.000000	101.240720
1460.000000	101.237907
1459.000000	101.235519
1458.000000	101.233456
1457.000000	101.230748
1456.000000	101.225833
1455.000000	101.218544
1454.000000	101.210366
1453.000000	101.203122
1452.000000	101.197161
1451.000000	101.191339
1450.000000	101.184725
1449.000000	101.177719
1448.000000	101.171685
1447.000000	101.166768
1446.000000	101.161955
1445.000000	101.156498
1444.000000	101.151057
1443.000000	101.147699
1442.000000	101.147239
1441.000000	101.147636
1440.000000	101.145655
1439.000000	101.140207
1438.000000	101.133314
1437.000000	101.128056
1436.000000	101.125275
1435.000000	101.123152
1434.000000	101.119171
1433.000000	101.112244
1432.000000	101.103993
1431.000000	101.098242
1430.000000	101.097938
1429.000000	101.101710
1428.000000	101.105070
1427.000000	101.104518
1426.000000	101.100762
1425.000000	101.097557
1424.000000	101.097690
1423.000000	101.101039
1422.000000	101.105571
1421.000000	101.109767
1420.000000	101.112793
1419.000000	101.112934
1418.000000	101.109691
1417.000000	101.105888
1416.000000	101.104432
1415.000000	101.105469
1414.000000	101.106593
1413.000000	101.105075
1412.000000	101.100969
1411.000000	101.097523
1410.000000	101.097400
1409.000000	101.099392
1408.000000	101.100592
1407.000000	101.100154
1406.000000	101.100286
1405.000000	101.103508
1404.000000	101.109370
1403.000000	101.115238
1402.000000	101.119516
1401.000000	101.123315
1400.000000	101.128900
1399.000000	101.136651
1398.000000	101.144202
1397.000000	101.148970
1396.000000	101.150647
1395.000000	101.151285
1394.000000	101.153975
1393.000000	101.160078
1392.000000	101.168320
1391.000000	101.177138
1390.000000	101.186510
1389.000000	101.197572
1388.000000	101.210603
1387.000000	101.223162
1386.000000	101.232047
1385.000000	101.236807
1384.000000	101.239468
1383.000000	101.242176
1382.000000	101.245567
1381.000000	101.249028
1380.000000	101.251994
1379.000000	101.254517
1378.000000	101.257226
1377.000000	101.261091
1376.000000	101.266742
1375.000000	101.273187
1374.000000	101.277996
1373.000000	101.279994
1372.000000	101.280890
1371.000000	101.282953
1370.000000	101.286391
1369.000000	101.289279
1368.000000	101.289797
1367.000000	101.288502
1366.000000	101.287496
1365.000000	101.288134
1364.000000	101.290299
1363.000000	101.292922
1362.000000	101.294683
1361.000000	101.294781
1360.000000	101.293621
1359.000000	101.292923
1358.000000	101.294416
1357.000000	101.297733
1356.000000	101.300299
1355.000000	101.299985
1354.000000	101.297366
1353.000000	101.294758
1352.000000	101.293835
1351.000000	101.294430
1350.000000	101.295343
1349.000000	101.295470
1348.000000	101.294440
1347.000000	101.292925
1346.000000	101.291894
1345.000000	101.291229
1344.000000	101.289654
1343.000000	101.286561
1342.000000	101.283270
1341.000000	101.281664
1340.000000	101.281864
1339.000000	101.282291
1338.000000	101.282063
1337.000000	101.281942
1336.000000	101.282771
1335.000000	101.284278
1334.000000	101.285524
1333.000000	101.285819
1332.000000	101.285264
1331.000000	101.284967
1330.000000	101.286622
1329.000000	101.290936
1328.000000	101.296228
1327.000000	101.299379
1326.000000	101.298911
1325.000000	101.296441
1324.000000	101.294663
1323.000000	101.294443
1322.000000	101.294710
1321.000000	101.294816
1320.000000	101.295752
1319.000000	101.298575
1318.000000	101.302405
1317.000000	101.304956
1316.000000	101.304897
1315.000000	101.302858
1314.000000	101.300314
1313.000000	101.298106
1312.000000	101.296370
1311.000000	101.295350
1310.000000	101.295480
1309.000000	101.296660
1308.000000	101.298135
1307.000000	101.299380
1306.000000	101.300758
1305.000000	101.302796
1304.000000	101.304960
1303.000000	101.305745
1302.000000	101.304206
1301.000000	101.301186
1300.000000	101.298668
1299.000000	101.297732
1298.000000	101.297357
1297.000000	101.295677
1296.000000	101.292414
1295.000000	101.289514
1294.000000	101.288937
1293.000000	101.290188
1292.000000	101.290786
1291.000000	101.289194
1290.000000	101.286620
1289.000000	101.285687
1288.000000	101.287719
1287.000000	101.291615
1286.000000	101.295028
1285.000000	101.296413
1284.000000	101.296021
1283.000000	101.295325
1282.000000	101.295444
1281.000000	101.295968
1280.000000	101.295362
1279.000000	101.292610
1278.000000	101.288447
1277.000000	101.284968
1276.000000	101.284050
1275.000000	101.286111
1274.000000	101.290116
1273.000000	101.294482
1272.000000	101.297928
1271.000000	101.299732
1270.000000	101.299881
1269.000000	101.299386
1268.000000	101.299893
1267.000000	101.302034
1266.000000	101.304128
1265.000000	101.303623
1264.000000	101.300335
1263.000000	101.297306
1262.000000	101.297499
1261.000000	101.300297
1260.000000	101.302396
1259.000000	101.301809
1258.000000	101.299646
1257.000000	101.297789
1256.000000	101.295941
1255.000000	101.291694
1254.000000	101.283336
1253.000000	101.272316
1252.000000	101.262636
1251.000000	101.257323
1250.000000	101.255642
1249.000000	101.254686
1248.000000	101.253379
1247.000000	101.252914
1246.000000	101.252753
1245.000000	101.248908
1244.000000	101.238703
1243.000000	101.225798
1242.000000	101.217542
1241.000000	101.217267
1240.000000	101.221506
1239.000000	101.224582
1238.000000	101.223470
1237.000000	101.217951
1236.000000	101.208778
1235.000000	101.197252
1234.000000	101.185039
1233.000000	101.172968
1232.000000	101.160770
1231.000000	101.148588
1230.000000	101.137588
1229.000000	101.128373
1228.000000	101.119771
1227.000000	101.109811
1226.000000	101.097264
1225.000000	101.082083
1224.000000	101.065193
1223.000000	101.047810
1222.000000	101.029885
1221.000000	101.009382
1220.000000	100.984447
1219.000000	100.956088
1218.000000	100.926870
1217.000000	100.896928
1216.000000	100.863841
1215.000000	100.827354
1214.000000	100.791729
1213.000000	100.761410
1212.000000	100.735500
1211.000000	100.708235
1210.000000	100.674314
1209.000000	100.632699
1208.000000	100.586329
1207.000000	100.539813
1206.000000	100.497005
1205.000000	100.459253
1204.000000	100.425189
1203.000000	100.392152
1202.000000	100.358166
1201.000000	100.323165
1200.000000	100.288623
1199.000000	100.255593
1198.000000	100.222826
1197.000000	100.187446
1196.000000	100.147911
1195.000000	100.105752
1194.000000	100.064007
1193.000000	100.024647
1192.000000	99.987983
1191.000000	99.953301
1190.000000	99.918696
1189.000000	99.881058
1188.000000	99.837962
1187.000000	99.790003
1186.000000	99.740387
1185.000000	99.691803
1184.000000	99.644042
1183.000000	99.594765
1182.000000	99.542425
1181.000000	99.488399
1180.000000	99.435908
1179.000000	99.386314
1178.000000	99.337012
1177.000000	99.284077
1176.000000	99.226673
1175.000000	99.167579
1174.000000	99.109800
1173.000000	99.054541
1172.000000	99.002259
1171.000000	98.952994
1170.000000	98.904882
1169.000000	98.854943
1168.000000	98.802972
1167.000000	98.753243
1166.000000	98.711496
1165.000000	98.681857
1164.000000	98.667279
1163.000000	98.670473
1162.000000	98.692279
1161.000000	98.729341
1160.000000	98.773276
1159.000000	98.811607
1158.000000	98.831550
1157.000000	98.826053
1156.000000	98.796990
1155.000000	98.752036
1154.000000	98.698709
1153.000000	98.641862
1152.000000	98.585016
1151.000000	98.530476
1150.000000	98.477748
1149.000000	98.424676
1148.000000	98.370803
1147.000000	98.317770
1146.000000	98.266910
1145.000000	98.219056
1144.000000	98.175759
1143.000000	98.137018
1142.000000	98.098379
1141.000000	98.054577
1140.000000	98.005955
1139.000000	97.957054
1138.000000	97.909164
1137.000000	97.859634
1136.000000	97.808989
1135.000000	97.762406
1134.000000	97.721748
1133.000000	97.681743
1132.000000	97.637154
1131.000000	97.588998
1130.000000	97.540498
1129.000000	97.491266
1128.000000	97.439227
1127.000000	97.384848
1126.000000	97.329893
1125.000000	97.274772
1124.000000	97.220210
1123.000000	97.168836
1122.000000	97.121960
1121.000000	97.076922
1120.000000	97.030117
1119.000000	96.980753
1118.000000	96.930050
1117.000000	96.879335
1116.000000	96.830294
1115.000000	96.783798
1114.000000	96.737009
1113.000000	96.685678
1112.000000	96.631004
1111.000000	96.579626
1110.000000	96.534799
1109.000000	96.492236
1108.000000	96.447161
1107.000000	96.400769
1106.000000	96.356324
1105.000000	96.313217
1104.000000	96.268602
1103.000000	96.221579
1102.000000	96.172729
1101.000000	96.122649
1100.000000	96.073404
1099.000000	96.028203
1098.000000	95.987620
1097.000000	95.949386
1096.000000	95.912909
1095.000000	95.879583
1094.000000	95.847428
1093.000000	95.810650
1092.000000	95.766527
1091.000000	95.718294
1090.000000	95.669919
1089.000000	95.622989
1088.000000	95.579856
1087.000000	95.543686
1086.000000	95.512828
1085.000000	95.480396
1084.000000	95.441931
1083.000000	95.399194
1082.000000	95.355535
1081.000000	95.312948
1080.000000	95.274683
1079.000000	95.244309
1078.000000	95.219984
1077.000000	95.195323
1076.000000	95.167334
1075.000000	95.137462
1074.000000	95.104040
1073.000000	95.061010
1072.000000	95.005887
1071.000000	94.942065
1070.000000	94.871365
1069.000000	94.791158
1068.000000	94.700822
1067.000000	94.603732
1066.000000	94.500670
1065.000000	94.389366
1064.000000	94.273572
1063.000000	94.164033
1062.000000	94.065998
1061.000000	93.973497
1060.000000	93.880208
1059.000000	93.787937
1058.000000	93.700114
1057.000000	93.615517
1056.000000	93.533985
1055.000000	93.460223
1054.000000	93.394893
1053.000000	93.327997
1052.000000	93.247929
1051.000000	93.152516
1050.000000	93.045982
1049.000000	92.931145
1048.000000	92.810339
1047.000000	92.687205
1046.000000	92.561532
1045.000000	92.428335
1044.000000	92.286434
1043.000000	92.142119
1042.000000	92.000786
1041.000000	91.861289
1040.000000	91.722428
1039.000000	91.588391
1038.000000	91.463460
1037.000000	91.347400
1036.000000	91.239703
1035.000000	91.142056
1034.000000	91.053535
1033.000000	90.970242
1032.000000	90.892535
1031.000000	90.825139
1030.000000	90.767189
1029.000000	90.710356
1028.000000	90.650539
1027.000000	90.593652
1026.000000	90.546046
1025.000000	90.506877
1024.000000	90.473189
1023.000000	90.444223
1022.000000	90.416402
1021.000000	90.381899
1020.000000	90.337305
1019.000000	90.287641
1018.000000	90.238046
1017.000000	90.187472
1016.000000	90.133637
1015.000000	90.077995
1014.000000	90.022744
1013.000000	89.968513
1012.000000	89.916790
1011.000000	89.868664
1010.000000	89.820520
1009.000000	89.768378
1008.000000	89.717292
1007.000000	89.678180
1006.000000	89.653957
1005.000000	89.636957
1004.000000	89.621110
1003.000000	89.607556
1002.000000	89.596559
1001.000000	89.583978
1000.000000	89.569381
999.000000	89.558970
998.000000	89.556393
997.000000	89.557763
996.000000	89.558570
995.000000	89.558531
994.000000	89.557629
993.000000	89.554937
992.000000	89.553547
991.000000	89.559195
990.000000	89.572036
989.000000	89.586921
988.000000	89.602693
987.000000	89.622847
986.000000	89.646039
985.000000	89.665838
984.000000	89.682992
983.000000	89.708857
982.000000	89.752447
981.000000	89.811394
980.000000	89.878755
979.000000	89.951811
978.000000	90.031054
977.000000	90.116911
976.000000	90.210618
975.000000	90.313246
974.000000	90.422232
973.000000	90.533806
972.000000	90.648944
971.000000	90.771098
970.000000	90.898702
969.000000	91.026921
968.000000	91.156405
967.000000	91.292593
966.000000	91.435754
965.000000	91.579011
964.000000	91.717016
963.000000	91.849671
962.000000	91.976844
961.000000	92.096842
960.000000	92.211676
959.000000	92.327144
958.000000	92.445397
957.000000	92.562315
956.000000	92.673337
955.000000	92.777259
954.000000	92.874363
953.000000	92.965985
952.000000	93.055793
951.000000	93.145845
950.000000	93.231161
949.000000	93.303886
948.000000	93.363309
947.000000	93.416922
946.000000	93.471496
945.000000	93.527659
944.000000	93.582645
943.000000	93.632888
942.000000	93.674391
941.000000	93.706226
940.000000	93.733646
939.000000	93.762888
938.000000	93.793887
937.000000	93.823392
936.000000	93.853199
935.000000	93.888183
934.000000	93.927646
933.000000	93.966629
932.000000	94.005076
931.000000	94.047019
930.000000	94.090335
929.000000	94.126426
928.000000	94.152208
927.000000	94.174668
926.000000	94.201007
925.000000	94.231058
924.000000	94.261748
923.000000	94.292243
922.000000	94.321833
921.000000	94.348585
920.000000	94.372792
919.000000	94.397047
918.000000	94.421675
917.000000	94.445405
916.000000	94.471162
915.000000	94.504415
914.000000	94.544239
913.000000	94.582933
912.000000	94.617262
911.000000	94.653902
910.000000	94.700763
909.000000	94.758922
908.000000	94.826438
907.000000	94.904837
906.000000	94.997626
905.000000	95.105154
904.000000	95.223306
903.000000	95.345237
902.000000	95.464514
901.000000	95.579731
900.000000	95.695185
899.000000	95.813737
898.000000	95.931221
897.000000	96.042872
896.000000	96.152768
895.000000	96.269524
894.000000	96.392897
893.000000	96.512075
892.000000	96.618910
891.000000	96.716622
890.000000	96.813037
889.000000	96.910143
888.000000	97.003447
887.000000	97.088469
886.000000	97.165043
885.000000	97.236835
884.000000	97.308150
883.000000	97.380469
882.000000	97.452381
881.000000	97.523758
880.000000	97.597922
879.000000	97.677084
878.000000	97.757833
877.000000	97.834918
876.000000	97.907883
875.000000	97.980468
874.000000	98.055725
873.000000	98.135559
872.000000	98.222111
871.000000	98.314257
870.000000	98.404737
869.000000	98.486062
868.000000	98.557797
867.000000	98.623905
866.000000	98.685938
865.000000	98.744750
864.000000	98.806636
863.000000	98.879959
862.000000	98.964845
861.000000	99.052566
860.000000	99.136601
859.000000	99.218702
858.000000	99.302103
857.000000	99.383688
856.000000	99.456206
855.000000	99.515808
854.000000	99.565382
853.000000	99.612205
852.000000	99.663133
851.000000	99.719866
850.000000	99.777565
849.000000	99.829486
848.000000	99.873470
847.000000	99.912697
846.000000	99.950336
845.000000	99.985059
844.000000	100.011697
843.000000	100.025146
842.000000	100.024624
841.000000	100.015470
840.000000	100.005059
839.000000	99.994803
838.000000	99.978038
837.000000	99.948750
836.000000	99.910456
835.000000	99.872382
834.000000	99.838149
833.000000	99.803532
832.000000	99.765596
831.000000	99.727991
830.000000	99.694949
829.000000	99.665919
828.000000	99.641107
827.000000	99.628621
826.000000	99.639793
825.000000	99.677395
824.000000	99.732213
823.000000	99.791018
822.000000	99.844754
821.000000	99.889126
820.000000	99.921308
819.000000	99.939364
818.000000	99.944213
817.000000	99.938854
816.000000	99.923453
815.000000	99.892511
814.000000	99.839526
813.000000	99.763642
812.000000	99.667829
811.000000	99.549671
810.000000	99.398286
809.000000	99.203547
808.000000	98.966208
807.000000	98.696617
806.000000	98.406182
805.000000	98.104009
804.000000	97.800009
803.000000	97.505546
802.000000	97.230792
801.000000	96.986212
800.000000	96.785550
799.000000	96.640262
798.000000	96.550398
797.000000	96.507433
796.000000	96.505471
795.000000	96.541615
794.000000	96.605557
793.000000	96.678508
792.000000	96.745243
791.000000	96.801158
790.000000	96.846571
789.000000	96.879979
788.000000	96.897218
787.000000	96.891408
786.000000	96.853791
785.000000	96.781077
784.000000	96.682575
783.000000	96.574445
782.000000	96.466812
781.000000	96.362839
780.000000	96.269994
779.000000	96.203195
778.000000	96.174106
777.000000	96.184124
776.000000	96.229323
775.000000	96.304487
774.000000	96.400139
773.000000	96.503444
772.000000	96.605857
771.000000	96.705495
770.000000	96.801183
769.000000	96.889857
768.000000	96.970437
767.000000	97.043661
766.000000	97.106425
765.000000	97.152485
764.000000	97.181363
763.000000	97.201712
762.000000	97.223587
761.000000	97.251321
760.000000	97.284846
759.000000	97.322553
758.000000	97.361043
757.000000	97.397216
756.000000	97.432815
755.000000	97.472794
754.000000	97.517942
753.000000	97.563613
752.000000	97.606881
751.000000	97.650063
750.000000	97.695649
749.000000	97.742599
748.000000	97.789800
747.000000	97.839078
746.000000	97.892734
745.000000	97.951824
744.000000	98.018611
743.000000	98.096816
742.000000	98.186867
741.000000	98.283376
740.000000	98.379010
739.000000	98.469023
738.000000	98.551759
737.000000	98.627497
736.000000	98.697852
735.000000	98.764736
734.000000	98.829573
733.000000	98.893950
732.000000	98.959005
731.000000	99.022201
730.000000	99.077087
729.000000	99.119428
728.000000	99.152257
727.000000	99.182258
726.000000	99.213048
725.000000	99.245211
724.000000	99.280358
723.000000	99.320270
722.000000	99.363279
721.000000	99.406225
720.000000	99.449800
719.000000	99.498053
718.000000	99.552533
717.000000	99.609500
716.000000	99.661384
715.000000	99.698914
714.000000	99.716372
713.000000	99.719661
712.000000	99.725457
711.000000	99.745548
710.000000	99.773593
709.000000	99.793367
708.000000	99.797664
707.000000	99.792055
706.000000	99.782013
705.000000	99.765516
704.000000	99.739099
703.000000	99.701460
702.000000	99.647422
701.000000	99.565408
700.000000	99.445292
699.000000	99.286357
698.000000	99.098743
697.000000	98.904214
696.000000	98.735696
695.000000	98.625429
694.000000	98.587221
693.000000	98.611617
692.000000	98.676966
691.000000	98.761974
690.000000	98.851335
689.000000	98.939410
688.000000	99.031867
687.000000	99.136184
686.000000	99.247003
685.000000	99.346682
684.000000	99.422110
683.000000	99.475459
682.000000	99.517407
681.000000	99.556358
680.000000	99.596529
679.000000	99.640248
678.000000	99.687518
677.000000	99.735892
676.000000	99.784022
675.000000	99.832818
674.000000	99.881036
673.000000	99.923800
672.000000	99.958599
671.000000	99.990392
670.000000	100.028547
669.000000	100.082443
668.000000	100.148082
667.000000	100.205935
666.000000	100.249125
665.000000	100.283749
664.000000	100.314372
663.000000	100.344479
662.000000	100.372475
661.000000	100.392962
660.000000	100.404386
659.000000	100.414203
658.000000	100.432066
657.000000	100.458597
656.000000	100.483832
655.000000	100.496321
654.000000	100.493559
653.000000	100.485062
652.000000	100.482977
651.000000	100.487897
650.000000	100.488596
649.000000	100.480736
648.000000	100.479556
647.000000	100.503639
646.000000	100.549312
645.000000	100.594999
644.000000	100.629472
643.000000	100.660688
642.000000	100.696814
641.000000	100.734005
640.000000	100.767957
639.000000	100.803575
638.000000	100.846483
637.000000	100.896265
636.000000	100.952185
635.000000	101.011855
634.000000	101.060095
633.000000	101.075365
632.000000	101.055571
631.000000	101.028787
630.000000	101.028395
629.000000	101.060996
628.000000	101.105575
627.000000	101.136720
626.000000	101.143773
625.000000	101.136482
624.000000	101.139010
623.000000	101.171336
622.000000	101.229730
621.000000	101.291092
620.000000	101.338183
619.000000	101.369489
618.000000	101.384326
617.000000	101.375645
616.000000	101.345701
615.000000	101.316378
614.000000	101.309347
613.000000	101.319527
612.000000	101.320128
611.000000	101.290464
610.000000	101.235171
609.000000	101.181429
608.000000	101.159912
607.000000	101.181164
606.000000	101.221050
605.000000	101.237809
604.000000	101.209317
603.000000	101.146690
602.000000	101.077378
601.000000	101.027507
600.000000	101.019667
599.000000	101.063930
598.000000	101.137831
597.000000	101.196044
596.000000	101.214375
595.000000	101.209163
594.000000	101.203895
593.000000	101.193382
592.000000	101.161549
591.000000	101.124104
590.000000	101.124624
589.000000	101.187408
588.000000	101.293631
587.000000	101.395051
586.000000	101.442060
585.000000	101.414032
584.000000	101.335584
583.000000	101.262463
582.000000	101.233874
581.000000	101.238245
580.000000	101.243206
579.000000	101.246915
578.000000	101.273049
577.000000	101.323410
576.000000	101.367550
575.000000	101.381816
574.000000	101.373785
573.000000	101.358277
572.000000	101.331661
571.000000	101.285133
570.000000	101.230870
569.000000	101.204138
568.000000	101.240058
567.000000	101.341365
566.000000	101.460495
565.000000	101.530075
564.000000	101.513695
563.000000	101.418755
562.000000	101.279927
561.000000	101.138584
560.000000	101.027451
559.000000	100.952181
558.000000	100.877270
557.000000	100.760468
556.000000	100.614749
555.000000	100.506105
554.000000	100.474129
553.000000	100.494296
552.000000	100.530141
551.000000	100.574887
550.000000	100.618837
