PE IR       SUBTECH     SPECTRUM    ASCII       PEDS        4.00        
   -1
BH1 8-3 12 50_1.asc
24/05/15
12:58:27.00
24/05/15
12:58:41.00
Administrator
?品 065 用? Administrator 日期 Wednesday, May 15 2024
550.000000
#HDR
-1
-1
#GR
cm-1
%T
1.0
0.0
4000.000000
-1.000000
3451
8
100.142644
87.758021
#DATA
4000.000000	100.064244
3999.000000	100.066571
3998.000000	100.066970
3997.000000	100.064817
3996.000000	100.061051
3995.000000	100.057536
3994.000000	100.055310
3993.000000	100.054136
3992.000000	100.053289
3991.000000	100.052384
3990.000000	100.051420
3989.000000	100.050244
3988.000000	100.048425
3987.000000	100.046000
3986.000000	100.044088
3985.000000	100.044223
3984.000000	100.046926
3983.000000	100.051021
3982.000000	100.054390
3981.000000	100.055461
3980.000000	100.053937
3979.000000	100.050484
3978.000000	100.046167
3977.000000	100.041994
3976.000000	100.038702
3975.000000	100.036751
3974.000000	100.036410
3973.000000	100.037698
3972.000000	100.040194
3971.000000	100.043093
3970.000000	100.045554
3969.000000	100.047181
3968.000000	100.048321
3967.000000	100.049790
3966.000000	100.052050
3965.000000	100.054455
3964.000000	100.055550
3963.000000	100.054416
3962.000000	100.051731
3961.000000	100.049287
3960.000000	100.048370
3959.000000	100.048859
3958.000000	100.049830
3957.000000	100.050598
3956.000000	100.050951
3955.000000	100.050712
3954.000000	100.049531
3953.000000	100.047213
3952.000000	100.044136
3951.000000	100.041319
3950.000000	100.039962
3949.000000	100.040726
3948.000000	100.043185
3947.000000	100.045951
3946.000000	100.047609
3945.000000	100.047643
3944.000000	100.046576
3943.000000	100.045446
3942.000000	100.045076
3941.000000	100.045605
3940.000000	100.046676
3939.000000	100.047996
3938.000000	100.049607
3937.000000	100.051629
3936.000000	100.053816
3935.000000	100.055420
3934.000000	100.055627
3933.000000	100.054229
3932.000000	100.051979
3931.000000	100.050183
3930.000000	100.049681
3929.000000	100.050248
3928.000000	100.050866
3927.000000	100.050604
3926.000000	100.049347
3925.000000	100.047785
3924.000000	100.046708
3923.000000	100.046290
3922.000000	100.046157
3921.000000	100.045972
3920.000000	100.045733
3919.000000	100.045610
3918.000000	100.045660
3917.000000	100.045753
3916.000000	100.045748
3915.000000	100.045725
3914.000000	100.045932
3913.000000	100.046494
3912.000000	100.047279
3911.000000	100.048025
3910.000000	100.048546
3909.000000	100.048815
3908.000000	100.048786
3907.000000	100.048287
3906.000000	100.047187
3905.000000	100.045673
3904.000000	100.044315
3903.000000	100.043616
3902.000000	100.043542
3901.000000	100.043688
3900.000000	100.043731
3899.000000	100.043652
3898.000000	100.043559
3897.000000	100.043479
3896.000000	100.043370
3895.000000	100.043216
3894.000000	100.043049
3893.000000	100.042896
3892.000000	100.042763
3891.000000	100.042640
3890.000000	100.042519
3889.000000	100.042396
3888.000000	100.042273
3887.000000	100.042150
3886.000000	100.042027
3885.000000	100.041904
3884.000000	100.041786
3883.000000	100.041675
3882.000000	100.041570
3881.000000	100.041465
3880.000000	100.041360
3879.000000	100.041254
3878.000000	100.041155
3877.000000	100.041070
3876.000000	100.041011
3875.000000	100.040986
3874.000000	100.040989
3873.000000	100.041004
3872.000000	100.041010
3871.000000	100.040994
3870.000000	100.040960
3869.000000	100.040926
3868.000000	100.040908
3867.000000	100.040915
3866.000000	100.040950
3865.000000	100.041010
3864.000000	100.041086
3863.000000	100.041168
3862.000000	100.041245
3861.000000	100.041318
3860.000000	100.041396
3859.000000	100.041490
3858.000000	100.041612
3857.000000	100.041767
3856.000000	100.041946
3855.000000	100.042140
3854.000000	100.042339
3853.000000	100.042551
3852.000000	100.042795
3851.000000	100.043081
3850.000000	100.043408
3849.000000	100.043764
3848.000000	100.044134
3847.000000	100.044503
3846.000000	100.044860
3845.000000	100.045203
3844.000000	100.045536
3843.000000	100.045866
3842.000000	100.046198
3841.000000	100.046529
3840.000000	100.046850
3839.000000	100.047165
3838.000000	100.047523
3837.000000	100.047974
3836.000000	100.048466
3835.000000	100.048836
3834.000000	100.048947
3833.000000	100.048837
3832.000000	100.048743
3831.000000	100.048931
3830.000000	100.049487
3829.000000	100.050257
3828.000000	100.050998
3827.000000	100.051575
3826.000000	100.052055
3825.000000	100.052628
3824.000000	100.053484
3823.000000	100.054651
3822.000000	100.055850
3821.000000	100.056804
3820.000000	100.057555
3819.000000	100.058025
3818.000000	100.057992
3817.000000	100.057547
3816.000000	100.057075
3815.000000	100.057043
3814.000000	100.057714
3813.000000	100.059188
3812.000000	100.061553
3811.000000	100.064453
3810.000000	100.066882
3809.000000	100.067671
3808.000000	100.066229
3807.000000	100.063124
3806.000000	100.059755
3805.000000	100.057058
3804.000000	100.055328
3803.000000	100.054655
3802.000000	100.054841
3801.000000	100.055641
3800.000000	100.056657
3799.000000	100.057074
3798.000000	100.056498
3797.000000	100.055481
3796.000000	100.055114
3795.000000	100.056297
3794.000000	100.059059
3793.000000	100.062494
3792.000000	100.065271
3791.000000	100.066452
3790.000000	100.065973
3789.000000	100.064595
3788.000000	100.063390
3787.000000	100.063083
3786.000000	100.063733
3785.000000	100.064744
3784.000000	100.065243
3783.000000	100.064690
3782.000000	100.063260
3781.000000	100.061761
3780.000000	100.061018
3779.000000	100.061162
3778.000000	100.061513
3777.000000	100.061276
3776.000000	100.060318
3775.000000	100.059193
3774.000000	100.058552
3773.000000	100.058563
3772.000000	100.058885
3771.000000	100.059039
3770.000000	100.058936
3769.000000	100.058915
3768.000000	100.059201
3767.000000	100.059623
3766.000000	100.059852
3765.000000	100.059685
3764.000000	100.059167
3763.000000	100.058581
3762.000000	100.058239
3761.000000	100.058264
3760.000000	100.058531
3759.000000	100.058785
3758.000000	100.058854
3757.000000	100.058732
3756.000000	100.058494
3755.000000	100.058174
3754.000000	100.057689
3753.000000	100.056898
3752.000000	100.055855
3751.000000	100.054961
3750.000000	100.054564
3749.000000	100.054429
3748.000000	100.053997
3747.000000	100.053175
3746.000000	100.052366
3745.000000	100.051902
3744.000000	100.051732
3743.000000	100.051423
3742.000000	100.050567
3741.000000	100.049323
3740.000000	100.048178
3739.000000	100.047284
3738.000000	100.046305
3737.000000	100.044803
3736.000000	100.042751
3735.000000	100.040614
3734.000000	100.038849
3733.000000	100.037412
3732.000000	100.035967
3731.000000	100.034356
3730.000000	100.032801
3729.000000	100.031814
3728.000000	100.031763
3727.000000	100.032257
3726.000000	100.032052
3725.000000	100.030040
3724.000000	100.026114
3723.000000	100.021266
3722.000000	100.017053
3721.000000	100.014532
3720.000000	100.013722
3719.000000	100.013660
3718.000000	100.012986
3717.000000	100.010839
3716.000000	100.007352
3715.000000	100.003412
3714.000000	99.999777
3713.000000	99.996172
3712.000000	99.991577
3711.000000	99.985803
3710.000000	99.980092
3709.000000	99.975757
3708.000000	99.973084
3707.000000	99.971587
3706.000000	99.970602
3705.000000	99.969550
3704.000000	99.967965
3703.000000	99.965608
3702.000000	99.962704
3701.000000	99.959693
3700.000000	99.956533
3699.000000	99.952847
3698.000000	99.948817
3697.000000	99.945144
3696.000000	99.942132
3695.000000	99.939241
3694.000000	99.935666
3693.000000	99.931016
3692.000000	99.925416
3691.000000	99.919106
3690.000000	99.912352
3689.000000	99.905966
3688.000000	99.900578
3687.000000	99.895418
3686.000000	99.889906
3685.000000	99.885374
3684.000000	99.883457
3683.000000	99.883585
3682.000000	99.882730
3681.000000	99.878017
3680.000000	99.869049
3679.000000	99.857898
3678.000000	99.847598
3677.000000	99.839836
3676.000000	99.833942
3675.000000	99.828494
3674.000000	99.822421
3673.000000	99.814838
3672.000000	99.806176
3671.000000	99.797685
3670.000000	99.789992
3669.000000	99.783233
3668.000000	99.777095
3667.000000	99.770780
3666.000000	99.763828
3665.000000	99.756163
3664.000000	99.747808
3663.000000	99.739133
3662.000000	99.730861
3661.000000	99.723779
3660.000000	99.718314
3659.000000	99.714190
3658.000000	99.710084
3657.000000	99.704069
3656.000000	99.695561
3655.000000	99.686255
3654.000000	99.678430
3653.000000	99.673265
3652.000000	99.669619
3651.000000	99.662792
3650.000000	99.647295
3649.000000	99.624347
3648.000000	99.603339
3647.000000	99.591749
3646.000000	99.589323
3645.000000	99.591456
3644.000000	99.593472
3643.000000	99.592877
3642.000000	99.589741
3641.000000	99.586026
3640.000000	99.583919
3639.000000	99.583929
3638.000000	99.584360
3637.000000	99.582566
3636.000000	99.576816
3635.000000	99.567192
3634.000000	99.555289
3633.000000	99.543401
3632.000000	99.533678
3631.000000	99.527135
3630.000000	99.522409
3629.000000	99.517687
3628.000000	99.514850
3627.000000	99.515949
3626.000000	99.518453
3625.000000	99.518500
3624.000000	99.513970
3623.000000	99.505662
3622.000000	99.497382
3621.000000	99.493257
3620.000000	99.494357
3619.000000	99.498883
3618.000000	99.504957
3617.000000	99.511147
3616.000000	99.515965
3615.000000	99.518636
3614.000000	99.520167
3613.000000	99.523358
3612.000000	99.530618
3611.000000	99.541312
3610.000000	99.551945
3609.000000	99.559319
3608.000000	99.563815
3607.000000	99.569151
3606.000000	99.577993
3605.000000	99.588855
3604.000000	99.597659
3603.000000	99.601671
3602.000000	99.602244
3601.000000	99.603594
3600.000000	99.608608
3599.000000	99.616114
3598.000000	99.622245
3597.000000	99.624044
3596.000000	99.621766
3595.000000	99.618356
3594.000000	99.617026
3593.000000	99.618805
3592.000000	99.622007
3591.000000	99.623863
3590.000000	99.622168
3589.000000	99.616257
3588.000000	99.608042
3587.000000	99.601975
3586.000000	99.601456
3585.000000	99.605662
3584.000000	99.611155
3583.000000	99.615101
3582.000000	99.616652
3581.000000	99.616739
3580.000000	99.617159
3579.000000	99.619237
3578.000000	99.622687
3577.000000	99.625465
3576.000000	99.625167
3575.000000	99.621110
3574.000000	99.615260
3573.000000	99.610857
3572.000000	99.609735
3571.000000	99.610955
3570.000000	99.611807
3569.000000	99.609846
3568.000000	99.604743
3567.000000	99.598729
3566.000000	99.594466
3565.000000	99.592245
3564.000000	99.590584
3563.000000	99.588760
3562.000000	99.587680
3561.000000	99.588706
3560.000000	99.592071
3559.000000	99.596383
3558.000000	99.599536
3557.000000	99.600145
3556.000000	99.598277
3555.000000	99.595152
3554.000000	99.592279
3553.000000	99.590629
3552.000000	99.590348
3551.000000	99.590991
3550.000000	99.591893
3549.000000	99.592519
3548.000000	99.592772
3547.000000	99.593149
3546.000000	99.594417
3545.000000	99.596765
3544.000000	99.599291
3543.000000	99.600632
3542.000000	99.600257
3541.000000	99.598980
3540.000000	99.598306
3539.000000	99.599217
3538.000000	99.601379
3537.000000	99.603374
3536.000000	99.603910
3535.000000	99.602872
3534.000000	99.601222
3533.000000	99.600028
3532.000000	99.599695
3531.000000	99.600052
3530.000000	99.600747
3529.000000	99.601399
3528.000000	99.601638
3527.000000	99.601380
3526.000000	99.601040
3525.000000	99.601163
3524.000000	99.601810
3523.000000	99.602566
3522.000000	99.603176
3521.000000	99.603820
3520.000000	99.604688
3519.000000	99.605589
3518.000000	99.606179
3517.000000	99.606436
3516.000000	99.606679
3515.000000	99.607139
3514.000000	99.607716
3513.000000	99.608144
3512.000000	99.608173
3511.000000	99.607501
3510.000000	99.605824
3509.000000	99.603178
3508.000000	99.600166
3507.000000	99.597703
3506.000000	99.596529
3505.000000	99.596909
3504.000000	99.598576
3503.000000	99.600819
3502.000000	99.602732
3501.000000	99.603665
3500.000000	99.603592
3499.000000	99.603099
3498.000000	99.602961
3497.000000	99.603624
3496.000000	99.605022
3495.000000	99.606717
3494.000000	99.608114
3493.000000	99.608591
3492.000000	99.607773
3491.000000	99.605826
3490.000000	99.603507
3489.000000	99.601734
3488.000000	99.600972
3487.000000	99.601109
3486.000000	99.601762
3485.000000	99.602584
3484.000000	99.603275
3483.000000	99.603477
3482.000000	99.602893
3481.000000	99.601554
3480.000000	99.599911
3479.000000	99.598617
3478.000000	99.598122
3477.000000	99.598452
3476.000000	99.599248
3475.000000	99.600014
3474.000000	99.600471
3473.000000	99.600655
3472.000000	99.600691
3471.000000	99.600501
3470.000000	99.599849
3469.000000	99.598712
3468.000000	99.597552
3467.000000	99.597043
3466.000000	99.597452
3465.000000	99.598327
3464.000000	99.598824
3463.000000	99.598385
3462.000000	99.597038
3461.000000	99.595242
3460.000000	99.593548
3459.000000	99.592296
3458.000000	99.591408
3457.000000	99.590448
3456.000000	99.589090
3455.000000	99.587614
3454.000000	99.586728
3453.000000	99.586772
3452.000000	99.587269
3451.000000	99.587378
3450.000000	99.586633
3449.000000	99.585029
3448.000000	99.582642
3447.000000	99.579579
3446.000000	99.576360
3445.000000	99.573937
3444.000000	99.573009
3443.000000	99.573472
3442.000000	99.574468
3441.000000	99.574978
3440.000000	99.574538
3439.000000	99.573572
3438.000000	99.573103
3437.000000	99.573830
3436.000000	99.575319
3435.000000	99.576264
3434.000000	99.575764
3433.000000	99.574109
3432.000000	99.572113
3431.000000	99.570009
3430.000000	99.567398
3429.000000	99.564170
3428.000000	99.561017
3427.000000	99.558917
3426.000000	99.558337
3425.000000	99.559051
3424.000000	99.560441
3423.000000	99.561757
3422.000000	99.562340
3421.000000	99.561945
3420.000000	99.560877
3419.000000	99.559694
3418.000000	99.558725
3417.000000	99.558008
3416.000000	99.557644
3415.000000	99.557949
3414.000000	99.559062
3413.000000	99.560497
3412.000000	99.561379
3411.000000	99.561324
3410.000000	99.560945
3409.000000	99.561284
3408.000000	99.562698
3407.000000	99.564417
3406.000000	99.565269
3405.000000	99.564751
3404.000000	99.563286
3403.000000	99.561588
3402.000000	99.559998
3401.000000	99.558500
3400.000000	99.557179
3399.000000	99.556359
3398.000000	99.556311
3397.000000	99.557089
3396.000000	99.558735
3395.000000	99.561386
3394.000000	99.564823
3393.000000	99.568000
3392.000000	99.569555
3391.000000	99.569024
3390.000000	99.567214
3389.000000	99.565387
3388.000000	99.564080
3387.000000	99.563032
3386.000000	99.562105
3385.000000	99.561777
3384.000000	99.562573
3383.000000	99.564377
3382.000000	99.566516
3381.000000	99.568351
3380.000000	99.569640
3379.000000	99.570403
3378.000000	99.570705
3377.000000	99.570680
3376.000000	99.570604
3375.000000	99.570832
3374.000000	99.571595
3373.000000	99.572834
3372.000000	99.574202
3371.000000	99.575263
3370.000000	99.575805
3369.000000	99.575990
3368.000000	99.576200
3367.000000	99.576707
3366.000000	99.577473
3365.000000	99.578259
3364.000000	99.578895
3363.000000	99.579416
3362.000000	99.579986
3361.000000	99.580720
3360.000000	99.581594
3359.000000	99.582460
3358.000000	99.583171
3357.000000	99.583685
3356.000000	99.584084
3355.000000	99.584535
3354.000000	99.585193
3353.000000	99.586120
3352.000000	99.587245
3351.000000	99.588389
3350.000000	99.589387
3349.000000	99.590195
3348.000000	99.590908
3347.000000	99.591692
3346.000000	99.592631
3345.000000	99.593658
3344.000000	99.594645
3343.000000	99.595588
3342.000000	99.596637
3341.000000	99.597847
3340.000000	99.598940
3339.000000	99.599480
3338.000000	99.599308
3337.000000	99.598756
3336.000000	99.598406
3335.000000	99.598579
3334.000000	99.599201
3333.000000	99.600034
3332.000000	99.600999
3331.000000	99.602159
3330.000000	99.603412
3329.000000	99.604374
3328.000000	99.604727
3327.000000	99.604687
3326.000000	99.604952
3325.000000	99.606015
3324.000000	99.607619
3323.000000	99.608966
3322.000000	99.609512
3321.000000	99.609410
3320.000000	99.609305
3319.000000	99.609791
3318.000000	99.611079
3317.000000	99.612956
3316.000000	99.614948
3315.000000	99.616655
3314.000000	99.618016
3313.000000	99.619210
3312.000000	99.620243
3311.000000	99.620794
3310.000000	99.620563
3309.000000	99.619579
3308.000000	99.618160
3307.000000	99.616797
3306.000000	99.616077
3305.000000	99.616333
3304.000000	99.617310
3303.000000	99.618331
3302.000000	99.618931
3301.000000	99.619285
3300.000000	99.619900
3299.000000	99.621043
3298.000000	99.622574
3297.000000	99.624143
3296.000000	99.625425
3295.000000	99.626298
3294.000000	99.626888
3293.000000	99.627407
3292.000000	99.627896
3291.000000	99.628210
3290.000000	99.628303
3289.000000	99.628411
3288.000000	99.628847
3287.000000	99.629651
3286.000000	99.630564
3285.000000	99.631293
3284.000000	99.631773
3283.000000	99.632131
3282.000000	99.632513
3281.000000	99.632974
3280.000000	99.633511
3279.000000	99.634135
3278.000000	99.634858
3277.000000	99.635635
3276.000000	99.636368
3275.000000	99.636991
3274.000000	99.637540
3273.000000	99.638111
3272.000000	99.638765
3271.000000	99.639489
3270.000000	99.640239
3269.000000	99.640980
3268.000000	99.641699
3267.000000	99.642399
3266.000000	99.643091
3265.000000	99.643805
3264.000000	99.644573
3263.000000	99.645415
3262.000000	99.646333
3261.000000	99.647286
3260.000000	99.648205
3259.000000	99.649039
3258.000000	99.649784
3257.000000	99.650478
3256.000000	99.651166
3255.000000	99.651877
3254.000000	99.652608
3253.000000	99.653325
3252.000000	99.654015
3251.000000	99.654753
3250.000000	99.655681
3249.000000	99.656867
3248.000000	99.658190
3247.000000	99.659425
3246.000000	99.660447
3245.000000	99.661340
3244.000000	99.662286
3243.000000	99.663348
3242.000000	99.664402
3241.000000	99.665299
3240.000000	99.666087
3239.000000	99.667005
3238.000000	99.668260
3237.000000	99.669810
3236.000000	99.671332
3235.000000	99.672465
3234.000000	99.673162
3233.000000	99.673844
3232.000000	99.675074
3231.000000	99.677009
3230.000000	99.679191
3229.000000	99.680921
3228.000000	99.681881
3227.000000	99.682354
3226.000000	99.682959
3225.000000	99.684220
3224.000000	99.686276
3223.000000	99.688781
3222.000000	99.691006
3221.000000	99.692253
3220.000000	99.692382
3219.000000	99.691924
3218.000000	99.691632
3217.000000	99.691945
3216.000000	99.692903
3215.000000	99.694465
3214.000000	99.696673
3213.000000	99.699409
3212.000000	99.702118
3211.000000	99.704048
3210.000000	99.704811
3209.000000	99.704606
3208.000000	99.703886
3207.000000	99.702954
3206.000000	99.701981
3205.000000	99.701245
3204.000000	99.701135
3203.000000	99.701917
3202.000000	99.703611
3201.000000	99.706073
3200.000000	99.708982
3199.000000	99.711728
3198.000000	99.713570
3197.000000	99.714127
3196.000000	99.713718
3195.000000	99.713210
3194.000000	99.713402
3193.000000	99.714517
3192.000000	99.716181
3191.000000	99.717805
3190.000000	99.719050
3189.000000	99.720044
3188.000000	99.721231
3187.000000	99.722986
3186.000000	99.725308
3185.000000	99.727789
3184.000000	99.729861
3183.000000	99.731126
3182.000000	99.731555
3181.000000	99.731535
3180.000000	99.731732
3179.000000	99.732688
3178.000000	99.734432
3177.000000	99.736439
3176.000000	99.738051
3175.000000	99.739020
3174.000000	99.739619
3173.000000	99.740318
3172.000000	99.741398
3171.000000	99.742850
3170.000000	99.744485
3169.000000	99.746024
3168.000000	99.747186
3167.000000	99.747857
3166.000000	99.748204
3165.000000	99.748550
3164.000000	99.749077
3163.000000	99.749748
3162.000000	99.750529
3161.000000	99.751582
3160.000000	99.753085
3159.000000	99.754931
3158.000000	99.756720
3157.000000	99.758133
3156.000000	99.759292
3155.000000	99.760668
3154.000000	99.762615
3153.000000	99.764983
3152.000000	99.767164
3151.000000	99.768584
3150.000000	99.769162
3149.000000	99.769312
3148.000000	99.769608
3147.000000	99.770345
3146.000000	99.771446
3145.000000	99.772650
3144.000000	99.773756
3143.000000	99.774776
3142.000000	99.775919
3141.000000	99.777399
3140.000000	99.779183
3139.000000	99.780894
3138.000000	99.782060
3137.000000	99.782496
3136.000000	99.782485
3135.000000	99.782622
3134.000000	99.783311
3133.000000	99.784563
3132.000000	99.786160
3131.000000	99.787898
3130.000000	99.789667
3129.000000	99.791341
3128.000000	99.792782
3127.000000	99.793999
3126.000000	99.795165
3125.000000	99.796400
3124.000000	99.797600
3123.000000	99.798593
3122.000000	99.799384
3121.000000	99.800123
3120.000000	99.800894
3119.000000	99.801667
3118.000000	99.802475
3117.000000	99.803461
3116.000000	99.804716
3115.000000	99.806190
3114.000000	99.807784
3113.000000	99.809391
3112.000000	99.810778
3111.000000	99.811640
3110.000000	99.811951
3109.000000	99.812141
3108.000000	99.812765
3107.000000	99.814028
3106.000000	99.815801
3105.000000	99.817918
3104.000000	99.820168
3103.000000	99.822152
3102.000000	99.823558
3101.000000	99.824635
3100.000000	99.826037
3099.000000	99.827955
3098.000000	99.829668
3097.000000	99.830221
3096.000000	99.829337
3095.000000	99.827673
3094.000000	99.826439
3093.000000	99.826563
3092.000000	99.828119
3091.000000	99.830328
3090.000000	99.832225
3089.000000	99.833542
3088.000000	99.834705
3087.000000	99.836037
3086.000000	99.837319
3085.000000	99.838230
3084.000000	99.838785
3083.000000	99.839013
3082.000000	99.838587
3081.000000	99.837243
3080.000000	99.835490
3079.000000	99.834496
3078.000000	99.835090
3077.000000	99.837077
3076.000000	99.839457
3075.000000	99.841344
3074.000000	99.842688
3073.000000	99.844121
3072.000000	99.846151
3071.000000	99.848557
3070.000000	99.850634
3069.000000	99.851919
3068.000000	99.852418
3067.000000	99.852231
3066.000000	99.851361
3065.000000	99.850010
3064.000000	99.848699
3063.000000	99.847817
3062.000000	99.847310
3061.000000	99.846978
3060.000000	99.846900
3059.000000	99.847352
3058.000000	99.848482
3057.000000	99.850176
3056.000000	99.852076
3055.000000	99.853655
3054.000000	99.854524
3053.000000	99.854851
3052.000000	99.855307
3051.000000	99.856415
3050.000000	99.858075
3049.000000	99.859811
3048.000000	99.861208
3047.000000	99.861954
3046.000000	99.861821
3045.000000	99.860968
3044.000000	99.860120
3043.000000	99.860048
3042.000000	99.860864
3041.000000	99.862066
3040.000000	99.863112
3039.000000	99.863843
3038.000000	99.864342
3037.000000	99.864670
3036.000000	99.864885
3035.000000	99.865132
3034.000000	99.865536
3033.000000	99.866043
3032.000000	99.866482
3031.000000	99.866774
3030.000000	99.867012
3029.000000	99.867333
3028.000000	99.867790
3027.000000	99.868340
3026.000000	99.868894
3025.000000	99.869380
3024.000000	99.869763
3023.000000	99.870053
3022.000000	99.870303
3021.000000	99.870578
3020.000000	99.870938
3019.000000	99.871405
3018.000000	99.871959
3017.000000	99.872549
3016.000000	99.873121
3015.000000	99.873636
3014.000000	99.874080
3013.000000	99.874455
3012.000000	99.874778
3011.000000	99.875099
3010.000000	99.875484
3009.000000	99.875968
3008.000000	99.876529
3007.000000	99.877100
3006.000000	99.877620
3005.000000	99.878076
3004.000000	99.878492
3003.000000	99.878917
3002.000000	99.879384
3001.000000	99.879879
3000.000000	99.880333
2999.000000	99.880694
2998.000000	99.880983
2997.000000	99.881311
2996.000000	99.881786
2995.000000	99.882434
2994.000000	99.883209
2993.000000	99.884032
2992.000000	99.884819
2991.000000	99.885506
2990.000000	99.886085
2989.000000	99.886604
2988.000000	99.887112
2987.000000	99.887606
2986.000000	99.888077
2985.000000	99.888573
2984.000000	99.889168
2983.000000	99.889853
2982.000000	99.890494
2981.000000	99.890959
2980.000000	99.891239
2979.000000	99.891444
2978.000000	99.891716
2977.000000	99.892129
2976.000000	99.892674
2975.000000	99.893269
2974.000000	99.893803
2973.000000	99.894239
2972.000000	99.894648
2971.000000	99.895108
2970.000000	99.895601
2969.000000	99.896060
2968.000000	99.896506
2967.000000	99.897027
2966.000000	99.897623
2965.000000	99.898185
2964.000000	99.898645
2963.000000	99.899035
2962.000000	99.899354
2961.000000	99.899524
2960.000000	99.899540
2959.000000	99.899576
2958.000000	99.899826
2957.000000	99.900301
2956.000000	99.900873
2955.000000	99.901408
2954.000000	99.901864
2953.000000	99.902227
2952.000000	99.902477
2951.000000	99.902621
2950.000000	99.902706
2949.000000	99.902792
2948.000000	99.902930
2947.000000	99.903161
2946.000000	99.903499
2945.000000	99.903908
2944.000000	99.904317
2943.000000	99.904693
2942.000000	99.905045
2941.000000	99.905391
2940.000000	99.905735
2939.000000	99.906078
2938.000000	99.906426
2937.000000	99.906783
2936.000000	99.907148
2935.000000	99.907520
2934.000000	99.907902
2933.000000	99.908293
2932.000000	99.908695
2931.000000	99.909106
2930.000000	99.909528
2929.000000	99.909961
2928.000000	99.910406
2927.000000	99.910860
2926.000000	99.911313
2925.000000	99.911758
2924.000000	99.912190
2923.000000	99.912618
2922.000000	99.913052
2921.000000	99.913505
2920.000000	99.913980
2919.000000	99.914473
2918.000000	99.914970
2917.000000	99.915458
2916.000000	99.915930
2915.000000	99.916384
2914.000000	99.916832
2913.000000	99.917282
2912.000000	99.917740
2911.000000	99.918206
2910.000000	99.918677
2909.000000	99.919154
2908.000000	99.919643
2907.000000	99.920148
2906.000000	99.920665
2905.000000	99.921189
2904.000000	99.921709
2903.000000	99.922221
2902.000000	99.922723
2901.000000	99.923213
2900.000000	99.923694
2899.000000	99.924162
2898.000000	99.924616
2897.000000	99.925061
2896.000000	99.925505
2895.000000	99.925966
2894.000000	99.926467
2893.000000	99.927027
2892.000000	99.927633
2891.000000	99.928235
2890.000000	99.928762
2889.000000	99.929176
2888.000000	99.929484
2887.000000	99.929717
2886.000000	99.929904
2885.000000	99.930070
2884.000000	99.930271
2883.000000	99.930581
2882.000000	99.931046
2881.000000	99.931621
2880.000000	99.932170
2879.000000	99.932574
2878.000000	99.932827
2877.000000	99.933053
2876.000000	99.933390
2875.000000	99.933860
2874.000000	99.934388
2873.000000	99.934900
2872.000000	99.935403
2871.000000	99.935950
2870.000000	99.936556
2869.000000	99.937143
2868.000000	99.937593
2867.000000	99.937850
2866.000000	99.937987
2865.000000	99.938178
2864.000000	99.938567
2863.000000	99.939188
2862.000000	99.939931
2861.000000	99.940638
2860.000000	99.941210
2859.000000	99.941662
2858.000000	99.942098
2857.000000	99.942627
2856.000000	99.943273
2855.000000	99.943963
2854.000000	99.944592
2853.000000	99.945120
2852.000000	99.945603
2851.000000	99.946144
2850.000000	99.946794
2849.000000	99.947491
2848.000000	99.948124
2847.000000	99.948659
2846.000000	99.949207
2845.000000	99.949916
2844.000000	99.950834
2843.000000	99.951849
2842.000000	99.952775
2841.000000	99.953548
2840.000000	99.954249
2839.000000	99.954963
2838.000000	99.955655
2837.000000	99.956261
2836.000000	99.956814
2835.000000	99.957405
2834.000000	99.958067
2833.000000	99.958754
2832.000000	99.959418
2831.000000	99.960058
2830.000000	99.960703
2829.000000	99.961381
2828.000000	99.962076
2827.000000	99.962723
2826.000000	99.963258
2825.000000	99.963712
2824.000000	99.964228
2823.000000	99.964919
2822.000000	99.965728
2821.000000	99.966464
2820.000000	99.966990
2819.000000	99.967352
2818.000000	99.967754
2817.000000	99.968363
2816.000000	99.969194
2815.000000	99.970138
2814.000000	99.971089
2813.000000	99.972006
2812.000000	99.972882
2811.000000	99.973692
2810.000000	99.974375
2809.000000	99.974882
2808.000000	99.975284
2807.000000	99.975825
2806.000000	99.976672
2805.000000	99.977559
2804.000000	99.977916
2803.000000	99.977599
2802.000000	99.977279
2801.000000	99.977780
2800.000000	99.979184
2799.000000	99.980906
2798.000000	99.982488
2797.000000	99.983941
2796.000000	99.985279
2795.000000	99.986275
2794.000000	99.986858
2793.000000	99.987333
2792.000000	99.987905
2791.000000	99.988295
2790.000000	99.988193
2789.000000	99.987887
2788.000000	99.988067
2787.000000	99.989103
2786.000000	99.990774
2785.000000	99.992533
2784.000000	99.993811
2783.000000	99.994247
2782.000000	99.993970
2781.000000	99.993593
2780.000000	99.993561
2779.000000	99.993569
2778.000000	99.993002
2777.000000	99.991958
2776.000000	99.991433
2775.000000	99.992347
2774.000000	99.994695
2773.000000	99.997716
2772.000000	100.000743
2771.000000	100.003676
2770.000000	100.006683
2769.000000	100.009664
2768.000000	100.012093
2767.000000	100.013415
2766.000000	100.013441
2765.000000	100.012321
2764.000000	100.010366
2763.000000	100.008198
2762.000000	100.006880
2761.000000	100.007240
2760.000000	100.008906
2759.000000	100.010390
2758.000000	100.010572
2757.000000	100.009837
2756.000000	100.009410
2755.000000	100.009797
2754.000000	100.010392
2753.000000	100.010521
2752.000000	100.010338
2751.000000	100.010508
2750.000000	100.011361
2749.000000	100.012627
2748.000000	100.013763
2747.000000	100.014377
2746.000000	100.014437
2745.000000	100.014248
2744.000000	100.014262
2743.000000	100.014768
2742.000000	100.015738
2741.000000	100.016902
2740.000000	100.017921
2739.000000	100.018581
2738.000000	100.018901
2737.000000	100.019090
2736.000000	100.019359
2735.000000	100.019761
2734.000000	100.020230
2733.000000	100.020721
2732.000000	100.021231
2731.000000	100.021728
2730.000000	100.022153
2729.000000	100.022489
2728.000000	100.022791
2727.000000	100.023114
2726.000000	100.023475
2725.000000	100.023868
2724.000000	100.024294
2723.000000	100.024756
2722.000000	100.025254
2721.000000	100.025784
2720.000000	100.026318
2719.000000	100.026815
2718.000000	100.027256
2717.000000	100.027660
2716.000000	100.028057
2715.000000	100.028459
2714.000000	100.028873
2713.000000	100.029321
2712.000000	100.029825
2711.000000	100.030362
2710.000000	100.030858
2709.000000	100.031243
2708.000000	100.031512
2707.000000	100.031719
2706.000000	100.031928
2705.000000	100.032164
2704.000000	100.032437
2703.000000	100.032758
2702.000000	100.033119
2701.000000	100.033480
2700.000000	100.033785
2699.000000	100.033999
2698.000000	100.034109
2697.000000	100.034112
2696.000000	100.034030
2695.000000	100.033932
2694.000000	100.033891
2693.000000	100.033933
2692.000000	100.034017
2691.000000	100.034057
2690.000000	100.033975
2689.000000	100.033770
2688.000000	100.033557
2687.000000	100.033495
2686.000000	100.033667
2685.000000	100.034014
2684.000000	100.034356
2683.000000	100.034519
2682.000000	100.034418
2681.000000	100.034048
2680.000000	100.033461
2679.000000	100.032778
2678.000000	100.032184
2677.000000	100.031848
2676.000000	100.031817
2675.000000	100.031980
2674.000000	100.032118
2673.000000	100.031985
2672.000000	100.031412
2671.000000	100.030422
2670.000000	100.029299
2669.000000	100.028427
2668.000000	100.028013
2667.000000	100.028001
2666.000000	100.028192
2665.000000	100.028364
2664.000000	100.028295
2663.000000	100.027819
2662.000000	100.026958
2661.000000	100.025895
2660.000000	100.024790
2659.000000	100.023731
2658.000000	100.022845
2657.000000	100.022269
2656.000000	100.022034
2655.000000	100.022217
2654.000000	100.023189
2653.000000	100.025207
2652.000000	100.027580
2651.000000	100.028818
2650.000000	100.028132
2649.000000	100.026266
2648.000000	100.024492
2647.000000	100.022949
2646.000000	100.020892
2645.000000	100.018322
2644.000000	100.016330
2643.000000	100.015614
2642.000000	100.015468
2641.000000	100.014680
2640.000000	100.012948
2639.000000	100.010999
2638.000000	100.009668
2637.000000	100.009300
2636.000000	100.009846
2635.000000	100.011062
2634.000000	100.012542
2633.000000	100.013770
2632.000000	100.014276
2631.000000	100.013864
2630.000000	100.012793
2629.000000	100.011609
2628.000000	100.010642
2627.000000	100.009830
2626.000000	100.009204
2625.000000	100.009193
2624.000000	100.010087
2623.000000	100.011515
2622.000000	100.012868
2621.000000	100.013983
2620.000000	100.014851
2619.000000	100.015016
2618.000000	100.014058
2617.000000	100.012534
2616.000000	100.011646
2615.000000	100.011805
2614.000000	100.012305
2613.000000	100.012553
2612.000000	100.012865
2611.000000	100.013650
2610.000000	100.014491
2609.000000	100.014631
2608.000000	100.013875
2607.000000	100.012558
2606.000000	100.011017
2605.000000	100.009582
2604.000000	100.008742
2603.000000	100.008670
2602.000000	100.008812
2601.000000	100.008490
2600.000000	100.007838
2599.000000	100.007606
2598.000000	100.008103
2597.000000	100.008796
2596.000000	100.008992
2595.000000	100.008601
2594.000000	100.008119
2593.000000	100.008109
2592.000000	100.008780
2591.000000	100.009879
2590.000000	100.010897
2589.000000	100.011515
2588.000000	100.011797
2587.000000	100.011942
2586.000000	100.011921
2585.000000	100.011512
2584.000000	100.010635
2583.000000	100.009522
2582.000000	100.008597
2581.000000	100.008219
2580.000000	100.008399
2579.000000	100.008696
2578.000000	100.008501
2577.000000	100.007581
2576.000000	100.006288
2575.000000	100.005212
2574.000000	100.004720
2573.000000	100.004853
2572.000000	100.005457
2571.000000	100.006248
2570.000000	100.006925
2569.000000	100.007357
2568.000000	100.007644
2567.000000	100.007890
2566.000000	100.008016
2565.000000	100.007886
2564.000000	100.007542
2563.000000	100.007226
2562.000000	100.007172
2561.000000	100.007434
2560.000000	100.007885
2559.000000	100.008309
2558.000000	100.008545
2557.000000	100.008581
2556.000000	100.008518
2555.000000	100.008430
2554.000000	100.008327
2553.000000	100.008236
2552.000000	100.008234
2551.000000	100.008338
2550.000000	100.008422
2549.000000	100.008337
2548.000000	100.008073
2547.000000	100.007769
2546.000000	100.007596
2545.000000	100.007635
2544.000000	100.007861
2543.000000	100.008198
2542.000000	100.008570
2541.000000	100.008904
2540.000000	100.009137
2539.000000	100.009235
2538.000000	100.009215
2537.000000	100.009150
2536.000000	100.009129
2535.000000	100.009188
2534.000000	100.009308
2533.000000	100.009448
2532.000000	100.009576
2531.000000	100.009679
2530.000000	100.009755
2529.000000	100.009810
2528.000000	100.009859
2527.000000	100.009921
2526.000000	100.010003
2525.000000	100.010096
2524.000000	100.010189
2523.000000	100.010279
2522.000000	100.010372
2521.000000	100.010481
2520.000000	100.010620
2519.000000	100.010797
2518.000000	100.011003
2517.000000	100.011211
2516.000000	100.011401
2515.000000	100.011570
2514.000000	100.011722
2513.000000	100.011865
2512.000000	100.012017
2511.000000	100.012201
2510.000000	100.012407
2509.000000	100.012593
2508.000000	100.012736
2507.000000	100.012892
2506.000000	100.013134
2505.000000	100.013469
2504.000000	100.013806
2503.000000	100.014059
2502.000000	100.014208
2501.000000	100.014298
2500.000000	100.014383
2499.000000	100.014489
2498.000000	100.014625
2497.000000	100.014831
2496.000000	100.015185
2495.000000	100.015731
2494.000000	100.016427
2493.000000	100.017157
2492.000000	100.017771
2491.000000	100.018164
2490.000000	100.018313
2489.000000	100.018315
2488.000000	100.018398
2487.000000	100.018768
2486.000000	100.019441
2485.000000	100.020237
2484.000000	100.020960
2483.000000	100.021587
2482.000000	100.022214
2481.000000	100.022893
2480.000000	100.023557
2479.000000	100.024084
2478.000000	100.024383
2477.000000	100.024467
2476.000000	100.024498
2475.000000	100.024695
2474.000000	100.025157
2473.000000	100.025796
2472.000000	100.026467
2471.000000	100.027114
2470.000000	100.027740
2469.000000	100.028300
2468.000000	100.028757
2467.000000	100.029211
2466.000000	100.029838
2465.000000	100.030689
2464.000000	100.031601
2463.000000	100.032343
2462.000000	100.032837
2461.000000	100.033155
2460.000000	100.033401
2459.000000	100.033655
2458.000000	100.033996
2457.000000	100.034510
2456.000000	100.035205
2455.000000	100.035967
2454.000000	100.036629
2453.000000	100.037116
2452.000000	100.037513
2451.000000	100.038001
2450.000000	100.038699
2449.000000	100.039564
2448.000000	100.040441
2447.000000	100.041215
2446.000000	100.041897
2445.000000	100.042553
2444.000000	100.043207
2443.000000	100.043806
2442.000000	100.044295
2441.000000	100.044703
2440.000000	100.045135
2439.000000	100.045677
2438.000000	100.046312
2437.000000	100.046962
2436.000000	100.047588
2435.000000	100.048202
2434.000000	100.048794
2433.000000	100.049282
2432.000000	100.049615
2431.000000	100.049881
2430.000000	100.050265
2429.000000	100.050879
2428.000000	100.051676
2427.000000	100.052476
2426.000000	100.053119
2425.000000	100.053590
2424.000000	100.053981
2423.000000	100.054353
2422.000000	100.054644
2421.000000	100.054767
2420.000000	100.054821
2419.000000	100.055101
2418.000000	100.055787
2417.000000	100.056737
2416.000000	100.057678
2415.000000	100.058547
2414.000000	100.059459
2413.000000	100.060407
2412.000000	100.061196
2411.000000	100.061665
2410.000000	100.061827
2409.000000	100.061761
2408.000000	100.061581
2407.000000	100.061596
2406.000000	100.062194
2405.000000	100.063350
2404.000000	100.064392
2403.000000	100.064599
2402.000000	100.063977
2401.000000	100.063266
2400.000000	100.063186
2399.000000	100.063928
2398.000000	100.065331
2397.000000	100.067138
2396.000000	100.068978
2395.000000	100.070393
2394.000000	100.071126
2393.000000	100.071253
2392.000000	100.070955
2391.000000	100.070348
2390.000000	100.069717
2389.000000	100.069669
2388.000000	100.070699
2387.000000	100.072672
2386.000000	100.074974
2385.000000	100.077139
2384.000000	100.079163
2383.000000	100.081058
2382.000000	100.082458
2381.000000	100.082875
2380.000000	100.082088
2379.000000	100.080323
2378.000000	100.078263
2377.000000	100.076732
2376.000000	100.076152
2375.000000	100.076294
2374.000000	100.076716
2373.000000	100.077318
2372.000000	100.078178
2371.000000	100.079047
2370.000000	100.079513
2369.000000	100.079611
2368.000000	100.079719
2367.000000	100.079777
2366.000000	100.079235
2365.000000	100.077902
2364.000000	100.076339
2363.000000	100.075197
2362.000000	100.074412
2361.000000	100.073602
2360.000000	100.072851
2359.000000	100.072548
2358.000000	100.072784
2357.000000	100.073105
2356.000000	100.072998
2355.000000	100.072425
2354.000000	100.071676
2353.000000	100.070962
2352.000000	100.070270
2351.000000	100.069631
2350.000000	100.069117
2349.000000	100.068671
2348.000000	100.068197
2347.000000	100.067566
2346.000000	100.066632
2345.000000	100.065414
2344.000000	100.064374
2343.000000	100.064124
2342.000000	100.064718
2341.000000	100.065560
2340.000000	100.065895
2339.000000	100.065515
2338.000000	100.064699
2337.000000	100.063768
2336.000000	100.062861
2335.000000	100.062125
2334.000000	100.061767
2333.000000	100.061650
2332.000000	100.061286
2331.000000	100.060566
2330.000000	100.060129
2329.000000	100.060359
2328.000000	100.060826
2327.000000	100.060684
2326.000000	100.059776
2325.000000	100.058509
2324.000000	100.057211
2323.000000	100.055988
2322.000000	100.054933
2321.000000	100.054375
2320.000000	100.054620
2319.000000	100.055894
2318.000000	100.058063
2317.000000	100.060355
2316.000000	100.061706
2315.000000	100.061684
2314.000000	100.061081
2313.000000	100.060967
2312.000000	100.061559
2311.000000	100.062122
2310.000000	100.062279
2309.000000	100.062381
2308.000000	100.062932
2307.000000	100.063751
2306.000000	100.064406
2305.000000	100.064818
2304.000000	100.065327
2303.000000	100.065890
2302.000000	100.065753
2301.000000	100.063919
2300.000000	100.060278
2299.000000	100.056101
2298.000000	100.053257
2297.000000	100.052620
2296.000000	100.053441
2295.000000	100.054122
2294.000000	100.053857
2293.000000	100.053134
2292.000000	100.052816
2291.000000	100.053041
2290.000000	100.053247
2289.000000	100.052949
2288.000000	100.052170
2287.000000	100.051185
2286.000000	100.050133
2285.000000	100.048935
2284.000000	100.047388
2283.000000	100.045356
2282.000000	100.043040
2281.000000	100.041126
2280.000000	100.040428
2279.000000	100.041218
2278.000000	100.042933
2277.000000	100.044542
2276.000000	100.045239
2275.000000	100.044877
2274.000000	100.043938
2273.000000	100.043152
2272.000000	100.042900
2271.000000	100.042841
2270.000000	100.042267
2269.000000	100.040889
2268.000000	100.039142
2267.000000	100.037652
2266.000000	100.036607
2265.000000	100.035815
2264.000000	100.035192
2263.000000	100.034860
2262.000000	100.034822
2261.000000	100.034822
2260.000000	100.034635
2259.000000	100.034249
2258.000000	100.033684
2257.000000	100.032816
2256.000000	100.031566
2255.000000	100.030160
2254.000000	100.028968
2253.000000	100.028117
2252.000000	100.027482
2251.000000	100.026999
2250.000000	100.026761
2249.000000	100.026805
2248.000000	100.026981
2247.000000	100.027073
2246.000000	100.026914
2245.000000	100.026367
2244.000000	100.025345
2243.000000	100.023984
2242.000000	100.022730
2241.000000	100.022060
2240.000000	100.022091
2239.000000	100.022513
2238.000000	100.022833
2237.000000	100.022738
2236.000000	100.022233
2235.000000	100.021554
2234.000000	100.020981
2233.000000	100.020644
2232.000000	100.020457
2231.000000	100.020232
2230.000000	100.019883
2229.000000	100.019533
2228.000000	100.019429
2227.000000	100.019718
2226.000000	100.020285
2225.000000	100.020769
2224.000000	100.020835
2223.000000	100.020405
2222.000000	100.019676
2221.000000	100.018991
2220.000000	100.018675
2219.000000	100.018868
2218.000000	100.019366
2217.000000	100.019658
2216.000000	100.019355
2215.000000	100.018592
2214.000000	100.017916
2213.000000	100.017702
2212.000000	100.017804
2211.000000	100.017857
2210.000000	100.017699
2209.000000	100.017402
2208.000000	100.017065
2207.000000	100.016770
2206.000000	100.016614
2205.000000	100.016595
2204.000000	100.016538
2203.000000	100.016264
2202.000000	100.015766
2201.000000	100.015132
2200.000000	100.014449
2199.000000	100.013905
2198.000000	100.013759
2197.000000	100.013975
2196.000000	100.014033
2195.000000	100.013444
2194.000000	100.012367
2193.000000	100.011454
2192.000000	100.011110
2191.000000	100.011227
2190.000000	100.011537
2189.000000	100.011849
2188.000000	100.012016
2187.000000	100.012071
2186.000000	100.012366
2185.000000	100.013158
2184.000000	100.014042
2183.000000	100.014220
2182.000000	100.013516
2181.000000	100.012740
2180.000000	100.012807
2179.000000	100.013825
2178.000000	100.015260
2177.000000	100.016615
2176.000000	100.017627
2175.000000	100.018033
2174.000000	100.017642
2173.000000	100.016725
2172.000000	100.015978
2171.000000	100.015931
2170.000000	100.016568
2169.000000	100.017453
2168.000000	100.018069
2167.000000	100.018088
2166.000000	100.017531
2165.000000	100.016748
2164.000000	100.016151
2163.000000	100.015965
2162.000000	100.016333
2161.000000	100.017417
2160.000000	100.019201
2159.000000	100.021239
2158.000000	100.022842
2157.000000	100.023552
2156.000000	100.023372
2155.000000	100.022675
2154.000000	100.021986
2153.000000	100.021659
2152.000000	100.021619
2151.000000	100.021515
2150.000000	100.021214
2149.000000	100.020952
2148.000000	100.020818
2147.000000	100.020449
2146.000000	100.019566
2145.000000	100.018648
2144.000000	100.018549
2143.000000	100.019489
2142.000000	100.020816
2141.000000	100.021773
2140.000000	100.022211
2139.000000	100.022463
2138.000000	100.022917
2137.000000	100.023784
2136.000000	100.024976
2135.000000	100.026116
2134.000000	100.026861
2133.000000	100.027254
2132.000000	100.027633
2131.000000	100.028213
2130.000000	100.028909
2129.000000	100.029542
2128.000000	100.030051
2127.000000	100.030564
2126.000000	100.031370
2125.000000	100.032705
2124.000000	100.034323
2123.000000	100.035454
2122.000000	100.035534
2121.000000	100.034873
2120.000000	100.034451
2119.000000	100.034910
2118.000000	100.036111
2117.000000	100.037642
2116.000000	100.039296
2115.000000	100.040902
2114.000000	100.042064
2113.000000	100.042499
2112.000000	100.042400
2111.000000	100.042153
2110.000000	100.041847
2109.000000	100.041398
2108.000000	100.041011
2107.000000	100.041104
2106.000000	100.041808
2105.000000	100.042874
2104.000000	100.044041
2103.000000	100.045214
2102.000000	100.046237
2101.000000	100.046822
2100.000000	100.046875
2099.000000	100.046741
2098.000000	100.046977
2097.000000	100.047873
2096.000000	100.049279
2095.000000	100.050788
2094.000000	100.052059
2093.000000	100.053049
2092.000000	100.054015
2091.000000	100.055178
2090.000000	100.056337
2089.000000	100.056947
2088.000000	100.056671
2087.000000	100.055749
2086.000000	100.054803
2085.000000	100.054331
2084.000000	100.054420
2083.000000	100.054854
2082.000000	100.055410
2081.000000	100.056086
2080.000000	100.056962
2079.000000	100.057795
2078.000000	100.057997
2077.000000	100.057259
2076.000000	100.056086
2075.000000	100.055409
2074.000000	100.055647
2073.000000	100.056478
2072.000000	100.057416
2071.000000	100.058261
2070.000000	100.058891
2069.000000	100.059060
2068.000000	100.058726
2067.000000	100.058346
2066.000000	100.058551
2065.000000	100.059606
2064.000000	100.061339
2063.000000	100.063398
2062.000000	100.065305
2061.000000	100.066442
2060.000000	100.066389
2059.000000	100.065357
2058.000000	100.064083
2057.000000	100.063252
2056.000000	100.063095
2055.000000	100.063482
2054.000000	100.064126
2053.000000	100.064711
2052.000000	100.065043
2051.000000	100.065143
2050.000000	100.065007
2049.000000	100.064349
2048.000000	100.062936
2047.000000	100.061210
2046.000000	100.060156
2045.000000	100.060288
2044.000000	100.061072
2043.000000	100.061576
2042.000000	100.061414
2041.000000	100.060683
2040.000000	100.059305
2039.000000	100.057059
2038.000000	100.054283
2037.000000	100.051988
2036.000000	100.050936
2035.000000	100.051019
2034.000000	100.051625
2033.000000	100.052271
2032.000000	100.052683
2031.000000	100.052544
2030.000000	100.051677
2029.000000	100.050366
2028.000000	100.049160
2027.000000	100.048372
2026.000000	100.047978
2025.000000	100.047884
2024.000000	100.047964
2023.000000	100.047911
2022.000000	100.047418
2021.000000	100.046546
2020.000000	100.045697
2019.000000	100.045158
2018.000000	100.044874
2017.000000	100.044642
2016.000000	100.044317
2015.000000	100.043764
2014.000000	100.042866
2013.000000	100.041702
2012.000000	100.040576
2011.000000	100.039735
2010.000000	100.039162
2009.000000	100.038704
2008.000000	100.038281
2007.000000	100.037865
2006.000000	100.037362
2005.000000	100.036667
2004.000000	100.035825
2003.000000	100.035041
2002.000000	100.034506
2001.000000	100.034227
2000.000000	100.034056
1999.000000	100.033763
1998.000000	100.033213
1997.000000	100.032528
1996.000000	100.032003
1995.000000	100.031794
1994.000000	100.031775
1993.000000	100.031700
1992.000000	100.031447
1991.000000	100.031088
1990.000000	100.030742
1989.000000	100.030461
1988.000000	100.030231
1987.000000	100.030025
1986.000000	100.029834
1985.000000	100.029647
1984.000000	100.029438
1983.000000	100.029180
1982.000000	100.028888
1981.000000	100.028605
1980.000000	100.028353
1979.000000	100.028108
1978.000000	100.027850
1977.000000	100.027602
1976.000000	100.027399
1975.000000	100.027233
1974.000000	100.027047
1973.000000	100.026792
1972.000000	100.026458
1971.000000	100.026067
1970.000000	100.025649
1969.000000	100.025233
1968.000000	100.024848
1967.000000	100.024517
1966.000000	100.024242
1965.000000	100.024001
1964.000000	100.023732
1963.000000	100.023387
1962.000000	100.022961
1961.000000	100.022506
1960.000000	100.022084
1959.000000	100.021701
1958.000000	100.021299
1957.000000	100.020814
1956.000000	100.020239
1955.000000	100.019628
1954.000000	100.019048
1953.000000	100.018529
1952.000000	100.018065
1951.000000	100.017610
1950.000000	100.017103
1949.000000	100.016515
1948.000000	100.015871
1947.000000	100.015202
1946.000000	100.014488
1945.000000	100.013675
1944.000000	100.012760
1943.000000	100.011810
1942.000000	100.010908
1941.000000	100.010080
1940.000000	100.009270
1939.000000	100.008382
1938.000000	100.007343
1937.000000	100.006153
1936.000000	100.004910
1935.000000	100.003748
1934.000000	100.002714
1933.000000	100.001729
1932.000000	100.000677
1931.000000	99.999565
1930.000000	99.998546
1929.000000	99.997764
1928.000000	99.997152
1927.000000	99.996353
1926.000000	99.995005
1925.000000	99.993047
1924.000000	99.990820
1923.000000	99.988798
1922.000000	99.987203
1921.000000	99.986010
1920.000000	99.985133
1919.000000	99.984381
1918.000000	99.983332
1917.000000	99.981670
1916.000000	99.979701
1915.000000	99.978074
1914.000000	99.977070
1913.000000	99.976334
1912.000000	99.975273
1911.000000	99.973606
1910.000000	99.971435
1909.000000	99.969027
1908.000000	99.966689
1907.000000	99.964683
1906.000000	99.963178
1905.000000	99.962132
1904.000000	99.961333
1903.000000	99.960435
1902.000000	99.958997
1901.000000	99.956830
1900.000000	99.954196
1899.000000	99.951378
1898.000000	99.948318
1897.000000	99.944994
1896.000000	99.942168
1895.000000	99.941017
1894.000000	99.941663
1893.000000	99.942694
1892.000000	99.942636
1891.000000	99.941413
1890.000000	99.939963
1889.000000	99.938869
1888.000000	99.937801
1887.000000	99.936362
1886.000000	99.934933
1885.000000	99.934234
1884.000000	99.934307
1883.000000	99.934345
1882.000000	99.933554
1881.000000	99.932035
1880.000000	99.930559
1879.000000	99.929684
1878.000000	99.929568
1877.000000	99.930215
1876.000000	99.931291
1875.000000	99.931859
1874.000000	99.930890
1873.000000	99.928468
1872.000000	99.926139
1871.000000	99.925511
1870.000000	99.926646
1869.000000	99.928247
1868.000000	99.929774
1867.000000	99.932076
1866.000000	99.935345
1865.000000	99.938249
1864.000000	99.939166
1863.000000	99.937686
1862.000000	99.935020
1861.000000	99.933044
1860.000000	99.932735
1859.000000	99.933485
1858.000000	99.934002
1857.000000	99.933922
1856.000000	99.934286
1855.000000	99.936254
1854.000000	99.939866
1853.000000	99.944264
1852.000000	99.948675
1851.000000	99.952452
1850.000000	99.954985
1849.000000	99.955959
1848.000000	99.955823
1847.000000	99.955552
1846.000000	99.955925
1845.000000	99.957335
1844.000000	99.959953
1843.000000	99.963408
1842.000000	99.966349
1841.000000	99.967714
1840.000000	99.967844
1839.000000	99.967815
1838.000000	99.968366
1837.000000	99.969333
1836.000000	99.970274
1835.000000	99.970999
1834.000000	99.971322
1833.000000	99.970987
1832.000000	99.970041
1831.000000	99.969015
1830.000000	99.968819
1829.000000	99.969949
1828.000000	99.971912
1827.000000	99.973975
1826.000000	99.975718
1825.000000	99.976475
1824.000000	99.975649
1823.000000	99.973636
1822.000000	99.971507
1821.000000	99.969985
1820.000000	99.969028
1819.000000	99.968441
1818.000000	99.968468
1817.000000	99.969353
1816.000000	99.970841
1815.000000	99.972286
1814.000000	99.973178
1813.000000	99.973483
1812.000000	99.973454
1811.000000	99.973396
1810.000000	99.973271
1809.000000	99.972709
1808.000000	99.971744
1807.000000	99.971089
1806.000000	99.971467
1805.000000	99.972942
1804.000000	99.974880
1803.000000	99.976418
1802.000000	99.976995
1801.000000	99.976746
1800.000000	99.976360
1799.000000	99.976514
1798.000000	99.977282
1797.000000	99.978289
1796.000000	99.979194
1795.000000	99.979844
1794.000000	99.980114
1793.000000	99.979979
1792.000000	99.979889
1791.000000	99.980647
1790.000000	99.982339
1789.000000	99.984303
1788.000000	99.986024
1787.000000	99.987526
1786.000000	99.989078
1785.000000	99.990712
1784.000000	99.992052
1783.000000	99.992680
1782.000000	99.992579
1781.000000	99.992341
1780.000000	99.992703
1779.000000	99.993934
1778.000000	99.995696
1777.000000	99.997458
1776.000000	99.998911
1775.000000	100.000055
1774.000000	100.001271
1773.000000	100.003127
1772.000000	100.005747
1771.000000	100.008475
1770.000000	100.010545
1769.000000	100.011712
1768.000000	100.012167
1767.000000	100.012306
1766.000000	100.012492
1765.000000	100.012897
1764.000000	100.013557
1763.000000	100.014478
1762.000000	100.015705
1761.000000	100.017330
1760.000000	100.019257
1759.000000	100.021244
1758.000000	100.023036
1757.000000	100.024445
1756.000000	100.025404
1755.000000	100.026014
1754.000000	100.026531
1753.000000	100.027264
1752.000000	100.028401
1751.000000	100.029794
1750.000000	100.031070
1749.000000	100.032025
1748.000000	100.032778
1747.000000	100.033496
1746.000000	100.034200
1745.000000	100.034850
1744.000000	100.035438
1743.000000	100.036022
1742.000000	100.036631
1741.000000	100.037205
1740.000000	100.037645
1739.000000	100.037952
1738.000000	100.038201
1737.000000	100.038487
1736.000000	100.038994
1735.000000	100.039850
1734.000000	100.040746
1733.000000	100.041170
1732.000000	100.041025
1731.000000	100.040586
1730.000000	100.040324
1729.000000	100.040551
1728.000000	100.041216
1727.000000	100.041966
1726.000000	100.042492
1725.000000	100.042730
1724.000000	100.042748
1723.000000	100.042653
1722.000000	100.042440
1721.000000	100.042085
1720.000000	100.041846
1719.000000	100.042272
1718.000000	100.043507
1717.000000	100.044551
1716.000000	100.044489
1715.000000	100.043596
1714.000000	100.042483
1713.000000	100.041294
1712.000000	100.039918
1711.000000	100.038360
1710.000000	100.036720
1709.000000	100.035084
1708.000000	100.033504
1707.000000	100.032098
1706.000000	100.031117
1705.000000	100.030716
1704.000000	100.030777
1703.000000	100.031007
1702.000000	100.031282
1701.000000	100.031236
1700.000000	100.030400
1699.000000	100.029525
1698.000000	100.028466
1697.000000	100.026309
1696.000000	100.023416
1695.000000	100.021748
1694.000000	100.022023
1693.000000	100.022767
1692.000000	100.022861
1691.000000	100.022080
1690.000000	100.020472
1689.000000	100.018268
1688.000000	100.015776
1687.000000	100.013269
1686.000000	100.011349
1685.000000	100.010084
1684.000000	100.008588
1683.000000	100.006751
1682.000000	100.004369
1681.000000	100.001452
1680.000000	99.998801
1679.000000	99.996665
1678.000000	99.994643
1677.000000	99.992477
1676.000000	99.990447
1675.000000	99.988990
1674.000000	99.988057
1673.000000	99.986967
1672.000000	99.985113
1671.000000	99.982462
1670.000000	99.979228
1669.000000	99.976321
1668.000000	99.974675
1667.000000	99.973994
1666.000000	99.973593
1665.000000	99.973247
1664.000000	99.973002
1663.000000	99.972675
1662.000000	99.971596
1661.000000	99.969369
1660.000000	99.966353
1659.000000	99.963528
1658.000000	99.961711
1657.000000	99.960798
1656.000000	99.960075
1655.000000	99.959143
1654.000000	99.957119
1653.000000	99.952823
1652.000000	99.949749
1651.000000	99.948687
1650.000000	99.948142
1649.000000	99.948564
1648.000000	99.949325
1647.000000	99.948611
1646.000000	99.946861
1645.000000	99.946070
1644.000000	99.945847
1643.000000	99.945179
1642.000000	99.944093
1641.000000	99.943435
1640.000000	99.943684
1639.000000	99.944421
1638.000000	99.945151
1637.000000	99.945708
1636.000000	99.945842
1635.000000	99.945540
1634.000000	99.945444
1633.000000	99.945531
1632.000000	99.945923
1631.000000	99.946651
1630.000000	99.947179
1629.000000	99.947093
1628.000000	99.946722
1627.000000	99.946629
1626.000000	99.946914
1625.000000	99.947603
1624.000000	99.948739
1623.000000	99.950030
1622.000000	99.950987
1621.000000	99.951479
1620.000000	99.951664
1619.000000	99.951840
1618.000000	99.952396
1617.000000	99.953930
1616.000000	99.957068
1615.000000	99.961025
1614.000000	99.964056
1613.000000	99.965497
1612.000000	99.965707
1611.000000	99.965359
1610.000000	99.965245
1609.000000	99.966130
1608.000000	99.968134
1607.000000	99.970331
1606.000000	99.971519
1605.000000	99.971570
1604.000000	99.971367
1603.000000	99.971779
1602.000000	99.972976
1601.000000	99.974539
1600.000000	99.975938
1599.000000	99.976874
1598.000000	99.977493
1597.000000	99.978369
1596.000000	99.980072
1595.000000	99.982654
1594.000000	99.985527
1593.000000	99.988068
1592.000000	99.990174
1591.000000	99.992137
1590.000000	99.994187
1589.000000	99.996353
1588.000000	99.998558
1587.000000	100.000639
1586.000000	100.002230
1585.000000	100.002801
1584.000000	100.002110
1583.000000	100.000653
1582.000000	99.999952
1581.000000	100.001123
1580.000000	100.003254
1579.000000	100.004487
1578.000000	100.004816
1577.000000	100.006398
1576.000000	100.010264
1575.000000	100.013911
1574.000000	100.014903
1573.000000	100.014062
1572.000000	100.013071
1571.000000	100.011706
1570.000000	100.008608
1569.000000	100.005165
1568.000000	100.004018
1567.000000	100.004280
1566.000000	100.004221
1565.000000	100.003926
1564.000000	100.004215
1563.000000	100.004513
1562.000000	100.004007
1561.000000	100.003802
1560.000000	100.005771
1559.000000	100.006763
1558.000000	100.005336
1557.000000	100.004569
1556.000000	100.004242
1555.000000	100.004256
1554.000000	100.003528
1553.000000	100.001344
1552.000000	99.998121
1551.000000	99.994710
1550.000000	99.991484
1549.000000	99.988382
1548.000000	99.985599
1547.000000	99.983328
1546.000000	99.981699
1545.000000	99.980561
1544.000000	99.979487
1543.000000	99.977847
1542.000000	99.975159
1541.000000	99.971545
1540.000000	99.968622
1539.000000	99.967923
1538.000000	99.967935
1537.000000	99.966867
1536.000000	99.965078
1535.000000	99.963368
1534.000000	99.961691
1533.000000	99.959526
1532.000000	99.956902
1531.000000	99.954232
1530.000000	99.951771
1529.000000	99.949600
1528.000000	99.947735
1527.000000	99.946097
1526.000000	99.944460
1525.000000	99.942618
1524.000000	99.940617
1523.000000	99.938711
1522.000000	99.937083
1521.000000	99.935677
1520.000000	99.934275
1519.000000	99.932680
1518.000000	99.930880
1517.000000	99.928941
1516.000000	99.926955
1515.000000	99.925003
1514.000000	99.923115
1513.000000	99.921299
1512.000000	99.919548
1511.000000	99.917839
1510.000000	99.916153
1509.000000	99.914484
1508.000000	99.912835
1507.000000	99.911213
1506.000000	99.909624
1505.000000	99.908054
1504.000000	99.906487
1503.000000	99.904917
1502.000000	99.903348
1501.000000	99.901793
1500.000000	99.900268
1499.000000	99.898784
1498.000000	99.897338
1497.000000	99.895919
1496.000000	99.894519
1495.000000	99.893138
1494.000000	99.891774
1493.000000	99.890423
1492.000000	99.889088
1491.000000	99.887788
1490.000000	99.886544
1489.000000	99.885359
1488.000000	99.884210
1487.000000	99.883080
1486.000000	99.881966
1485.000000	99.880879
1484.000000	99.879835
1483.000000	99.878841
1482.000000	99.877885
1481.000000	99.876934
1480.000000	99.875963
1479.000000	99.874987
1478.000000	99.874058
1477.000000	99.873206
1476.000000	99.872414
1475.000000	99.871649
1474.000000	99.870917
1473.000000	99.870253
1472.000000	99.869631
1471.000000	99.868956
1470.000000	99.868109
1469.000000	99.867064
1468.000000	99.865929
1467.000000	99.864914
1466.000000	99.864266
1465.000000	99.864173
1464.000000	99.864532
1463.000000	99.864839
1462.000000	99.864632
1461.000000	99.863831
1460.000000	99.862807
1459.000000	99.862141
1458.000000	99.862047
1457.000000	99.861885
1456.000000	99.861345
1455.000000	99.860990
1454.000000	99.861356
1453.000000	99.862680
1452.000000	99.864299
1451.000000	99.864976
1450.000000	99.863991
1449.000000	99.861687
1448.000000	99.859263
1447.000000	99.858143
1446.000000	99.858916
1445.000000	99.861346
1444.000000	99.864769
1443.000000	99.868417
1442.000000	99.871374
1441.000000	99.872644
1440.000000	99.871708
1439.000000	99.869011
1438.000000	99.865765
1437.000000	99.862602
1436.000000	99.859463
1435.000000	99.856705
1434.000000	99.855262
1433.000000	99.855948
1432.000000	99.858631
1431.000000	99.861909
1430.000000	99.864689
1429.000000	99.866990
1428.000000	99.868561
1427.000000	99.868555
1426.000000	99.867184
1425.000000	99.866595
1424.000000	99.868238
1423.000000	99.870688
1422.000000	99.871798
1421.000000	99.871701
1420.000000	99.872157
1419.000000	99.873990
1418.000000	99.877025
1417.000000	99.880640
1416.000000	99.884146
1415.000000	99.887122
1414.000000	99.889349
1413.000000	99.891245
1412.000000	99.893422
1411.000000	99.895741
1410.000000	99.897837
1409.000000	99.900178
1408.000000	99.903606
1407.000000	99.908050
1406.000000	99.912614
1405.000000	99.917689
1404.000000	99.924497
1403.000000	99.932204
1402.000000	99.938115
1401.000000	99.940789
1400.000000	99.941397
1399.000000	99.942257
1398.000000	99.944555
1397.000000	99.948024
1396.000000	99.952785
1395.000000	99.959296
1394.000000	99.966641
1393.000000	99.972825
1392.000000	99.976562
1391.000000	99.978337
1390.000000	99.979817
1389.000000	99.982808
1388.000000	99.988064
1387.000000	99.994393
1386.000000	99.999788
1385.000000	100.003906
1384.000000	100.007854
1383.000000	100.011716
1382.000000	100.013841
1381.000000	100.013256
1380.000000	100.011776
1379.000000	100.012061
1378.000000	100.014194
1377.000000	100.015965
1376.000000	100.016276
1375.000000	100.016572
1374.000000	100.018610
1373.000000	100.021796
1372.000000	100.024083
1371.000000	100.024974
1370.000000	100.025910
1369.000000	100.028353
1368.000000	100.031923
1367.000000	100.034729
1366.000000	100.035450
1365.000000	100.034569
1364.000000	100.033824
1363.000000	100.034711
1362.000000	100.037121
1361.000000	100.039658
1360.000000	100.041536
1359.000000	100.043424
1358.000000	100.046428
1357.000000	100.050807
1356.000000	100.055615
1355.000000	100.059505
1354.000000	100.061898
1353.000000	100.063227
1352.000000	100.063969
1351.000000	100.063879
1350.000000	100.062565
1349.000000	100.061051
1348.000000	100.061404
1347.000000	100.064296
1346.000000	100.067668
1345.000000	100.068712
1344.000000	100.066797
1343.000000	100.063829
1342.000000	100.062221
1341.000000	100.062917
1340.000000	100.065059
1339.000000	100.066745
1338.000000	100.066452
1337.000000	100.064353
1336.000000	100.062280
1335.000000	100.061974
1334.000000	100.063234
1333.000000	100.064269
1332.000000	100.063985
1331.000000	100.063234
1330.000000	100.063411
1329.000000	100.064521
1328.000000	100.065354
1327.000000	100.065120
1326.000000	100.064138
1325.000000	100.063275
1324.000000	100.063251
1323.000000	100.064431
1322.000000	100.066607
1321.000000	100.068729
1320.000000	100.069356
1319.000000	100.067819
1318.000000	100.064913
1317.000000	100.062351
1316.000000	100.061485
1315.000000	100.062434
1314.000000	100.064211
1313.000000	100.065664
1312.000000	100.066432
1311.000000	100.066767
1310.000000	100.066550
1309.000000	100.065244
1308.000000	100.063115
1307.000000	100.061723
1306.000000	100.062329
1305.000000	100.064340
1304.000000	100.066075
1303.000000	100.066718
1302.000000	100.066648
1301.000000	100.066291
1300.000000	100.065668
1299.000000	100.064943
1298.000000	100.064341
1297.000000	100.063429
1296.000000	100.061637
1295.000000	100.059674
1294.000000	100.059236
1293.000000	100.060801
1292.000000	100.062804
1291.000000	100.063609
1290.000000	100.063435
1289.000000	100.063584
1288.000000	100.064563
1287.000000	100.065908
1286.000000	100.067234
1285.000000	100.068304
1284.000000	100.068419
1283.000000	100.066835
1282.000000	100.063591
1281.000000	100.059116
1280.000000	100.053686
1279.000000	100.048420
1278.000000	100.045995
1277.000000	100.048258
1276.000000	100.053180
1275.000000	100.056240
1274.000000	100.055781
1273.000000	100.055087
1272.000000	100.057810
1271.000000	100.062948
1270.000000	100.066370
1269.000000	100.066367
1268.000000	100.065098
1267.000000	100.064534
1266.000000	100.063482
1265.000000	100.059692
1264.000000	100.053421
1263.000000	100.047524
1262.000000	100.044500
1261.000000	100.044333
1260.000000	100.044958
1259.000000	100.044110
1258.000000	100.041026
1257.000000	100.036906
1256.000000	100.033715
1255.000000	100.032260
1254.000000	100.031663
1253.000000	100.030891
1252.000000	100.030201
1251.000000	100.030362
1250.000000	100.030906
1249.000000	100.030114
1248.000000	100.026728
1247.000000	100.021008
1246.000000	100.014119
1245.000000	100.007046
1244.000000	100.000098
1243.000000	99.992880
1242.000000	99.984574
1241.000000	99.974685
1240.000000	99.963572
1239.000000	99.952052
1238.000000	99.941038
1237.000000	99.932254
1236.000000	99.928336
1235.000000	99.930020
1234.000000	99.932938
1233.000000	99.929680
1232.000000	99.916720
1231.000000	99.898304
1230.000000	99.882113
1229.000000	99.871232
1228.000000	99.861541
1227.000000	99.846523
1226.000000	99.823354
1225.000000	99.794695
1224.000000	99.765873
1223.000000	99.740252
1222.000000	99.716378
1221.000000	99.689740
1220.000000	99.657733
1219.000000	99.622236
1218.000000	99.586666
1217.000000	99.551441
1216.000000	99.513942
1215.000000	99.472346
1214.000000	99.427644
1213.000000	99.382038
1212.000000	99.337083
1211.000000	99.293512
1210.000000	99.251276
1209.000000	99.209417
1208.000000	99.167052
1207.000000	99.124502
1206.000000	99.082368
1205.000000	99.039735
1204.000000	98.994852
1203.000000	98.947819
1202.000000	98.901255
1201.000000	98.857759
1200.000000	98.817535
1199.000000	98.778670
1198.000000	98.738629
1197.000000	98.695221
1196.000000	98.647564
1195.000000	98.597592
1194.000000	98.550095
1193.000000	98.509376
1192.000000	98.474734
1191.000000	98.439833
1190.000000	98.397944
1189.000000	98.348143
1188.000000	98.295501
1187.000000	98.245076
1186.000000	98.196898
1185.000000	98.147418
1184.000000	98.094327
1183.000000	98.038465
1182.000000	97.981931
1181.000000	97.925818
1180.000000	97.869372
1179.000000	97.810469
1178.000000	97.747828
1177.000000	97.683607
1176.000000	97.622064
1175.000000	97.564081
1174.000000	97.504866
1173.000000	97.439518
1172.000000	97.369093
1171.000000	97.298448
1170.000000	97.230204
1169.000000	97.164606
1168.000000	97.103611
1167.000000	97.050441
1166.000000	97.005863
1165.000000	96.969774
1164.000000	96.946097
1163.000000	96.940779
1162.000000	96.954049
1161.000000	96.978692
1160.000000	97.006167
1159.000000	97.030060
1158.000000	97.043561
1157.000000	97.039471
1156.000000	97.015244
1155.000000	96.975182
1154.000000	96.926289
1153.000000	96.873900
1152.000000	96.821328
1151.000000	96.769989
1150.000000	96.718385
1149.000000	96.663923
1148.000000	96.607111
1147.000000	96.551856
1146.000000	96.501189
1145.000000	96.454774
1144.000000	96.410157
1143.000000	96.363834
1142.000000	96.312503
1141.000000	96.257055
1140.000000	96.203859
1139.000000	96.157284
1138.000000	96.112079
1137.000000	96.058970
1136.000000	95.997171
1135.000000	95.935009
1134.000000	95.877940
1133.000000	95.822756
1132.000000	95.765214
1131.000000	95.706348
1130.000000	95.648296
1129.000000	95.589678
1128.000000	95.528697
1127.000000	95.466648
1126.000000	95.405538
1125.000000	95.345577
1124.000000	95.286478
1123.000000	95.227398
1122.000000	95.165028
1121.000000	95.096894
1120.000000	95.027705
1119.000000	94.966631
1118.000000	94.916194
1117.000000	94.869090
1116.000000	94.817868
1115.000000	94.762774
1114.000000	94.707869
1113.000000	94.654627
1112.000000	94.602201
1111.000000	94.549560
1110.000000	94.495078
1109.000000	94.437839
1108.000000	94.380258
1107.000000	94.325557
1106.000000	94.273021
1105.000000	94.220686
1104.000000	94.171142
1103.000000	94.127726
1102.000000	94.086174
1101.000000	94.038564
1100.000000	93.985381
1099.000000	93.934778
1098.000000	93.888916
1097.000000	93.841002
1096.000000	93.788059
1095.000000	93.736928
1094.000000	93.693647
1093.000000	93.655206
1092.000000	93.616142
1091.000000	93.576446
1090.000000	93.539102
1089.000000	93.505732
1088.000000	93.477472
1087.000000	93.454324
1086.000000	93.431723
1085.000000	93.403975
1084.000000	93.372570
1083.000000	93.344873
1082.000000	93.323481
1081.000000	93.303258
1080.000000	93.279509
1079.000000	93.252020
1078.000000	93.220686
1077.000000	93.184592
1076.000000	93.145724
1075.000000	93.106010
1074.000000	93.060724
1073.000000	93.002960
1072.000000	92.934214
1071.000000	92.861580
1070.000000	92.784630
1069.000000	92.695014
1068.000000	92.589534
1067.000000	92.473208
1066.000000	92.348577
1065.000000	92.213519
1064.000000	92.072473
1063.000000	91.938356
1062.000000	91.818644
1061.000000	91.709236
1060.000000	91.605523
1059.000000	91.508910
1058.000000	91.418728
1057.000000	91.328613
1056.000000	91.235537
1055.000000	91.142559
1054.000000	91.048315
1053.000000	90.944145
1052.000000	90.827503
1051.000000	90.708323
1050.000000	90.594733
1049.000000	90.481552
1048.000000	90.359933
1047.000000	90.229251
1046.000000	90.094133
1045.000000	89.958550
1044.000000	89.826551
1043.000000	89.700377
1042.000000	89.575027
1041.000000	89.442770
1040.000000	89.304787
1039.000000	89.170130
1038.000000	89.043201
1037.000000	88.922673
1036.000000	88.812411
1035.000000	88.720166
1034.000000	88.643451
1033.000000	88.569904
1032.000000	88.495266
1031.000000	88.428912
1030.000000	88.378229
1029.000000	88.339464
1028.000000	88.306719
1027.000000	88.277973
1026.000000	88.249574
1025.000000	88.217061
1024.000000	88.184213
1023.000000	88.159075
1022.000000	88.138958
1021.000000	88.112276
1020.000000	88.077316
1019.000000	88.044956
1018.000000	88.019890
1017.000000	87.994107
1016.000000	87.963166
1015.000000	87.934010
1014.000000	87.910869
1013.000000	87.887369
1012.000000	87.859095
1011.000000	87.831445
1010.000000	87.808722
1009.000000	87.787592
1008.000000	87.767850
1007.000000	87.758021
1006.000000	87.763057
1005.000000	87.776328
1004.000000	87.789613
1003.000000	87.801654
1002.000000	87.811915
1001.000000	87.816161
1000.000000	87.814245
999.000000	87.813480
998.000000	87.819023
997.000000	87.828950
996.000000	87.842446
995.000000	87.863610
994.000000	87.892979
993.000000	87.924348
992.000000	87.954347
991.000000	87.987014
990.000000	88.025450
989.000000	88.067395
988.000000	88.112306
987.000000	88.164415
986.000000	88.225592
985.000000	88.293149
984.000000	88.366959
983.000000	88.450474
982.000000	88.542819
981.000000	88.638578
980.000000	88.737195
979.000000	88.843885
978.000000	88.959807
977.000000	89.080451
976.000000	89.205161
975.000000	89.338598
974.000000	89.480490
973.000000	89.623125
972.000000	89.761608
971.000000	89.898454
970.000000	90.036050
969.000000	90.172832
968.000000	90.308713
967.000000	90.446181
966.000000	90.584033
965.000000	90.717576
964.000000	90.846596
963.000000	90.975694
962.000000	91.105729
961.000000	91.232668
960.000000	91.355811
959.000000	91.478601
958.000000	91.599601
957.000000	91.711104
956.000000	91.809494
955.000000	91.899918
954.000000	91.988251
953.000000	92.074759
952.000000	92.158121
951.000000	92.239494
950.000000	92.319783
949.000000	92.397579
948.000000	92.471363
947.000000	92.539713
946.000000	92.599972
945.000000	92.652093
944.000000	92.702617
943.000000	92.758029
942.000000	92.814673
941.000000	92.862980
940.000000	92.901712
939.000000	92.940250
938.000000	92.986129
937.000000	93.037954
936.000000	93.091660
935.000000	93.145442
934.000000	93.196725
933.000000	93.242376
932.000000	93.284591
931.000000	93.329561
930.000000	93.377854
929.000000	93.423096
928.000000	93.462966
927.000000	93.504803
926.000000	93.556815
925.000000	93.618770
924.000000	93.683867
923.000000	93.744800
922.000000	93.796434
921.000000	93.838087
920.000000	93.875362
919.000000	93.915114
918.000000	93.956940
917.000000	93.994068
916.000000	94.023524
915.000000	94.050471
914.000000	94.081665
913.000000	94.120102
912.000000	94.167386
911.000000	94.225707
910.000000	94.295285
909.000000	94.374110
908.000000	94.461298
907.000000	94.556794
906.000000	94.658020
905.000000	94.761623
904.000000	94.868296
903.000000	94.981064
902.000000	95.099736
901.000000	95.222015
900.000000	95.348294
899.000000	95.479057
898.000000	95.608568
897.000000	95.728069
896.000000	95.835327
895.000000	95.935297
894.000000	96.032012
893.000000	96.125745
892.000000	96.217550
891.000000	96.309778
890.000000	96.401241
889.000000	96.487973
888.000000	96.570055
887.000000	96.652280
886.000000	96.736604
885.000000	96.818781
884.000000	96.894125
883.000000	96.962799
882.000000	97.028443
881.000000	97.094598
880.000000	97.162589
879.000000	97.229702
878.000000	97.290249
877.000000	97.342380
876.000000	97.392849
875.000000	97.450991
874.000000	97.519102
873.000000	97.592618
872.000000	97.667649
871.000000	97.743631
870.000000	97.820749
869.000000	97.899586
868.000000	97.981184
867.000000	98.063172
866.000000	98.139004
865.000000	98.206019
864.000000	98.270681
863.000000	98.339839
862.000000	98.410006
861.000000	98.472900
860.000000	98.529402
859.000000	98.589581
858.000000	98.658625
857.000000	98.730027
856.000000	98.794028
855.000000	98.846764
854.000000	98.890382
853.000000	98.929825
852.000000	98.970303
851.000000	99.012655
850.000000	99.050098
849.000000	99.074225
848.000000	99.085053
847.000000	99.091461
846.000000	99.101945
845.000000	99.118885
844.000000	99.140522
843.000000	99.162381
842.000000	99.176806
841.000000	99.177105
840.000000	99.162913
839.000000	99.137307
838.000000	99.100273
837.000000	99.051610
836.000000	98.999586
835.000000	98.958268
834.000000	98.933600
833.000000	98.918535
832.000000	98.904277
831.000000	98.890029
830.000000	98.879769
829.000000	98.876762
828.000000	98.884826
827.000000	98.907397
826.000000	98.939695
825.000000	98.968213
824.000000	98.983819
823.000000	98.989698
822.000000	98.991755
821.000000	98.988352
820.000000	98.975805
819.000000	98.957462
818.000000	98.939998
817.000000	98.923283
816.000000	98.898818
815.000000	98.857340
814.000000	98.795011
813.000000	98.712470
812.000000	98.609488
811.000000	98.480710
810.000000	98.317193
809.000000	98.113895
808.000000	97.874968
807.000000	97.608937
806.000000	97.320058
805.000000	97.010688
804.000000	96.693504
803.000000	96.393829
802.000000	96.134889
801.000000	95.925742
800.000000	95.766661
799.000000	95.658746
798.000000	95.602716
797.000000	95.593564
796.000000	95.621454
795.000000	95.675101
794.000000	95.742997
793.000000	95.815706
792.000000	95.887842
791.000000	95.954164
790.000000	96.005219
789.000000	96.032411
788.000000	96.035901
787.000000	96.020414
786.000000	95.983359
785.000000	95.914988
784.000000	95.812733
783.000000	95.689425
782.000000	95.565257
781.000000	95.457330
780.000000	95.378743
779.000000	95.340179
778.000000	95.346584
777.000000	95.394752
776.000000	95.475571
775.000000	95.576002
774.000000	95.681208
773.000000	95.781214
772.000000	95.875310
771.000000	95.965514
770.000000	96.048092
769.000000	96.117169
768.000000	96.173574
767.000000	96.222240
766.000000	96.262697
765.000000	96.290665
764.000000	96.308609
763.000000	96.326502
762.000000	96.351714
761.000000	96.385187
760.000000	96.426457
759.000000	96.473603
758.000000	96.518895
757.000000	96.555065
756.000000	96.587384
755.000000	96.629889
754.000000	96.687535
753.000000	96.750885
752.000000	96.810288
751.000000	96.865876
750.000000	96.920500
749.000000	96.972267
748.000000	97.019210
747.000000	97.064213
746.000000	97.110354
745.000000	97.157189
744.000000	97.205699
743.000000	97.260995
742.000000	97.325968
741.000000	97.397720
740.000000	97.473886
739.000000	97.557056
738.000000	97.649064
737.000000	97.745180
736.000000	97.837026
735.000000	97.917575
734.000000	97.981817
733.000000	98.027921
732.000000	98.060416
731.000000	98.087480
730.000000	98.112387
729.000000	98.131887
728.000000	98.145156
727.000000	98.158471
726.000000	98.177681
725.000000	98.201794
724.000000	98.227445
723.000000	98.254360
722.000000	98.283258
721.000000	98.314293
720.000000	98.351661
719.000000	98.403303
718.000000	98.469612
717.000000	98.537360
716.000000	98.591546
715.000000	98.630877
714.000000	98.666066
713.000000	98.703583
712.000000	98.736768
711.000000	98.754765
710.000000	98.756828
709.000000	98.754681
708.000000	98.760686
707.000000	98.774511
706.000000	98.782608
705.000000	98.771703
704.000000	98.739552
703.000000	98.688919
702.000000	98.615513
701.000000	98.509456
700.000000	98.368635
699.000000	98.205016
698.000000	98.036589
697.000000	97.880228
696.000000	97.754137
695.000000	97.677854
694.000000	97.663519
693.000000	97.707382
692.000000	97.790524
691.000000	97.888351
690.000000	97.982038
689.000000	98.066677
688.000000	98.149219
687.000000	98.234842
686.000000	98.317242
685.000000	98.385991
684.000000	98.439100
683.000000	98.481811
682.000000	98.516344
681.000000	98.541384
680.000000	98.560708
679.000000	98.583653
678.000000	98.614984
677.000000	98.650434
676.000000	98.685116
675.000000	98.720436
674.000000	98.758403
673.000000	98.796893
672.000000	98.834418
671.000000	98.872346
670.000000	98.909632
669.000000	98.936794
668.000000	98.942022
667.000000	98.946495
666.000000	98.979636
665.000000	99.025193
664.000000	99.066941
663.000000	99.109291
662.000000	99.156886
661.000000	99.196549
660.000000	99.210103
659.000000	99.200303
658.000000	99.191691
657.000000	99.202122
656.000000	99.223352
655.000000	99.232047
654.000000	99.211211
653.000000	99.164196
652.000000	99.115759
651.000000	99.097548
650.000000	99.123308
649.000000	99.177292
648.000000	99.228541
647.000000	99.253871
646.000000	99.251163
645.000000	99.240378
644.000000	99.252001
643.000000	99.303976
642.000000	99.382279
641.000000	99.452482
640.000000	99.496520
639.000000	99.526599
638.000000	99.561475
637.000000	99.601918
636.000000	99.636424
635.000000	99.658348
634.000000	99.669457
633.000000	99.676398
632.000000	99.691750
631.000000	99.729915
630.000000	99.791703
629.000000	99.858872
628.000000	99.911491
627.000000	99.944608
626.000000	99.965727
625.000000	99.984140
624.000000	100.005724
623.000000	100.030820
622.000000	100.052001
621.000000	100.061530
620.000000	100.065094
619.000000	100.078261
618.000000	100.103978
617.000000	100.125789
616.000000	100.131940
615.000000	100.130561
614.000000	100.128623
613.000000	100.109159
612.000000	100.049098
611.000000	99.956818
610.000000	99.877316
609.000000	99.851947
608.000000	99.883577
607.000000	99.939482
606.000000	99.977814
605.000000	99.976285
604.000000	99.936779
603.000000	99.869455
602.000000	99.786987
601.000000	99.717532
600.000000	99.704107
599.000000	99.764414
598.000000	99.851143
597.000000	99.884515
596.000000	99.834254
595.000000	99.747710
594.000000	99.693662
593.000000	99.693898
592.000000	99.724858
591.000000	99.760277
590.000000	99.789452
589.000000	99.811243
588.000000	99.833386
587.000000	99.869834
586.000000	99.922041
585.000000	99.969968
584.000000	99.992931
583.000000	99.988355
582.000000	99.965424
581.000000	99.938409
580.000000	99.932572
579.000000	99.970259
578.000000	100.036840
577.000000	100.089741
576.000000	100.113040
575.000000	100.129019
574.000000	100.142644
573.000000	100.119720
572.000000	100.046118
571.000000	99.964212
570.000000	99.916078
569.000000	99.879463
568.000000	99.807641
567.000000	99.700211
566.000000	99.586544
565.000000	99.464293
564.000000	99.311113
563.000000	99.141492
562.000000	99.005615
561.000000	98.932777
560.000000	98.911477
559.000000	98.911355
558.000000	98.896254
557.000000	98.838425
556.000000	98.740971
555.000000	98.630996
554.000000	98.522245
553.000000	98.411190
552.000000	98.319417
551.000000	98.292638
550.000000	98.332332
