PE IR       SUBTECH     SPECTRUM    ASCII       PEDS        4.00        
   -1
BH1 8-6 24 50_1.asc
24/05/14
13:10:43.00
24/05/14
13:12:59.00
Administrator
?品 045 用? Administrator 日期 Tuesday, May 14 2024
550.000000
#HDR
-1
-1
#GR
cm-1
%T
1.0
0.0
4000.000000
-1.000000
3451
8
99.045568
85.674851
#DATA
4000.000000	98.944133
3999.000000	98.941976
3998.000000	98.940081
3997.000000	98.938450
3996.000000	98.935995
3995.000000	98.932040
3994.000000	98.927455
3993.000000	98.924033
3992.000000	98.922803
3991.000000	98.923125
3990.000000	98.923339
3989.000000	98.922280
3988.000000	98.919983
3987.000000	98.917150
3986.000000	98.914460
3985.000000	98.912485
3984.000000	98.911751
3983.000000	98.912410
3982.000000	98.913936
3981.000000	98.915604
3980.000000	98.917246
3979.000000	98.919184
3978.000000	98.921450
3977.000000	98.923247
3976.000000	98.923253
3975.000000	98.920625
3974.000000	98.915727
3973.000000	98.910126
3972.000000	98.905826
3971.000000	98.904028
3970.000000	98.904516
3969.000000	98.906195
3968.000000	98.908234
3967.000000	98.910558
3966.000000	98.913189
3965.000000	98.915550
3964.000000	98.916771
3963.000000	98.916567
3962.000000	98.915495
3961.000000	98.914290
3960.000000	98.913216
3959.000000	98.912078
3958.000000	98.910592
3957.000000	98.908633
3956.000000	98.906334
3955.000000	98.904034
3954.000000	98.902160
3953.000000	98.901070
3952.000000	98.900820
3951.000000	98.900984
3950.000000	98.900821
3949.000000	98.899895
3948.000000	98.898497
3947.000000	98.897318
3946.000000	98.896756
3945.000000	98.896626
3944.000000	98.896417
3943.000000	98.895833
3942.000000	98.895178
3941.000000	98.895190
3940.000000	98.896400
3939.000000	98.898566
3938.000000	98.900602
3937.000000	98.901260
3936.000000	98.900141
3935.000000	98.898056
3934.000000	98.896491
3933.000000	98.896373
3932.000000	98.897380
3931.000000	98.898332
3930.000000	98.898186
3929.000000	98.896680
3928.000000	98.894420
3927.000000	98.892490
3926.000000	98.891607
3925.000000	98.891315
3924.000000	98.890452
3923.000000	98.888596
3922.000000	98.886610
3921.000000	98.885569
3920.000000	98.885631
3919.000000	98.886090
3918.000000	98.886247
3917.000000	98.885982
3916.000000	98.885554
3915.000000	98.885201
3914.000000	98.884966
3913.000000	98.884703
3912.000000	98.884230
3911.000000	98.883505
3910.000000	98.882700
3909.000000	98.881857
3908.000000	98.880782
3907.000000	98.879291
3906.000000	98.877580
3905.000000	98.876069
3904.000000	98.874839
3903.000000	98.873663
3902.000000	98.872577
3901.000000	98.872019
3900.000000	98.872205
3899.000000	98.872702
3898.000000	98.872912
3897.000000	98.872694
3896.000000	98.872233
3895.000000	98.871634
3894.000000	98.870956
3893.000000	98.870463
3892.000000	98.870524
3891.000000	98.870988
3890.000000	98.871159
3889.000000	98.870586
3888.000000	98.869695
3887.000000	98.869396
3886.000000	98.869848
3885.000000	98.870084
3884.000000	98.869219
3883.000000	98.867396
3882.000000	98.865658
3881.000000	98.865044
3880.000000	98.865805
3879.000000	98.867368
3878.000000	98.868784
3877.000000	98.869457
3876.000000	98.869492
3875.000000	98.869299
3874.000000	98.868910
3873.000000	98.868030
3872.000000	98.866809
3871.000000	98.865847
3870.000000	98.865045
3869.000000	98.863563
3868.000000	98.861306
3867.000000	98.859377
3866.000000	98.858829
3865.000000	98.859339
3864.000000	98.859578
3863.000000	98.858974
3862.000000	98.858057
3861.000000	98.857269
3860.000000	98.856607
3859.000000	98.855902
3858.000000	98.855004
3857.000000	98.853715
3856.000000	98.852306
3855.000000	98.851834
3854.000000	98.852269
3853.000000	98.852128
3852.000000	98.851429
3851.000000	98.851538
3850.000000	98.853055
3849.000000	98.855282
3848.000000	98.856809
3847.000000	98.856794
3846.000000	98.855578
3845.000000	98.854131
3844.000000	98.852937
3843.000000	98.851510
3842.000000	98.849259
3841.000000	98.846598
3840.000000	98.844874
3839.000000	98.844739
3838.000000	98.845461
3837.000000	98.845852
3836.000000	98.845608
3835.000000	98.845294
3834.000000	98.845515
3833.000000	98.846424
3832.000000	98.847636
3831.000000	98.848537
3830.000000	98.848832
3829.000000	98.848743
3828.000000	98.848802
3827.000000	98.849301
3826.000000	98.849891
3825.000000	98.849918
3824.000000	98.849285
3823.000000	98.848733
3822.000000	98.848922
3821.000000	98.849396
3820.000000	98.849345
3819.000000	98.848746
3818.000000	98.848364
3817.000000	98.848926
3816.000000	98.850192
3815.000000	98.851285
3814.000000	98.851946
3813.000000	98.852602
3812.000000	98.853457
3811.000000	98.854136
3810.000000	98.854217
3809.000000	98.853845
3808.000000	98.853544
3807.000000	98.853420
3806.000000	98.853118
3805.000000	98.852516
3804.000000	98.851909
3803.000000	98.851650
3802.000000	98.851696
3801.000000	98.851683
3800.000000	98.851443
3799.000000	98.851136
3798.000000	98.850971
3797.000000	98.850996
3796.000000	98.851101
3795.000000	98.851116
3794.000000	98.850957
3793.000000	98.850633
3792.000000	98.850190
3791.000000	98.849675
3790.000000	98.849133
3789.000000	98.848608
3788.000000	98.848119
3787.000000	98.847659
3786.000000	98.847198
3785.000000	98.846658
3784.000000	98.845926
3783.000000	98.844942
3782.000000	98.843817
3781.000000	98.842814
3780.000000	98.842120
3779.000000	98.841688
3778.000000	98.841306
3777.000000	98.840817
3776.000000	98.840201
3775.000000	98.839440
3774.000000	98.838434
3773.000000	98.837153
3772.000000	98.835789
3771.000000	98.834597
3770.000000	98.833569
3769.000000	98.832446
3768.000000	98.831065
3767.000000	98.829573
3766.000000	98.828268
3765.000000	98.827174
3764.000000	98.825970
3763.000000	98.824583
3762.000000	98.823578
3761.000000	98.823585
3760.000000	98.824378
3759.000000	98.824951
3758.000000	98.824761
3757.000000	98.823907
3756.000000	98.822477
3755.000000	98.820352
3754.000000	98.817555
3753.000000	98.814270
3752.000000	98.810606
3751.000000	98.807334
3750.000000	98.805782
3749.000000	98.805687
3748.000000	98.804965
3747.000000	98.802641
3746.000000	98.801068
3745.000000	98.802562
3744.000000	98.804616
3743.000000	98.803927
3742.000000	98.801381
3741.000000	98.799417
3740.000000	98.798484
3739.000000	98.796869
3738.000000	98.793561
3737.000000	98.789397
3736.000000	98.785154
3735.000000	98.780900
3734.000000	98.777737
3733.000000	98.777717
3732.000000	98.781084
3731.000000	98.785412
3730.000000	98.788103
3729.000000	98.788681
3728.000000	98.788255
3727.000000	98.787158
3726.000000	98.784118
3725.000000	98.778662
3724.000000	98.772730
3723.000000	98.769031
3722.000000	98.768471
3721.000000	98.769672
3720.000000	98.770432
3719.000000	98.769318
3718.000000	98.766213
3717.000000	98.761352
3716.000000	98.754964
3715.000000	98.748137
3714.000000	98.742674
3713.000000	98.739164
3712.000000	98.735750
3711.000000	98.730597
3710.000000	98.724674
3709.000000	98.720047
3708.000000	98.717085
3707.000000	98.714338
3706.000000	98.710451
3705.000000	98.705840
3704.000000	98.702349
3703.000000	98.701215
3702.000000	98.701458
3701.000000	98.700667
3700.000000	98.697339
3699.000000	98.691998
3698.000000	98.686489
3697.000000	98.682326
3696.000000	98.679645
3695.000000	98.677929
3694.000000	98.676616
3693.000000	98.674643
3692.000000	98.670582
3691.000000	98.664263
3690.000000	98.658034
3689.000000	98.654454
3688.000000	98.653251
3687.000000	98.652557
3686.000000	98.652142
3685.000000	98.653360
3684.000000	98.656399
3683.000000	98.658974
3682.000000	98.658399
3681.000000	98.653959
3680.000000	98.646148
3679.000000	98.635309
3678.000000	98.622680
3677.000000	98.612029
3676.000000	98.606098
3675.000000	98.603152
3674.000000	98.600056
3673.000000	98.595964
3672.000000	98.592611
3671.000000	98.591693
3670.000000	98.591826
3669.000000	98.590476
3668.000000	98.587371
3667.000000	98.583545
3666.000000	98.579650
3665.000000	98.575880
3664.000000	98.572241
3663.000000	98.568573
3662.000000	98.564626
3661.000000	98.560047
3660.000000	98.554422
3659.000000	98.547736
3658.000000	98.540842
3657.000000	98.535064
3656.000000	98.530591
3655.000000	98.526360
3654.000000	98.521516
3653.000000	98.516527
3652.000000	98.512634
3651.000000	98.509068
3650.000000	98.502074
3649.000000	98.490428
3648.000000	98.478851
3647.000000	98.472255
3646.000000	98.471028
3645.000000	98.472743
3644.000000	98.474972
3643.000000	98.475986
3642.000000	98.474470
3641.000000	98.469956
3640.000000	98.463719
3639.000000	98.457794
3638.000000	98.452749
3637.000000	98.447632
3636.000000	98.442278
3635.000000	98.438125
3634.000000	98.435293
3633.000000	98.430920
3632.000000	98.422216
3631.000000	98.411117
3630.000000	98.402801
3629.000000	98.397820
3628.000000	98.392658
3627.000000	98.386666
3626.000000	98.382166
3625.000000	98.380690
3624.000000	98.381272
3623.000000	98.381709
3622.000000	98.381449
3621.000000	98.381811
3620.000000	98.382847
3619.000000	98.382427
3618.000000	98.379719
3617.000000	98.376901
3616.000000	98.377228
3615.000000	98.382651
3614.000000	98.391831
3613.000000	98.400471
3612.000000	98.404889
3611.000000	98.404910
3610.000000	98.402930
3609.000000	98.401133
3608.000000	98.400453
3607.000000	98.401462
3606.000000	98.404429
3605.000000	98.408240
3604.000000	98.410714
3603.000000	98.410431
3602.000000	98.408047
3601.000000	98.405509
3600.000000	98.404109
3599.000000	98.404081
3598.000000	98.405356
3597.000000	98.407899
3596.000000	98.411498
3595.000000	98.415790
3594.000000	98.420232
3593.000000	98.424271
3592.000000	98.427368
3591.000000	98.429245
3590.000000	98.430202
3589.000000	98.430326
3588.000000	98.428484
3587.000000	98.423505
3586.000000	98.416272
3585.000000	98.409441
3584.000000	98.405457
3583.000000	98.405174
3582.000000	98.407791
3581.000000	98.411631
3580.000000	98.415052
3579.000000	98.417106
3578.000000	98.417568
3577.000000	98.416773
3576.000000	98.415518
3575.000000	98.414788
3574.000000	98.415191
3573.000000	98.416510
3572.000000	98.417800
3571.000000	98.418000
3570.000000	98.416700
3569.000000	98.414438
3568.000000	98.412302
3567.000000	98.411141
3566.000000	98.411029
3565.000000	98.411255
3564.000000	98.411043
3563.000000	98.410327
3562.000000	98.409658
3561.000000	98.409432
3560.000000	98.409323
3559.000000	98.408599
3558.000000	98.406991
3557.000000	98.405039
3556.000000	98.403622
3555.000000	98.403301
3554.000000	98.404133
3553.000000	98.405731
3552.000000	98.407354
3551.000000	98.408192
3550.000000	98.407814
3549.000000	98.406369
3548.000000	98.404369
3547.000000	98.402332
3546.000000	98.400679
3545.000000	98.399751
3544.000000	98.399594
3543.000000	98.399775
3542.000000	98.399623
3541.000000	98.398673
3540.000000	98.396815
3539.000000	98.394124
3538.000000	98.390809
3537.000000	98.387479
3536.000000	98.385123
3535.000000	98.384438
3534.000000	98.385126
3533.000000	98.386120
3532.000000	98.386497
3531.000000	98.386182
3530.000000	98.385837
3529.000000	98.386143
3528.000000	98.387243
3527.000000	98.388789
3526.000000	98.390361
3525.000000	98.391662
3524.000000	98.392425
3523.000000	98.392383
3522.000000	98.391392
3521.000000	98.389541
3520.000000	98.387215
3519.000000	98.385094
3518.000000	98.383971
3517.000000	98.384311
3516.000000	98.385892
3515.000000	98.387909
3514.000000	98.389506
3513.000000	98.390225
3512.000000	98.389914
3511.000000	98.388415
3510.000000	98.385669
3509.000000	98.382154
3508.000000	98.378964
3507.000000	98.377184
3506.000000	98.377193
3505.000000	98.378455
3504.000000	98.379810
3503.000000	98.380318
3502.000000	98.380021
3501.000000	98.379738
3500.000000	98.380097
3499.000000	98.380944
3498.000000	98.381756
3497.000000	98.382451
3496.000000	98.383466
3495.000000	98.384935
3494.000000	98.386115
3493.000000	98.386057
3492.000000	98.384737
3491.000000	98.383269
3490.000000	98.382875
3489.000000	98.383704
3488.000000	98.384715
3487.000000	98.384686
3486.000000	98.383328
3485.000000	98.381456
3484.000000	98.380255
3483.000000	98.380331
3482.000000	98.381415
3481.000000	98.382754
3480.000000	98.383646
3479.000000	98.383659
3478.000000	98.382621
3477.000000	98.380679
3476.000000	98.378298
3475.000000	98.375932
3474.000000	98.373727
3473.000000	98.371743
3472.000000	98.370379
3471.000000	98.370237
3470.000000	98.371487
3469.000000	98.373592
3468.000000	98.375759
3467.000000	98.377437
3466.000000	98.378239
3465.000000	98.377719
3464.000000	98.375600
3463.000000	98.372154
3462.000000	98.368102
3461.000000	98.364191
3460.000000	98.361066
3459.000000	98.359283
3458.000000	98.359014
3457.000000	98.359657
3456.000000	98.360120
3455.000000	98.359775
3454.000000	98.358983
3453.000000	98.358485
3452.000000	98.358378
3451.000000	98.357957
3450.000000	98.356577
3449.000000	98.354446
3448.000000	98.352473
3447.000000	98.351419
3446.000000	98.351326
3445.000000	98.351717
3444.000000	98.352154
3443.000000	98.352454
3442.000000	98.352513
3441.000000	98.352187
3440.000000	98.351504
3439.000000	98.350862
3438.000000	98.350730
3437.000000	98.351075
3436.000000	98.351209
3435.000000	98.350359
3434.000000	98.348336
3433.000000	98.345601
3432.000000	98.342814
3431.000000	98.340469
3430.000000	98.338876
3429.000000	98.338204
3428.000000	98.338314
3427.000000	98.338732
3426.000000	98.338967
3425.000000	98.338839
3424.000000	98.338453
3423.000000	98.337941
3422.000000	98.337364
3421.000000	98.336821
3420.000000	98.336504
3419.000000	98.336566
3418.000000	98.336923
3417.000000	98.337211
3416.000000	98.337014
3415.000000	98.336212
3414.000000	98.335184
3413.000000	98.334583
3412.000000	98.334730
3411.000000	98.335230
3410.000000	98.335260
3409.000000	98.334370
3408.000000	98.332928
3407.000000	98.331819
3406.000000	98.331609
3405.000000	98.332141
3404.000000	98.332835
3403.000000	98.333360
3402.000000	98.333908
3401.000000	98.334776
3400.000000	98.335830
3399.000000	98.336472
3398.000000	98.336173
3397.000000	98.334957
3396.000000	98.333417
3395.000000	98.332210
3394.000000	98.331463
3393.000000	98.330756
3392.000000	98.329717
3391.000000	98.328607
3390.000000	98.328134
3389.000000	98.328636
3388.000000	98.329607
3387.000000	98.330175
3386.000000	98.330028
3385.000000	98.329708
3384.000000	98.329992
3383.000000	98.331089
3382.000000	98.332474
3381.000000	98.333358
3380.000000	98.333298
3379.000000	98.332408
3378.000000	98.331234
3377.000000	98.330456
3376.000000	98.330523
3375.000000	98.331393
3374.000000	98.332547
3373.000000	98.333355
3372.000000	98.333571
3371.000000	98.333376
3370.000000	98.332985
3369.000000	98.332312
3368.000000	98.331160
3367.000000	98.329642
3366.000000	98.328280
3365.000000	98.327621
3364.000000	98.327894
3363.000000	98.329037
3362.000000	98.330821
3361.000000	98.332889
3360.000000	98.334830
3359.000000	98.336287
3358.000000	98.337051
3357.000000	98.337037
3356.000000	98.336314
3355.000000	98.335220
3354.000000	98.334346
3353.000000	98.334172
3352.000000	98.334707
3351.000000	98.335500
3350.000000	98.336038
3349.000000	98.336204
3348.000000	98.336298
3347.000000	98.336682
3346.000000	98.337432
3345.000000	98.338299
3344.000000	98.338943
3343.000000	98.339223
3342.000000	98.339288
3341.000000	98.339414
3340.000000	98.339770
3339.000000	98.340319
3338.000000	98.340910
3337.000000	98.341423
3336.000000	98.341838
3335.000000	98.342209
3334.000000	98.342586
3333.000000	98.342964
3332.000000	98.343292
3331.000000	98.343555
3330.000000	98.343805
3329.000000	98.344115
3328.000000	98.344495
3327.000000	98.344909
3326.000000	98.345331
3325.000000	98.345758
3324.000000	98.346191
3323.000000	98.346623
3322.000000	98.347048
3321.000000	98.347453
3320.000000	98.347832
3319.000000	98.348190
3318.000000	98.348542
3317.000000	98.348905
3316.000000	98.349289
3315.000000	98.349694
3314.000000	98.350115
3313.000000	98.350543
3312.000000	98.350968
3311.000000	98.351381
3310.000000	98.351776
3309.000000	98.352155
3308.000000	98.352522
3307.000000	98.352880
3306.000000	98.353231
3305.000000	98.353572
3304.000000	98.353901
3303.000000	98.354218
3302.000000	98.354523
3301.000000	98.354822
3300.000000	98.355124
3299.000000	98.355439
3298.000000	98.355773
3297.000000	98.356127
3296.000000	98.356494
3295.000000	98.356865
3294.000000	98.357234
3293.000000	98.357601
3292.000000	98.357975
3291.000000	98.358362
3290.000000	98.358757
3289.000000	98.359148
3288.000000	98.359529
3287.000000	98.359912
3286.000000	98.360301
3285.000000	98.360682
3284.000000	98.361027
3283.000000	98.361314
3282.000000	98.361546
3281.000000	98.361752
3280.000000	98.361990
3279.000000	98.362319
3278.000000	98.362762
3277.000000	98.363266
3276.000000	98.363727
3275.000000	98.364072
3274.000000	98.364294
3273.000000	98.364420
3272.000000	98.364458
3271.000000	98.364437
3270.000000	98.364481
3269.000000	98.364754
3268.000000	98.365297
3267.000000	98.365987
3266.000000	98.366624
3265.000000	98.367118
3264.000000	98.367498
3263.000000	98.367830
3262.000000	98.368154
3261.000000	98.368467
3260.000000	98.368783
3259.000000	98.369160
3258.000000	98.369651
3257.000000	98.370253
3256.000000	98.370892
3255.000000	98.371462
3254.000000	98.371897
3253.000000	98.372208
3252.000000	98.372456
3251.000000	98.372708
3250.000000	98.373005
3249.000000	98.373356
3248.000000	98.373747
3247.000000	98.374132
3246.000000	98.374466
3245.000000	98.374733
3244.000000	98.374959
3243.000000	98.375205
3242.000000	98.375534
3241.000000	98.375979
3240.000000	98.376531
3239.000000	98.377134
3238.000000	98.377702
3237.000000	98.378169
3236.000000	98.378521
3235.000000	98.378800
3234.000000	98.379073
3233.000000	98.379394
3232.000000	98.379789
3231.000000	98.380252
3230.000000	98.380750
3229.000000	98.381251
3228.000000	98.381744
3227.000000	98.382231
3226.000000	98.382705
3225.000000	98.383148
3224.000000	98.383547
3223.000000	98.383912
3222.000000	98.384276
3221.000000	98.384665
3220.000000	98.385082
3219.000000	98.385494
3218.000000	98.385852
3217.000000	98.386132
3216.000000	98.386355
3215.000000	98.386569
3214.000000	98.386819
3213.000000	98.387127
3212.000000	98.387484
3211.000000	98.387859
3210.000000	98.388220
3209.000000	98.388554
3208.000000	98.388866
3207.000000	98.389155
3206.000000	98.389412
3205.000000	98.389663
3204.000000	98.390012
3203.000000	98.390598
3202.000000	98.391480
3201.000000	98.392574
3200.000000	98.393673
3199.000000	98.394541
3198.000000	98.394998
3197.000000	98.394993
3196.000000	98.394697
3195.000000	98.394495
3194.000000	98.394769
3193.000000	98.395624
3192.000000	98.396775
3191.000000	98.397770
3190.000000	98.398419
3189.000000	98.398972
3188.000000	98.399822
3187.000000	98.400967
3186.000000	98.401867
3185.000000	98.401977
3184.000000	98.401360
3183.000000	98.400660
3182.000000	98.400373
3181.000000	98.400388
3180.000000	98.400395
3179.000000	98.400545
3178.000000	98.401363
3177.000000	98.403021
3176.000000	98.405050
3175.000000	98.406796
3174.000000	98.407945
3173.000000	98.408566
3172.000000	98.408908
3171.000000	98.409327
3170.000000	98.410169
3169.000000	98.411496
3168.000000	98.412980
3167.000000	98.414302
3166.000000	98.415672
3165.000000	98.417692
3164.000000	98.420585
3163.000000	98.423640
3162.000000	98.425677
3161.000000	98.426058
3160.000000	98.425127
3159.000000	98.423801
3158.000000	98.422775
3157.000000	98.422210
3156.000000	98.422042
3155.000000	98.422317
3154.000000	98.423145
3153.000000	98.424413
3152.000000	98.425649
3151.000000	98.426278
3150.000000	98.426197
3149.000000	98.426076
3148.000000	98.426904
3147.000000	98.429088
3146.000000	98.432072
3145.000000	98.434846
3144.000000	98.436777
3143.000000	98.437814
3142.000000	98.438032
3141.000000	98.437460
3140.000000	98.436454
3139.000000	98.435898
3138.000000	98.436570
3137.000000	98.438434
3136.000000	98.440723
3135.000000	98.442734
3134.000000	98.444378
3133.000000	98.445908
3132.000000	98.447414
3131.000000	98.448740
3130.000000	98.449714
3129.000000	98.450281
3128.000000	98.450515
3127.000000	98.450669
3126.000000	98.451102
3125.000000	98.451933
3124.000000	98.452834
3123.000000	98.453414
3122.000000	98.453762
3121.000000	98.454326
3120.000000	98.455249
3119.000000	98.456156
3118.000000	98.456709
3117.000000	98.457020
3116.000000	98.457328
3115.000000	98.457558
3114.000000	98.457590
3113.000000	98.457760
3112.000000	98.458593
3111.000000	98.460001
3110.000000	98.461160
3109.000000	98.461435
3108.000000	98.461069
3107.000000	98.460739
3106.000000	98.460628
3105.000000	98.460364
3104.000000	98.459839
3103.000000	98.459592
3102.000000	98.460174
3101.000000	98.461473
3100.000000	98.462836
3099.000000	98.463791
3098.000000	98.464423
3097.000000	98.465008
3096.000000	98.465541
3095.000000	98.465741
3094.000000	98.465456
3093.000000	98.464919
3092.000000	98.464597
3091.000000	98.464761
3090.000000	98.465317
3089.000000	98.466043
3088.000000	98.466898
3087.000000	98.467954
3086.000000	98.469117
3085.000000	98.470105
3084.000000	98.470708
3083.000000	98.470980
3082.000000	98.471179
3081.000000	98.471540
3080.000000	98.472107
3079.000000	98.472756
3078.000000	98.473315
3077.000000	98.473708
3076.000000	98.474010
3075.000000	98.474377
3074.000000	98.474911
3073.000000	98.475587
3072.000000	98.476288
3071.000000	98.476925
3070.000000	98.477508
3069.000000	98.478124
3068.000000	98.478848
3067.000000	98.479666
3066.000000	98.480470
3065.000000	98.481162
3064.000000	98.481774
3063.000000	98.482443
3062.000000	98.483246
3061.000000	98.484091
3060.000000	98.484824
3059.000000	98.485442
3058.000000	98.486120
3057.000000	98.487009
3056.000000	98.488064
3055.000000	98.489105
3054.000000	98.490021
3053.000000	98.490859
3052.000000	98.491738
3051.000000	98.492722
3050.000000	98.493733
3049.000000	98.494580
3048.000000	98.495105
3047.000000	98.495357
3046.000000	98.495637
3045.000000	98.496332
3044.000000	98.497642
3043.000000	98.499426
3042.000000	98.501234
3041.000000	98.502611
3040.000000	98.503434
3039.000000	98.503938
3038.000000	98.504438
3037.000000	98.505011
3036.000000	98.505549
3035.000000	98.506112
3034.000000	98.506984
3033.000000	98.508286
3032.000000	98.509738
3031.000000	98.511006
3030.000000	98.512170
3029.000000	98.513602
3028.000000	98.515484
3027.000000	98.517634
3026.000000	98.519756
3025.000000	98.521681
3024.000000	98.523334
3023.000000	98.524630
3022.000000	98.525487
3021.000000	98.525971
3020.000000	98.526450
3019.000000	98.527528
3018.000000	98.529664
3017.000000	98.532816
3016.000000	98.536426
3015.000000	98.539872
3014.000000	98.542776
3013.000000	98.544895
3012.000000	98.546031
3011.000000	98.546349
3010.000000	98.546652
3009.000000	98.547894
3008.000000	98.550289
3007.000000	98.553100
3006.000000	98.555384
3005.000000	98.556906
3004.000000	98.558200
3003.000000	98.559875
3002.000000	98.562075
3001.000000	98.564488
3000.000000	98.566689
2999.000000	98.568429
2998.000000	98.569774
2997.000000	98.571103
2996.000000	98.572887
2995.000000	98.575317
2994.000000	98.578119
2993.000000	98.580828
2992.000000	98.583318
2991.000000	98.586017
2990.000000	98.589481
2989.000000	98.593679
2988.000000	98.597764
2987.000000	98.600750
2986.000000	98.602422
2985.000000	98.603487
2984.000000	98.604844
2983.000000	98.606881
2982.000000	98.609344
2981.000000	98.611576
2980.000000	98.613047
2979.000000	98.614242
2978.000000	98.616896
2977.000000	98.622473
2976.000000	98.630180
2975.000000	98.637120
2974.000000	98.641193
2973.000000	98.643191
2972.000000	98.645503
2971.000000	98.649290
2970.000000	98.653905
2969.000000	98.658656
2968.000000	98.663398
2967.000000	98.667046
2966.000000	98.667529
2965.000000	98.664898
2964.000000	98.663187
2963.000000	98.666916
2962.000000	98.675837
2961.000000	98.684688
2960.000000	98.688389
2959.000000	98.686436
2958.000000	98.682313
2957.000000	98.679994
2956.000000	98.681329
2955.000000	98.685503
2954.000000	98.690067
2953.000000	98.692918
2952.000000	98.693883
2951.000000	98.694365
2950.000000	98.695618
2949.000000	98.697862
2948.000000	98.700939
2947.000000	98.705028
2946.000000	98.710541
2945.000000	98.717943
2944.000000	98.727746
2943.000000	98.739750
2942.000000	98.751889
2941.000000	98.760821
2940.000000	98.764757
2939.000000	98.765769
2938.000000	98.768865
2937.000000	98.778621
2936.000000	98.796247
2935.000000	98.818799
2934.000000	98.840905
2933.000000	98.858362
2932.000000	98.871310
2931.000000	98.883746
2930.000000	98.899335
2929.000000	98.917697
2928.000000	98.935029
2927.000000	98.947715
2926.000000	98.954537
2925.000000	98.956283
2924.000000	98.954564
2923.000000	98.950943
2922.000000	98.945948
2921.000000	98.938315
2920.000000	98.926044
2919.000000	98.908799
2918.000000	98.889015
2917.000000	98.870336
2916.000000	98.854825
2915.000000	98.841347
2914.000000	98.826465
2913.000000	98.807462
2912.000000	98.785436
2911.000000	98.765426
2910.000000	98.752541
2909.000000	98.747510
2908.000000	98.746342
2907.000000	98.744305
2906.000000	98.739712
2905.000000	98.733919
2904.000000	98.728762
2903.000000	98.724820
2902.000000	98.721620
2901.000000	98.718459
2900.000000	98.714796
2899.000000	98.710342
2898.000000	98.705206
2897.000000	98.700076
2896.000000	98.696109
2895.000000	98.694136
2894.000000	98.693544
2893.000000	98.692204
2892.000000	98.688164
2891.000000	98.681458
2890.000000	98.673829
2889.000000	98.667076
2888.000000	98.662462
2887.000000	98.661174
2886.000000	98.663523
2885.000000	98.667091
2884.000000	98.667338
2883.000000	98.661806
2882.000000	98.653337
2881.000000	98.647802
2880.000000	98.648743
2879.000000	98.654894
2878.000000	98.662388
2877.000000	98.668248
2876.000000	98.671852
2875.000000	98.674327
2874.000000	98.677173
2873.000000	98.680781
2872.000000	98.683833
2871.000000	98.684693
2870.000000	98.683716
2869.000000	98.683527
2868.000000	98.686327
2867.000000	98.691273
2866.000000	98.695132
2865.000000	98.695541
2864.000000	98.693350
2863.000000	98.692024
2862.000000	98.695137
2861.000000	98.704283
2860.000000	98.718592
2859.000000	98.735552
2858.000000	98.752140
2857.000000	98.765527
2856.000000	98.773542
2855.000000	98.775198
2854.000000	98.771021
2853.000000	98.762748
2852.000000	98.752581
2851.000000	98.742557
2850.000000	98.734055
2849.000000	98.727262
2848.000000	98.721045
2847.000000	98.713680
2846.000000	98.703816
2845.000000	98.690813
2844.000000	98.674970
2843.000000	98.658253
2842.000000	98.644368
2841.000000	98.636572
2840.000000	98.634700
2839.000000	98.634953
2838.000000	98.633313
2837.000000	98.629013
2836.000000	98.624326
2835.000000	98.621601
2834.000000	98.621132
2833.000000	98.621512
2832.000000	98.621315
2831.000000	98.620302
2830.000000	98.619326
2829.000000	98.619139
2828.000000	98.619325
2827.000000	98.618635
2826.000000	98.616344
2825.000000	98.612796
2824.000000	98.608527
2823.000000	98.603695
2822.000000	98.598967
2821.000000	98.596159
2820.000000	98.596832
2819.000000	98.600325
2818.000000	98.604045
2817.000000	98.606049
2816.000000	98.606761
2815.000000	98.607930
2814.000000	98.610497
2813.000000	98.613797
2812.000000	98.616382
2811.000000	98.617230
2810.000000	98.616395
2809.000000	98.614878
2808.000000	98.613802
2807.000000	98.613444
2806.000000	98.613023
2805.000000	98.611609
2804.000000	98.609242
2803.000000	98.607050
2802.000000	98.606249
2801.000000	98.607089
2800.000000	98.608768
2799.000000	98.610190
2798.000000	98.610727
2797.000000	98.610475
2796.000000	98.610139
2795.000000	98.610719
2794.000000	98.612840
2793.000000	98.616009
2792.000000	98.618601
2791.000000	98.619013
2790.000000	98.616999
2789.000000	98.613895
2788.000000	98.611662
2787.000000	98.611690
2786.000000	98.614339
2785.000000	98.619006
2784.000000	98.624364
2783.000000	98.628985
2782.000000	98.632150
2781.000000	98.633979
2780.000000	98.634735
2779.000000	98.634295
2778.000000	98.632493
2777.000000	98.629740
2776.000000	98.627025
2775.000000	98.625242
2774.000000	98.624639
2773.000000	98.624724
2772.000000	98.624590
2771.000000	98.623677
2770.000000	98.622477
2769.000000	98.622096
2768.000000	98.622803
2767.000000	98.623413
2766.000000	98.622698
2765.000000	98.621233
2764.000000	98.621087
2763.000000	98.623679
2762.000000	98.628590
2761.000000	98.634180
2760.000000	98.638843
2759.000000	98.641654
2758.000000	98.642424
2757.000000	98.641701
2756.000000	98.640450
2755.000000	98.639326
2754.000000	98.638399
2753.000000	98.637637
2752.000000	98.637221
2751.000000	98.637216
2750.000000	98.637363
2749.000000	98.637512
2748.000000	98.637957
2747.000000	98.639034
2746.000000	98.640608
2745.000000	98.642165
2744.000000	98.643217
2743.000000	98.643469
2742.000000	98.642943
2741.000000	98.642181
2740.000000	98.642013
2739.000000	98.642707
2738.000000	98.643513
2737.000000	98.643454
2736.000000	98.642546
2735.000000	98.641948
2734.000000	98.642800
2733.000000	98.645187
2732.000000	98.648183
2731.000000	98.650623
2730.000000	98.651888
2729.000000	98.652052
2728.000000	98.651572
2727.000000	98.650868
2726.000000	98.650102
2725.000000	98.649382
2724.000000	98.649042
2723.000000	98.649532
2722.000000	98.651059
2721.000000	98.653373
2720.000000	98.655779
2719.000000	98.657513
2718.000000	98.658240
2717.000000	98.658323
2716.000000	98.658524
2715.000000	98.659200
2714.000000	98.659999
2713.000000	98.660483
2712.000000	98.660811
2711.000000	98.661485
2710.000000	98.662590
2709.000000	98.663691
2708.000000	98.664482
2707.000000	98.665126
2706.000000	98.665881
2705.000000	98.666726
2704.000000	98.667496
2703.000000	98.668074
2702.000000	98.668294
2701.000000	98.667918
2700.000000	98.666885
2699.000000	98.665480
2698.000000	98.664184
2697.000000	98.663444
2696.000000	98.663522
2695.000000	98.664344
2694.000000	98.665399
2693.000000	98.666027
2692.000000	98.665967
2691.000000	98.665509
2690.000000	98.665136
2689.000000	98.665100
2688.000000	98.665390
2687.000000	98.665845
2686.000000	98.666190
2685.000000	98.666137
2684.000000	98.665690
2683.000000	98.665307
2682.000000	98.665534
2681.000000	98.666442
2680.000000	98.667476
2679.000000	98.667878
2678.000000	98.667339
2677.000000	98.666212
2676.000000	98.665259
2675.000000	98.665020
2674.000000	98.665472
2673.000000	98.666193
2672.000000	98.666767
2671.000000	98.667001
2670.000000	98.666836
2669.000000	98.666323
2668.000000	98.665737
2667.000000	98.665504
2666.000000	98.665871
2665.000000	98.666747
2664.000000	98.667896
2663.000000	98.669149
2662.000000	98.670320
2661.000000	98.671143
2660.000000	98.671458
2659.000000	98.671381
2658.000000	98.671180
2657.000000	98.671097
2656.000000	98.671360
2655.000000	98.672055
2654.000000	98.672718
2653.000000	98.672442
2652.000000	98.670821
2651.000000	98.668620
2650.000000	98.667097
2649.000000	98.666618
2648.000000	98.666536
2647.000000	98.666319
2646.000000	98.666237
2645.000000	98.666625
2644.000000	98.667094
2643.000000	98.667003
2642.000000	98.666427
2641.000000	98.666080
2640.000000	98.666375
2639.000000	98.667041
2638.000000	98.667626
2637.000000	98.667964
2636.000000	98.667988
2635.000000	98.667520
2634.000000	98.666617
2633.000000	98.665927
2632.000000	98.666289
2631.000000	98.667870
2630.000000	98.669903
2629.000000	98.671285
2628.000000	98.671517
2627.000000	98.670921
2626.000000	98.670164
2625.000000	98.669775
2624.000000	98.670081
2623.000000	98.671272
2622.000000	98.673161
2621.000000	98.674955
2620.000000	98.675727
2619.000000	98.675185
2618.000000	98.673792
2617.000000	98.672173
2616.000000	98.670572
2615.000000	98.669047
2614.000000	98.667913
2613.000000	98.667645
2612.000000	98.668384
2611.000000	98.669725
2610.000000	98.670988
2609.000000	98.671685
2608.000000	98.671815
2607.000000	98.671808
2606.000000	98.672129
2605.000000	98.672823
2604.000000	98.673562
2603.000000	98.674162
2602.000000	98.674864
2601.000000	98.675878
2600.000000	98.676834
2599.000000	98.677090
2598.000000	98.676585
2597.000000	98.676003
2596.000000	98.675962
2595.000000	98.676308
2594.000000	98.676505
2593.000000	98.676447
2592.000000	98.676546
2591.000000	98.677099
2590.000000	98.677937
2589.000000	98.678677
2588.000000	98.679020
2587.000000	98.678697
2586.000000	98.677511
2585.000000	98.675747
2584.000000	98.674306
2583.000000	98.673977
2582.000000	98.674764
2581.000000	98.675944
2580.000000	98.676802
2579.000000	98.677248
2578.000000	98.677568
2577.000000	98.677914
2576.000000	98.678208
2575.000000	98.678362
2574.000000	98.678395
2573.000000	98.678359
2572.000000	98.678290
2571.000000	98.678204
2570.000000	98.678103
2569.000000	98.678001
2568.000000	98.678011
2567.000000	98.678328
2566.000000	98.678997
2565.000000	98.679725
2564.000000	98.680092
2563.000000	98.679985
2562.000000	98.679722
2561.000000	98.679736
2560.000000	98.680190
2559.000000	98.680925
2558.000000	98.681705
2557.000000	98.682432
2556.000000	98.683141
2555.000000	98.683887
2554.000000	98.684665
2553.000000	98.685387
2552.000000	98.685923
2551.000000	98.686184
2550.000000	98.686215
2549.000000	98.686188
2548.000000	98.686260
2547.000000	98.686405
2546.000000	98.686482
2545.000000	98.686468
2544.000000	98.686564
2543.000000	98.687022
2542.000000	98.687868
2541.000000	98.688848
2540.000000	98.689568
2539.000000	98.689751
2538.000000	98.689368
2537.000000	98.688709
2536.000000	98.688279
2535.000000	98.688357
2534.000000	98.688698
2533.000000	98.688837
2532.000000	98.688731
2531.000000	98.688887
2530.000000	98.689683
2529.000000	98.690823
2528.000000	98.691601
2527.000000	98.691655
2526.000000	98.691187
2525.000000	98.690648
2524.000000	98.690382
2523.000000	98.690547
2522.000000	98.691114
2521.000000	98.691833
2520.000000	98.692449
2519.000000	98.693048
2518.000000	98.693931
2517.000000	98.695070
2516.000000	98.695968
2515.000000	98.696248
2514.000000	98.696170
2513.000000	98.696313
2512.000000	98.696810
2511.000000	98.697156
2510.000000	98.696755
2509.000000	98.695549
2508.000000	98.694162
2507.000000	98.693466
2506.000000	98.693798
2505.000000	98.694635
2504.000000	98.695219
2503.000000	98.695489
2502.000000	98.696091
2501.000000	98.697483
2500.000000	98.699410
2499.000000	98.701333
2498.000000	98.703057
2497.000000	98.704683
2496.000000	98.706215
2495.000000	98.707551
2494.000000	98.708678
2493.000000	98.709598
2492.000000	98.710140
2491.000000	98.710091
2490.000000	98.709460
2489.000000	98.708526
2488.000000	98.707695
2487.000000	98.707402
2486.000000	98.707965
2485.000000	98.709341
2484.000000	98.711027
2483.000000	98.712391
2482.000000	98.713137
2481.000000	98.713406
2480.000000	98.713558
2479.000000	98.713920
2478.000000	98.714600
2477.000000	98.715406
2476.000000	98.716004
2475.000000	98.716299
2474.000000	98.716662
2473.000000	98.717688
2472.000000	98.719701
2471.000000	98.722476
2470.000000	98.725300
2469.000000	98.727343
2468.000000	98.728170
2467.000000	98.727986
2466.000000	98.727526
2465.000000	98.727613
2464.000000	98.728700
2463.000000	98.730692
2462.000000	98.732948
2461.000000	98.734568
2460.000000	98.735045
2459.000000	98.734643
2458.000000	98.734105
2457.000000	98.733924
2456.000000	98.734067
2455.000000	98.734397
2454.000000	98.734972
2453.000000	98.735788
2452.000000	98.736557
2451.000000	98.736994
2450.000000	98.737130
2449.000000	98.737150
2448.000000	98.737114
2447.000000	98.737100
2446.000000	98.737427
2445.000000	98.738338
2444.000000	98.739526
2443.000000	98.740341
2442.000000	98.740590
2441.000000	98.740780
2440.000000	98.741486
2439.000000	98.742698
2438.000000	98.743906
2437.000000	98.744612
2436.000000	98.744646
2435.000000	98.744155
2434.000000	98.743489
2433.000000	98.743040
2432.000000	98.743072
2431.000000	98.743671
2430.000000	98.744731
2429.000000	98.745919
2428.000000	98.746841
2427.000000	98.747455
2426.000000	98.748180
2425.000000	98.749343
2424.000000	98.750653
2423.000000	98.751602
2422.000000	98.752274
2421.000000	98.753302
2420.000000	98.754924
2419.000000	98.756513
2418.000000	98.757296
2417.000000	98.757165
2416.000000	98.756601
2415.000000	98.756040
2414.000000	98.755593
2413.000000	98.755241
2412.000000	98.754996
2411.000000	98.754879
2410.000000	98.754882
2409.000000	98.754960
2408.000000	98.755068
2407.000000	98.755286
2406.000000	98.755928
2405.000000	98.757328
2404.000000	98.759456
2403.000000	98.761752
2402.000000	98.763492
2401.000000	98.764304
2400.000000	98.764279
2399.000000	98.763798
2398.000000	98.763240
2397.000000	98.762918
2396.000000	98.763104
2395.000000	98.763915
2394.000000	98.765253
2393.000000	98.766706
2392.000000	98.767824
2391.000000	98.768533
2390.000000	98.769081
2389.000000	98.769703
2388.000000	98.770394
2387.000000	98.771028
2386.000000	98.771564
2385.000000	98.772064
2384.000000	98.772577
2383.000000	98.773091
2382.000000	98.773594
2381.000000	98.774089
2380.000000	98.774575
2379.000000	98.775048
2378.000000	98.775511
2377.000000	98.775967
2376.000000	98.776425
2375.000000	98.776887
2374.000000	98.777347
2373.000000	98.777798
2372.000000	98.778233
2371.000000	98.778651
2370.000000	98.779051
2369.000000	98.779434
2368.000000	98.779797
2367.000000	98.780142
2366.000000	98.780473
2365.000000	98.780793
2364.000000	98.781103
2363.000000	98.781398
2362.000000	98.781672
2361.000000	98.781917
2360.000000	98.782137
2359.000000	98.782344
2358.000000	98.782552
2357.000000	98.782767
2356.000000	98.782978
2355.000000	98.783166
2354.000000	98.783317
2353.000000	98.783433
2352.000000	98.783533
2351.000000	98.783635
2350.000000	98.783742
2349.000000	98.783846
2348.000000	98.783936
2347.000000	98.784008
2346.000000	98.784070
2345.000000	98.784134
2344.000000	98.784206
2343.000000	98.784278
2342.000000	98.784342
2341.000000	98.784395
2340.000000	98.784434
2339.000000	98.784456
2338.000000	98.784458
2337.000000	98.784446
2336.000000	98.784429
2335.000000	98.784411
2334.000000	98.784385
2333.000000	98.784341
2332.000000	98.784274
2331.000000	98.784192
2330.000000	98.784105
2329.000000	98.784020
2328.000000	98.783940
2327.000000	98.783860
2326.000000	98.783777
2325.000000	98.783685
2324.000000	98.783579
2323.000000	98.783451
2322.000000	98.783295
2321.000000	98.783111
2320.000000	98.782905
2319.000000	98.782687
2318.000000	98.782461
2317.000000	98.782223
2316.000000	98.781962
2315.000000	98.781669
2314.000000	98.781344
2313.000000	98.781000
2312.000000	98.780654
2311.000000	98.780315
2310.000000	98.779973
2309.000000	98.779611
2308.000000	98.779220
2307.000000	98.778804
2306.000000	98.778375
2305.000000	98.777941
2304.000000	98.777498
2303.000000	98.777038
2302.000000	98.776554
2301.000000	98.776049
2300.000000	98.775530
2299.000000	98.775003
2298.000000	98.774479
2297.000000	98.773964
2296.000000	98.773468
2295.000000	98.772989
2294.000000	98.772520
2293.000000	98.772048
2292.000000	98.771566
2291.000000	98.771076
2290.000000	98.770585
2289.000000	98.770096
2288.000000	98.769611
2287.000000	98.769131
2286.000000	98.768652
2285.000000	98.768175
2284.000000	98.767700
2283.000000	98.767228
2282.000000	98.766762
2281.000000	98.766302
2280.000000	98.765852
2279.000000	98.765411
2278.000000	98.764976
2277.000000	98.764545
2276.000000	98.764113
2275.000000	98.763675
2274.000000	98.763241
2273.000000	98.762838
2272.000000	98.762488
2271.000000	98.762189
2270.000000	98.761904
2269.000000	98.761587
2268.000000	98.761211
2267.000000	98.760818
2266.000000	98.760492
2265.000000	98.760264
2264.000000	98.760032
2263.000000	98.759642
2262.000000	98.759046
2261.000000	98.758382
2260.000000	98.757863
2259.000000	98.757661
2258.000000	98.757873
2257.000000	98.758479
2256.000000	98.759225
2255.000000	98.759703
2254.000000	98.759663
2253.000000	98.759177
2252.000000	98.758494
2251.000000	98.757789
2250.000000	98.757182
2249.000000	98.756902
2248.000000	98.757140
2247.000000	98.757748
2246.000000	98.758296
2245.000000	98.758517
2244.000000	98.758531
2243.000000	98.758536
2242.000000	98.758399
2241.000000	98.757771
2240.000000	98.756595
2239.000000	98.755377
2238.000000	98.754778
2237.000000	98.754942
2236.000000	98.755374
2235.000000	98.755545
2234.000000	98.755450
2233.000000	98.755354
2232.000000	98.755180
2231.000000	98.754657
2230.000000	98.754022
2229.000000	98.754036
2228.000000	98.755025
2227.000000	98.756317
2226.000000	98.756965
2225.000000	98.756833
2224.000000	98.756614
2223.000000	98.756970
2222.000000	98.757978
2221.000000	98.759233
2220.000000	98.760186
2219.000000	98.760530
2218.000000	98.760547
2217.000000	98.760964
2216.000000	98.762248
2215.000000	98.764196
2214.000000	98.766308
2213.000000	98.768291
2212.000000	98.769971
2211.000000	98.771099
2210.000000	98.771636
2209.000000	98.771975
2208.000000	98.772535
2207.000000	98.773280
2206.000000	98.773981
2205.000000	98.774698
2204.000000	98.775552
2203.000000	98.776231
2202.000000	98.776326
2201.000000	98.776124
2200.000000	98.776503
2199.000000	98.777859
2198.000000	98.779530
2197.000000	98.780505
2196.000000	98.780461
2195.000000	98.779839
2194.000000	98.779293
2193.000000	98.779230
2192.000000	98.779738
2191.000000	98.780634
2190.000000	98.781516
2189.000000	98.782014
2188.000000	98.782092
2187.000000	98.782041
2186.000000	98.782197
2185.000000	98.782666
2184.000000	98.783308
2183.000000	98.783897
2182.000000	98.784296
2181.000000	98.784536
2180.000000	98.784748
2179.000000	98.785031
2178.000000	98.785377
2177.000000	98.785721
2176.000000	98.786033
2175.000000	98.786351
2174.000000	98.786745
2173.000000	98.787260
2172.000000	98.787866
2171.000000	98.788430
2170.000000	98.788780
2169.000000	98.788856
2168.000000	98.788767
2167.000000	98.788684
2166.000000	98.788679
2165.000000	98.788740
2164.000000	98.788841
2163.000000	98.788978
2162.000000	98.789148
2161.000000	98.789345
2160.000000	98.789577
2159.000000	98.789841
2158.000000	98.790082
2157.000000	98.790225
2156.000000	98.790283
2155.000000	98.790366
2154.000000	98.790563
2153.000000	98.790862
2152.000000	98.791206
2151.000000	98.791563
2150.000000	98.791891
2149.000000	98.792110
2148.000000	98.792189
2147.000000	98.792227
2146.000000	98.792383
2145.000000	98.792727
2144.000000	98.793204
2143.000000	98.793718
2142.000000	98.794190
2141.000000	98.794556
2140.000000	98.794787
2139.000000	98.794945
2138.000000	98.795179
2137.000000	98.795585
2136.000000	98.796116
2135.000000	98.796641
2134.000000	98.797075
2133.000000	98.797414
2132.000000	98.797694
2131.000000	98.797969
2130.000000	98.798309
2129.000000	98.798751
2128.000000	98.799226
2127.000000	98.799579
2126.000000	98.799707
2125.000000	98.799668
2124.000000	98.799720
2123.000000	98.800154
2122.000000	98.801071
2121.000000	98.802288
2120.000000	98.803445
2119.000000	98.804306
2118.000000	98.804908
2117.000000	98.805479
2116.000000	98.806241
2115.000000	98.807248
2114.000000	98.808388
2113.000000	98.809460
2112.000000	98.810301
2111.000000	98.810883
2110.000000	98.811348
2109.000000	98.811945
2108.000000	98.812846
2107.000000	98.814053
2106.000000	98.815427
2105.000000	98.816777
2104.000000	98.817954
2103.000000	98.818903
2102.000000	98.819660
2101.000000	98.820293
2100.000000	98.820834
2099.000000	98.821291
2098.000000	98.821742
2097.000000	98.822359
2096.000000	98.823289
2095.000000	98.824488
2094.000000	98.825688
2093.000000	98.826587
2092.000000	98.827125
2091.000000	98.827579
2090.000000	98.828352
2089.000000	98.829617
2088.000000	98.831146
2087.000000	98.832518
2086.000000	98.833557
2085.000000	98.834467
2084.000000	98.835557
2083.000000	98.836910
2082.000000	98.838366
2081.000000	98.839674
2080.000000	98.840587
2079.000000	98.840972
2078.000000	98.840962
2077.000000	98.840973
2076.000000	98.841437
2075.000000	98.842502
2074.000000	98.843990
2073.000000	98.845510
2072.000000	98.846630
2071.000000	98.847083
2070.000000	98.846908
2069.000000	98.846394
2068.000000	98.845886
2067.000000	98.845604
2066.000000	98.845560
2065.000000	98.845534
2064.000000	98.845308
2063.000000	98.845093
2062.000000	98.845502
2061.000000	98.846778
2060.000000	98.848189
2059.000000	98.848661
2058.000000	98.848041
2057.000000	98.847245
2056.000000	98.847023
2055.000000	98.847001
2054.000000	98.846399
2053.000000	98.845326
2052.000000	98.844856
2051.000000	98.845823
2050.000000	98.847833
2049.000000	98.849484
2048.000000	98.849577
2047.000000	98.847970
2046.000000	98.845505
2045.000000	98.843235
2044.000000	98.841567
2043.000000	98.840199
2042.000000	98.838695
2041.000000	98.836959
2040.000000	98.835272
2039.000000	98.834030
2038.000000	98.833425
2037.000000	98.833173
2036.000000	98.832589
2035.000000	98.831212
2034.000000	98.829397
2033.000000	98.828044
2032.000000	98.827624
2031.000000	98.827724
2030.000000	98.827578
2029.000000	98.826805
2028.000000	98.825502
2027.000000	98.823874
2026.000000	98.822153
2025.000000	98.820696
2024.000000	98.819830
2023.000000	98.819552
2022.000000	98.819526
2021.000000	98.819395
2020.000000	98.818969
2019.000000	98.818131
2018.000000	98.816806
2017.000000	98.815127
2016.000000	98.813471
2015.000000	98.812166
2014.000000	98.811218
2013.000000	98.810427
2012.000000	98.809658
2011.000000	98.808970
2010.000000	98.808514
2009.000000	98.808316
2008.000000	98.808157
2007.000000	98.807689
2006.000000	98.806775
2005.000000	98.805637
2004.000000	98.804688
2003.000000	98.804205
2002.000000	98.804151
2001.000000	98.804279
2000.000000	98.804228
1999.000000	98.803718
1998.000000	98.802799
1997.000000	98.801800
1996.000000	98.800909
1995.000000	98.799931
1994.000000	98.798634
1993.000000	98.797173
1992.000000	98.795936
1991.000000	98.795022
1990.000000	98.794244
1989.000000	98.793614
1988.000000	98.793504
1987.000000	98.794250
1986.000000	98.795698
1985.000000	98.797138
1984.000000	98.797650
1983.000000	98.796690
1982.000000	98.794594
1981.000000	98.792557
1980.000000	98.791550
1979.000000	98.791568
1978.000000	98.792051
1977.000000	98.792729
1976.000000	98.793764
1975.000000	98.795251
1974.000000	98.797050
1973.000000	98.798985
1972.000000	98.800783
1971.000000	98.801928
1970.000000	98.802028
1969.000000	98.801308
1968.000000	98.800459
1967.000000	98.799898
1966.000000	98.799522
1965.000000	98.799268
1964.000000	98.799405
1963.000000	98.799945
1962.000000	98.800245
1961.000000	98.799700
1960.000000	98.798702
1959.000000	98.798325
1958.000000	98.798933
1957.000000	98.799659
1956.000000	98.799601
1955.000000	98.799124
1954.000000	98.799509
1953.000000	98.801299
1952.000000	98.803835
1951.000000	98.806230
1950.000000	98.808257
1949.000000	98.810044
1948.000000	98.811199
1947.000000	98.811014
1946.000000	98.809554
1945.000000	98.807813
1944.000000	98.806515
1943.000000	98.805255
1942.000000	98.803355
1941.000000	98.801070
1940.000000	98.799279
1939.000000	98.798499
1938.000000	98.798650
1937.000000	98.799182
1936.000000	98.799287
1935.000000	98.798507
1934.000000	98.797489
1933.000000	98.797581
1932.000000	98.799441
1931.000000	98.801964
1930.000000	98.803279
1929.000000	98.802807
1928.000000	98.801230
1927.000000	98.799436
1926.000000	98.797680
1925.000000	98.796110
1924.000000	98.794914
1923.000000	98.793641
1922.000000	98.791624
1921.000000	98.789146
1920.000000	98.787238
1919.000000	98.786393
1918.000000	98.785736
1917.000000	98.784185
1916.000000	98.781513
1915.000000	98.777803
1914.000000	98.773289
1913.000000	98.768890
1912.000000	98.766017
1911.000000	98.765321
1910.000000	98.766172
1909.000000	98.767521
1908.000000	98.768350
1907.000000	98.767777
1906.000000	98.765048
1905.000000	98.760623
1904.000000	98.756291
1903.000000	98.753194
1902.000000	98.750926
1901.000000	98.748838
1900.000000	98.746911
1899.000000	98.745371
1898.000000	98.743880
1897.000000	98.742016
1896.000000	98.739942
1895.000000	98.737863
1894.000000	98.735727
1893.000000	98.733775
1892.000000	98.732419
1891.000000	98.731216
1890.000000	98.728795
1889.000000	98.724848
1888.000000	98.721252
1887.000000	98.719700
1886.000000	98.719661
1885.000000	98.719368
1884.000000	98.717914
1883.000000	98.715597
1882.000000	98.712931
1881.000000	98.710304
1880.000000	98.708306
1879.000000	98.707921
1878.000000	98.709641
1877.000000	98.712537
1876.000000	98.714997
1875.000000	98.715891
1874.000000	98.714886
1873.000000	98.712519
1872.000000	98.710232
1871.000000	98.709929
1870.000000	98.712662
1869.000000	98.717088
1868.000000	98.720334
1867.000000	98.721078
1866.000000	98.720679
1865.000000	98.721569
1864.000000	98.725048
1863.000000	98.730218
1862.000000	98.734756
1861.000000	98.736954
1860.000000	98.737201
1859.000000	98.737732
1858.000000	98.740745
1857.000000	98.746296
1856.000000	98.751858
1855.000000	98.754686
1854.000000	98.754647
1853.000000	98.754651
1852.000000	98.757029
1851.000000	98.761433
1850.000000	98.766094
1849.000000	98.769712
1848.000000	98.772088
1847.000000	98.773730
1846.000000	98.775712
1845.000000	98.778750
1844.000000	98.781698
1843.000000	98.783000
1842.000000	98.782970
1841.000000	98.783073
1840.000000	98.784116
1839.000000	98.785698
1838.000000	98.786875
1837.000000	98.787839
1836.000000	98.789542
1835.000000	98.791654
1834.000000	98.792619
1833.000000	98.791604
1832.000000	98.789140
1831.000000	98.786727
1830.000000	98.785574
1829.000000	98.786248
1828.000000	98.789015
1827.000000	98.793352
1826.000000	98.797908
1825.000000	98.800838
1824.000000	98.801385
1823.000000	98.800536
1822.000000	98.799366
1821.000000	98.798198
1820.000000	98.797196
1819.000000	98.796811
1818.000000	98.796945
1817.000000	98.796960
1816.000000	98.796406
1815.000000	98.794817
1814.000000	98.791902
1813.000000	98.787952
1812.000000	98.784553
1811.000000	98.783402
1810.000000	98.784222
1809.000000	98.785653
1808.000000	98.786931
1807.000000	98.787823
1806.000000	98.788348
1805.000000	98.789187
1804.000000	98.791356
1803.000000	98.794148
1802.000000	98.795360
1801.000000	98.793389
1800.000000	98.789767
1799.000000	98.787515
1798.000000	98.787551
1797.000000	98.788828
1796.000000	98.790406
1795.000000	98.792189
1794.000000	98.794763
1793.000000	98.797700
1792.000000	98.799337
1791.000000	98.799016
1790.000000	98.797911
1789.000000	98.797794
1788.000000	98.799850
1787.000000	98.803460
1786.000000	98.806246
1785.000000	98.806614
1784.000000	98.805979
1783.000000	98.806480
1782.000000	98.809542
1781.000000	98.814635
1780.000000	98.820349
1779.000000	98.826235
1778.000000	98.832628
1777.000000	98.839660
1776.000000	98.846186
1775.000000	98.851051
1774.000000	98.854862
1773.000000	98.858500
1772.000000	98.861524
1771.000000	98.864890
1770.000000	98.869432
1769.000000	98.873579
1768.000000	98.875751
1767.000000	98.876259
1766.000000	98.877267
1765.000000	98.880396
1764.000000	98.886331
1763.000000	98.894792
1762.000000	98.903791
1761.000000	98.910159
1760.000000	98.913040
1759.000000	98.913666
1758.000000	98.913990
1757.000000	98.915283
1756.000000	98.916999
1755.000000	98.918956
1754.000000	98.921598
1753.000000	98.924784
1752.000000	98.926784
1751.000000	98.926289
1750.000000	98.925291
1749.000000	98.927710
1748.000000	98.934157
1747.000000	98.941279
1746.000000	98.945993
1745.000000	98.946852
1744.000000	98.944494
1743.000000	98.941403
1742.000000	98.940138
1741.000000	98.941303
1740.000000	98.943270
1739.000000	98.943290
1738.000000	98.940630
1737.000000	98.936355
1736.000000	98.932700
1735.000000	98.931321
1734.000000	98.929138
1733.000000	98.925254
1732.000000	98.922792
1731.000000	98.921539
1730.000000	98.919952
1729.000000	98.917735
1728.000000	98.915034
1727.000000	98.911831
1726.000000	98.908260
1725.000000	98.904493
1724.000000	98.901761
1723.000000	98.901136
1722.000000	98.901629
1721.000000	98.901513
1720.000000	98.900638
1719.000000	98.900512
1718.000000	98.900508
1717.000000	98.898822
1716.000000	98.896886
1715.000000	98.895623
1714.000000	98.893500
1713.000000	98.889955
1712.000000	98.886098
1711.000000	98.882627
1710.000000	98.879413
1709.000000	98.876532
1708.000000	98.874012
1707.000000	98.871392
1706.000000	98.867700
1705.000000	98.863371
1704.000000	98.860538
1703.000000	98.859794
1702.000000	98.861051
1701.000000	98.863917
1700.000000	98.865284
1699.000000	98.864324
1698.000000	98.861628
1697.000000	98.857428
1696.000000	98.853374
1695.000000	98.850701
1694.000000	98.849194
1693.000000	98.847407
1692.000000	98.844797
1691.000000	98.841975
1690.000000	98.839104
1689.000000	98.835896
1688.000000	98.832113
1687.000000	98.828366
1686.000000	98.825910
1685.000000	98.825258
1684.000000	98.824807
1683.000000	98.824812
1682.000000	98.826203
1681.000000	98.827538
1680.000000	98.827609
1679.000000	98.826700
1678.000000	98.825862
1677.000000	98.825623
1676.000000	98.825439
1675.000000	98.824400
1674.000000	98.823055
1673.000000	98.822021
1672.000000	98.821112
1671.000000	98.820365
1670.000000	98.820154
1669.000000	98.820498
1668.000000	98.820809
1667.000000	98.820616
1666.000000	98.820074
1665.000000	98.819571
1664.000000	98.819303
1663.000000	98.818923
1662.000000	98.818248
1661.000000	98.817686
1660.000000	98.817518
1659.000000	98.817723
1658.000000	98.818120
1657.000000	98.818372
1656.000000	98.818036
1655.000000	98.817118
1654.000000	98.815935
1653.000000	98.814401
1652.000000	98.813780
1651.000000	98.814755
1650.000000	98.816110
1649.000000	98.816997
1648.000000	98.817403
1647.000000	98.817299
1646.000000	98.816851
1645.000000	98.816837
1644.000000	98.817748
1643.000000	98.819317
1642.000000	98.821038
1641.000000	98.822329
1640.000000	98.822647
1639.000000	98.822085
1638.000000	98.821343
1637.000000	98.821419
1636.000000	98.821978
1635.000000	98.822019
1634.000000	98.822236
1633.000000	98.823174
1632.000000	98.824294
1631.000000	98.825096
1630.000000	98.825684
1629.000000	98.826608
1628.000000	98.828278
1627.000000	98.830576
1626.000000	98.833371
1625.000000	98.836238
1624.000000	98.838001
1623.000000	98.837365
1622.000000	98.835476
1621.000000	98.834714
1620.000000	98.834888
1619.000000	98.834694
1618.000000	98.834147
1617.000000	98.833980
1616.000000	98.834653
1615.000000	98.837311
1614.000000	98.842457
1613.000000	98.849298
1612.000000	98.856296
1611.000000	98.861440
1610.000000	98.864715
1609.000000	98.868344
1608.000000	98.873419
1607.000000	98.878263
1606.000000	98.881575
1605.000000	98.883694
1604.000000	98.885062
1603.000000	98.886279
1602.000000	98.888571
1601.000000	98.893038
1600.000000	98.899550
1599.000000	98.907129
1598.000000	98.914816
1597.000000	98.921316
1596.000000	98.924963
1595.000000	98.925018
1594.000000	98.923065
1593.000000	98.921756
1592.000000	98.922025
1591.000000	98.922851
1590.000000	98.923559
1589.000000	98.924823
1588.000000	98.927264
1587.000000	98.930608
1586.000000	98.934399
1585.000000	98.938853
1584.000000	98.942929
1583.000000	98.944732
1582.000000	98.944063
1581.000000	98.942588
1580.000000	98.941621
1579.000000	98.941729
1578.000000	98.943678
1577.000000	98.946346
1576.000000	98.945235
1575.000000	98.939736
1574.000000	98.935250
1573.000000	98.933672
1572.000000	98.932912
1571.000000	98.931235
1570.000000	98.928596
1569.000000	98.927507
1568.000000	98.929067
1567.000000	98.931513
1566.000000	98.933526
1565.000000	98.935867
1564.000000	98.937886
1563.000000	98.937640
1562.000000	98.933752
1561.000000	98.928930
1560.000000	98.927266
1559.000000	98.926056
1558.000000	98.924306
1557.000000	98.926156
1556.000000	98.927615
1555.000000	98.925093
1554.000000	98.920692
1553.000000	98.917396
1552.000000	98.915632
1551.000000	98.913889
1550.000000	98.910800
1549.000000	98.906995
1548.000000	98.903673
1547.000000	98.900325
1546.000000	98.896133
1545.000000	98.891918
1544.000000	98.889655
1543.000000	98.890530
1542.000000	98.892823
1541.000000	98.893304
1540.000000	98.889039
1539.000000	98.881157
1538.000000	98.874134
1537.000000	98.868317
1536.000000	98.862483
1535.000000	98.857119
1534.000000	98.851846
1533.000000	98.843545
1532.000000	98.832185
1531.000000	98.821199
1530.000000	98.812366
1529.000000	98.805928
1528.000000	98.801123
1527.000000	98.795883
1526.000000	98.788610
1525.000000	98.779774
1524.000000	98.771249
1523.000000	98.765357
1522.000000	98.762641
1521.000000	98.760372
1520.000000	98.756957
1519.000000	98.753055
1518.000000	98.748989
1517.000000	98.744071
1516.000000	98.737727
1515.000000	98.731193
1514.000000	98.726497
1513.000000	98.724102
1512.000000	98.723367
1511.000000	98.723012
1510.000000	98.722423
1509.000000	98.722540
1508.000000	98.725429
1507.000000	98.727995
1506.000000	98.724303
1505.000000	98.718566
1504.000000	98.714654
1503.000000	98.710859
1502.000000	98.706579
1501.000000	98.703073
1500.000000	98.701405
1499.000000	98.700950
1498.000000	98.699662
1497.000000	98.695322
1496.000000	98.688908
1495.000000	98.683017
1494.000000	98.678246
1493.000000	98.674158
1492.000000	98.671440
1491.000000	98.670491
1490.000000	98.670035
1489.000000	98.669435
1488.000000	98.669987
1487.000000	98.671389
1486.000000	98.671531
1485.000000	98.670923
1484.000000	98.670625
1483.000000	98.670392
1482.000000	98.669582
1481.000000	98.669034
1480.000000	98.670899
1479.000000	98.675496
1478.000000	98.680616
1477.000000	98.683705
1476.000000	98.685291
1475.000000	98.688431
1474.000000	98.696631
1473.000000	98.709767
1472.000000	98.722651
1471.000000	98.731611
1470.000000	98.737578
1469.000000	98.742399
1468.000000	98.746702
1467.000000	98.749701
1466.000000	98.751261
1465.000000	98.753651
1464.000000	98.758948
1463.000000	98.766380
1462.000000	98.772368
1461.000000	98.774579
1460.000000	98.773320
1459.000000	98.770790
1458.000000	98.768155
1457.000000	98.763993
1456.000000	98.760530
1455.000000	98.761443
1454.000000	98.764778
1453.000000	98.766934
1452.000000	98.766922
1451.000000	98.766153
1450.000000	98.766411
1449.000000	98.767457
1448.000000	98.767870
1447.000000	98.766434
1446.000000	98.764286
1445.000000	98.762979
1444.000000	98.762665
1443.000000	98.763310
1442.000000	98.764577
1441.000000	98.765951
1440.000000	98.766912
1439.000000	98.767709
1438.000000	98.768310
1437.000000	98.767334
1436.000000	98.764768
1435.000000	98.763993
1434.000000	98.766548
1433.000000	98.770829
1432.000000	98.774887
1431.000000	98.777238
1430.000000	98.777495
1429.000000	98.776710
1428.000000	98.777005
1427.000000	98.778920
1426.000000	98.781799
1425.000000	98.784950
1424.000000	98.787946
1423.000000	98.791648
1422.000000	98.796877
1421.000000	98.803627
1420.000000	98.810816
1419.000000	98.816746
1418.000000	98.821324
1417.000000	98.825658
1416.000000	98.829829
1415.000000	98.833455
1414.000000	98.836736
1413.000000	98.840122
1412.000000	98.843737
1411.000000	98.847136
1410.000000	98.849593
1409.000000	98.851173
1408.000000	98.853792
1407.000000	98.859015
1406.000000	98.866275
1405.000000	98.873420
1404.000000	98.878656
1403.000000	98.882021
1402.000000	98.883998
1401.000000	98.884993
1400.000000	98.886087
1399.000000	98.888752
1398.000000	98.893272
1397.000000	98.898473
1396.000000	98.903611
1395.000000	98.908585
1394.000000	98.913016
1393.000000	98.916168
1392.000000	98.918375
1391.000000	98.921719
1390.000000	98.927986
1389.000000	98.936169
1388.000000	98.942690
1387.000000	98.944940
1386.000000	98.944232
1385.000000	98.943560
1384.000000	98.943667
1383.000000	98.943451
1382.000000	98.942116
1381.000000	98.940330
1380.000000	98.939320
1379.000000	98.939056
1378.000000	98.938197
1377.000000	98.935741
1376.000000	98.932375
1375.000000	98.929942
1374.000000	98.929860
1373.000000	98.931811
1372.000000	98.934602
1371.000000	98.937599
1370.000000	98.940852
1369.000000	98.943765
1368.000000	98.944701
1367.000000	98.942968
1366.000000	98.940117
1365.000000	98.938730
1364.000000	98.940147
1363.000000	98.943254
1362.000000	98.945551
1361.000000	98.945703
1360.000000	98.944271
1359.000000	98.942371
1358.000000	98.940797
1357.000000	98.939969
1356.000000	98.939942
1355.000000	98.940337
1354.000000	98.940600
1353.000000	98.940425
1352.000000	98.940006
1351.000000	98.939414
1350.000000	98.938616
1349.000000	98.938085
1348.000000	98.938730
1347.000000	98.940870
1346.000000	98.943368
1345.000000	98.944597
1344.000000	98.944307
1343.000000	98.943932
1342.000000	98.944653
1341.000000	98.945674
1340.000000	98.944967
1339.000000	98.941710
1338.000000	98.937362
1337.000000	98.934044
1336.000000	98.932941
1335.000000	98.934329
1334.000000	98.937698
1333.000000	98.941503
1332.000000	98.943751
1331.000000	98.943611
1330.000000	98.942310
1329.000000	98.941836
1328.000000	98.942828
1327.000000	98.944115
1326.000000	98.944335
1325.000000	98.943341
1324.000000	98.941879
1323.000000	98.940614
1322.000000	98.939787
1321.000000	98.939623
1320.000000	98.940432
1319.000000	98.942068
1318.000000	98.943653
1317.000000	98.944352
1316.000000	98.944210
1315.000000	98.943757
1314.000000	98.942907
1313.000000	98.940770
1312.000000	98.936755
1311.000000	98.931411
1310.000000	98.925993
1309.000000	98.921469
1308.000000	98.918149
1307.000000	98.915868
1306.000000	98.914364
1305.000000	98.913461
1304.000000	98.912683
1303.000000	98.910721
1302.000000	98.906004
1301.000000	98.898791
1300.000000	98.892252
1299.000000	98.889895
1298.000000	98.891312
1297.000000	98.891880
1296.000000	98.887749
1295.000000	98.879927
1294.000000	98.872342
1293.000000	98.866738
1292.000000	98.861364
1291.000000	98.854411
1290.000000	98.846631
1289.000000	98.840133
1288.000000	98.836010
1287.000000	98.833759
1286.000000	98.832189
1285.000000	98.830396
1284.000000	98.828257
1283.000000	98.826043
1282.000000	98.823274
1281.000000	98.818600
1280.000000	98.811493
1279.000000	98.803450
1278.000000	98.796418
1277.000000	98.790472
1276.000000	98.784438
1275.000000	98.778452
1274.000000	98.774188
1273.000000	98.772244
1272.000000	98.770708
1271.000000	98.767023
1270.000000	98.760640
1269.000000	98.753489
1268.000000	98.748381
1267.000000	98.746906
1266.000000	98.748012
1265.000000	98.748687
1264.000000	98.746880
1263.000000	98.743433
1262.000000	98.740175
1261.000000	98.736739
1260.000000	98.730915
1259.000000	98.722107
1258.000000	98.712512
1257.000000	98.704231
1256.000000	98.696838
1255.000000	98.688416
1254.000000	98.677505
1253.000000	98.663286
1252.000000	98.645442
1251.000000	98.625388
1250.000000	98.606706
1249.000000	98.592380
1248.000000	98.581269
1247.000000	98.568507
1246.000000	98.550223
1245.000000	98.527794
1244.000000	98.507153
1243.000000	98.493574
1242.000000	98.486854
1241.000000	98.481738
1240.000000	98.473043
1239.000000	98.459924
1238.000000	98.445108
1237.000000	98.430684
1236.000000	98.415593
1235.000000	98.397280
1234.000000	98.374848
1233.000000	98.349737
1232.000000	98.323394
1231.000000	98.295252
1230.000000	98.263992
1229.000000	98.230610
1228.000000	98.198599
1227.000000	98.169655
1226.000000	98.139988
1225.000000	98.103044
1224.000000	98.056001
1223.000000	98.001875
1222.000000	97.945035
1221.000000	97.886787
1220.000000	97.826293
1219.000000	97.763415
1218.000000	97.698581
1217.000000	97.631313
1216.000000	97.560837
1215.000000	97.487114
1214.000000	97.409809
1213.000000	97.327836
1212.000000	97.241994
1211.000000	97.156768
1210.000000	97.076922
1209.000000	97.002659
1208.000000	96.930021
1207.000000	96.855547
1206.000000	96.779347
1205.000000	96.704370
1204.000000	96.633649
1203.000000	96.567388
1202.000000	96.501871
1201.000000	96.432211
1200.000000	96.356921
1199.000000	96.278897
1198.000000	96.201686
1197.000000	96.126352
1196.000000	96.052368
1195.000000	95.979407
1194.000000	95.907187
1193.000000	95.835077
1192.000000	95.762554
1191.000000	95.688869
1190.000000	95.612343
1189.000000	95.531678
1188.000000	95.447874
1187.000000	95.363163
1186.000000	95.278450
1185.000000	95.193505
1184.000000	95.108336
1183.000000	95.021562
1182.000000	94.928896
1181.000000	94.827191
1180.000000	94.719133
1179.000000	94.609789
1178.000000	94.499238
1177.000000	94.383450
1176.000000	94.262053
1175.000000	94.139642
1174.000000	94.018927
1173.000000	93.898366
1172.000000	93.777775
1171.000000	93.660441
1170.000000	93.547932
1169.000000	93.438324
1168.000000	93.331676
1167.000000	93.232597
1166.000000	93.146463
1165.000000	93.078560
1164.000000	93.037433
1163.000000	93.031675
1162.000000	93.060238
1161.000000	93.110323
1160.000000	93.165875
1159.000000	93.213372
1158.000000	93.240329
1157.000000	93.236651
1156.000000	93.200609
1155.000000	93.138790
1154.000000	93.058506
1153.000000	92.964356
1152.000000	92.862365
1151.000000	92.760517
1150.000000	92.662541
1149.000000	92.566962
1148.000000	92.474245
1147.000000	92.388345
1146.000000	92.309010
1145.000000	92.229738
1144.000000	92.146688
1143.000000	92.063217
1142.000000	91.982532
1141.000000	91.902320
1140.000000	91.820205
1139.000000	91.738236
1138.000000	91.658166
1137.000000	91.577967
1136.000000	91.496499
1135.000000	91.415943
1134.000000	91.336404
1133.000000	91.254088
1132.000000	91.168119
1131.000000	91.082966
1130.000000	91.000559
1129.000000	90.916389
1128.000000	90.827791
1127.000000	90.740315
1126.000000	90.661061
1125.000000	90.589970
1124.000000	90.521176
1123.000000	90.448879
1122.000000	90.369886
1121.000000	90.285410
1120.000000	90.202149
1119.000000	90.126246
1118.000000	90.055038
1117.000000	89.980610
1116.000000	89.901425
1115.000000	89.823038
1114.000000	89.747620
1113.000000	89.672267
1112.000000	89.598507
1111.000000	89.532645
1110.000000	89.474388
1109.000000	89.415378
1108.000000	89.351526
1107.000000	89.286853
1106.000000	89.222886
1105.000000	89.155172
1104.000000	89.083516
1103.000000	89.015144
1102.000000	88.953888
1101.000000	88.896109
1100.000000	88.840572
1099.000000	88.792131
1098.000000	88.751796
1097.000000	88.713241
1096.000000	88.673032
1095.000000	88.634829
1094.000000	88.600251
1093.000000	88.565678
1092.000000	88.531562
1091.000000	88.504720
1090.000000	88.487452
1089.000000	88.474114
1088.000000	88.461887
1087.000000	88.455071
1086.000000	88.455491
1085.000000	88.458912
1084.000000	88.464338
1083.000000	88.476435
1082.000000	88.494985
1081.000000	88.512324
1080.000000	88.525469
1079.000000	88.540963
1078.000000	88.563183
1077.000000	88.586876
1076.000000	88.605568
1075.000000	88.618476
1074.000000	88.624790
1073.000000	88.619266
1072.000000	88.597498
1071.000000	88.558768
1070.000000	88.501216
1069.000000	88.421239
1068.000000	88.319398
1067.000000	88.199759
1066.000000	88.062806
1065.000000	87.908197
1064.000000	87.745795
1063.000000	87.593041
1062.000000	87.457739
1061.000000	87.333320
1060.000000	87.214027
1059.000000	87.104195
1058.000000	87.009325
1057.000000	86.928648
1056.000000	86.859970
1055.000000	86.801418
1054.000000	86.745393
1053.000000	86.682276
1052.000000	86.614477
1051.000000	86.555336
1050.000000	86.509368
1049.000000	86.466171
1048.000000	86.417804
1047.000000	86.367563
1046.000000	86.317248
1045.000000	86.260449
1044.000000	86.193743
1043.000000	86.123080
1042.000000	86.054610
1041.000000	85.988895
1040.000000	85.927277
1039.000000	85.873720
1038.000000	85.827211
1037.000000	85.782681
1036.000000	85.742168
1035.000000	85.714266
1034.000000	85.700096
1033.000000	85.690946
1032.000000	85.682008
1031.000000	85.676849
1030.000000	85.676202
1029.000000	85.675190
1028.000000	85.674851
1027.000000	85.683477
1026.000000	85.702185
1025.000000	85.721156
1024.000000	85.734330
1023.000000	85.746163
1022.000000	85.759797
1021.000000	85.770919
1020.000000	85.778274
1019.000000	85.788436
1018.000000	85.804475
1017.000000	85.820481
1016.000000	85.832646
1015.000000	85.845944
1014.000000	85.864618
1013.000000	85.885395
1012.000000	85.904952
1011.000000	85.925541
1010.000000	85.949043
1009.000000	85.973623
1008.000000	85.999714
1007.000000	86.031189
1006.000000	86.067992
1005.000000	86.105891
1004.000000	86.145387
1003.000000	86.191749
1002.000000	86.244331
1001.000000	86.295901
1000.000000	86.345325
999.000000	86.401054
998.000000	86.468363
997.000000	86.542067
996.000000	86.615355
995.000000	86.687777
994.000000	86.761260
993.000000	86.836154
992.000000	86.914336
991.000000	86.998732
990.000000	87.087017
989.000000	87.172732
988.000000	87.254826
987.000000	87.339273
986.000000	87.429874
985.000000	87.524907
984.000000	87.623942
983.000000	87.729723
982.000000	87.841209
981.000000	87.952535
980.000000	88.061525
979.000000	88.172587
978.000000	88.289087
977.000000	88.409376
976.000000	88.532013
975.000000	88.658463
974.000000	88.788691
973.000000	88.919826
972.000000	89.050735
971.000000	89.182826
970.000000	89.315337
969.000000	89.444648
968.000000	89.568594
967.000000	89.687266
966.000000	89.800822
965.000000	89.911663
964.000000	90.026676
963.000000	90.150111
962.000000	90.274896
961.000000	90.388702
960.000000	90.489124
959.000000	90.586297
958.000000	90.689840
957.000000	90.799179
956.000000	90.907943
955.000000	91.011655
954.000000	91.108914
953.000000	91.199971
952.000000	91.286554
951.000000	91.370400
950.000000	91.451734
949.000000	91.531236
948.000000	91.611394
947.000000	91.692404
946.000000	91.769458
945.000000	91.838971
944.000000	91.904907
943.000000	91.973442
942.000000	92.043576
941.000000	92.109405
940.000000	92.170057
939.000000	92.230851
938.000000	92.295483
937.000000	92.363337
936.000000	92.433703
935.000000	92.506049
934.000000	92.576427
933.000000	92.640235
932.000000	92.699244
931.000000	92.760793
930.000000	92.829496
929.000000	92.903658
928.000000	92.978748
927.000000	93.049492
926.000000	93.110102
925.000000	93.158390
924.000000	93.199461
923.000000	93.240830
922.000000	93.284784
921.000000	93.329766
920.000000	93.376751
919.000000	93.428228
918.000000	93.482818
917.000000	93.537222
916.000000	93.591683
915.000000	93.646919
914.000000	93.698038
913.000000	93.740341
912.000000	93.780864
911.000000	93.834854
910.000000	93.908945
909.000000	93.995062
908.000000	94.082262
907.000000	94.168106
906.000000	94.255802
905.000000	94.346367
904.000000	94.437488
903.000000	94.526825
902.000000	94.614226
901.000000	94.702264
900.000000	94.793821
899.000000	94.886636
898.000000	94.972706
897.000000	95.047309
896.000000	95.115831
895.000000	95.186711
894.000000	95.260595
893.000000	95.333272
892.000000	95.406487
891.000000	95.486468
890.000000	95.571817
889.000000	95.652349
888.000000	95.722047
887.000000	95.785154
886.000000	95.846900
885.000000	95.905422
884.000000	95.957013
883.000000	96.003268
882.000000	96.048366
881.000000	96.093519
880.000000	96.137992
879.000000	96.181861
878.000000	96.224610
877.000000	96.265222
876.000000	96.307021
875.000000	96.358135
874.000000	96.422848
873.000000	96.495193
872.000000	96.564521
871.000000	96.625845
870.000000	96.683239
869.000000	96.745281
868.000000	96.817995
867.000000	96.899362
866.000000	96.979409
865.000000	97.047992
864.000000	97.103265
863.000000	97.151085
862.000000	97.197110
861.000000	97.242647
860.000000	97.287874
859.000000	97.334987
858.000000	97.387103
857.000000	97.446603
856.000000	97.514411
855.000000	97.587683
854.000000	97.658410
853.000000	97.717968
852.000000	97.763537
851.000000	97.798049
850.000000	97.825516
849.000000	97.850003
848.000000	97.877086
847.000000	97.910260
846.000000	97.945474
845.000000	97.974411
844.000000	97.994156
843.000000	98.009486
842.000000	98.025636
841.000000	98.043887
840.000000	98.064668
839.000000	98.088563
838.000000	98.111691
837.000000	98.125571
836.000000	98.125712
835.000000	98.117721
834.000000	98.112139
833.000000	98.115318
832.000000	98.127152
831.000000	98.144524
830.000000	98.163686
829.000000	98.180779
828.000000	98.192589
827.000000	98.196871
826.000000	98.192123
825.000000	98.178621
824.000000	98.158704
823.000000	98.132716
822.000000	98.095735
821.000000	98.042840
820.000000	97.976680
819.000000	97.904704
818.000000	97.828794
817.000000	97.742107
816.000000	97.636873
815.000000	97.511049
814.000000	97.365368
813.000000	97.196513
812.000000	96.994371
811.000000	96.743580
810.000000	96.428330
809.000000	96.040935
808.000000	95.588206
807.000000	95.086580
806.000000	94.550897
805.000000	93.993991
804.000000	93.437873
803.000000	92.914384
802.000000	92.448355
801.000000	92.048769
800.000000	91.721851
799.000000	91.481780
798.000000	91.339955
797.000000	91.291675
796.000000	91.319468
795.000000	91.401606
794.000000	91.513703
793.000000	91.632547
792.000000	91.745024
791.000000	91.846935
790.000000	91.929737
789.000000	91.975606
788.000000	91.968757
787.000000	91.904796
786.000000	91.786502
785.000000	91.618851
784.000000	91.413262
783.000000	91.189900
782.000000	90.969947
781.000000	90.770324
780.000000	90.608518
779.000000	90.503514
778.000000	90.465697
777.000000	90.491889
776.000000	90.574035
775.000000	90.705804
774.000000	90.878362
773.000000	91.078678
772.000000	91.296146
771.000000	91.523968
770.000000	91.751751
769.000000	91.964922
768.000000	92.155434
767.000000	92.327229
766.000000	92.488452
765.000000	92.643884
764.000000	92.796695
763.000000	92.950395
762.000000	93.104973
761.000000	93.255998
760.000000	93.400573
759.000000	93.539900
758.000000	93.674153
757.000000	93.799902
756.000000	93.915138
755.000000	94.022863
754.000000	94.127703
753.000000	94.232239
752.000000	94.337013
751.000000	94.439502
750.000000	94.532855
749.000000	94.611526
748.000000	94.679892
747.000000	94.750322
746.000000	94.831110
745.000000	94.920830
744.000000	95.014755
743.000000	95.109879
742.000000	95.202039
741.000000	95.285748
740.000000	95.360813
739.000000	95.433568
738.000000	95.507622
737.000000	95.577865
736.000000	95.637331
735.000000	95.686051
734.000000	95.729778
733.000000	95.772744
732.000000	95.814078
731.000000	95.849425
730.000000	95.875619
729.000000	95.896623
728.000000	95.923590
727.000000	95.964563
726.000000	96.014807
725.000000	96.062352
724.000000	96.103357
723.000000	96.145971
722.000000	96.197823
721.000000	96.256342
720.000000	96.314651
719.000000	96.371016
718.000000	96.427091
717.000000	96.480684
716.000000	96.526351
715.000000	96.561933
714.000000	96.590715
713.000000	96.617779
712.000000	96.646284
711.000000	96.676211
710.000000	96.704434
709.000000	96.726993
708.000000	96.742277
707.000000	96.750189
706.000000	96.747736
705.000000	96.726487
704.000000	96.675218
703.000000	96.584795
702.000000	96.449640
701.000000	96.266325
700.000000	96.032910
699.000000	95.750954
698.000000	95.434074
697.000000	95.118417
696.000000	94.858926
695.000000	94.704863
694.000000	94.674230
693.000000	94.752556
692.000000	94.910245
691.000000	95.113890
690.000000	95.328271
689.000000	95.522828
688.000000	95.684941
687.000000	95.823048
686.000000	95.951194
685.000000	96.075556
684.000000	96.196753
683.000000	96.314344
682.000000	96.424245
681.000000	96.519264
680.000000	96.597985
679.000000	96.667375
678.000000	96.732625
677.000000	96.792640
676.000000	96.847299
675.000000	96.900422
674.000000	96.953579
673.000000	97.001845
672.000000	97.039465
671.000000	97.067408
670.000000	97.091414
669.000000	97.121947
668.000000	97.177028
667.000000	97.242867
666.000000	97.288937
665.000000	97.326463
664.000000	97.374559
663.000000	97.435913
662.000000	97.498940
661.000000	97.549231
660.000000	97.581180
659.000000	97.596938
658.000000	97.598860
657.000000	97.586712
656.000000	97.561684
655.000000	97.532069
654.000000	97.513003
653.000000	97.512091
652.000000	97.519549
651.000000	97.522998
650.000000	97.527009
649.000000	97.546938
648.000000	97.586641
647.000000	97.636799
646.000000	97.694430
645.000000	97.766564
644.000000	97.851023
643.000000	97.928248
642.000000	97.984561
641.000000	98.035166
640.000000	98.104050
639.000000	98.188460
638.000000	98.263188
637.000000	98.316191
636.000000	98.358603
635.000000	98.400639
634.000000	98.437146
633.000000	98.462279
632.000000	98.483461
631.000000	98.512548
630.000000	98.552868
629.000000	98.601634
628.000000	98.656639
627.000000	98.712517
626.000000	98.757311
625.000000	98.782656
624.000000	98.794946
623.000000	98.808670
622.000000	98.829826
621.000000	98.851930
620.000000	98.867839
619.000000	98.879514
618.000000	98.894939
617.000000	98.918043
616.000000	98.941804
615.000000	98.951664
614.000000	98.940493
613.000000	98.920810
612.000000	98.915607
611.000000	98.932515
610.000000	98.950663
609.000000	98.940613
608.000000	98.893501
607.000000	98.826255
606.000000	98.765434
605.000000	98.732335
604.000000	98.742451
603.000000	98.800720
602.000000	98.882818
601.000000	98.935774
600.000000	98.917277
599.000000	98.834335
598.000000	98.741120
597.000000	98.687745
596.000000	98.680136
595.000000	98.694215
594.000000	98.710355
593.000000	98.727125
592.000000	98.746168
591.000000	98.758892
590.000000	98.755865
589.000000	98.740701
588.000000	98.726780
587.000000	98.725233
586.000000	98.739685
585.000000	98.767299
584.000000	98.799206
583.000000	98.823987
582.000000	98.841443
581.000000	98.870743
580.000000	98.929665
579.000000	99.002467
578.000000	99.045568
577.000000	99.033414
576.000000	98.982678
575.000000	98.931097
574.000000	98.903777
573.000000	98.903522
572.000000	98.920705
571.000000	98.936592
570.000000	98.932005
569.000000	98.912474
568.000000	98.911467
567.000000	98.948607
566.000000	98.995808
565.000000	99.012681
564.000000	99.000912
563.000000	98.993271
562.000000	98.997375
561.000000	98.982638
560.000000	98.932934
559.000000	98.879198
558.000000	98.860782
557.000000	98.877702
556.000000	98.907663
555.000000	98.943425
554.000000	98.980536
553.000000	98.994429
552.000000	98.963189
551.000000	98.900931
550.000000	98.850751
