PE IR       SUBTECH     SPECTRUM    ASCII       PEDS        4.00        
   -1
BH1 8-2 5 60_1.asc
24/05/15
14:22:20.00
24/05/15
14:22:36.00
Administrator
?品 088 用? Administrator 日期 Wednesday, May 15 2024
550.000000
#HDR
-1
-1
#GR
cm-1
%T
1.0
0.0
4000.000000
-1.000000
3451
8
101.175571
79.577436
#DATA
4000.000000	100.853589
3999.000000	100.852336
3998.000000	100.849163
3997.000000	100.845215
3996.000000	100.842122
3995.000000	100.840883
3994.000000	100.841339
3993.000000	100.842373
3992.000000	100.842963
3991.000000	100.843173
3990.000000	100.843934
3989.000000	100.846018
3988.000000	100.849254
3987.000000	100.852531
3986.000000	100.854600
3985.000000	100.854899
3984.000000	100.853649
3983.000000	100.851443
3982.000000	100.848845
3981.000000	100.846397
3980.000000	100.844713
3979.000000	100.844248
3978.000000	100.844980
3977.000000	100.846411
3976.000000	100.847883
3975.000000	100.848809
3974.000000	100.848676
3973.000000	100.847146
3972.000000	100.844378
3971.000000	100.841122
3970.000000	100.838389
3969.000000	100.836879
3968.000000	100.836721
3967.000000	100.837569
3966.000000	100.838826
3965.000000	100.839879
3964.000000	100.840327
3963.000000	100.840104
3962.000000	100.839466
3961.000000	100.838891
3960.000000	100.838923
3959.000000	100.839877
3958.000000	100.841622
3957.000000	100.843556
3956.000000	100.844864
3955.000000	100.844945
3954.000000	100.843715
3953.000000	100.841656
3952.000000	100.839545
3951.000000	100.838018
3950.000000	100.837272
3949.000000	100.837103
3948.000000	100.837139
3947.000000	100.837186
3946.000000	100.837400
3945.000000	100.838079
3944.000000	100.839222
3943.000000	100.840365
3942.000000	100.840984
3941.000000	100.840962
3940.000000	100.840612
3939.000000	100.840241
3938.000000	100.839933
3937.000000	100.839699
3936.000000	100.839620
3935.000000	100.839689
3934.000000	100.839694
3933.000000	100.839529
3932.000000	100.839463
3931.000000	100.839881
3930.000000	100.840764
3929.000000	100.841617
3928.000000	100.841970
3927.000000	100.841780
3926.000000	100.841283
3925.000000	100.840693
3924.000000	100.840095
3923.000000	100.839580
3922.000000	100.839224
3921.000000	100.838953
3920.000000	100.838689
3919.000000	100.838541
3918.000000	100.838669
3917.000000	100.839006
3916.000000	100.839273
3915.000000	100.839275
3914.000000	100.839057
3913.000000	100.838785
3912.000000	100.838618
3911.000000	100.838600
3910.000000	100.838675
3909.000000	100.838727
3908.000000	100.838679
3907.000000	100.838524
3906.000000	100.838282
3905.000000	100.837979
3904.000000	100.837645
3903.000000	100.837339
3902.000000	100.837120
3901.000000	100.836996
3900.000000	100.836899
3899.000000	100.836706
3898.000000	100.836362
3897.000000	100.835906
3896.000000	100.835421
3895.000000	100.834963
3894.000000	100.834550
3893.000000	100.834175
3892.000000	100.833825
3891.000000	100.833483
3890.000000	100.833146
3889.000000	100.832823
3888.000000	100.832515
3887.000000	100.832223
3886.000000	100.831947
3885.000000	100.831689
3884.000000	100.831453
3883.000000	100.831245
3882.000000	100.831055
3881.000000	100.830867
3880.000000	100.830661
3879.000000	100.830431
3878.000000	100.830188
3877.000000	100.829951
3876.000000	100.829734
3875.000000	100.829543
3874.000000	100.829383
3873.000000	100.829253
3872.000000	100.829156
3871.000000	100.829083
3870.000000	100.829020
3869.000000	100.828957
3868.000000	100.828904
3867.000000	100.828873
3866.000000	100.828870
3865.000000	100.828883
3864.000000	100.828897
3863.000000	100.828903
3862.000000	100.828893
3861.000000	100.828860
3860.000000	100.828802
3859.000000	100.828722
3858.000000	100.828635
3857.000000	100.828558
3856.000000	100.828509
3855.000000	100.828499
3854.000000	100.828532
3853.000000	100.828600
3852.000000	100.828689
3851.000000	100.828810
3850.000000	100.829006
3849.000000	100.829258
3848.000000	100.829464
3847.000000	100.829533
3846.000000	100.829480
3845.000000	100.829395
3844.000000	100.829343
3843.000000	100.829352
3842.000000	100.829451
3841.000000	100.829657
3840.000000	100.829930
3839.000000	100.830168
3838.000000	100.830347
3837.000000	100.830566
3836.000000	100.830938
3835.000000	100.831487
3834.000000	100.832133
3833.000000	100.832694
3832.000000	100.832996
3831.000000	100.833010
3830.000000	100.832916
3829.000000	100.832972
3828.000000	100.833296
3827.000000	100.833728
3826.000000	100.833974
3825.000000	100.833948
3824.000000	100.833862
3823.000000	100.833963
3822.000000	100.834237
3821.000000	100.834349
3820.000000	100.834045
3819.000000	100.833589
3818.000000	100.833449
3817.000000	100.833764
3816.000000	100.834312
3815.000000	100.834835
3814.000000	100.835390
3813.000000	100.836108
3812.000000	100.836887
3811.000000	100.837552
3810.000000	100.838053
3809.000000	100.838386
3808.000000	100.838427
3807.000000	100.838045
3806.000000	100.837375
3805.000000	100.836834
3804.000000	100.836751
3803.000000	100.837120
3802.000000	100.837714
3801.000000	100.838139
3800.000000	100.838245
3799.000000	100.838185
3798.000000	100.838112
3797.000000	100.838011
3796.000000	100.837841
3795.000000	100.837704
3794.000000	100.837777
3793.000000	100.838105
3792.000000	100.838515
3791.000000	100.838819
3790.000000	100.838995
3789.000000	100.839123
3788.000000	100.839188
3787.000000	100.839051
3786.000000	100.838623
3785.000000	100.837950
3784.000000	100.837161
3783.000000	100.836402
3782.000000	100.835757
3781.000000	100.835217
3780.000000	100.834771
3779.000000	100.834454
3778.000000	100.834317
3777.000000	100.834313
3776.000000	100.834243
3775.000000	100.833845
3774.000000	100.833042
3773.000000	100.832051
3772.000000	100.831236
3771.000000	100.830766
3770.000000	100.830470
3769.000000	100.830077
3768.000000	100.829598
3767.000000	100.829248
3766.000000	100.829017
3765.000000	100.828626
3764.000000	100.828059
3763.000000	100.827912
3762.000000	100.828759
3761.000000	100.830134
3760.000000	100.831008
3759.000000	100.830998
3758.000000	100.830344
3757.000000	100.829106
3756.000000	100.827199
3755.000000	100.824846
3754.000000	100.822320
3753.000000	100.819637
3752.000000	100.817318
3751.000000	100.816732
3750.000000	100.818226
3749.000000	100.820281
3748.000000	100.821878
3747.000000	100.823466
3746.000000	100.824880
3745.000000	100.824427
3744.000000	100.820322
3743.000000	100.814108
3742.000000	100.810229
3741.000000	100.809858
3740.000000	100.810318
3739.000000	100.809213
3738.000000	100.807204
3737.000000	100.806649
3736.000000	100.808545
3735.000000	100.812114
3734.000000	100.816103
3733.000000	100.819204
3732.000000	100.819957
3731.000000	100.818272
3730.000000	100.816307
3729.000000	100.816231
3728.000000	100.817430
3727.000000	100.817149
3726.000000	100.813963
3725.000000	100.810002
3724.000000	100.808148
3723.000000	100.808242
3722.000000	100.807712
3721.000000	100.804669
3720.000000	100.799733
3719.000000	100.794679
3718.000000	100.790358
3717.000000	100.786399
3716.000000	100.782735
3715.000000	100.779788
3714.000000	100.776838
3713.000000	100.771827
3712.000000	100.763878
3711.000000	100.755093
3710.000000	100.749221
3709.000000	100.748461
3708.000000	100.751416
3707.000000	100.754009
3706.000000	100.752885
3705.000000	100.747988
3704.000000	100.742312
3703.000000	100.739117
3702.000000	100.738469
3701.000000	100.736539
3700.000000	100.730097
3699.000000	100.720634
3698.000000	100.712166
3697.000000	100.706531
3696.000000	100.702343
3695.000000	100.697474
3694.000000	100.691092
3693.000000	100.683769
3692.000000	100.677430
3691.000000	100.674364
3690.000000	100.674588
3689.000000	100.674176
3688.000000	100.669036
3687.000000	100.660178
3686.000000	100.651609
3685.000000	100.644313
3684.000000	100.635665
3683.000000	100.623919
3682.000000	100.610668
3681.000000	100.598142
3680.000000	100.585274
3679.000000	100.570045
3678.000000	100.553796
3677.000000	100.540485
3676.000000	100.531353
3675.000000	100.522040
3674.000000	100.510622
3673.000000	100.502168
3672.000000	100.499109
3671.000000	100.496061
3670.000000	100.485455
3669.000000	100.465774
3668.000000	100.443398
3667.000000	100.425370
3666.000000	100.413341
3665.000000	100.404852
3664.000000	100.396794
3663.000000	100.387076
3662.000000	100.374524
3661.000000	100.358534
3660.000000	100.339196
3659.000000	100.318319
3658.000000	100.298994
3657.000000	100.283890
3656.000000	100.272569
3655.000000	100.262699
3654.000000	100.253531
3653.000000	100.244859
3652.000000	100.234565
3651.000000	100.222044
3650.000000	100.212496
3649.000000	100.211881
3648.000000	100.216835
3647.000000	100.217052
3646.000000	100.206811
3645.000000	100.187919
3644.000000	100.165811
3643.000000	100.145163
3642.000000	100.128672
3641.000000	100.116987
3640.000000	100.108842
3639.000000	100.101272
3638.000000	100.091002
3637.000000	100.077669
3636.000000	100.064112
3635.000000	100.052254
3634.000000	100.039489
3633.000000	100.021787
3632.000000	99.999875
3631.000000	99.980254
3630.000000	99.971070
3629.000000	99.973232
3628.000000	99.976174
3627.000000	99.972252
3626.000000	99.964832
3625.000000	99.958500
3624.000000	99.955009
3623.000000	99.955838
3622.000000	99.962508
3621.000000	99.974257
3620.000000	99.987311
3619.000000	99.997392
3618.000000	100.002853
3617.000000	100.006005
3616.000000	100.010492
3615.000000	100.018126
3614.000000	100.028026
3613.000000	100.038121
3612.000000	100.047847
3611.000000	100.059507
3610.000000	100.075544
3609.000000	100.094528
3608.000000	100.110594
3607.000000	100.118195
3606.000000	100.117550
3605.000000	100.113717
3604.000000	100.111539
3603.000000	100.113110
3602.000000	100.118352
3601.000000	100.126774
3600.000000	100.137999
3599.000000	100.151347
3598.000000	100.164482
3597.000000	100.174829
3596.000000	100.181343
3595.000000	100.184431
3594.000000	100.183734
3593.000000	100.178536
3592.000000	100.170090
3591.000000	100.162195
3590.000000	100.158911
3589.000000	100.162127
3588.000000	100.170665
3587.000000	100.180841
3586.000000	100.189186
3585.000000	100.194421
3584.000000	100.196418
3583.000000	100.195217
3582.000000	100.191253
3581.000000	100.185162
3580.000000	100.177419
3579.000000	100.169080
3578.000000	100.162048
3577.000000	100.157739
3576.000000	100.155449
3575.000000	100.152636
3574.000000	100.147362
3573.000000	100.140179
3572.000000	100.133708
3571.000000	100.130617
3570.000000	100.132121
3569.000000	100.137573
3568.000000	100.145024
3567.000000	100.151806
3566.000000	100.155144
3565.000000	100.153467
3564.000000	100.147146
3563.000000	100.138105
3562.000000	100.128995
3561.000000	100.121619
3560.000000	100.115880
3559.000000	100.110669
3558.000000	100.105802
3557.000000	100.102141
3556.000000	100.100338
3555.000000	100.100268
3554.000000	100.101545
3553.000000	100.103505
3552.000000	100.104735
3551.000000	100.103605
3550.000000	100.099685
3549.000000	100.094046
3548.000000	100.088461
3547.000000	100.084566
3546.000000	100.083295
3545.000000	100.084239
3544.000000	100.085797
3543.000000	100.086241
3542.000000	100.084931
3541.000000	100.082469
3540.000000	100.080044
3539.000000	100.078621
3538.000000	100.078530
3537.000000	100.079551
3536.000000	100.081065
3535.000000	100.082446
3534.000000	100.083172
3533.000000	100.082795
3532.000000	100.081107
3531.000000	100.078817
3530.000000	100.077659
3529.000000	100.079012
3528.000000	100.082241
3527.000000	100.084992
3526.000000	100.085617
3525.000000	100.084770
3524.000000	100.084492
3523.000000	100.086098
3522.000000	100.089316
3521.000000	100.093059
3520.000000	100.096482
3519.000000	100.099310
3518.000000	100.101567
3517.000000	100.103248
3516.000000	100.103926
3515.000000	100.102874
3514.000000	100.099892
3513.000000	100.096116
3512.000000	100.093542
3511.000000	100.093544
3510.000000	100.095892
3509.000000	100.099128
3508.000000	100.101597
3507.000000	100.102254
3506.000000	100.100897
3505.000000	100.098047
3504.000000	100.094612
3503.000000	100.091340
3502.000000	100.088609
3501.000000	100.086823
3500.000000	100.086580
3499.000000	100.087930
3498.000000	100.089707
3497.000000	100.090282
3496.000000	100.089233
3495.000000	100.087882
3494.000000	100.087889
3493.000000	100.089484
3492.000000	100.091283
3491.000000	100.091694
3490.000000	100.090332
3489.000000	100.088159
3488.000000	100.086461
3487.000000	100.085707
3486.000000	100.085336
3485.000000	100.084597
3484.000000	100.083407
3483.000000	100.082337
3482.000000	100.081747
3481.000000	100.081163
3480.000000	100.079751
3479.000000	100.077255
3478.000000	100.074160
3477.000000	100.070998
3476.000000	100.067850
3475.000000	100.064648
3474.000000	100.061696
3473.000000	100.059603
3472.000000	100.058752
3471.000000	100.059076
3470.000000	100.060389
3469.000000	100.062643
3468.000000	100.065616
3467.000000	100.068465
3466.000000	100.069901
3465.000000	100.068888
3464.000000	100.065160
3463.000000	100.059366
3462.000000	100.053077
3461.000000	100.048236
3460.000000	100.045953
3459.000000	100.045784
3458.000000	100.046113
3457.000000	100.045633
3456.000000	100.044398
3455.000000	100.043277
3454.000000	100.042675
3453.000000	100.042137
3452.000000	100.041023
3451.000000	100.039219
3450.000000	100.037085
3449.000000	100.034953
3448.000000	100.032867
3447.000000	100.030747
3446.000000	100.028647
3445.000000	100.026818
3444.000000	100.025531
3443.000000	100.024802
3442.000000	100.024268
3441.000000	100.023395
3440.000000	100.021899
3439.000000	100.019895
3438.000000	100.017577
3437.000000	100.014898
3436.000000	100.011734
3435.000000	100.008394
3434.000000	100.005680
3433.000000	100.004245
3432.000000	100.003999
3431.000000	100.004238
3430.000000	100.004257
3429.000000	100.003765
3428.000000	100.002843
3427.000000	100.001770
3426.000000	100.000847
3425.000000	100.000136
3424.000000	99.999314
3423.000000	99.997955
3422.000000	99.996103
3421.000000	99.994488
3420.000000	99.993966
3419.000000	99.994734
3418.000000	99.996142
3417.000000	99.997130
3416.000000	99.997008
3415.000000	99.995737
3414.000000	99.993814
3413.000000	99.992018
3412.000000	99.990906
3411.000000	99.990473
3410.000000	99.990297
3409.000000	99.990112
3408.000000	99.990170
3407.000000	99.990821
3406.000000	99.991839
3405.000000	99.992442
3404.000000	99.992148
3403.000000	99.991387
3402.000000	99.991145
3401.000000	99.991992
3400.000000	99.993663
3399.000000	99.995388
3398.000000	99.996559
3397.000000	99.997077
3396.000000	99.997199
3395.000000	99.997226
3394.000000	99.997315
3393.000000	99.997472
3392.000000	99.997657
3391.000000	99.997880
3390.000000	99.998253
3389.000000	99.998942
3388.000000	100.000040
3387.000000	100.001447
3386.000000	100.002951
3385.000000	100.004447
3384.000000	100.005986
3383.000000	100.007535
3382.000000	100.008816
3381.000000	100.009563
3380.000000	100.009901
3379.000000	100.010317
3378.000000	100.011173
3377.000000	100.012371
3376.000000	100.013557
3375.000000	100.014556
3374.000000	100.015473
3373.000000	100.016431
3372.000000	100.017403
3371.000000	100.018281
3370.000000	100.019053
3369.000000	100.019845
3368.000000	100.020843
3367.000000	100.022151
3366.000000	100.023705
3365.000000	100.025262
3364.000000	100.026534
3363.000000	100.027398
3362.000000	100.027967
3361.000000	100.028559
3360.000000	100.029445
3359.000000	100.030637
3358.000000	100.031919
3357.000000	100.033091
3356.000000	100.034223
3355.000000	100.035539
3354.000000	100.037082
3353.000000	100.038619
3352.000000	100.039897
3351.000000	100.040915
3350.000000	100.041914
3349.000000	100.043136
3348.000000	100.044629
3347.000000	100.046264
3346.000000	100.047859
3345.000000	100.049303
3344.000000	100.050653
3343.000000	100.052133
3342.000000	100.053969
3341.000000	100.056189
3340.000000	100.058542
3339.000000	100.060652
3338.000000	100.062275
3337.000000	100.063391
3336.000000	100.064162
3335.000000	100.064894
3334.000000	100.065936
3333.000000	100.067464
3332.000000	100.069358
3331.000000	100.071258
3330.000000	100.072881
3329.000000	100.074247
3328.000000	100.075609
3327.000000	100.077219
3326.000000	100.079146
3325.000000	100.081242
3324.000000	100.083215
3323.000000	100.084812
3322.000000	100.086014
3321.000000	100.087076
3320.000000	100.088363
3319.000000	100.090093
3318.000000	100.092269
3317.000000	100.094759
3316.000000	100.097349
3315.000000	100.099777
3314.000000	100.101819
3313.000000	100.103430
3312.000000	100.104793
3311.000000	100.106153
3310.000000	100.107614
3309.000000	100.109128
3308.000000	100.110633
3307.000000	100.112158
3306.000000	100.113812
3305.000000	100.115745
3304.000000	100.118083
3303.000000	100.120803
3302.000000	100.123608
3301.000000	100.126055
3300.000000	100.127901
3299.000000	100.129273
3298.000000	100.130385
3297.000000	100.131159
3296.000000	100.131358
3295.000000	100.131132
3294.000000	100.131170
3293.000000	100.132167
3292.000000	100.134256
3291.000000	100.137036
3290.000000	100.140007
3289.000000	100.142818
3288.000000	100.145150
3287.000000	100.146720
3286.000000	100.147604
3285.000000	100.148320
3284.000000	100.149344
3283.000000	100.150586
3282.000000	100.151530
3281.000000	100.151884
3280.000000	100.151928
3279.000000	100.152222
3278.000000	100.153095
3277.000000	100.154507
3276.000000	100.156283
3275.000000	100.158327
3274.000000	100.160572
3273.000000	100.162818
3272.000000	100.164723
3271.000000	100.166015
3270.000000	100.166700
3269.000000	100.167063
3268.000000	100.167514
3267.000000	100.168362
3266.000000	100.169711
3265.000000	100.171489
3264.000000	100.173497
3263.000000	100.175448
3262.000000	100.177086
3261.000000	100.178345
3260.000000	100.179378
3259.000000	100.180445
3258.000000	100.181685
3257.000000	100.183052
3256.000000	100.184435
3255.000000	100.185816
3254.000000	100.187277
3253.000000	100.188883
3252.000000	100.190577
3251.000000	100.192185
3250.000000	100.193573
3249.000000	100.194763
3248.000000	100.195919
3247.000000	100.197185
3246.000000	100.198563
3245.000000	100.199982
3244.000000	100.201446
3243.000000	100.203053
3242.000000	100.204861
3241.000000	100.206776
3240.000000	100.208591
3239.000000	100.210161
3238.000000	100.211508
3237.000000	100.212801
3236.000000	100.214196
3235.000000	100.215687
3234.000000	100.217105
3233.000000	100.218313
3232.000000	100.219445
3231.000000	100.220861
3230.000000	100.222784
3229.000000	100.225064
3228.000000	100.227364
3227.000000	100.229542
3226.000000	100.231704
3225.000000	100.233926
3224.000000	100.236107
3223.000000	100.238091
3222.000000	100.239762
3221.000000	100.241026
3220.000000	100.241894
3219.000000	100.242701
3218.000000	100.244012
3217.000000	100.246054
3216.000000	100.248347
3215.000000	100.250041
3214.000000	100.250753
3213.000000	100.251033
3212.000000	100.251931
3211.000000	100.254072
3210.000000	100.257229
3209.000000	100.260604
3208.000000	100.263553
3207.000000	100.265985
3206.000000	100.268164
3205.000000	100.270308
3204.000000	100.272457
3203.000000	100.274638
3202.000000	100.277019
3201.000000	100.279785
3200.000000	100.282891
3199.000000	100.285995
3198.000000	100.288700
3197.000000	100.290772
3196.000000	100.292150
3195.000000	100.292908
3194.000000	100.293408
3193.000000	100.294402
3192.000000	100.296542
3191.000000	100.299626
3190.000000	100.302575
3189.000000	100.304486
3188.000000	100.305598
3187.000000	100.306914
3186.000000	100.309043
3185.000000	100.311826
3184.000000	100.314966
3183.000000	100.318393
3182.000000	100.321858
3181.000000	100.324751
3180.000000	100.326785
3179.000000	100.328451
3178.000000	100.330329
3177.000000	100.332203
3176.000000	100.333441
3175.000000	100.334060
3174.000000	100.334856
3173.000000	100.336448
3172.000000	100.338611
3171.000000	100.340651
3170.000000	100.342053
3169.000000	100.342687
3168.000000	100.342855
3167.000000	100.343272
3166.000000	100.344594
3165.000000	100.346779
3164.000000	100.348964
3163.000000	100.350256
3162.000000	100.350620
3161.000000	100.350868
3160.000000	100.351783
3159.000000	100.353354
3158.000000	100.354935
3157.000000	100.356019
3156.000000	100.356773
3155.000000	100.357823
3154.000000	100.359635
3153.000000	100.362183
3152.000000	100.365090
3151.000000	100.367932
3150.000000	100.370416
3149.000000	100.372430
3148.000000	100.374017
3147.000000	100.375284
3146.000000	100.376286
3145.000000	100.377059
3144.000000	100.377788
3143.000000	100.378868
3142.000000	100.380628
3141.000000	100.383009
3140.000000	100.385569
3139.000000	100.387868
3138.000000	100.389811
3137.000000	100.391566
3136.000000	100.393270
3135.000000	100.394897
3134.000000	100.396420
3133.000000	100.397959
3132.000000	100.399678
3131.000000	100.401582
3130.000000	100.403500
3129.000000	100.405268
3128.000000	100.406900
3127.000000	100.408548
3126.000000	100.410350
3125.000000	100.412318
3124.000000	100.414375
3123.000000	100.416388
3122.000000	100.418268
3121.000000	100.420018
3120.000000	100.421716
3119.000000	100.423432
3118.000000	100.425172
3117.000000	100.426893
3116.000000	100.428555
3115.000000	100.430133
3114.000000	100.431633
3113.000000	100.433102
3112.000000	100.434615
3111.000000	100.436223
3110.000000	100.437885
3109.000000	100.439490
3108.000000	100.440972
3107.000000	100.442375
3106.000000	100.443800
3105.000000	100.445290
3104.000000	100.446802
3103.000000	100.448263
3102.000000	100.449630
3101.000000	100.450923
3100.000000	100.452246
3099.000000	100.453755
3098.000000	100.455543
3097.000000	100.457502
3096.000000	100.459309
3095.000000	100.460674
3094.000000	100.461601
3093.000000	100.462452
3092.000000	100.463662
3091.000000	100.465351
3090.000000	100.467226
3089.000000	100.468847
3088.000000	100.470056
3087.000000	100.471080
3086.000000	100.472273
3085.000000	100.473830
3084.000000	100.475731
3083.000000	100.477747
3082.000000	100.479426
3081.000000	100.480304
3080.000000	100.480270
3079.000000	100.479757
3078.000000	100.479449
3077.000000	100.479784
3076.000000	100.480765
3075.000000	100.482088
3074.000000	100.483401
3073.000000	100.484580
3072.000000	100.485843
3071.000000	100.487500
3070.000000	100.489524
3069.000000	100.491457
3068.000000	100.492833
3067.000000	100.493616
3066.000000	100.494154
3065.000000	100.494838
3064.000000	100.495886
3063.000000	100.497343
3062.000000	100.499065
3061.000000	100.500710
3060.000000	100.501971
3059.000000	100.502849
3058.000000	100.503603
3057.000000	100.504476
3056.000000	100.505565
3055.000000	100.506943
3054.000000	100.508691
3053.000000	100.510751
3052.000000	100.512846
3051.000000	100.514653
3050.000000	100.516041
3049.000000	100.517120
3048.000000	100.518149
3047.000000	100.519310
3046.000000	100.520566
3045.000000	100.521778
3044.000000	100.522913
3043.000000	100.524069
3042.000000	100.525307
3041.000000	100.526573
3040.000000	100.527824
3039.000000	100.529121
3038.000000	100.530547
3037.000000	100.532095
3036.000000	100.533658
3035.000000	100.535113
3034.000000	100.536428
3033.000000	100.537672
3032.000000	100.538959
3031.000000	100.540340
3030.000000	100.541778
3029.000000	100.543198
3028.000000	100.544560
3027.000000	100.545902
3026.000000	100.547275
3025.000000	100.548652
3024.000000	100.549984
3023.000000	100.551327
3022.000000	100.552831
3021.000000	100.554542
3020.000000	100.556259
3019.000000	100.557667
3018.000000	100.558622
3017.000000	100.559344
3016.000000	100.560336
3015.000000	100.562061
3014.000000	100.564586
3013.000000	100.567292
3012.000000	100.569185
3011.000000	100.569887
3010.000000	100.570178
3009.000000	100.571188
3008.000000	100.573177
3007.000000	100.575535
3006.000000	100.577842
3005.000000	100.580261
3004.000000	100.582849
3003.000000	100.585184
3002.000000	100.586942
3001.000000	100.588410
3000.000000	100.590123
2999.000000	100.592219
2998.000000	100.594337
2997.000000	100.595961
2996.000000	100.596759
2995.000000	100.596970
2994.000000	100.597632
2993.000000	100.599999
2992.000000	100.604255
2991.000000	100.608829
2990.000000	100.611614
2989.000000	100.612119
2988.000000	100.612099
2987.000000	100.613894
2986.000000	100.618341
2985.000000	100.624475
2984.000000	100.630854
2983.000000	100.636695
2982.000000	100.641846
2981.000000	100.646431
2980.000000	100.650905
2979.000000	100.655993
2978.000000	100.661940
2977.000000	100.667855
2976.000000	100.672210
2975.000000	100.673988
2974.000000	100.673149
2973.000000	100.670363
2972.000000	100.666887
2971.000000	100.664591
2970.000000	100.665282
2969.000000	100.669285
2968.000000	100.674651
2967.000000	100.678115
2966.000000	100.677309
2965.000000	100.672451
2964.000000	100.666349
2963.000000	100.662539
2962.000000	100.662735
2961.000000	100.665738
2960.000000	100.668769
2959.000000	100.670003
2958.000000	100.669781
2957.000000	100.669401
2956.000000	100.669287
2955.000000	100.668824
2954.000000	100.667849
2953.000000	100.667601
2952.000000	100.669617
2951.000000	100.673824
2950.000000	100.678446
2949.000000	100.682193
2948.000000	100.686002
2947.000000	100.691794
2946.000000	100.699698
2945.000000	100.707620
2944.000000	100.713895
2943.000000	100.719220
2942.000000	100.724979
2941.000000	100.730640
2940.000000	100.734500
2939.000000	100.736985
2938.000000	100.741487
2937.000000	100.750998
2936.000000	100.764816
2935.000000	100.779424
2934.000000	100.792050
2933.000000	100.802164
2932.000000	100.809969
2931.000000	100.815064
2930.000000	100.817471
2929.000000	100.818992
2928.000000	100.822080
2927.000000	100.827183
2926.000000	100.832319
2925.000000	100.835635
2924.000000	100.837271
2923.000000	100.837798
2922.000000	100.835765
2921.000000	100.828610
2920.000000	100.816218
2919.000000	100.802317
2918.000000	100.791600
2917.000000	100.785938
2916.000000	100.783782
2915.000000	100.782256
2914.000000	100.779096
2913.000000	100.773377
2912.000000	100.765852
2911.000000	100.758773
2910.000000	100.754512
2909.000000	100.753740
2908.000000	100.754794
2907.000000	100.754746
2906.000000	100.751270
2905.000000	100.744325
2904.000000	100.736599
2903.000000	100.731932
2902.000000	100.732420
2901.000000	100.736873
2900.000000	100.741825
2899.000000	100.744388
2898.000000	100.743899
2897.000000	100.741579
2896.000000	100.739161
2895.000000	100.737550
2894.000000	100.736270
2893.000000	100.734335
2892.000000	100.731993
2891.000000	100.731117
2890.000000	100.733111
2889.000000	100.736777
2888.000000	100.739190
2887.000000	100.738914
2886.000000	100.737408
2885.000000	100.736843
2884.000000	100.737180
2883.000000	100.736213
2882.000000	100.732387
2881.000000	100.726965
2880.000000	100.723098
2879.000000	100.722861
2878.000000	100.725593
2877.000000	100.728950
2876.000000	100.731317
2875.000000	100.732828
2874.000000	100.734251
2873.000000	100.735717
2872.000000	100.736884
2871.000000	100.737715
2870.000000	100.738565
2869.000000	100.739866
2868.000000	100.742044
2867.000000	100.745289
2866.000000	100.748971
2865.000000	100.751845
2864.000000	100.753470
2863.000000	100.755095
2862.000000	100.758355
2861.000000	100.763284
2860.000000	100.768271
2859.000000	100.771971
2858.000000	100.774614
2857.000000	100.777292
2856.000000	100.780414
2855.000000	100.783053
2854.000000	100.783674
2853.000000	100.781595
2852.000000	100.777814
2851.000000	100.774196
2850.000000	100.771818
2849.000000	100.770344
2848.000000	100.768770
2847.000000	100.766010
2846.000000	100.760971
2845.000000	100.753402
2844.000000	100.745097
2843.000000	100.738847
2842.000000	100.735350
2841.000000	100.732407
2840.000000	100.728166
2839.000000	100.723995
2838.000000	100.722506
2837.000000	100.723807
2836.000000	100.725755
2835.000000	100.727515
2834.000000	100.730486
2833.000000	100.735042
2832.000000	100.738498
2831.000000	100.737822
2830.000000	100.733335
2829.000000	100.728461
2828.000000	100.726267
2827.000000	100.727142
2826.000000	100.729571
2825.000000	100.731873
2824.000000	100.732918
2823.000000	100.732029
2822.000000	100.729146
2821.000000	100.725287
2820.000000	100.722279
2819.000000	100.721412
2818.000000	100.722386
2817.000000	100.723867
2816.000000	100.725005
2815.000000	100.725986
2814.000000	100.727105
2813.000000	100.728094
2812.000000	100.728671
2811.000000	100.729068
2810.000000	100.729494
2809.000000	100.729598
2808.000000	100.729033
2807.000000	100.728240
2806.000000	100.728100
2805.000000	100.728888
2804.000000	100.730061
2803.000000	100.730966
2802.000000	100.731442
2801.000000	100.731660
2800.000000	100.731778
2799.000000	100.731897
2798.000000	100.732068
2797.000000	100.732227
2796.000000	100.732279
2795.000000	100.732326
2794.000000	100.732639
2793.000000	100.733334
2792.000000	100.734218
2791.000000	100.734963
2790.000000	100.735450
2789.000000	100.735836
2788.000000	100.736336
2787.000000	100.737034
2786.000000	100.737895
2785.000000	100.738842
2784.000000	100.739750
2783.000000	100.740491
2782.000000	100.741013
2781.000000	100.741375
2780.000000	100.741713
2779.000000	100.742165
2778.000000	100.742803
2777.000000	100.743621
2776.000000	100.744556
2775.000000	100.745508
2774.000000	100.746364
2773.000000	100.747053
2772.000000	100.747584
2771.000000	100.748086
2770.000000	100.748716
2769.000000	100.749532
2768.000000	100.750469
2767.000000	100.751414
2766.000000	100.752306
2765.000000	100.753150
2764.000000	100.753982
2763.000000	100.754806
2762.000000	100.755554
2761.000000	100.756132
2760.000000	100.756543
2759.000000	100.756935
2758.000000	100.757436
2757.000000	100.758014
2756.000000	100.758556
2755.000000	100.759097
2754.000000	100.759815
2753.000000	100.760813
2752.000000	100.762023
2751.000000	100.763292
2750.000000	100.764452
2749.000000	100.765335
2748.000000	100.765858
2747.000000	100.766139
2746.000000	100.766453
2745.000000	100.766990
2744.000000	100.767731
2743.000000	100.768540
2742.000000	100.769261
2741.000000	100.769782
2740.000000	100.770119
2739.000000	100.770451
2738.000000	100.770945
2737.000000	100.771549
2736.000000	100.772095
2735.000000	100.772532
2734.000000	100.772950
2733.000000	100.773404
2732.000000	100.773831
2731.000000	100.774207
2730.000000	100.774639
2729.000000	100.775227
2728.000000	100.775930
2727.000000	100.776604
2726.000000	100.777134
2725.000000	100.777511
2724.000000	100.777777
2723.000000	100.777985
2722.000000	100.778173
2721.000000	100.778345
2720.000000	100.778510
2719.000000	100.778730
2718.000000	100.779062
2717.000000	100.779492
2716.000000	100.779931
2715.000000	100.780302
2714.000000	100.780603
2713.000000	100.780874
2712.000000	100.781126
2711.000000	100.781371
2710.000000	100.781675
2709.000000	100.782090
2708.000000	100.782520
2707.000000	100.782785
2706.000000	100.782837
2705.000000	100.782852
2704.000000	100.783055
2703.000000	100.783496
2702.000000	100.784023
2701.000000	100.784434
2700.000000	100.784617
2699.000000	100.784589
2698.000000	100.784533
2697.000000	100.784766
2696.000000	100.785566
2695.000000	100.786905
2694.000000	100.788267
2693.000000	100.788905
2692.000000	100.788416
2691.000000	100.787089
2690.000000	100.785730
2689.000000	100.784946
2688.000000	100.784709
2687.000000	100.784626
2686.000000	100.784447
2685.000000	100.784279
2684.000000	100.784390
2683.000000	100.784939
2682.000000	100.785764
2681.000000	100.786359
2680.000000	100.786299
2679.000000	100.785880
2678.000000	100.786117
2677.000000	100.787775
2676.000000	100.790475
2675.000000	100.792871
2674.000000	100.793882
2673.000000	100.793391
2672.000000	100.791943
2671.000000	100.790228
2670.000000	100.788821
2669.000000	100.787978
2668.000000	100.787402
2667.000000	100.786454
2666.000000	100.784898
2665.000000	100.783332
2664.000000	100.782637
2663.000000	100.783162
2662.000000	100.784605
2661.000000	100.786439
2660.000000	100.788183
2659.000000	100.789428
2658.000000	100.790008
2657.000000	100.790247
2656.000000	100.790727
2655.000000	100.791554
2654.000000	100.792003
2653.000000	100.791234
2652.000000	100.789326
2651.000000	100.787380
2650.000000	100.786478
2649.000000	100.786700
2648.000000	100.787383
2647.000000	100.788095
2646.000000	100.788997
2645.000000	100.790276
2644.000000	100.791709
2643.000000	100.792890
2642.000000	100.793576
2641.000000	100.793645
2640.000000	100.793057
2639.000000	100.792078
2638.000000	100.791303
2637.000000	100.791196
2636.000000	100.791723
2635.000000	100.792544
2634.000000	100.793367
2633.000000	100.793996
2632.000000	100.794244
2631.000000	100.794029
2630.000000	100.793420
2629.000000	100.792403
2628.000000	100.790883
2627.000000	100.789124
2626.000000	100.787873
2625.000000	100.787677
2624.000000	100.788298
2623.000000	100.789009
2622.000000	100.789405
2621.000000	100.789671
2620.000000	100.790113
2619.000000	100.790781
2618.000000	100.791506
2617.000000	100.792050
2616.000000	100.792203
2615.000000	100.791913
2614.000000	100.791363
2613.000000	100.790778
2612.000000	100.790147
2611.000000	100.789354
2610.000000	100.788609
2609.000000	100.788464
2608.000000	100.789204
2607.000000	100.790361
2606.000000	100.791001
2605.000000	100.790600
2604.000000	100.789498
2603.000000	100.788593
2602.000000	100.788565
2601.000000	100.789445
2600.000000	100.790839
2599.000000	100.792390
2598.000000	100.793911
2597.000000	100.795132
2596.000000	100.795610
2595.000000	100.795079
2594.000000	100.793769
2593.000000	100.792255
2592.000000	100.791061
2591.000000	100.790482
2590.000000	100.790626
2589.000000	100.791398
2588.000000	100.792478
2587.000000	100.793467
2586.000000	100.794072
2585.000000	100.794191
2584.000000	100.794036
2583.000000	100.794175
2582.000000	100.795062
2581.000000	100.796255
2580.000000	100.796465
2579.000000	100.794773
2578.000000	100.791637
2577.000000	100.788486
2576.000000	100.786450
2575.000000	100.785886
2574.000000	100.786759
2573.000000	100.788675
2572.000000	100.790670
2571.000000	100.791835
2570.000000	100.792394
2569.000000	100.793504
2568.000000	100.795752
2567.000000	100.798363
2566.000000	100.800128
2565.000000	100.800686
2564.000000	100.800556
2563.000000	100.800369
2562.000000	100.800530
2561.000000	100.801340
2560.000000	100.802947
2559.000000	100.805109
2558.000000	100.807270
2557.000000	100.808875
2556.000000	100.809589
2555.000000	100.809460
2554.000000	100.809144
2553.000000	100.809714
2552.000000	100.811711
2551.000000	100.814309
2550.000000	100.815823
2549.000000	100.815316
2548.000000	100.813428
2547.000000	100.811564
2546.000000	100.810435
2545.000000	100.809659
2544.000000	100.808697
2543.000000	100.807725
2542.000000	100.807347
2541.000000	100.807714
2540.000000	100.808263
2539.000000	100.808317
2538.000000	100.807760
2537.000000	100.807104
2536.000000	100.806980
2535.000000	100.807552
2534.000000	100.808394
2533.000000	100.808922
2532.000000	100.808940
2531.000000	100.808711
2530.000000	100.808579
2529.000000	100.808663
2528.000000	100.808934
2527.000000	100.809372
2526.000000	100.809907
2525.000000	100.810317
2524.000000	100.810390
2523.000000	100.810170
2522.000000	100.809864
2521.000000	100.809576
2520.000000	100.809253
2519.000000	100.808888
2518.000000	100.808572
2517.000000	100.808369
2516.000000	100.808275
2515.000000	100.808313
2514.000000	100.808521
2513.000000	100.808806
2512.000000	100.808946
2511.000000	100.808800
2510.000000	100.808416
2509.000000	100.807978
2508.000000	100.807685
2507.000000	100.807637
2506.000000	100.807822
2505.000000	100.808102
2504.000000	100.808273
2503.000000	100.808265
2502.000000	100.808231
2501.000000	100.808408
2500.000000	100.808870
2499.000000	100.809444
2498.000000	100.809871
2497.000000	100.810035
2496.000000	100.809998
2495.000000	100.809896
2494.000000	100.809813
2493.000000	100.809731
2492.000000	100.809600
2491.000000	100.809433
2490.000000	100.809310
2489.000000	100.809279
2488.000000	100.809303
2487.000000	100.809365
2486.000000	100.809537
2485.000000	100.809876
2484.000000	100.810269
2483.000000	100.810517
2482.000000	100.810547
2481.000000	100.810458
2480.000000	100.810374
2479.000000	100.810322
2478.000000	100.810282
2477.000000	100.810289
2476.000000	100.810451
2475.000000	100.810882
2474.000000	100.811596
2473.000000	100.812410
2472.000000	100.813005
2471.000000	100.813206
2470.000000	100.813121
2469.000000	100.813012
2468.000000	100.813023
2467.000000	100.813152
2466.000000	100.813462
2465.000000	100.814078
2464.000000	100.814919
2463.000000	100.815674
2462.000000	100.816169
2461.000000	100.816555
2460.000000	100.817048
2459.000000	100.817624
2458.000000	100.818092
2457.000000	100.818403
2456.000000	100.818729
2455.000000	100.819230
2454.000000	100.819873
2453.000000	100.820500
2452.000000	100.821015
2451.000000	100.821486
2450.000000	100.822071
2449.000000	100.822835
2448.000000	100.823669
2447.000000	100.824423
2446.000000	100.825093
2445.000000	100.825793
2444.000000	100.826551
2443.000000	100.827245
2442.000000	100.827770
2441.000000	100.828181
2440.000000	100.828644
2439.000000	100.829249
2438.000000	100.829944
2437.000000	100.830632
2436.000000	100.831262
2435.000000	100.831824
2434.000000	100.832313
2433.000000	100.832688
2432.000000	100.832917
2431.000000	100.833178
2430.000000	100.833967
2429.000000	100.835723
2428.000000	100.838188
2427.000000	100.840423
2426.000000	100.841730
2425.000000	100.842133
2424.000000	100.841948
2423.000000	100.841257
2422.000000	100.840161
2421.000000	100.839189
2420.000000	100.838963
2419.000000	100.839566
2418.000000	100.840529
2417.000000	100.841333
2416.000000	100.841779
2415.000000	100.842101
2414.000000	100.842824
2413.000000	100.844122
2412.000000	100.845252
2411.000000	100.845210
2410.000000	100.844161
2409.000000	100.843538
2408.000000	100.844227
2407.000000	100.845448
2406.000000	100.846107
2405.000000	100.846539
2404.000000	100.847893
2403.000000	100.850238
2402.000000	100.852348
2401.000000	100.853362
2400.000000	100.853497
2399.000000	100.853200
2398.000000	100.852382
2397.000000	100.850711
2396.000000	100.848331
2395.000000	100.845919
2394.000000	100.844294
2393.000000	100.844027
2392.000000	100.845016
2391.000000	100.846337
2390.000000	100.846851
2389.000000	100.846150
2388.000000	100.844703
2387.000000	100.843160
2386.000000	100.841761
2385.000000	100.840426
2384.000000	100.839097
2383.000000	100.837781
2382.000000	100.836407
2381.000000	100.834828
2380.000000	100.832961
2379.000000	100.830962
2378.000000	100.829280
2377.000000	100.828378
2376.000000	100.828216
2375.000000	100.828134
2374.000000	100.827491
2373.000000	100.826304
2372.000000	100.825070
2371.000000	100.824208
2370.000000	100.823948
2369.000000	100.824366
2368.000000	100.824925
2367.000000	100.824450
2366.000000	100.822244
2365.000000	100.818943
2364.000000	100.815992
2363.000000	100.814216
2362.000000	100.813274
2361.000000	100.812207
2360.000000	100.810075
2359.000000	100.806719
2358.000000	100.803525
2357.000000	100.802309
2356.000000	100.803263
2355.000000	100.804607
2354.000000	100.805041
2353.000000	100.804897
2352.000000	100.804792
2351.000000	100.804525
2350.000000	100.803574
2349.000000	100.802097
2348.000000	100.800803
2347.000000	100.800290
2346.000000	100.800154
2345.000000	100.799377
2344.000000	100.797947
2343.000000	100.796451
2342.000000	100.794852
2341.000000	100.792481
2340.000000	100.789827
2339.000000	100.788360
2338.000000	100.789008
2337.000000	100.791293
2336.000000	100.793751
2335.000000	100.795592
2334.000000	100.796932
2333.000000	100.798101
2332.000000	100.798633
2331.000000	100.798745
2330.000000	100.798970
2329.000000	100.799835
2328.000000	100.800572
2327.000000	100.800933
2326.000000	100.801054
2325.000000	100.801308
2324.000000	100.801794
2323.000000	100.802935
2322.000000	100.804919
2321.000000	100.806891
2320.000000	100.807475
2319.000000	100.806752
2318.000000	100.806074
2317.000000	100.806803
2316.000000	100.808546
2315.000000	100.810513
2314.000000	100.811955
2313.000000	100.813024
2312.000000	100.813638
2311.000000	100.814092
2310.000000	100.814444
2309.000000	100.814961
2308.000000	100.815666
2307.000000	100.816979
2306.000000	100.818972
2305.000000	100.821221
2304.000000	100.822777
2303.000000	100.823402
2302.000000	100.823554
2301.000000	100.824095
2300.000000	100.825399
2299.000000	100.827544
2298.000000	100.829990
2297.000000	100.831945
2296.000000	100.832531
2295.000000	100.831692
2294.000000	100.830123
2293.000000	100.828895
2292.000000	100.828631
2291.000000	100.829263
2290.000000	100.829988
2289.000000	100.829879
2288.000000	100.828811
2287.000000	100.827660
2286.000000	100.827249
2285.000000	100.827228
2284.000000	100.826731
2283.000000	100.825841
2282.000000	100.825672
2281.000000	100.826709
2280.000000	100.828085
2279.000000	100.828804
2278.000000	100.829141
2277.000000	100.830006
2276.000000	100.831399
2275.000000	100.832341
2274.000000	100.832203
2273.000000	100.831328
2272.000000	100.830330
2271.000000	100.829467
2270.000000	100.828778
2269.000000	100.828267
2268.000000	100.827718
2267.000000	100.826851
2266.000000	100.825821
2265.000000	100.825204
2264.000000	100.825235
2263.000000	100.825449
2262.000000	100.825268
2261.000000	100.824661
2260.000000	100.823966
2259.000000	100.823390
2258.000000	100.822994
2257.000000	100.822935
2256.000000	100.823323
2255.000000	100.823889
2254.000000	100.824095
2253.000000	100.823602
2252.000000	100.822525
2251.000000	100.821314
2250.000000	100.820463
2249.000000	100.820270
2248.000000	100.820692
2247.000000	100.821418
2246.000000	100.822036
2245.000000	100.822230
2244.000000	100.821845
2243.000000	100.820908
2242.000000	100.819687
2241.000000	100.818567
2240.000000	100.817733
2239.000000	100.817041
2238.000000	100.816309
2237.000000	100.815651
2236.000000	100.815354
2235.000000	100.815441
2234.000000	100.815569
2233.000000	100.815436
2232.000000	100.815146
2231.000000	100.815024
2230.000000	100.815154
2229.000000	100.815255
2228.000000	100.815072
2227.000000	100.814789
2226.000000	100.814846
2225.000000	100.815364
2224.000000	100.815950
2223.000000	100.816187
2222.000000	100.816173
2221.000000	100.816380
2220.000000	100.817045
2219.000000	100.817922
2218.000000	100.818552
2217.000000	100.818700
2216.000000	100.818464
2215.000000	100.818180
2214.000000	100.818216
2213.000000	100.818724
2212.000000	100.819529
2211.000000	100.820203
2210.000000	100.820468
2209.000000	100.820434
2208.000000	100.820449
2207.000000	100.820689
2206.000000	100.821021
2205.000000	100.821255
2204.000000	100.821387
2203.000000	100.821523
2202.000000	100.821700
2201.000000	100.821869
2200.000000	100.821997
2199.000000	100.822108
2198.000000	100.822214
2197.000000	100.822287
2196.000000	100.822315
2195.000000	100.822344
2194.000000	100.822450
2193.000000	100.822660
2192.000000	100.822935
2191.000000	100.823217
2190.000000	100.823466
2189.000000	100.823649
2188.000000	100.823737
2187.000000	100.823736
2186.000000	100.823695
2185.000000	100.823670
2184.000000	100.823680
2183.000000	100.823715
2182.000000	100.823760
2181.000000	100.823808
2180.000000	100.823842
2179.000000	100.823831
2178.000000	100.823754
2177.000000	100.823626
2176.000000	100.823485
2175.000000	100.823340
2174.000000	100.823180
2173.000000	100.823003
2172.000000	100.822828
2171.000000	100.822688
2170.000000	100.822595
2169.000000	100.822534
2168.000000	100.822489
2167.000000	100.822449
2166.000000	100.822412
2165.000000	100.822381
2164.000000	100.822356
2163.000000	100.822342
2162.000000	100.822339
2161.000000	100.822345
2160.000000	100.822361
2159.000000	100.822383
2158.000000	100.822410
2157.000000	100.822440
2156.000000	100.822477
2155.000000	100.822524
2154.000000	100.822585
2153.000000	100.822655
2152.000000	100.822730
2151.000000	100.822806
2150.000000	100.822884
2149.000000	100.822963
2148.000000	100.823042
2147.000000	100.823119
2146.000000	100.823196
2145.000000	100.823270
2144.000000	100.823338
2143.000000	100.823408
2142.000000	100.823502
2141.000000	100.823648
2140.000000	100.823845
2139.000000	100.824054
2138.000000	100.824242
2137.000000	100.824412
2136.000000	100.824601
2135.000000	100.824844
2134.000000	100.825137
2133.000000	100.825438
2132.000000	100.825724
2131.000000	100.826021
2130.000000	100.826407
2129.000000	100.826945
2128.000000	100.827596
2127.000000	100.828200
2126.000000	100.828605
2125.000000	100.828817
2124.000000	100.828978
2123.000000	100.829179
2122.000000	100.829391
2121.000000	100.829586
2120.000000	100.829812
2119.000000	100.830120
2118.000000	100.830454
2117.000000	100.830713
2116.000000	100.830912
2115.000000	100.831198
2114.000000	100.831687
2113.000000	100.832343
2112.000000	100.833016
2111.000000	100.833544
2110.000000	100.833788
2109.000000	100.833662
2108.000000	100.833288
2107.000000	100.833077
2106.000000	100.833429
2105.000000	100.834301
2104.000000	100.835190
2103.000000	100.835692
2102.000000	100.835982
2101.000000	100.836510
2100.000000	100.837395
2099.000000	100.838302
2098.000000	100.838872
2097.000000	100.839102
2096.000000	100.839262
2095.000000	100.839634
2094.000000	100.840382
2093.000000	100.841568
2092.000000	100.843058
2091.000000	100.844478
2090.000000	100.845473
2089.000000	100.846004
2088.000000	100.846271
2087.000000	100.846347
2086.000000	100.846079
2085.000000	100.845466
2084.000000	100.844959
2083.000000	100.845160
2082.000000	100.846238
2081.000000	100.847706
2080.000000	100.848804
2079.000000	100.849120
2078.000000	100.848824
2077.000000	100.848414
2076.000000	100.848323
2075.000000	100.848748
2074.000000	100.849655
2073.000000	100.850788
2072.000000	100.851727
2071.000000	100.852121
2070.000000	100.851953
2069.000000	100.851540
2068.000000	100.851211
2067.000000	100.850947
2066.000000	100.850351
2065.000000	100.849103
2064.000000	100.847520
2063.000000	100.846541
2062.000000	100.846882
2061.000000	100.848243
2060.000000	100.849559
2059.000000	100.850124
2058.000000	100.850201
2057.000000	100.850396
2056.000000	100.850886
2055.000000	100.851538
2054.000000	100.852301
2053.000000	100.852934
2052.000000	100.852776
2051.000000	100.851483
2050.000000	100.849848
2049.000000	100.849157
2048.000000	100.849576
2047.000000	100.849782
2046.000000	100.848432
2045.000000	100.845474
2044.000000	100.841999
2043.000000	100.839274
2042.000000	100.837911
2041.000000	100.837483
2040.000000	100.836703
2039.000000	100.834565
2038.000000	100.831573
2037.000000	100.829357
2036.000000	100.828787
2035.000000	100.829060
2034.000000	100.829019
2033.000000	100.828770
2032.000000	100.829282
2031.000000	100.830792
2030.000000	100.832376
2029.000000	100.833001
2028.000000	100.832421
2027.000000	100.830975
2026.000000	100.829079
2025.000000	100.827028
2024.000000	100.825028
2023.000000	100.823140
2022.000000	100.821390
2021.000000	100.819994
2020.000000	100.819296
2019.000000	100.819429
2018.000000	100.820106
2017.000000	100.820729
2016.000000	100.820678
2015.000000	100.819701
2014.000000	100.818115
2013.000000	100.816554
2012.000000	100.815424
2011.000000	100.814675
2010.000000	100.814097
2009.000000	100.813539
2008.000000	100.812711
2007.000000	100.811205
2006.000000	100.809008
2005.000000	100.806739
2004.000000	100.805040
2003.000000	100.803928
2002.000000	100.803087
2001.000000	100.802582
2000.000000	100.802745
1999.000000	100.803542
1998.000000	100.804411
1997.000000	100.804820
1996.000000	100.804783
1995.000000	100.804786
1994.000000	100.805305
1993.000000	100.806375
1992.000000	100.807429
1991.000000	100.807685
1990.000000	100.806824
1989.000000	100.805193
1988.000000	100.803406
1987.000000	100.801899
1986.000000	100.800970
1985.000000	100.800871
1984.000000	100.801509
1983.000000	100.802210
1982.000000	100.802206
1981.000000	100.801367
1980.000000	100.800194
1979.000000	100.799223
1978.000000	100.798614
1977.000000	100.798356
1976.000000	100.798463
1975.000000	100.798840
1974.000000	100.799261
1973.000000	100.799686
1972.000000	100.800349
1971.000000	100.801362
1970.000000	100.802408
1969.000000	100.803019
1968.000000	100.803070
1967.000000	100.802848
1966.000000	100.802660
1965.000000	100.802477
1964.000000	100.802018
1963.000000	100.801125
1962.000000	100.800168
1961.000000	100.799949
1960.000000	100.800885
1959.000000	100.802238
1958.000000	100.802599
1957.000000	100.801480
1956.000000	100.799962
1955.000000	100.799507
1954.000000	100.800525
1953.000000	100.802511
1952.000000	100.804857
1951.000000	100.806835
1950.000000	100.807678
1949.000000	100.807376
1948.000000	100.806831
1947.000000	100.806599
1946.000000	100.805988
1945.000000	100.804192
1944.000000	100.801819
1943.000000	100.800348
1942.000000	100.800088
1941.000000	100.799826
1940.000000	100.798865
1939.000000	100.797931
1938.000000	100.797702
1937.000000	100.797691
1936.000000	100.797095
1935.000000	100.796057
1934.000000	100.795489
1933.000000	100.796067
1932.000000	100.797679
1931.000000	100.799468
1930.000000	100.800559
1929.000000	100.800479
1928.000000	100.799212
1927.000000	100.797213
1926.000000	100.795096
1925.000000	100.793452
1924.000000	100.792243
1923.000000	100.790733
1922.000000	100.788271
1921.000000	100.785130
1920.000000	100.782443
1919.000000	100.781154
1918.000000	100.780805
1917.000000	100.779587
1916.000000	100.775959
1915.000000	100.770369
1914.000000	100.764952
1913.000000	100.761541
1912.000000	100.759875
1911.000000	100.757975
1910.000000	100.754595
1909.000000	100.750616
1908.000000	100.747782
1907.000000	100.746561
1906.000000	100.745614
1905.000000	100.743315
1904.000000	100.738939
1903.000000	100.733179
1902.000000	100.727973
1901.000000	100.725163
1900.000000	100.725039
1899.000000	100.726177
1898.000000	100.726375
1897.000000	100.724038
1896.000000	100.718800
1895.000000	100.711812
1894.000000	100.705550
1893.000000	100.702135
1892.000000	100.701523
1891.000000	100.701804
1890.000000	100.701491
1889.000000	100.701269
1888.000000	100.702485
1887.000000	100.704718
1886.000000	100.705909
1885.000000	100.704422
1884.000000	100.700673
1883.000000	100.696795
1882.000000	100.694792
1881.000000	100.694760
1880.000000	100.695056
1879.000000	100.694235
1878.000000	100.692343
1877.000000	100.690475
1876.000000	100.689328
1875.000000	100.688495
1874.000000	100.687546
1873.000000	100.687076
1872.000000	100.687947
1871.000000	100.690075
1870.000000	100.692491
1869.000000	100.694438
1868.000000	100.695575
1867.000000	100.695328
1866.000000	100.693703
1865.000000	100.691984
1864.000000	100.691833
1863.000000	100.694038
1862.000000	100.698210
1861.000000	100.703255
1860.000000	100.707955
1859.000000	100.711601
1858.000000	100.714489
1857.000000	100.717627
1856.000000	100.721812
1855.000000	100.727141
1854.000000	100.733275
1853.000000	100.739505
1852.000000	100.744646
1851.000000	100.747913
1850.000000	100.749011
1849.000000	100.748399
1848.000000	100.747460
1847.000000	100.747839
1846.000000	100.749973
1845.000000	100.752145
1844.000000	100.752293
1843.000000	100.751165
1842.000000	100.751265
1841.000000	100.753289
1840.000000	100.756150
1839.000000	100.758920
1838.000000	100.761504
1837.000000	100.763980
1836.000000	100.765455
1835.000000	100.765120
1834.000000	100.764060
1833.000000	100.764606
1832.000000	100.767896
1831.000000	100.772253
1830.000000	100.774250
1829.000000	100.772867
1828.000000	100.770523
1827.000000	100.769664
1826.000000	100.770228
1825.000000	100.770650
1824.000000	100.770029
1823.000000	100.768414
1822.000000	100.766210
1821.000000	100.764026
1820.000000	100.762407
1819.000000	100.760948
1818.000000	100.758682
1817.000000	100.756141
1816.000000	100.755086
1815.000000	100.756050
1814.000000	100.757492
1813.000000	100.757737
1812.000000	100.757150
1811.000000	100.757032
1810.000000	100.757877
1809.000000	100.759321
1808.000000	100.760593
1807.000000	100.761094
1806.000000	100.760812
1805.000000	100.760007
1804.000000	100.758510
1803.000000	100.756065
1802.000000	100.753503
1801.000000	100.752457
1800.000000	100.753523
1799.000000	100.755063
1798.000000	100.755732
1797.000000	100.756016
1796.000000	100.756519
1795.000000	100.756694
1794.000000	100.755875
1793.000000	100.754794
1792.000000	100.755524
1791.000000	100.758279
1790.000000	100.761005
1789.000000	100.762459
1788.000000	100.762997
1787.000000	100.763366
1786.000000	100.764298
1785.000000	100.766659
1784.000000	100.770416
1783.000000	100.774116
1782.000000	100.776248
1781.000000	100.776597
1780.000000	100.777105
1779.000000	100.779434
1778.000000	100.782985
1777.000000	100.785582
1776.000000	100.785763
1775.000000	100.784341
1774.000000	100.783272
1773.000000	100.783871
1772.000000	100.787103
1771.000000	100.792849
1770.000000	100.798635
1769.000000	100.802350
1768.000000	100.804295
1767.000000	100.806305
1766.000000	100.809532
1765.000000	100.813549
1764.000000	100.817591
1763.000000	100.821137
1762.000000	100.823696
1761.000000	100.825103
1760.000000	100.826160
1759.000000	100.827543
1758.000000	100.829083
1757.000000	100.829645
1756.000000	100.828935
1755.000000	100.828077
1754.000000	100.827482
1753.000000	100.826206
1752.000000	100.823628
1751.000000	100.821278
1750.000000	100.821505
1749.000000	100.824681
1748.000000	100.829260
1747.000000	100.833967
1746.000000	100.837888
1745.000000	100.840017
1744.000000	100.840289
1743.000000	100.839602
1742.000000	100.838642
1741.000000	100.837491
1740.000000	100.836682
1739.000000	100.837137
1738.000000	100.838570
1737.000000	100.839265
1736.000000	100.837998
1735.000000	100.834353
1734.000000	100.829864
1733.000000	100.828176
1732.000000	100.829846
1731.000000	100.832917
1730.000000	100.835733
1729.000000	100.837191
1728.000000	100.836752
1727.000000	100.835135
1726.000000	100.833671
1725.000000	100.833149
1724.000000	100.833467
1723.000000	100.833303
1722.000000	100.831364
1721.000000	100.827579
1720.000000	100.822933
1719.000000	100.818277
1718.000000	100.813691
1717.000000	100.810051
1716.000000	100.807641
1715.000000	100.805302
1714.000000	100.802884
1713.000000	100.801437
1712.000000	100.801303
1711.000000	100.801581
1710.000000	100.801021
1709.000000	100.798987
1708.000000	100.795766
1707.000000	100.792040
1706.000000	100.788564
1705.000000	100.786271
1704.000000	100.784818
1703.000000	100.782935
1702.000000	100.780194
1701.000000	100.775766
1700.000000	100.769137
1699.000000	100.761911
1698.000000	100.755443
1697.000000	100.750553
1696.000000	100.748031
1695.000000	100.747486
1694.000000	100.747550
1693.000000	100.746927
1692.000000	100.744453
1691.000000	100.739775
1690.000000	100.733765
1689.000000	100.727803
1688.000000	100.722601
1687.000000	100.718426
1686.000000	100.715803
1685.000000	100.714960
1684.000000	100.715370
1683.000000	100.716195
1682.000000	100.716241
1681.000000	100.714950
1680.000000	100.712465
1679.000000	100.709458
1678.000000	100.706563
1677.000000	100.703692
1676.000000	100.700201
1675.000000	100.696194
1674.000000	100.692738
1673.000000	100.689950
1672.000000	100.686977
1671.000000	100.682748
1670.000000	100.677198
1669.000000	100.671827
1668.000000	100.668527
1667.000000	100.668025
1666.000000	100.669390
1665.000000	100.670744
1664.000000	100.670272
1663.000000	100.667342
1662.000000	100.663465
1661.000000	100.659781
1660.000000	100.655970
1659.000000	100.652267
1658.000000	100.649470
1657.000000	100.647171
1656.000000	100.644119
1655.000000	100.641095
1654.000000	100.640201
1653.000000	100.641378
1652.000000	100.640193
1651.000000	100.635653
1650.000000	100.629485
1649.000000	100.621841
1648.000000	100.614225
1647.000000	100.610045
1646.000000	100.610372
1645.000000	100.612104
1644.000000	100.612861
1643.000000	100.612087
1642.000000	100.610167
1641.000000	100.608038
1640.000000	100.606885
1639.000000	100.607701
1638.000000	100.610954
1637.000000	100.615907
1636.000000	100.619578
1635.000000	100.620517
1634.000000	100.619898
1633.000000	100.619092
1632.000000	100.617752
1631.000000	100.616067
1630.000000	100.615862
1629.000000	100.618156
1628.000000	100.621059
1627.000000	100.622132
1626.000000	100.621868
1625.000000	100.622592
1624.000000	100.625357
1623.000000	100.629076
1622.000000	100.632404
1621.000000	100.634368
1620.000000	100.634467
1619.000000	100.632764
1618.000000	100.630236
1617.000000	100.628647
1616.000000	100.629804
1615.000000	100.634106
1614.000000	100.639569
1613.000000	100.643733
1612.000000	100.646075
1611.000000	100.648473
1610.000000	100.653202
1609.000000	100.659809
1608.000000	100.665700
1607.000000	100.669710
1606.000000	100.673045
1605.000000	100.676545
1604.000000	100.680133
1603.000000	100.684257
1602.000000	100.690068
1601.000000	100.697984
1600.000000	100.707108
1599.000000	100.715831
1598.000000	100.722442
1597.000000	100.725978
1596.000000	100.727063
1595.000000	100.727472
1594.000000	100.728353
1593.000000	100.729243
1592.000000	100.729835
1591.000000	100.731656
1590.000000	100.736562
1589.000000	100.743919
1588.000000	100.750953
1587.000000	100.755935
1586.000000	100.759576
1585.000000	100.763089
1584.000000	100.766496
1583.000000	100.769922
1582.000000	100.774272
1581.000000	100.779792
1580.000000	100.785230
1579.000000	100.789457
1578.000000	100.792512
1577.000000	100.794882
1576.000000	100.796800
1575.000000	100.799164
1574.000000	100.802446
1573.000000	100.805551
1572.000000	100.807939
1571.000000	100.810455
1570.000000	100.814202
1569.000000	100.818758
1568.000000	100.822242
1567.000000	100.824304
1566.000000	100.825571
1565.000000	100.826351
1564.000000	100.826938
1563.000000	100.828486
1562.000000	100.832420
1561.000000	100.839385
1560.000000	100.844968
1559.000000	100.843387
1558.000000	100.840921
1557.000000	100.840608
1556.000000	100.841094
1555.000000	100.841814
1554.000000	100.843259
1553.000000	100.845796
1552.000000	100.849104
1551.000000	100.851866
1550.000000	100.852820
1549.000000	100.852397
1548.000000	100.851968
1547.000000	100.852304
1546.000000	100.852493
1545.000000	100.851095
1544.000000	100.848494
1543.000000	100.846912
1542.000000	100.847371
1541.000000	100.848439
1540.000000	100.847334
1539.000000	100.844089
1538.000000	100.841584
1537.000000	100.841126
1536.000000	100.841180
1535.000000	100.840267
1534.000000	100.838321
1533.000000	100.836421
1532.000000	100.835043
1531.000000	100.833218
1530.000000	100.830520
1529.000000	100.827193
1528.000000	100.823299
1527.000000	100.819390
1526.000000	100.817263
1525.000000	100.818507
1524.000000	100.822471
1523.000000	100.826259
1522.000000	100.826807
1521.000000	100.824366
1520.000000	100.822463
1519.000000	100.822878
1518.000000	100.824393
1517.000000	100.825326
1516.000000	100.825219
1515.000000	100.824487
1514.000000	100.823506
1513.000000	100.822410
1512.000000	100.821470
1511.000000	100.820791
1510.000000	100.820242
1509.000000	100.819727
1508.000000	100.819477
1507.000000	100.819543
1506.000000	100.819376
1505.000000	100.818439
1504.000000	100.817767
1503.000000	100.817725
1502.000000	100.817834
1501.000000	100.817789
1500.000000	100.817666
1499.000000	100.817679
1498.000000	100.817780
1497.000000	100.818115
1496.000000	100.819184
1495.000000	100.820773
1494.000000	100.822091
1493.000000	100.822316
1492.000000	100.820659
1491.000000	100.816620
1490.000000	100.811534
1489.000000	100.808578
1488.000000	100.808594
1487.000000	100.809096
1486.000000	100.808684
1485.000000	100.808375
1484.000000	100.809237
1483.000000	100.811358
1482.000000	100.813680
1481.000000	100.815518
1480.000000	100.817292
1479.000000	100.819837
1478.000000	100.823305
1477.000000	100.826903
1476.000000	100.829135
1475.000000	100.828473
1474.000000	100.824996
1473.000000	100.821099
1472.000000	100.820628
1471.000000	100.823785
1470.000000	100.827510
1469.000000	100.829695
1468.000000	100.830023
1467.000000	100.829115
1466.000000	100.828411
1465.000000	100.829272
1464.000000	100.831389
1463.000000	100.832922
1462.000000	100.832772
1461.000000	100.831699
1460.000000	100.830889
1459.000000	100.830957
1458.000000	100.830099
1457.000000	100.825845
1456.000000	100.820170
1455.000000	100.816919
1454.000000	100.816182
1453.000000	100.815695
1452.000000	100.814569
1451.000000	100.812903
1450.000000	100.810146
1449.000000	100.805929
1448.000000	100.801942
1447.000000	100.800276
1446.000000	100.800171
1445.000000	100.798155
1444.000000	100.792506
1443.000000	100.785140
1442.000000	100.779619
1441.000000	100.777573
1440.000000	100.777937
1439.000000	100.778892
1438.000000	100.778660
1437.000000	100.776350
1436.000000	100.773502
1435.000000	100.772268
1434.000000	100.772258
1433.000000	100.772244
1432.000000	100.771338
1431.000000	100.769156
1430.000000	100.765744
1429.000000	100.762478
1428.000000	100.761569
1427.000000	100.763797
1426.000000	100.767853
1425.000000	100.770955
1424.000000	100.772209
1423.000000	100.773416
1422.000000	100.775504
1421.000000	100.777128
1420.000000	100.775943
1419.000000	100.771566
1418.000000	100.766783
1417.000000	100.764093
1416.000000	100.764075
1415.000000	100.766351
1414.000000	100.769808
1413.000000	100.772890
1412.000000	100.775196
1411.000000	100.777741
1410.000000	100.780989
1409.000000	100.784333
1408.000000	100.787015
1407.000000	100.788358
1406.000000	100.788496
1405.000000	100.788608
1404.000000	100.790656
1403.000000	100.795032
1402.000000	100.799647
1401.000000	100.802350
1400.000000	100.802893
1399.000000	100.803468
1398.000000	100.806179
1397.000000	100.811093
1396.000000	100.817452
1395.000000	100.824402
1394.000000	100.830272
1393.000000	100.833320
1392.000000	100.834475
1391.000000	100.836084
1390.000000	100.839462
1389.000000	100.844355
1388.000000	100.849650
1387.000000	100.854009
1386.000000	100.856217
1385.000000	100.855725
1384.000000	100.853599
1383.000000	100.851976
1382.000000	100.851776
1381.000000	100.851703
1380.000000	100.849911
1379.000000	100.846868
1378.000000	100.845169
1377.000000	100.846194
1376.000000	100.848497
1375.000000	100.850052
1374.000000	100.850741
1373.000000	100.851301
1372.000000	100.851441
1371.000000	100.850425
1370.000000	100.848386
1369.000000	100.845788
1368.000000	100.843391
1367.000000	100.842211
1366.000000	100.842761
1365.000000	100.844261
1364.000000	100.844958
1363.000000	100.844093
1362.000000	100.843116
1361.000000	100.843372
1360.000000	100.843992
1359.000000	100.843558
1358.000000	100.842484
1357.000000	100.842751
1356.000000	100.845653
1355.000000	100.850220
1354.000000	100.854084
1353.000000	100.855800
1352.000000	100.855710
1351.000000	100.854837
1350.000000	100.853999
1349.000000	100.852983
1348.000000	100.851153
1347.000000	100.848445
1346.000000	100.845787
1345.000000	100.844513
1344.000000	100.845496
1343.000000	100.848539
1342.000000	100.852228
1341.000000	100.854470
1340.000000	100.853982
1339.000000	100.851613
1338.000000	100.849590
1337.000000	100.849265
1336.000000	100.850325
1335.000000	100.851631
1334.000000	100.852223
1333.000000	100.851913
1332.000000	100.851413
1331.000000	100.851783
1330.000000	100.853211
1329.000000	100.854434
1328.000000	100.854059
1327.000000	100.852200
1326.000000	100.850273
1325.000000	100.849241
1324.000000	100.849305
1323.000000	100.850589
1322.000000	100.852713
1321.000000	100.854117
1320.000000	100.853484
1319.000000	100.851871
1318.000000	100.851806
1317.000000	100.853798
1316.000000	100.855369
1315.000000	100.854086
1314.000000	100.850095
1313.000000	100.845432
1312.000000	100.842068
1311.000000	100.841255
1310.000000	100.843527
1309.000000	100.847902
1308.000000	100.851702
1307.000000	100.852609
1306.000000	100.851091
1305.000000	100.849612
1304.000000	100.849691
1303.000000	100.850536
1302.000000	100.850840
1301.000000	100.850999
1300.000000	100.852754
1299.000000	100.856607
1298.000000	100.860441
1297.000000	100.861314
1296.000000	100.858130
1295.000000	100.852038
1294.000000	100.844480
1293.000000	100.835815
1292.000000	100.826553
1291.000000	100.818881
1290.000000	100.815323
1289.000000	100.815880
1288.000000	100.817636
1287.000000	100.817673
1286.000000	100.815784
1285.000000	100.813903
1284.000000	100.813326
1283.000000	100.812934
1282.000000	100.810205
1281.000000	100.804196
1280.000000	100.797451
1279.000000	100.794256
1278.000000	100.796137
1277.000000	100.799695
1276.000000	100.799901
1275.000000	100.795386
1274.000000	100.789429
1273.000000	100.785943
1272.000000	100.785756
1271.000000	100.786940
1270.000000	100.787371
1269.000000	100.786279
1268.000000	100.784233
1267.000000	100.782484
1266.000000	100.781773
1265.000000	100.781476
1264.000000	100.780567
1263.000000	100.779665
1262.000000	100.781020
1261.000000	100.785339
1260.000000	100.789114
1259.000000	100.786812
1258.000000	100.776485
1257.000000	100.762627
1256.000000	100.752509
1255.000000	100.749256
1254.000000	100.748649
1253.000000	100.743307
1252.000000	100.729824
1251.000000	100.711393
1250.000000	100.693836
1249.000000	100.680049
1248.000000	100.668752
1247.000000	100.657529
1246.000000	100.645645
1245.000000	100.634051
1244.000000	100.623451
1243.000000	100.612894
1242.000000	100.600547
1241.000000	100.585942
1240.000000	100.570873
1239.000000	100.557461
1238.000000	100.545696
1237.000000	100.533577
1236.000000	100.519038
1235.000000	100.500784
1234.000000	100.478217
1233.000000	100.452497
1232.000000	100.427144
1231.000000	100.405075
1230.000000	100.384820
1229.000000	100.362122
1228.000000	100.335412
1227.000000	100.306764
1226.000000	100.276665
1225.000000	100.241101
1224.000000	100.195878
1223.000000	100.141315
1222.000000	100.080556
1221.000000	100.015483
1220.000000	99.946979
1219.000000	99.877253
1218.000000	99.808472
1217.000000	99.739861
1216.000000	99.668939
1215.000000	99.594915
1214.000000	99.518426
1213.000000	99.438730
1212.000000	99.353798
1211.000000	99.263263
1210.000000	99.169860
1209.000000	99.078198
1208.000000	98.992474
1207.000000	98.913654
1206.000000	98.837998
1205.000000	98.760543
1204.000000	98.680924
1203.000000	98.603141
1202.000000	98.528793
1201.000000	98.453882
1200.000000	98.374281
1199.000000	98.291638
1198.000000	98.211467
1197.000000	98.137185
1196.000000	98.067589
1195.000000	97.998070
1194.000000	97.923111
1193.000000	97.840194
1192.000000	97.752839
1191.000000	97.667719
1190.000000	97.587468
1189.000000	97.508316
1188.000000	97.425284
1187.000000	97.336850
1186.000000	97.244167
1185.000000	97.149379
1184.000000	97.055713
1183.000000	96.965394
1182.000000	96.875934
1181.000000	96.782027
1180.000000	96.682199
1179.000000	96.579574
1178.000000	96.475025
1177.000000	96.364685
1176.000000	96.246633
1175.000000	96.125272
1174.000000	96.005874
1173.000000	95.888557
1172.000000	95.770655
1171.000000	95.651448
1170.000000	95.531916
1169.000000	95.413395
1168.000000	95.298891
1167.000000	95.192583
1166.000000	95.097113
1165.000000	95.016226
1164.000000	94.961000
1163.000000	94.946300
1162.000000	94.976621
1161.000000	95.038475
1160.000000	95.108335
1159.000000	95.164907
1158.000000	95.194206
1157.000000	95.190088
1156.000000	95.154680
1155.000000	95.095787
1154.000000	95.020777
1153.000000	94.933817
1152.000000	94.838799
1151.000000	94.740686
1150.000000	94.642274
1149.000000	94.543328
1148.000000	94.444404
1147.000000	94.348065
1146.000000	94.255485
1145.000000	94.165539
1144.000000	94.077440
1143.000000	93.990059
1142.000000	93.899316
1141.000000	93.801894
1140.000000	93.701256
1139.000000	93.604106
1138.000000	93.511123
1137.000000	93.417702
1136.000000	93.323215
1135.000000	93.231485
1134.000000	93.141757
1133.000000	93.047934
1132.000000	92.948249
1131.000000	92.847307
1130.000000	92.746873
1129.000000	92.643299
1128.000000	92.536470
1127.000000	92.432269
1126.000000	92.332486
1125.000000	92.230273
1124.000000	92.119708
1123.000000	92.003319
1122.000000	91.887242
1121.000000	91.775515
1120.000000	91.671283
1119.000000	91.575824
1118.000000	91.483671
1117.000000	91.386116
1116.000000	91.281781
1115.000000	91.177205
1114.000000	91.076666
1113.000000	90.979442
1112.000000	90.886424
1111.000000	90.799071
1110.000000	90.711895
1109.000000	90.617222
1108.000000	90.517864
1107.000000	90.423518
1106.000000	90.334810
1105.000000	90.243584
1104.000000	90.149242
1103.000000	90.060660
1102.000000	89.980376
1101.000000	89.901362
1100.000000	89.821930
1099.000000	89.748314
1098.000000	89.679486
1097.000000	89.604179
1096.000000	89.518452
1095.000000	89.432624
1094.000000	89.355650
1093.000000	89.285328
1092.000000	89.218296
1091.000000	89.156493
1090.000000	89.098979
1089.000000	89.040204
1088.000000	88.980802
1087.000000	88.927648
1086.000000	88.879747
1085.000000	88.827638
1084.000000	88.770546
1083.000000	88.719896
1082.000000	88.681169
1081.000000	88.646124
1080.000000	88.608033
1079.000000	88.570595
1078.000000	88.536224
1077.000000	88.499021
1076.000000	88.455308
1075.000000	88.408242
1074.000000	88.356142
1073.000000	88.288279
1072.000000	88.197644
1071.000000	88.086823
1070.000000	87.957455
1069.000000	87.805657
1068.000000	87.632158
1067.000000	87.445183
1066.000000	87.249220
1065.000000	87.043092
1064.000000	86.833091
1063.000000	86.634414
1062.000000	86.454166
1061.000000	86.285904
1060.000000	86.125352
1059.000000	85.977221
1058.000000	85.841830
1057.000000	85.709587
1056.000000	85.574395
1055.000000	85.439134
1054.000000	85.303070
1053.000000	85.157682
1052.000000	85.000237
1051.000000	84.837008
1050.000000	84.667378
1049.000000	84.481041
1048.000000	84.276745
1047.000000	84.066388
1046.000000	83.855779
1045.000000	83.638827
1044.000000	83.414706
1043.000000	83.193728
1042.000000	82.981430
1041.000000	82.772270
1040.000000	82.563601
1039.000000	82.360811
1038.000000	82.164887
1037.000000	81.971323
1036.000000	81.785467
1035.000000	81.621963
1034.000000	81.484197
1033.000000	81.360158
1032.000000	81.241935
1031.000000	81.132756
1030.000000	81.032311
1029.000000	80.934094
1028.000000	80.841518
1027.000000	80.767954
1026.000000	80.715469
1025.000000	80.670086
1024.000000	80.621391
1023.000000	80.569692
1022.000000	80.511872
1021.000000	80.440331
1020.000000	80.360448
1019.000000	80.290075
1018.000000	80.236227
1017.000000	80.188422
1016.000000	80.137617
1015.000000	80.084588
1014.000000	80.028342
1013.000000	79.965685
1012.000000	79.904598
1011.000000	79.858474
1010.000000	79.824159
1009.000000	79.784519
1008.000000	79.735075
1007.000000	79.688865
1006.000000	79.653472
1005.000000	79.623987
1004.000000	79.600502
1003.000000	79.590510
1002.000000	79.590440
1001.000000	79.586398
1000.000000	79.577468
999.000000	79.577436
998.000000	79.589793
997.000000	79.602488
996.000000	79.611409
995.000000	79.627018
994.000000	79.652460
993.000000	79.677004
992.000000	79.697479
991.000000	79.725391
990.000000	79.766312
989.000000	79.812431
988.000000	79.861700
987.000000	79.924386
986.000000	80.004006
985.000000	80.091331
984.000000	80.183866
983.000000	80.292275
982.000000	80.420974
981.000000	80.560919
980.000000	80.707888
979.000000	80.869862
978.000000	81.050000
977.000000	81.240174
976.000000	81.437244
975.000000	81.648081
974.000000	81.872484
973.000000	82.098425
972.000000	82.320424
971.000000	82.546447
970.000000	82.781074
969.000000	83.018169
968.000000	83.255626
967.000000	83.500682
966.000000	83.754038
965.000000	84.004083
964.000000	84.243695
963.000000	84.478678
962.000000	84.713263
961.000000	84.940847
960.000000	85.155824
959.000000	85.362442
958.000000	85.565650
957.000000	85.763731
956.000000	85.955072
955.000000	86.141895
954.000000	86.322883
953.000000	86.492035
952.000000	86.648456
951.000000	86.797961
950.000000	86.942918
949.000000	87.080445
948.000000	87.211787
947.000000	87.341950
946.000000	87.468347
945.000000	87.581673
944.000000	87.680206
943.000000	87.771972
942.000000	87.861501
941.000000	87.946701
940.000000	88.030259
939.000000	88.120093
938.000000	88.214985
937.000000	88.303222
936.000000	88.379868
935.000000	88.453248
934.000000	88.530722
933.000000	88.610555
932.000000	88.691990
931.000000	88.780316
930.000000	88.876585
929.000000	88.974108
928.000000	89.070357
927.000000	89.171072
926.000000	89.277645
925.000000	89.381430
924.000000	89.475541
923.000000	89.562099
922.000000	89.643924
921.000000	89.720115
920.000000	89.794088
919.000000	89.874029
918.000000	89.959393
917.000000	90.037828
916.000000	90.102253
915.000000	90.161842
914.000000	90.230142
913.000000	90.311369
912.000000	90.404104
911.000000	90.509044
910.000000	90.626342
909.000000	90.753263
908.000000	90.890876
907.000000	91.046045
906.000000	91.221521
905.000000	91.410680
904.000000	91.606256
903.000000	91.807729
902.000000	92.016435
901.000000	92.230146
900.000000	92.446352
899.000000	92.664945
898.000000	92.884243
897.000000	93.099228
896.000000	93.306215
895.000000	93.505036
894.000000	93.695713
893.000000	93.877587
892.000000	94.052204
891.000000	94.222398
890.000000	94.388502
889.000000	94.549881
888.000000	94.708785
887.000000	94.866939
886.000000	95.020157
885.000000	95.163641
884.000000	95.301388
883.000000	95.441992
882.000000	95.584884
881.000000	95.719588
880.000000	95.840425
879.000000	95.954212
878.000000	96.071364
877.000000	96.196153
876.000000	96.327222
875.000000	96.459894
874.000000	96.586167
873.000000	96.700981
872.000000	96.811787
871.000000	96.934860
870.000000	97.078183
869.000000	97.232754
868.000000	97.382883
867.000000	97.519650
866.000000	97.642527
865.000000	97.754252
864.000000	97.858839
863.000000	97.961652
862.000000	98.067155
861.000000	98.176685
860.000000	98.289324
859.000000	98.403276
858.000000	98.515592
857.000000	98.622297
856.000000	98.719904
855.000000	98.806851
854.000000	98.884519
853.000000	98.957108
852.000000	99.027660
851.000000	99.092191
850.000000	99.141146
849.000000	99.170675
848.000000	99.190180
847.000000	99.213936
846.000000	99.245888
845.000000	99.276949
844.000000	99.296127
843.000000	99.298947
842.000000	99.285556
841.000000	99.257056
840.000000	99.216181
839.000000	99.167335
838.000000	99.112852
837.000000	99.051072
836.000000	98.979499
835.000000	98.898405
834.000000	98.812310
833.000000	98.731830
832.000000	98.673474
831.000000	98.650139
830.000000	98.657186
829.000000	98.672553
828.000000	98.676358
827.000000	98.669566
826.000000	98.670536
825.000000	98.694125
824.000000	98.736845
823.000000	98.781698
822.000000	98.814321
821.000000	98.832476
820.000000	98.840341
819.000000	98.837466
818.000000	98.816913
817.000000	98.772818
816.000000	98.704668
815.000000	98.612386
814.000000	98.491197
813.000000	98.333907
812.000000	98.134251
811.000000	97.883902
810.000000	97.569796
809.000000	97.180831
808.000000	96.717297
807.000000	96.190169
806.000000	95.613427
805.000000	95.004249
804.000000	94.390818
803.000000	93.809949
802.000000	93.291516
801.000000	92.851259
800.000000	92.500112
799.000000	92.249498
798.000000	92.102935
797.000000	92.051668
796.000000	92.081688
795.000000	92.176750
794.000000	92.315114
793.000000	92.474611
792.000000	92.641579
791.000000	92.805536
790.000000	92.947369
789.000000	93.044120
788.000000	93.083979
787.000000	93.065853
786.000000	92.987014
785.000000	92.844838
784.000000	92.651460
783.000000	92.433728
782.000000	92.215774
781.000000	92.013062
780.000000	91.845156
779.000000	91.739021
778.000000	91.712886
777.000000	91.767531
776.000000	91.896476
775.000000	92.091414
774.000000	92.333413
773.000000	92.592667
772.000000	92.844498
771.000000	93.077514
770.000000	93.283837
769.000000	93.453100
768.000000	93.582131
767.000000	93.681644
766.000000	93.766177
765.000000	93.842410
764.000000	93.911866
763.000000	93.978949
762.000000	94.050153
761.000000	94.128720
760.000000	94.214356
759.000000	94.305684
758.000000	94.400502
757.000000	94.495959
756.000000	94.589672
755.000000	94.678988
754.000000	94.760701
753.000000	94.835442
752.000000	94.910908
751.000000	94.995887
750.000000	95.091351
749.000000	95.191309
748.000000	95.291034
747.000000	95.390278
746.000000	95.490779
745.000000	95.596069
744.000000	95.712234
743.000000	95.843912
742.000000	95.990796
741.000000	96.150794
740.000000	96.321678
739.000000	96.494673
738.000000	96.653035
737.000000	96.785896
736.000000	96.899719
735.000000	97.008117
734.000000	97.114276
733.000000	97.211170
732.000000	97.294202
731.000000	97.363818
730.000000	97.418891
729.000000	97.457858
728.000000	97.487020
727.000000	97.518032
726.000000	97.555786
725.000000	97.598457
724.000000	97.648852
723.000000	97.714377
722.000000	97.794271
721.000000	97.877861
720.000000	97.959047
719.000000	98.042617
718.000000	98.131488
717.000000	98.217809
716.000000	98.293452
715.000000	98.362495
714.000000	98.435844
713.000000	98.515475
712.000000	98.589542
711.000000	98.642755
710.000000	98.670070
709.000000	98.680853
708.000000	98.689730
707.000000	98.701395
706.000000	98.702566
705.000000	98.673042
704.000000	98.604370
703.000000	98.501339
702.000000	98.366708
701.000000	98.191193
700.000000	97.959726
699.000000	97.666892
698.000000	97.328326
697.000000	96.986143
696.000000	96.702832
695.000000	96.534931
694.000000	96.505334
693.000000	96.597047
692.000000	96.768035
691.000000	96.972579
690.000000	97.174549
689.000000	97.353932
688.000000	97.507464
687.000000	97.640533
686.000000	97.758370
685.000000	97.863266
684.000000	97.956305
683.000000	98.040341
682.000000	98.121102
681.000000	98.205121
680.000000	98.293881
679.000000	98.381195
678.000000	98.458918
677.000000	98.520589
676.000000	98.562831
675.000000	98.593066
674.000000	98.624761
673.000000	98.667588
672.000000	98.726573
671.000000	98.805648
670.000000	98.908159
669.000000	99.024537
668.000000	99.113941
667.000000	99.152701
666.000000	99.172832
665.000000	99.194716
664.000000	99.226055
663.000000	99.267424
662.000000	99.306341
661.000000	99.328473
660.000000	99.337496
659.000000	99.347913
658.000000	99.357929
657.000000	99.345797
656.000000	99.302733
655.000000	99.252933
654.000000	99.218484
653.000000	99.192666
652.000000	99.165932
651.000000	99.144691
650.000000	99.130335
649.000000	99.112707
648.000000	99.102606
647.000000	99.134364
646.000000	99.216966
645.000000	99.318471
644.000000	99.413499
643.000000	99.510258
642.000000	99.616108
641.000000	99.710937
640.000000	99.776665
639.000000	99.824827
638.000000	99.871916
637.000000	99.911818
636.000000	99.936584
635.000000	99.961478
634.000000	100.009179
633.000000	100.085354
632.000000	100.182965
631.000000	100.289729
630.000000	100.382672
629.000000	100.440265
628.000000	100.470336
627.000000	100.506020
626.000000	100.563567
625.000000	100.625572
624.000000	100.673566
623.000000	100.711016
622.000000	100.745924
621.000000	100.779602
620.000000	100.822482
619.000000	100.888933
618.000000	100.962397
617.000000	101.000266
616.000000	100.986593
615.000000	100.945409
614.000000	100.893897
613.000000	100.823549
612.000000	100.746421
611.000000	100.714127
610.000000	100.756137
609.000000	100.829542
608.000000	100.864699
607.000000	100.834880
606.000000	100.764118
605.000000	100.695157
604.000000	100.669882
603.000000	100.711997
602.000000	100.793219
601.000000	100.839226
600.000000	100.798745
599.000000	100.695316
598.000000	100.595787
597.000000	100.537114
596.000000	100.508382
595.000000	100.487792
594.000000	100.469992
593.000000	100.467419
592.000000	100.502344
591.000000	100.584676
590.000000	100.683699
589.000000	100.745277
588.000000	100.750094
587.000000	100.734092
586.000000	100.742015
585.000000	100.774817
584.000000	100.798824
583.000000	100.789635
582.000000	100.753278
581.000000	100.720628
580.000000	100.729455
579.000000	100.792441
578.000000	100.872716
577.000000	100.921356
576.000000	100.938889
575.000000	100.964227
574.000000	101.002999
573.000000	101.019877
572.000000	101.014772
571.000000	101.041939
570.000000	101.120537
569.000000	101.175571
568.000000	101.121868
567.000000	100.968496
566.000000	100.809977
565.000000	100.732723
564.000000	100.764749
563.000000	100.877769
562.000000	100.989477
561.000000	101.016261
560.000000	100.950936
559.000000	100.858180
558.000000	100.785138
557.000000	100.713165
556.000000	100.623070
555.000000	100.548533
554.000000	100.526134
553.000000	100.544042
552.000000	100.584436
551.000000	100.661563
550.000000	100.780488
