PE IR       SUBTECH     SPECTRUM    ASCII       PEDS        4.00        
   -1
BH1 8-6 24 0_1.asc
24/05/14
13:07:36.00
24/05/14
13:08:06.00
Administrator
?品 044 用? Administrator 日期 Tuesday, May 14 2024
550.000000
#HDR
-1
-1
#GR
cm-1
%T
1.0
0.0
4000.000000
-1.000000
3451
8
99.432894
87.749881
#DATA
4000.000000	99.353421
3999.000000	99.349667
3998.000000	99.345711
3997.000000	99.342705
3996.000000	99.340689
3995.000000	99.339042
3994.000000	99.337586
3993.000000	99.336723
3992.000000	99.336580
3991.000000	99.336665
3990.000000	99.336378
3989.000000	99.335556
3988.000000	99.334406
3987.000000	99.333045
3986.000000	99.331355
3985.000000	99.329321
3984.000000	99.327342
3983.000000	99.326036
3982.000000	99.325809
3981.000000	99.326660
3980.000000	99.328218
3979.000000	99.329898
3978.000000	99.331035
3977.000000	99.331037
3976.000000	99.329646
3975.000000	99.327157
3974.000000	99.324312
3973.000000	99.321871
3972.000000	99.320262
3971.000000	99.319579
3970.000000	99.319615
3969.000000	99.319898
3968.000000	99.319880
3967.000000	99.319372
3966.000000	99.318802
3965.000000	99.318853
3964.000000	99.319751
3963.000000	99.320903
3962.000000	99.321346
3961.000000	99.320628
3960.000000	99.319152
3959.000000	99.317775
3958.000000	99.317020
3957.000000	99.316749
3956.000000	99.316514
3955.000000	99.316095
3954.000000	99.315668
3953.000000	99.315522
3952.000000	99.315704
3951.000000	99.315957
3950.000000	99.315980
3949.000000	99.315716
3948.000000	99.315346
3947.000000	99.315005
3946.000000	99.314554
3945.000000	99.313692
3944.000000	99.312308
3943.000000	99.310799
3942.000000	99.309903
3941.000000	99.310076
3940.000000	99.311119
3939.000000	99.312335
3938.000000	99.313048
3937.000000	99.313014
3936.000000	99.312376
3935.000000	99.311486
3934.000000	99.310777
3933.000000	99.310694
3932.000000	99.311515
3931.000000	99.313062
3930.000000	99.314616
3929.000000	99.315380
3928.000000	99.315104
3927.000000	99.314200
3926.000000	99.313250
3925.000000	99.312368
3924.000000	99.311224
3923.000000	99.309643
3922.000000	99.307896
3921.000000	99.306459
3920.000000	99.305688
3919.000000	99.305719
3918.000000	99.306469
3917.000000	99.307683
3916.000000	99.309065
3915.000000	99.310302
3914.000000	99.311028
3913.000000	99.310876
3912.000000	99.309702
3911.000000	99.307859
3910.000000	99.306061
3909.000000	99.304914
3908.000000	99.304577
3907.000000	99.304819
3906.000000	99.305263
3905.000000	99.305580
3904.000000	99.305627
3903.000000	99.305555
3902.000000	99.305669
3901.000000	99.306087
3900.000000	99.306601
3899.000000	99.306871
3898.000000	99.306737
3897.000000	99.306279
3896.000000	99.305615
3895.000000	99.304839
3894.000000	99.304076
3893.000000	99.303543
3892.000000	99.303527
3891.000000	99.304215
3890.000000	99.305562
3889.000000	99.307315
3888.000000	99.308805
3887.000000	99.309064
3886.000000	99.307819
3885.000000	99.306297
3884.000000	99.306208
3883.000000	99.307679
3882.000000	99.308690
3881.000000	99.307540
3880.000000	99.305243
3879.000000	99.304359
3878.000000	99.305782
3877.000000	99.307481
3876.000000	99.306560
3875.000000	99.302563
3874.000000	99.298139
3873.000000	99.296288
3872.000000	99.297597
3871.000000	99.300363
3870.000000	99.303366
3869.000000	99.307282
3868.000000	99.312487
3867.000000	99.316793
3866.000000	99.316530
3865.000000	99.310822
3864.000000	99.303643
3863.000000	99.299956
3862.000000	99.300550
3861.000000	99.302556
3860.000000	99.303805
3859.000000	99.304724
3858.000000	99.306758
3857.000000	99.311190
3856.000000	99.318748
3855.000000	99.328924
3854.000000	99.340293
3853.000000	99.352274
3852.000000	99.364058
3851.000000	99.372015
3850.000000	99.370835
3849.000000	99.358948
3848.000000	99.341038
3847.000000	99.323685
3846.000000	99.310494
3845.000000	99.301530
3844.000000	99.295404
3843.000000	99.291099
3842.000000	99.288603
3841.000000	99.288880
3840.000000	99.292703
3839.000000	99.299594
3838.000000	99.308231
3837.000000	99.316986
3836.000000	99.323529
3835.000000	99.325362
3834.000000	99.321450
3833.000000	99.313310
3832.000000	99.304342
3831.000000	99.297917
3830.000000	99.295617
3829.000000	99.296515
3828.000000	99.298072
3827.000000	99.298466
3826.000000	99.298075
3825.000000	99.298734
3824.000000	99.301482
3823.000000	99.304945
3822.000000	99.306819
3821.000000	99.307223
3820.000000	99.308785
3819.000000	99.313274
3818.000000	99.318827
3817.000000	99.321687
3816.000000	99.320875
3815.000000	99.318911
3814.000000	99.318229
3813.000000	99.318100
3812.000000	99.315920
3811.000000	99.311165
3810.000000	99.305918
3809.000000	99.301776
3808.000000	99.298693
3807.000000	99.296646
3806.000000	99.296621
3805.000000	99.299468
3804.000000	99.304218
3803.000000	99.307935
3802.000000	99.308364
3801.000000	99.306351
3800.000000	99.304680
3799.000000	99.304655
3798.000000	99.304651
3797.000000	99.303126
3796.000000	99.300861
3795.000000	99.299027
3794.000000	99.297322
3793.000000	99.294463
3792.000000	99.290050
3791.000000	99.285514
3790.000000	99.282649
3789.000000	99.281696
3788.000000	99.281625
3787.000000	99.281531
3786.000000	99.281298
3785.000000	99.281221
3784.000000	99.281280
3783.000000	99.280944
3782.000000	99.279586
3781.000000	99.277026
3780.000000	99.274036
3779.000000	99.272164
3778.000000	99.272444
3777.000000	99.274411
3776.000000	99.276533
3775.000000	99.277722
3774.000000	99.278293
3773.000000	99.279259
3772.000000	99.280783
3771.000000	99.281820
3770.000000	99.281531
3769.000000	99.280545
3768.000000	99.279909
3767.000000	99.279282
3766.000000	99.277422
3765.000000	99.274472
3764.000000	99.272581
3763.000000	99.273853
3762.000000	99.277917
3761.000000	99.281638
3760.000000	99.281682
3759.000000	99.277893
3758.000000	99.273702
3757.000000	99.272654
3756.000000	99.275682
3755.000000	99.281505
3754.000000	99.287460
3753.000000	99.290399
3752.000000	99.288758
3751.000000	99.285144
3750.000000	99.284690
3749.000000	99.289358
3748.000000	99.297435
3747.000000	99.307050
3746.000000	99.315892
3745.000000	99.319783
3744.000000	99.316369
3743.000000	99.308647
3742.000000	99.300472
3741.000000	99.291156
3740.000000	99.279700
3739.000000	99.269569
3738.000000	99.264373
3737.000000	99.263301
3736.000000	99.263108
3735.000000	99.262355
3734.000000	99.261868
3733.000000	99.261996
3732.000000	99.261834
3731.000000	99.261293
3730.000000	99.261360
3729.000000	99.261787
3728.000000	99.260491
3727.000000	99.255672
3726.000000	99.248009
3725.000000	99.240264
3724.000000	99.234447
3723.000000	99.230190
3722.000000	99.226456
3721.000000	99.223322
3720.000000	99.221031
3719.000000	99.218636
3718.000000	99.214830
3717.000000	99.209671
3716.000000	99.205073
3715.000000	99.203420
3714.000000	99.205304
3713.000000	99.208730
3712.000000	99.210545
3711.000000	99.208860
3710.000000	99.203560
3709.000000	99.195000
3708.000000	99.183903
3707.000000	99.172136
3706.000000	99.161994
3705.000000	99.154510
3704.000000	99.148934
3703.000000	99.143955
3702.000000	99.139634
3701.000000	99.137437
3700.000000	99.137978
3699.000000	99.139558
3698.000000	99.139449
3697.000000	99.136408
3696.000000	99.131988
3695.000000	99.129299
3694.000000	99.130005
3693.000000	99.132832
3692.000000	99.134949
3691.000000	99.134448
3690.000000	99.131804
3689.000000	99.129656
3688.000000	99.130373
3687.000000	99.133499
3686.000000	99.136197
3685.000000	99.135890
3684.000000	99.132135
3683.000000	99.126493
3682.000000	99.120822
3681.000000	99.115730
3680.000000	99.110653
3679.000000	99.105010
3678.000000	99.099224
3677.000000	99.094391
3676.000000	99.091727
3675.000000	99.091970
3674.000000	99.094433
3673.000000	99.096912
3672.000000	99.096715
3671.000000	99.093035
3670.000000	99.087799
3669.000000	99.083264
3668.000000	99.079351
3667.000000	99.073845
3666.000000	99.065448
3665.000000	99.055919
3664.000000	99.048229
3663.000000	99.043690
3662.000000	99.041490
3661.000000	99.039917
3660.000000	99.037772
3659.000000	99.034720
3658.000000	99.030761
3657.000000	99.026119
3656.000000	99.021630
3655.000000	99.018479
3654.000000	99.017216
3653.000000	99.017179
3652.000000	99.017144
3651.000000	99.016064
3650.000000	99.013487
3649.000000	99.010316
3648.000000	99.007791
3647.000000	99.004921
3646.000000	98.999523
3645.000000	98.991247
3644.000000	98.981432
3643.000000	98.971588
3642.000000	98.963024
3641.000000	98.956925
3640.000000	98.953765
3639.000000	98.952464
3638.000000	98.950694
3637.000000	98.946705
3636.000000	98.940984
3635.000000	98.936085
3634.000000	98.934756
3633.000000	98.938037
3632.000000	98.944318
3631.000000	98.949180
3630.000000	98.947487
3629.000000	98.938794
3628.000000	98.929525
3627.000000	98.925126
3626.000000	98.923621
3625.000000	98.919948
3624.000000	98.913125
3623.000000	98.906769
3622.000000	98.904253
3621.000000	98.905270
3620.000000	98.906418
3619.000000	98.905190
3618.000000	98.902883
3617.000000	98.902447
3616.000000	98.905217
3615.000000	98.910514
3614.000000	98.916810
3613.000000	98.922950
3612.000000	98.928697
3611.000000	98.934116
3610.000000	98.938742
3609.000000	98.941780
3608.000000	98.942889
3607.000000	98.942185
3606.000000	98.939499
3605.000000	98.934339
3604.000000	98.926884
3603.000000	98.918547
3602.000000	98.911355
3601.000000	98.906869
3600.000000	98.905475
3599.000000	98.906407
3598.000000	98.908337
3597.000000	98.910411
3596.000000	98.913290
3595.000000	98.918558
3594.000000	98.926395
3593.000000	98.934511
3592.000000	98.939912
3591.000000	98.941377
3590.000000	98.940206
3589.000000	98.938687
3588.000000	98.937967
3587.000000	98.937485
3586.000000	98.936140
3585.000000	98.933532
3584.000000	98.930497
3583.000000	98.928623
3582.000000	98.928726
3581.000000	98.929924
3580.000000	98.930468
3579.000000	98.929547
3578.000000	98.928040
3577.000000	98.927436
3576.000000	98.928326
3575.000000	98.930057
3574.000000	98.931572
3573.000000	98.932345
3572.000000	98.932496
3571.000000	98.932363
3570.000000	98.932269
3569.000000	98.932605
3568.000000	98.933827
3567.000000	98.936160
3566.000000	98.939058
3565.000000	98.941184
3564.000000	98.941432
3563.000000	98.939825
3562.000000	98.937318
3561.000000	98.935019
3560.000000	98.933499
3559.000000	98.932652
3558.000000	98.932091
3557.000000	98.931679
3556.000000	98.931707
3555.000000	98.932536
3554.000000	98.934061
3553.000000	98.935558
3552.000000	98.936266
3551.000000	98.936188
3550.000000	98.936089
3549.000000	98.936679
3548.000000	98.937894
3547.000000	98.939069
3546.000000	98.939702
3545.000000	98.939919
3544.000000	98.940177
3543.000000	98.940698
3542.000000	98.941249
3541.000000	98.941367
3540.000000	98.940688
3539.000000	98.939185
3538.000000	98.937304
3537.000000	98.935861
3536.000000	98.935593
3535.000000	98.936595
3534.000000	98.938090
3533.000000	98.938967
3532.000000	98.938746
3531.000000	98.937982
3530.000000	98.937716
3529.000000	98.938447
3528.000000	98.939763
3527.000000	98.940931
3526.000000	98.941641
3525.000000	98.941995
3524.000000	98.942054
3523.000000	98.941779
3522.000000	98.941352
3521.000000	98.941201
3520.000000	98.941623
3519.000000	98.942583
3518.000000	98.943992
3517.000000	98.945905
3516.000000	98.948237
3515.000000	98.950462
3514.000000	98.951977
3513.000000	98.952756
3512.000000	98.953247
3511.000000	98.953509
3510.000000	98.952883
3509.000000	98.950872
3508.000000	98.948044
3507.000000	98.945770
3506.000000	98.945070
3505.000000	98.945951
3504.000000	98.947624
3503.000000	98.949130
3502.000000	98.949873
3501.000000	98.949839
3500.000000	98.949517
3499.000000	98.949544
3498.000000	98.950253
3497.000000	98.951595
3496.000000	98.953474
3495.000000	98.955889
3494.000000	98.958495
3493.000000	98.960337
3492.000000	98.960576
3491.000000	98.959410
3490.000000	98.958110
3489.000000	98.957901
3488.000000	98.958865
3487.000000	98.960199
3486.000000	98.961242
3485.000000	98.962002
3484.000000	98.962736
3483.000000	98.963441
3482.000000	98.963949
3481.000000	98.964281
3480.000000	98.964624
3479.000000	98.965002
3478.000000	98.965199
3477.000000	98.965010
3476.000000	98.964454
3475.000000	98.963718
3474.000000	98.963003
3473.000000	98.962485
3472.000000	98.962377
3471.000000	98.962867
3470.000000	98.963928
3469.000000	98.965215
3468.000000	98.966249
3467.000000	98.966734
3466.000000	98.966714
3465.000000	98.966417
3464.000000	98.966007
3463.000000	98.965552
3462.000000	98.965124
3461.000000	98.964821
3460.000000	98.964750
3459.000000	98.965056
3458.000000	98.965867
3457.000000	98.967122
3456.000000	98.968437
3455.000000	98.969299
3454.000000	98.969489
3453.000000	98.969213
3452.000000	98.968821
3451.000000	98.968445
3450.000000	98.968005
3449.000000	98.967525
3448.000000	98.967235
3447.000000	98.967352
3446.000000	98.967862
3445.000000	98.968523
3444.000000	98.969065
3443.000000	98.969350
3442.000000	98.969381
3441.000000	98.969291
3440.000000	98.969295
3439.000000	98.969556
3438.000000	98.970074
3437.000000	98.970689
3436.000000	98.971228
3435.000000	98.971629
3434.000000	98.971923
3433.000000	98.972155
3432.000000	98.972337
3431.000000	98.972496
3430.000000	98.972730
3429.000000	98.973172
3428.000000	98.973903
3427.000000	98.974868
3426.000000	98.975850
3425.000000	98.976549
3424.000000	98.976763
3423.000000	98.976535
3422.000000	98.976183
3421.000000	98.976085
3420.000000	98.976410
3419.000000	98.977061
3418.000000	98.977780
3417.000000	98.978319
3416.000000	98.978533
3415.000000	98.978410
3414.000000	98.978104
3413.000000	98.977886
3412.000000	98.977947
3411.000000	98.978240
3410.000000	98.978552
3409.000000	98.978769
3408.000000	98.978973
3407.000000	98.979294
3406.000000	98.979766
3405.000000	98.980393
3404.000000	98.981254
3403.000000	98.982445
3402.000000	98.983902
3401.000000	98.985290
3400.000000	98.986153
3399.000000	98.986236
3398.000000	98.985702
3397.000000	98.985055
3396.000000	98.984745
3395.000000	98.984800
3394.000000	98.984911
3393.000000	98.984824
3392.000000	98.984599
3391.000000	98.984501
3390.000000	98.984688
3389.000000	98.985049
3388.000000	98.985285
3387.000000	98.985152
3386.000000	98.984682
3385.000000	98.984208
3384.000000	98.984103
3383.000000	98.984436
3382.000000	98.984890
3381.000000	98.985040
3380.000000	98.984751
3379.000000	98.984276
3378.000000	98.984033
3377.000000	98.984233
3376.000000	98.984741
3375.000000	98.985253
3374.000000	98.985598
3373.000000	98.985843
3372.000000	98.986128
3371.000000	98.986413
3370.000000	98.986487
3369.000000	98.986233
3368.000000	98.985786
3367.000000	98.985382
3366.000000	98.985143
3365.000000	98.985036
3364.000000	98.985026
3363.000000	98.985167
3362.000000	98.985512
3361.000000	98.985970
3360.000000	98.986291
3359.000000	98.986264
3358.000000	98.985875
3357.000000	98.985301
3356.000000	98.984785
3355.000000	98.984467
3354.000000	98.984338
3353.000000	98.984289
3352.000000	98.984206
3351.000000	98.984048
3350.000000	98.983870
3349.000000	98.983788
3348.000000	98.983895
3347.000000	98.984187
3346.000000	98.984553
3345.000000	98.984843
3344.000000	98.984935
3343.000000	98.984801
3342.000000	98.984578
3341.000000	98.984545
3340.000000	98.984901
3339.000000	98.985566
3338.000000	98.986194
3337.000000	98.986491
3336.000000	98.986490
3335.000000	98.986450
3334.000000	98.986564
3333.000000	98.986796
3332.000000	98.986960
3331.000000	98.986884
3330.000000	98.986536
3329.000000	98.986059
3328.000000	98.985720
3327.000000	98.985686
3326.000000	98.985882
3325.000000	98.986078
3324.000000	98.986146
3323.000000	98.986178
3322.000000	98.986306
3321.000000	98.986506
3320.000000	98.986632
3319.000000	98.986594
3318.000000	98.986445
3317.000000	98.986305
3316.000000	98.986266
3315.000000	98.986355
3314.000000	98.986560
3313.000000	98.986848
3312.000000	98.987163
3311.000000	98.987436
3310.000000	98.987612
3309.000000	98.987668
3308.000000	98.987623
3307.000000	98.987530
3306.000000	98.987438
3305.000000	98.987368
3304.000000	98.987301
3303.000000	98.987202
3302.000000	98.987056
3301.000000	98.986880
3300.000000	98.986704
3299.000000	98.986536
3298.000000	98.986367
3297.000000	98.986186
3296.000000	98.985987
3295.000000	98.985771
3294.000000	98.985544
3293.000000	98.985309
3292.000000	98.985065
3291.000000	98.984806
3290.000000	98.984528
3289.000000	98.984228
3288.000000	98.983914
3287.000000	98.983594
3286.000000	98.983271
3285.000000	98.982941
3284.000000	98.982595
3283.000000	98.982229
3282.000000	98.981845
3281.000000	98.981448
3280.000000	98.981049
3279.000000	98.980657
3278.000000	98.980273
3277.000000	98.979891
3276.000000	98.979494
3275.000000	98.979066
3274.000000	98.978607
3273.000000	98.978127
3272.000000	98.977632
3271.000000	98.977124
3270.000000	98.976604
3269.000000	98.976079
3268.000000	98.975558
3267.000000	98.975050
3266.000000	98.974559
3265.000000	98.974080
3264.000000	98.973604
3263.000000	98.973120
3262.000000	98.972618
3261.000000	98.972099
3260.000000	98.971575
3259.000000	98.971062
3258.000000	98.970575
3257.000000	98.970111
3256.000000	98.969661
3255.000000	98.969207
3254.000000	98.968747
3253.000000	98.968290
3252.000000	98.967849
3251.000000	98.967436
3250.000000	98.967054
3249.000000	98.966693
3248.000000	98.966337
3247.000000	98.965975
3246.000000	98.965601
3245.000000	98.965206
3244.000000	98.964792
3243.000000	98.964367
3242.000000	98.963943
3241.000000	98.963532
3240.000000	98.963140
3239.000000	98.962762
3238.000000	98.962388
3237.000000	98.962003
3236.000000	98.961593
3235.000000	98.961160
3234.000000	98.960717
3233.000000	98.960286
3232.000000	98.959880
3231.000000	98.959497
3230.000000	98.959129
3229.000000	98.958765
3228.000000	98.958404
3227.000000	98.958049
3226.000000	98.957701
3225.000000	98.957355
3224.000000	98.957008
3223.000000	98.956660
3222.000000	98.956314
3221.000000	98.955977
3220.000000	98.955648
3219.000000	98.955327
3218.000000	98.955004
3217.000000	98.954671
3216.000000	98.954320
3215.000000	98.953948
3214.000000	98.953555
3213.000000	98.953147
3212.000000	98.952737
3211.000000	98.952343
3210.000000	98.951981
3209.000000	98.951631
3208.000000	98.951232
3207.000000	98.950710
3206.000000	98.950023
3205.000000	98.949251
3204.000000	98.948591
3203.000000	98.948232
3202.000000	98.948223
3201.000000	98.948444
3200.000000	98.948726
3199.000000	98.948927
3198.000000	98.948925
3197.000000	98.948653
3196.000000	98.948180
3195.000000	98.947731
3194.000000	98.947574
3193.000000	98.947836
3192.000000	98.948367
3191.000000	98.948785
3190.000000	98.948768
3189.000000	98.948368
3188.000000	98.947966
3187.000000	98.947741
3186.000000	98.947358
3185.000000	98.946432
3184.000000	98.945217
3183.000000	98.944508
3182.000000	98.944738
3181.000000	98.945433
3180.000000	98.945708
3179.000000	98.945113
3178.000000	98.943866
3177.000000	98.942518
3176.000000	98.941586
3175.000000	98.941257
3174.000000	98.941174
3173.000000	98.940731
3172.000000	98.939868
3171.000000	98.939275
3170.000000	98.939530
3169.000000	98.940428
3168.000000	98.941646
3167.000000	98.943693
3166.000000	98.947395
3165.000000	98.952341
3164.000000	98.956619
3163.000000	98.958615
3162.000000	98.958313
3161.000000	98.956708
3160.000000	98.954580
3159.000000	98.952100
3158.000000	98.949441
3157.000000	98.947122
3156.000000	98.945566
3155.000000	98.944637
3154.000000	98.943884
3153.000000	98.943160
3152.000000	98.942866
3151.000000	98.943519
3150.000000	98.945138
3149.000000	98.947129
3148.000000	98.948721
3147.000000	98.949452
3146.000000	98.949345
3145.000000	98.948827
3144.000000	98.948446
3143.000000	98.948454
3142.000000	98.948623
3141.000000	98.948663
3140.000000	98.948821
3139.000000	98.949720
3138.000000	98.951457
3137.000000	98.953183
3136.000000	98.953882
3135.000000	98.953492
3134.000000	98.952968
3133.000000	98.953276
3132.000000	98.954529
3131.000000	98.956173
3130.000000	98.957653
3129.000000	98.958819
3128.000000	98.959754
3127.000000	98.960467
3126.000000	98.960835
3125.000000	98.960804
3124.000000	98.960525
3123.000000	98.960303
3122.000000	98.960381
3121.000000	98.960779
3120.000000	98.961365
3119.000000	98.962007
3118.000000	98.962643
3117.000000	98.963246
3116.000000	98.963768
3115.000000	98.964156
3114.000000	98.964420
3113.000000	98.964669
3112.000000	98.965040
3111.000000	98.965587
3110.000000	98.966253
3109.000000	98.966890
3108.000000	98.967358
3107.000000	98.967617
3106.000000	98.967739
3105.000000	98.967865
3104.000000	98.968093
3103.000000	98.968420
3102.000000	98.968764
3101.000000	98.969027
3100.000000	98.969185
3099.000000	98.969309
3098.000000	98.969504
3097.000000	98.969818
3096.000000	98.970182
3095.000000	98.970444
3094.000000	98.970490
3093.000000	98.970350
3092.000000	98.970172
3091.000000	98.970069
3090.000000	98.970060
3089.000000	98.970148
3088.000000	98.970393
3087.000000	98.970867
3086.000000	98.971507
3085.000000	98.972085
3084.000000	98.972357
3083.000000	98.972235
3082.000000	98.971877
3081.000000	98.971618
3080.000000	98.971705
3079.000000	98.972072
3078.000000	98.972360
3077.000000	98.972272
3076.000000	98.971942
3075.000000	98.971838
3074.000000	98.972290
3073.000000	98.973246
3072.000000	98.974417
3071.000000	98.975529
3070.000000	98.976375
3069.000000	98.976849
3068.000000	98.977083
3067.000000	98.977394
3066.000000	98.977884
3065.000000	98.978252
3064.000000	98.978258
3063.000000	98.978125
3062.000000	98.978164
3061.000000	98.978248
3060.000000	98.978119
3059.000000	98.978086
3058.000000	98.978846
3057.000000	98.980536
3056.000000	98.982368
3055.000000	98.983397
3054.000000	98.983454
3053.000000	98.983242
3052.000000	98.983802
3051.000000	98.985813
3050.000000	98.989017
3049.000000	98.992159
3048.000000	98.993902
3047.000000	98.993985
3046.000000	98.993314
3045.000000	98.993071
3044.000000	98.993701
3043.000000	98.994685
3042.000000	98.995053
3041.000000	98.994204
3040.000000	98.992475
3039.000000	98.990897
3038.000000	98.990216
3037.000000	98.990228
3036.000000	98.990300
3035.000000	98.990363
3034.000000	98.990976
3033.000000	98.992487
3032.000000	98.994540
3031.000000	98.996365
3030.000000	98.997135
3029.000000	98.996207
3028.000000	98.993786
3027.000000	98.991528
3026.000000	98.991691
3025.000000	98.995195
3024.000000	99.000813
3023.000000	99.006404
3022.000000	99.010760
3021.000000	99.013921
3020.000000	99.016259
3019.000000	99.018051
3018.000000	99.019784
3017.000000	99.022183
3016.000000	99.025579
3015.000000	99.029413
3014.000000	99.032412
3013.000000	99.033272
3012.000000	99.031642
3011.000000	99.029026
3010.000000	99.028414
3009.000000	99.031933
3008.000000	99.038467
3007.000000	99.044059
3006.000000	99.045544
3005.000000	99.043823
3004.000000	99.043204
3003.000000	99.047462
3002.000000	99.056669
3001.000000	99.067290
3000.000000	99.074954
2999.000000	99.077479
2998.000000	99.076005
2997.000000	99.073883
2996.000000	99.074177
2995.000000	99.077555
2994.000000	99.082273
2993.000000	99.086418
2992.000000	99.090287
2991.000000	99.096152
2990.000000	99.105391
2989.000000	99.116340
2988.000000	99.125807
2987.000000	99.132622
2986.000000	99.138702
2985.000000	99.146343
2984.000000	99.155500
2983.000000	99.164527
2982.000000	99.172644
2981.000000	99.180351
2980.000000	99.187868
2979.000000	99.194876
2978.000000	99.201897
2977.000000	99.210088
2976.000000	99.218757
2975.000000	99.224605
2974.000000	99.224898
2973.000000	99.220693
2972.000000	99.215753
2971.000000	99.212513
2970.000000	99.210381
2969.000000	99.207769
2968.000000	99.204001
2967.000000	99.199053
2966.000000	99.193082
2965.000000	99.187015
2964.000000	99.182458
2963.000000	99.180016
2962.000000	99.178332
2961.000000	99.175569
2960.000000	99.171255
2959.000000	99.166083
2958.000000	99.160782
2957.000000	99.156134
2956.000000	99.153274
2955.000000	99.152724
2954.000000	99.153647
2953.000000	99.155272
2952.000000	99.158535
2951.000000	99.164747
2950.000000	99.172770
2949.000000	99.179248
2948.000000	99.182188
2947.000000	99.183026
2946.000000	99.184548
2945.000000	99.188065
2944.000000	99.193400
2943.000000	99.200319
2942.000000	99.208412
2941.000000	99.216068
2940.000000	99.221207
2939.000000	99.223577
2938.000000	99.225781
2937.000000	99.231603
2936.000000	99.243004
2935.000000	99.258169
2934.000000	99.272509
2933.000000	99.282667
2932.000000	99.290207
2931.000000	99.300456
2930.000000	99.316626
2929.000000	99.335551
2928.000000	99.350452
2927.000000	99.357518
2926.000000	99.358444
2925.000000	99.357185
2924.000000	99.355984
2923.000000	99.354910
2922.000000	99.353379
2921.000000	99.350416
2920.000000	99.344146
2919.000000	99.332720
2918.000000	99.316441
2917.000000	99.298516
2916.000000	99.283049
2915.000000	99.271748
2914.000000	99.262411
2913.000000	99.250982
2912.000000	99.235749
2911.000000	99.219657
2910.000000	99.208008
2909.000000	99.203623
2908.000000	99.204633
2907.000000	99.206914
2906.000000	99.207907
2905.000000	99.207621
2904.000000	99.206736
2903.000000	99.205178
2902.000000	99.202681
2901.000000	99.199482
2900.000000	99.195761
2899.000000	99.191055
2898.000000	99.185520
2897.000000	99.181550
2896.000000	99.182520
2895.000000	99.188955
2894.000000	99.196468
2893.000000	99.198796
2892.000000	99.193240
2891.000000	99.182628
2890.000000	99.172214
2889.000000	99.165427
2888.000000	99.162677
2887.000000	99.162667
2886.000000	99.163472
2885.000000	99.162989
2884.000000	99.160034
2883.000000	99.155623
2882.000000	99.152402
2881.000000	99.152226
2880.000000	99.154551
2879.000000	99.157196
2878.000000	99.158305
2877.000000	99.157593
2876.000000	99.156374
2875.000000	99.156728
2874.000000	99.159957
2873.000000	99.165066
2872.000000	99.168992
2871.000000	99.169080
2870.000000	99.165340
2869.000000	99.160123
2868.000000	99.155880
2867.000000	99.153657
2866.000000	99.153333
2865.000000	99.154395
2864.000000	99.156393
2863.000000	99.159270
2862.000000	99.163516
2861.000000	99.169598
2860.000000	99.177256
2859.000000	99.185746
2858.000000	99.194517
2857.000000	99.202813
2856.000000	99.208687
2855.000000	99.209727
2854.000000	99.205462
2853.000000	99.198446
2852.000000	99.192259
2851.000000	99.188478
2850.000000	99.186063
2849.000000	99.183062
2848.000000	99.178041
2847.000000	99.170300
2846.000000	99.159989
2845.000000	99.148389
2844.000000	99.137512
2843.000000	99.129114
2842.000000	99.124039
2841.000000	99.122043
2840.000000	99.121725
2839.000000	99.120938
2838.000000	99.118055
2837.000000	99.113087
2836.000000	99.107262
2835.000000	99.101660
2834.000000	99.096681
2833.000000	99.092577
2832.000000	99.089653
2831.000000	99.087794
2830.000000	99.086402
2829.000000	99.085055
2828.000000	99.083755
2827.000000	99.082468
2826.000000	99.080990
2825.000000	99.079294
2824.000000	99.077390
2823.000000	99.074920
2822.000000	99.071670
2821.000000	99.068498
2820.000000	99.066707
2819.000000	99.066246
2818.000000	99.065794
2817.000000	99.065245
2816.000000	99.066742
2815.000000	99.071997
2814.000000	99.079497
2813.000000	99.085699
2812.000000	99.088801
2811.000000	99.089789
2810.000000	99.089944
2809.000000	99.089025
2808.000000	99.086535
2807.000000	99.083436
2806.000000	99.081332
2805.000000	99.080430
2804.000000	99.079397
2803.000000	99.077290
2802.000000	99.074805
2801.000000	99.073288
2800.000000	99.073080
2799.000000	99.073416
2798.000000	99.073736
2797.000000	99.074433
2796.000000	99.076050
2795.000000	99.078161
2794.000000	99.079513
2793.000000	99.079155
2792.000000	99.077108
2791.000000	99.074102
2790.000000	99.071150
2789.000000	99.069375
2788.000000	99.069657
2787.000000	99.072116
2786.000000	99.076151
2785.000000	99.081015
2784.000000	99.086115
2783.000000	99.090821
2782.000000	99.094601
2781.000000	99.097537
2780.000000	99.100120
2779.000000	99.102188
2778.000000	99.102635
2777.000000	99.100689
2776.000000	99.097032
2775.000000	99.093134
2774.000000	99.089915
2773.000000	99.087606
2772.000000	99.086488
2771.000000	99.086909
2770.000000	99.088694
2769.000000	99.091094
2768.000000	99.093366
2767.000000	99.094992
2766.000000	99.095561
2765.000000	99.095127
2764.000000	99.094678
2763.000000	99.095534
2762.000000	99.098000
2761.000000	99.100990
2760.000000	99.103072
2759.000000	99.103636
2758.000000	99.102931
2757.000000	99.101556
2756.000000	99.100177
2755.000000	99.099394
2754.000000	99.099488
2753.000000	99.100300
2752.000000	99.101390
2751.000000	99.102285
2750.000000	99.102638
2749.000000	99.102404
2748.000000	99.101960
2747.000000	99.101873
2746.000000	99.102426
2745.000000	99.103460
2744.000000	99.104653
2743.000000	99.105805
2742.000000	99.106878
2741.000000	99.107897
2740.000000	99.108848
2739.000000	99.109589
2738.000000	99.109913
2737.000000	99.109807
2736.000000	99.109590
2735.000000	99.109715
2734.000000	99.110356
2733.000000	99.111276
2732.000000	99.112065
2731.000000	99.112563
2730.000000	99.112930
2729.000000	99.113341
2728.000000	99.113747
2727.000000	99.113970
2726.000000	99.113909
2725.000000	99.113669
2724.000000	99.113560
2723.000000	99.113891
2722.000000	99.114741
2721.000000	99.115914
2720.000000	99.117075
2719.000000	99.117991
2718.000000	99.118615
2717.000000	99.119054
2716.000000	99.119548
2715.000000	99.120264
2714.000000	99.121009
2713.000000	99.121350
2712.000000	99.121182
2711.000000	99.120968
2710.000000	99.121200
2709.000000	99.121801
2708.000000	99.122340
2707.000000	99.122674
2706.000000	99.123095
2705.000000	99.123889
2704.000000	99.125032
2703.000000	99.126265
2702.000000	99.127200
2701.000000	99.127419
2700.000000	99.126697
2699.000000	99.125149
2698.000000	99.123167
2697.000000	99.121360
2696.000000	99.120566
2695.000000	99.121451
2694.000000	99.123662
2693.000000	99.125737
2692.000000	99.126439
2691.000000	99.125990
2690.000000	99.125432
2689.000000	99.125122
2688.000000	99.124549
2687.000000	99.123435
2686.000000	99.122129
2685.000000	99.120930
2684.000000	99.119985
2683.000000	99.120104
2682.000000	99.122734
2681.000000	99.128462
2680.000000	99.135754
2679.000000	99.141649
2678.000000	99.143991
2677.000000	99.142732
2676.000000	99.139602
2675.000000	99.136650
2674.000000	99.134754
2673.000000	99.133400
2672.000000	99.131805
2671.000000	99.129979
2670.000000	99.128492
2669.000000	99.127637
2668.000000	99.127383
2667.000000	99.127871
2666.000000	99.129172
2665.000000	99.130731
2664.000000	99.131940
2663.000000	99.133368
2662.000000	99.136432
2661.000000	99.141325
2660.000000	99.145995
2659.000000	99.147961
2658.000000	99.146732
2657.000000	99.143961
2656.000000	99.141587
2655.000000	99.140072
2654.000000	99.138337
2653.000000	99.135090
2652.000000	99.130398
2651.000000	99.126146
2650.000000	99.124463
2649.000000	99.125507
2648.000000	99.127248
2647.000000	99.127693
2646.000000	99.126887
2645.000000	99.126174
2644.000000	99.126203
2643.000000	99.126486
2642.000000	99.126486
2641.000000	99.126225
2640.000000	99.125905
2639.000000	99.125712
2638.000000	99.125978
2637.000000	99.126772
2636.000000	99.127276
2635.000000	99.126386
2634.000000	99.124286
2633.000000	99.122790
2632.000000	99.123529
2631.000000	99.126288
2630.000000	99.129250
2629.000000	99.130789
2628.000000	99.130762
2627.000000	99.130005
2626.000000	99.129307
2625.000000	99.128979
2624.000000	99.129086
2623.000000	99.129633
2622.000000	99.130463
2621.000000	99.131206
2620.000000	99.131530
2619.000000	99.131363
2618.000000	99.130808
2617.000000	99.129918
2616.000000	99.128710
2615.000000	99.127405
2614.000000	99.126445
2613.000000	99.126169
2612.000000	99.126490
2611.000000	99.127005
2610.000000	99.127440
2609.000000	99.127821
2608.000000	99.128217
2607.000000	99.128569
2606.000000	99.128869
2605.000000	99.129271
2604.000000	99.129826
2603.000000	99.130333
2602.000000	99.130732
2601.000000	99.131426
2600.000000	99.132821
2599.000000	99.134584
2598.000000	99.135744
2597.000000	99.135649
2596.000000	99.134475
2595.000000	99.132844
2594.000000	99.131293
2593.000000	99.130254
2592.000000	99.130092
2591.000000	99.130730
2590.000000	99.131513
2589.000000	99.131786
2588.000000	99.131382
2587.000000	99.130243
2586.000000	99.128083
2585.000000	99.125100
2584.000000	99.122652
2583.000000	99.122292
2582.000000	99.124170
2581.000000	99.126867
2580.000000	99.128926
2579.000000	99.130272
2578.000000	99.131690
2577.000000	99.133562
2576.000000	99.135515
2575.000000	99.136956
2574.000000	99.137582
2573.000000	99.137498
2572.000000	99.137063
2571.000000	99.136567
2570.000000	99.136025
2569.000000	99.135411
2568.000000	99.135071
2567.000000	99.135558
2566.000000	99.136904
2565.000000	99.138319
2564.000000	99.138887
2563.000000	99.138495
2562.000000	99.137828
2561.000000	99.137636
2560.000000	99.138143
2559.000000	99.139101
2558.000000	99.140165
2557.000000	99.141178
2556.000000	99.142207
2555.000000	99.143292
2554.000000	99.144162
2553.000000	99.144393
2552.000000	99.143948
2551.000000	99.143407
2550.000000	99.143450
2549.000000	99.144133
2548.000000	99.144891
2547.000000	99.145170
2546.000000	99.144874
2545.000000	99.144286
2544.000000	99.143804
2543.000000	99.143781
2542.000000	99.144392
2541.000000	99.145508
2540.000000	99.146660
2539.000000	99.147289
2538.000000	99.147139
2537.000000	99.146406
2536.000000	99.145589
2535.000000	99.145031
2534.000000	99.144633
2533.000000	99.144128
2532.000000	99.143568
2531.000000	99.143365
2530.000000	99.143746
2529.000000	99.144407
2528.000000	99.144885
2527.000000	99.145153
2526.000000	99.145546
2525.000000	99.146193
2524.000000	99.146807
2523.000000	99.147028
2522.000000	99.146798
2521.000000	99.146355
2520.000000	99.146062
2519.000000	99.146196
2518.000000	99.146791
2517.000000	99.147571
2516.000000	99.148150
2515.000000	99.148408
2514.000000	99.148574
2513.000000	99.148948
2512.000000	99.149600
2511.000000	99.150348
2510.000000	99.150921
2509.000000	99.151170
2508.000000	99.151159
2507.000000	99.151139
2506.000000	99.151344
2505.000000	99.151769
2504.000000	99.152232
2503.000000	99.152586
2502.000000	99.152853
2501.000000	99.153128
2500.000000	99.153449
2499.000000	99.153808
2498.000000	99.154216
2497.000000	99.154693
2496.000000	99.155226
2495.000000	99.155777
2494.000000	99.156323
2493.000000	99.156864
2492.000000	99.157402
2491.000000	99.157940
2490.000000	99.158474
2489.000000	99.158997
2488.000000	99.159505
2487.000000	99.160001
2486.000000	99.160499
2485.000000	99.161013
2484.000000	99.161549
2483.000000	99.162104
2482.000000	99.162670
2481.000000	99.163243
2480.000000	99.163828
2479.000000	99.164428
2478.000000	99.165041
2477.000000	99.165657
2476.000000	99.166268
2475.000000	99.166871
2474.000000	99.167469
2473.000000	99.168066
2472.000000	99.168665
2471.000000	99.169267
2470.000000	99.169871
2469.000000	99.170476
2468.000000	99.171082
2467.000000	99.171690
2466.000000	99.172304
2465.000000	99.172931
2464.000000	99.173584
2463.000000	99.174270
2462.000000	99.174981
2461.000000	99.175689
2460.000000	99.176375
2459.000000	99.177035
2458.000000	99.177686
2457.000000	99.178346
2456.000000	99.179029
2455.000000	99.179742
2454.000000	99.180466
2453.000000	99.181156
2452.000000	99.181780
2451.000000	99.182358
2450.000000	99.182937
2449.000000	99.183519
2448.000000	99.184066
2447.000000	99.184588
2446.000000	99.185178
2445.000000	99.185918
2444.000000	99.186778
2443.000000	99.187651
2442.000000	99.188468
2441.000000	99.189254
2440.000000	99.190050
2439.000000	99.190788
2438.000000	99.191298
2437.000000	99.191485
2436.000000	99.191471
2435.000000	99.191579
2434.000000	99.192042
2433.000000	99.192798
2432.000000	99.193556
2431.000000	99.194125
2430.000000	99.194611
2429.000000	99.195221
2428.000000	99.196020
2427.000000	99.196912
2426.000000	99.197780
2425.000000	99.198558
2424.000000	99.199220
2423.000000	99.199773
2422.000000	99.200278
2421.000000	99.200821
2420.000000	99.201440
2419.000000	99.202075
2418.000000	99.202604
2417.000000	99.202947
2416.000000	99.203162
2415.000000	99.203426
2414.000000	99.203825
2413.000000	99.204264
2412.000000	99.204626
2411.000000	99.204933
2410.000000	99.205275
2409.000000	99.205695
2408.000000	99.206149
2407.000000	99.206590
2406.000000	99.207008
2405.000000	99.207410
2404.000000	99.207793
2403.000000	99.208155
2402.000000	99.208498
2401.000000	99.208825
2400.000000	99.209141
2399.000000	99.209453
2398.000000	99.209767
2397.000000	99.210088
2396.000000	99.210414
2395.000000	99.210742
2394.000000	99.211060
2393.000000	99.211357
2392.000000	99.211626
2391.000000	99.211866
2390.000000	99.212085
2389.000000	99.212287
2388.000000	99.212475
2387.000000	99.212647
2386.000000	99.212806
2385.000000	99.212958
2384.000000	99.213110
2383.000000	99.213265
2382.000000	99.213423
2381.000000	99.213582
2380.000000	99.213738
2379.000000	99.213890
2378.000000	99.214043
2377.000000	99.214203
2376.000000	99.214370
2375.000000	99.214540
2374.000000	99.214702
2373.000000	99.214851
2372.000000	99.214990
2371.000000	99.215129
2370.000000	99.215278
2369.000000	99.215435
2368.000000	99.215586
2367.000000	99.215717
2366.000000	99.215823
2365.000000	99.215911
2364.000000	99.215993
2363.000000	99.216078
2362.000000	99.216171
2361.000000	99.216268
2360.000000	99.216364
2359.000000	99.216461
2358.000000	99.216565
2357.000000	99.216679
2356.000000	99.216799
2355.000000	99.216909
2354.000000	99.216998
2353.000000	99.217068
2352.000000	99.217135
2351.000000	99.217218
2350.000000	99.217329
2349.000000	99.217467
2348.000000	99.217619
2347.000000	99.217771
2346.000000	99.217918
2345.000000	99.218062
2344.000000	99.218206
2343.000000	99.218346
2342.000000	99.218476
2341.000000	99.218593
2340.000000	99.218703
2339.000000	99.218810
2338.000000	99.218913
2337.000000	99.219010
2336.000000	99.219095
2335.000000	99.219161
2334.000000	99.219200
2333.000000	99.219210
2332.000000	99.219199
2331.000000	99.219174
2330.000000	99.219141
2329.000000	99.219092
2328.000000	99.219025
2327.000000	99.218946
2326.000000	99.218872
2325.000000	99.218815
2324.000000	99.218788
2323.000000	99.218794
2322.000000	99.218799
2321.000000	99.218749
2320.000000	99.218591
2319.000000	99.218332
2318.000000	99.218064
2317.000000	99.217873
2316.000000	99.217783
2315.000000	99.217666
2314.000000	99.217432
2313.000000	99.217095
2312.000000	99.216847
2311.000000	99.216737
2310.000000	99.216655
2309.000000	99.216359
2308.000000	99.215790
2307.000000	99.215043
2306.000000	99.214387
2305.000000	99.213975
2304.000000	99.213826
2303.000000	99.213760
2302.000000	99.213614
2301.000000	99.213330
2300.000000	99.213023
2299.000000	99.212734
2298.000000	99.212373
2297.000000	99.211750
2296.000000	99.210880
2295.000000	99.209982
2294.000000	99.209304
2293.000000	99.208846
2292.000000	99.208436
2291.000000	99.207930
2290.000000	99.207336
2289.000000	99.206718
2288.000000	99.206091
2287.000000	99.205471
2286.000000	99.204959
2285.000000	99.204675
2284.000000	99.204595
2283.000000	99.204537
2282.000000	99.204289
2281.000000	99.203802
2280.000000	99.203201
2279.000000	99.202684
2278.000000	99.202323
2277.000000	99.202021
2276.000000	99.201649
2275.000000	99.201213
2274.000000	99.200835
2273.000000	99.200571
2272.000000	99.200361
2271.000000	99.200121
2270.000000	99.199842
2269.000000	99.199576
2268.000000	99.199372
2267.000000	99.199255
2266.000000	99.199194
2265.000000	99.199072
2264.000000	99.198761
2263.000000	99.198254
2262.000000	99.197727
2261.000000	99.197363
2260.000000	99.197138
2259.000000	99.196900
2258.000000	99.196641
2257.000000	99.196548
2256.000000	99.196738
2255.000000	99.197112
2254.000000	99.197462
2253.000000	99.197595
2252.000000	99.197354
2251.000000	99.196683
2250.000000	99.195826
2249.000000	99.195256
2248.000000	99.195261
2247.000000	99.195718
2246.000000	99.196294
2245.000000	99.196790
2244.000000	99.197153
2243.000000	99.197244
2242.000000	99.196808
2241.000000	99.195754
2240.000000	99.194390
2239.000000	99.193373
2238.000000	99.193215
2237.000000	99.193726
2236.000000	99.194096
2235.000000	99.193726
2234.000000	99.192945
2233.000000	99.192601
2232.000000	99.193061
2231.000000	99.193894
2230.000000	99.194439
2229.000000	99.194425
2228.000000	99.194023
2227.000000	99.193609
2226.000000	99.193481
2225.000000	99.193568
2224.000000	99.193464
2223.000000	99.193017
2222.000000	99.192733
2221.000000	99.193250
2220.000000	99.194588
2219.000000	99.196293
2218.000000	99.198058
2217.000000	99.199740
2216.000000	99.200948
2215.000000	99.201271
2214.000000	99.200952
2213.000000	99.200791
2212.000000	99.201223
2211.000000	99.201968
2210.000000	99.202679
2209.000000	99.203472
2208.000000	99.204599
2207.000000	99.205983
2206.000000	99.207378
2205.000000	99.208664
2204.000000	99.209757
2203.000000	99.210473
2202.000000	99.210774
2201.000000	99.211013
2200.000000	99.211636
2199.000000	99.212688
2198.000000	99.213788
2197.000000	99.214532
2196.000000	99.214777
2195.000000	99.214643
2194.000000	99.214436
2193.000000	99.214541
2192.000000	99.215185
2191.000000	99.216265
2190.000000	99.217392
2189.000000	99.218170
2188.000000	99.218492
2187.000000	99.218553
2186.000000	99.218651
2185.000000	99.218915
2184.000000	99.219266
2183.000000	99.219588
2182.000000	99.219891
2181.000000	99.220280
2180.000000	99.220806
2179.000000	99.221412
2178.000000	99.221995
2177.000000	99.222480
2176.000000	99.222836
2175.000000	99.223080
2174.000000	99.223294
2173.000000	99.223596
2172.000000	99.224040
2171.000000	99.224558
2170.000000	99.225029
2169.000000	99.225392
2168.000000	99.225670
2167.000000	99.225886
2166.000000	99.226020
2165.000000	99.226086
2164.000000	99.226157
2163.000000	99.226296
2162.000000	99.226505
2161.000000	99.226770
2160.000000	99.227104
2159.000000	99.227514
2158.000000	99.227953
2157.000000	99.228336
2156.000000	99.228634
2155.000000	99.228885
2154.000000	99.229155
2153.000000	99.229480
2152.000000	99.229857
2151.000000	99.230260
2150.000000	99.230662
2149.000000	99.231045
2148.000000	99.231420
2147.000000	99.231823
2146.000000	99.232285
2145.000000	99.232796
2144.000000	99.233328
2143.000000	99.233861
2142.000000	99.234394
2141.000000	99.234929
2140.000000	99.235466
2139.000000	99.236001
2138.000000	99.236533
2137.000000	99.237063
2136.000000	99.237596
2135.000000	99.238137
2134.000000	99.238686
2133.000000	99.239242
2132.000000	99.239805
2131.000000	99.240371
2130.000000	99.240939
2129.000000	99.241511
2128.000000	99.242085
2127.000000	99.242663
2126.000000	99.243244
2125.000000	99.243831
2124.000000	99.244432
2123.000000	99.245052
2122.000000	99.245693
2121.000000	99.246349
2120.000000	99.247010
2119.000000	99.247666
2118.000000	99.248310
2117.000000	99.248942
2116.000000	99.249572
2115.000000	99.250212
2114.000000	99.250868
2113.000000	99.251540
2112.000000	99.252221
2111.000000	99.252908
2110.000000	99.253598
2109.000000	99.254292
2108.000000	99.254990
2107.000000	99.255692
2106.000000	99.256400
2105.000000	99.257106
2104.000000	99.257804
2103.000000	99.258486
2102.000000	99.259152
2101.000000	99.259806
2100.000000	99.260452
2099.000000	99.261092
2098.000000	99.261729
2097.000000	99.262368
2096.000000	99.263017
2095.000000	99.263671
2094.000000	99.264337
2093.000000	99.265014
2092.000000	99.265672
2091.000000	99.266261
2090.000000	99.266791
2089.000000	99.267344
2088.000000	99.267982
2087.000000	99.268678
2086.000000	99.269373
2085.000000	99.270036
2084.000000	99.270649
2083.000000	99.271221
2082.000000	99.271886
2081.000000	99.272809
2080.000000	99.273870
2079.000000	99.274592
2078.000000	99.274596
2077.000000	99.274065
2076.000000	99.273658
2075.000000	99.273926
2074.000000	99.274909
2073.000000	99.276235
2072.000000	99.277491
2071.000000	99.278551
2070.000000	99.279482
2069.000000	99.280140
2068.000000	99.280132
2067.000000	99.279385
2066.000000	99.278501
2065.000000	99.278146
2064.000000	99.278268
2063.000000	99.278509
2062.000000	99.279169
2061.000000	99.280875
2060.000000	99.283239
2059.000000	99.284855
2058.000000	99.284981
2057.000000	99.284331
2056.000000	99.283856
2055.000000	99.283517
2054.000000	99.282872
2053.000000	99.282076
2052.000000	99.281453
2051.000000	99.280683
2050.000000	99.279255
2049.000000	99.277356
2048.000000	99.275595
2047.000000	99.274111
2046.000000	99.272592
2045.000000	99.270957
2044.000000	99.269448
2043.000000	99.268185
2042.000000	99.267032
2041.000000	99.265853
2040.000000	99.264680
2039.000000	99.263709
2038.000000	99.263173
2037.000000	99.263008
2036.000000	99.262681
2035.000000	99.261704
2034.000000	99.260325
2033.000000	99.259230
2032.000000	99.258531
2031.000000	99.257562
2030.000000	99.255844
2029.000000	99.253742
2028.000000	99.251943
2027.000000	99.250687
2026.000000	99.249768
2025.000000	99.248996
2024.000000	99.248296
2023.000000	99.247615
2022.000000	99.246875
2021.000000	99.245953
2020.000000	99.244699
2019.000000	99.243138
2018.000000	99.241646
2017.000000	99.240639
2016.000000	99.240086
2015.000000	99.239548
2014.000000	99.238667
2013.000000	99.237446
2012.000000	99.236071
2011.000000	99.234728
2010.000000	99.233616
2009.000000	99.232932
2008.000000	99.232650
2007.000000	99.232411
2006.000000	99.231830
2005.000000	99.230892
2004.000000	99.229885
2003.000000	99.229046
2002.000000	99.228433
2001.000000	99.228043
2000.000000	99.227827
1999.000000	99.227558
1998.000000	99.226992
1997.000000	99.226108
1996.000000	99.225075
1995.000000	99.224013
1994.000000	99.222969
1993.000000	99.222051
1992.000000	99.221376
1991.000000	99.220935
1990.000000	99.220704
1989.000000	99.220768
1988.000000	99.221120
1987.000000	99.221482
1986.000000	99.221564
1985.000000	99.221370
1984.000000	99.221043
1983.000000	99.220590
1982.000000	99.220050
1981.000000	99.219774
1980.000000	99.220117
1979.000000	99.220883
1978.000000	99.221422
1977.000000	99.221330
1976.000000	99.220787
1975.000000	99.220212
1974.000000	99.219886
1973.000000	99.219962
1972.000000	99.220531
1971.000000	99.221424
1970.000000	99.222188
1969.000000	99.222498
1968.000000	99.222470
1967.000000	99.222358
1966.000000	99.222119
1965.000000	99.221689
1964.000000	99.221531
1963.000000	99.222320
1962.000000	99.224075
1961.000000	99.226063
1960.000000	99.227606
1959.000000	99.228512
1958.000000	99.228585
1957.000000	99.227433
1956.000000	99.225243
1955.000000	99.223278
1954.000000	99.222850
1953.000000	99.223985
1952.000000	99.225598
1951.000000	99.226917
1950.000000	99.228072
1949.000000	99.229368
1948.000000	99.230522
1947.000000	99.230916
1946.000000	99.230350
1945.000000	99.229092
1944.000000	99.227286
1943.000000	99.224826
1942.000000	99.221968
1941.000000	99.219530
1940.000000	99.218213
1939.000000	99.218074
1938.000000	99.218618
1937.000000	99.219296
1936.000000	99.219903
1935.000000	99.220606
1934.000000	99.221778
1933.000000	99.223732
1932.000000	99.226389
1931.000000	99.229176
1930.000000	99.231085
1929.000000	99.231431
1928.000000	99.230130
1927.000000	99.227271
1926.000000	99.223257
1925.000000	99.218945
1924.000000	99.215793
1923.000000	99.214516
1922.000000	99.214225
1921.000000	99.213469
1920.000000	99.211894
1919.000000	99.210120
1918.000000	99.208569
1917.000000	99.206881
1916.000000	99.204369
1915.000000	99.200848
1914.000000	99.196898
1913.000000	99.193390
1912.000000	99.191161
1911.000000	99.190523
1910.000000	99.190798
1909.000000	99.190913
1908.000000	99.190246
1907.000000	99.188850
1906.000000	99.187107
1905.000000	99.184806
1904.000000	99.181693
1903.000000	99.177740
1902.000000	99.173249
1901.000000	99.168928
1900.000000	99.165413
1899.000000	99.162936
1898.000000	99.161483
1897.000000	99.160473
1896.000000	99.159054
1895.000000	99.156774
1894.000000	99.154195
1893.000000	99.152388
1892.000000	99.151484
1891.000000	99.150074
1890.000000	99.146552
1889.000000	99.141180
1888.000000	99.136037
1887.000000	99.133144
1886.000000	99.133301
1885.000000	99.135693
1884.000000	99.138224
1883.000000	99.139065
1882.000000	99.138171
1881.000000	99.137050
1880.000000	99.136524
1879.000000	99.135740
1878.000000	99.134045
1877.000000	99.132462
1876.000000	99.132731
1875.000000	99.135232
1874.000000	99.138271
1873.000000	99.139847
1872.000000	99.139736
1871.000000	99.139410
1870.000000	99.140373
1869.000000	99.142616
1868.000000	99.144314
1867.000000	99.143660
1866.000000	99.141515
1865.000000	99.140824
1864.000000	99.143520
1863.000000	99.149186
1862.000000	99.156018
1861.000000	99.162223
1860.000000	99.166556
1859.000000	99.168520
1858.000000	99.168901
1857.000000	99.169531
1856.000000	99.171618
1855.000000	99.174715
1854.000000	99.177880
1853.000000	99.181121
1852.000000	99.184687
1851.000000	99.187561
1850.000000	99.188914
1849.000000	99.189198
1848.000000	99.189710
1847.000000	99.191179
1846.000000	99.193674
1845.000000	99.197251
1844.000000	99.201589
1843.000000	99.204881
1842.000000	99.205217
1841.000000	99.203590
1840.000000	99.202527
1839.000000	99.203201
1838.000000	99.205000
1837.000000	99.206640
1836.000000	99.207742
1835.000000	99.208492
1834.000000	99.208819
1833.000000	99.208556
1832.000000	99.207848
1831.000000	99.207237
1830.000000	99.207599
1829.000000	99.208753
1828.000000	99.209550
1827.000000	99.210180
1826.000000	99.211982
1825.000000	99.215116
1824.000000	99.217984
1823.000000	99.218808
1822.000000	99.217496
1821.000000	99.215453
1820.000000	99.214058
1819.000000	99.213905
1818.000000	99.214724
1817.000000	99.215749
1816.000000	99.216507
1815.000000	99.216408
1814.000000	99.214702
1813.000000	99.211175
1812.000000	99.206500
1811.000000	99.202272
1810.000000	99.199665
1809.000000	99.199210
1808.000000	99.201163
1807.000000	99.204712
1806.000000	99.208058
1805.000000	99.209985
1804.000000	99.210823
1803.000000	99.211386
1802.000000	99.211841
1801.000000	99.212053
1800.000000	99.211631
1799.000000	99.210484
1798.000000	99.208689
1797.000000	99.207091
1796.000000	99.206860
1795.000000	99.208383
1794.000000	99.211139
1793.000000	99.214239
1792.000000	99.216497
1791.000000	99.216682
1790.000000	99.214443
1789.000000	99.212183
1788.000000	99.212952
1787.000000	99.217414
1786.000000	99.223665
1785.000000	99.229010
1784.000000	99.231827
1783.000000	99.231983
1782.000000	99.231047
1781.000000	99.231573
1780.000000	99.234058
1779.000000	99.237557
1778.000000	99.241480
1777.000000	99.247080
1776.000000	99.255081
1775.000000	99.263684
1774.000000	99.270380
1773.000000	99.274209
1772.000000	99.276902
1771.000000	99.280357
1770.000000	99.284554
1769.000000	99.289595
1768.000000	99.295644
1767.000000	99.301941
1766.000000	99.307529
1765.000000	99.312458
1764.000000	99.317148
1763.000000	99.321044
1762.000000	99.323187
1761.000000	99.323624
1760.000000	99.322881
1759.000000	99.322575
1758.000000	99.324041
1757.000000	99.327920
1756.000000	99.333036
1755.000000	99.337022
1754.000000	99.339179
1753.000000	99.340274
1752.000000	99.340514
1751.000000	99.340315
1750.000000	99.341073
1749.000000	99.343718
1748.000000	99.348389
1747.000000	99.352817
1746.000000	99.354239
1745.000000	99.352111
1744.000000	99.348459
1743.000000	99.346611
1742.000000	99.347784
1741.000000	99.350705
1740.000000	99.353723
1739.000000	99.355556
1738.000000	99.354485
1737.000000	99.350368
1736.000000	99.344360
1735.000000	99.336611
1734.000000	99.329607
1733.000000	99.326568
1732.000000	99.325207
1731.000000	99.324765
1730.000000	99.325316
1729.000000	99.325290
1728.000000	99.323900
1727.000000	99.321816
1726.000000	99.320302
1725.000000	99.319897
1724.000000	99.320731
1723.000000	99.322947
1722.000000	99.325189
1721.000000	99.325860
1720.000000	99.324587
1719.000000	99.321701
1718.000000	99.317799
1717.000000	99.314093
1716.000000	99.311603
1715.000000	99.310526
1714.000000	99.310079
1713.000000	99.308802
1712.000000	99.306241
1711.000000	99.303058
1710.000000	99.300081
1709.000000	99.297784
1708.000000	99.296079
1707.000000	99.294662
1706.000000	99.293433
1705.000000	99.292388
1704.000000	99.291363
1703.000000	99.290166
1702.000000	99.288658
1701.000000	99.286344
1700.000000	99.283919
1699.000000	99.281856
1698.000000	99.279285
1697.000000	99.276694
1696.000000	99.274966
1695.000000	99.274407
1694.000000	99.274029
1693.000000	99.272967
1692.000000	99.271328
1691.000000	99.269374
1690.000000	99.267602
1689.000000	99.266537
1688.000000	99.266091
1687.000000	99.265820
1686.000000	99.265373
1685.000000	99.264399
1684.000000	99.263090
1683.000000	99.261700
1682.000000	99.260180
1681.000000	99.258993
1680.000000	99.258253
1679.000000	99.257668
1678.000000	99.257096
1677.000000	99.256559
1676.000000	99.256012
1675.000000	99.255361
1674.000000	99.254596
1673.000000	99.253805
1672.000000	99.253087
1671.000000	99.252438
1670.000000	99.251778
1669.000000	99.251130
1668.000000	99.250535
1667.000000	99.249995
1666.000000	99.249523
1665.000000	99.249106
1664.000000	99.248670
1663.000000	99.248121
1662.000000	99.247404
1661.000000	99.246595
1660.000000	99.245867
1659.000000	99.245437
1658.000000	99.245418
1657.000000	99.245700
1656.000000	99.245950
1655.000000	99.245722
1654.000000	99.244356
1653.000000	99.242518
1652.000000	99.241824
1651.000000	99.241379
1650.000000	99.241174
1649.000000	99.241601
1648.000000	99.241806
1647.000000	99.241082
1646.000000	99.239989
1645.000000	99.239163
1644.000000	99.239048
1643.000000	99.240101
1642.000000	99.242126
1641.000000	99.244354
1640.000000	99.245700
1639.000000	99.245569
1638.000000	99.244103
1637.000000	99.241793
1636.000000	99.240042
1635.000000	99.240499
1634.000000	99.242133
1633.000000	99.243006
1632.000000	99.243525
1631.000000	99.243808
1630.000000	99.243465
1629.000000	99.242815
1628.000000	99.242688
1627.000000	99.243273
1626.000000	99.244272
1625.000000	99.245898
1624.000000	99.248275
1623.000000	99.251021
1622.000000	99.253058
1621.000000	99.253758
1620.000000	99.253865
1619.000000	99.254604
1618.000000	99.256181
1617.000000	99.258599
1616.000000	99.262038
1615.000000	99.265353
1614.000000	99.269138
1613.000000	99.275312
1612.000000	99.282663
1611.000000	99.287645
1610.000000	99.289397
1609.000000	99.291105
1608.000000	99.295491
1607.000000	99.301514
1606.000000	99.306494
1605.000000	99.309644
1604.000000	99.311733
1603.000000	99.314207
1602.000000	99.317689
1601.000000	99.321293
1600.000000	99.324028
1599.000000	99.326277
1598.000000	99.329421
1597.000000	99.333832
1596.000000	99.338405
1595.000000	99.342052
1594.000000	99.344850
1593.000000	99.347585
1592.000000	99.350401
1591.000000	99.352506
1590.000000	99.352987
1589.000000	99.351766
1588.000000	99.349586
1587.000000	99.347523
1586.000000	99.346314
1585.000000	99.346213
1584.000000	99.346845
1583.000000	99.347689
1582.000000	99.349102
1581.000000	99.350933
1580.000000	99.352314
1579.000000	99.352938
1578.000000	99.353187
1577.000000	99.352143
1576.000000	99.349090
1575.000000	99.344930
1574.000000	99.341052
1573.000000	99.339003
1572.000000	99.338529
1571.000000	99.337874
1570.000000	99.336485
1569.000000	99.335356
1568.000000	99.333987
1567.000000	99.332058
1566.000000	99.331186
1565.000000	99.332057
1564.000000	99.333230
1563.000000	99.332829
1562.000000	99.330738
1561.000000	99.327918
1560.000000	99.324601
1559.000000	99.324383
1558.000000	99.328012
1557.000000	99.327070
1556.000000	99.322100
1555.000000	99.316922
1554.000000	99.312415
1553.000000	99.308462
1552.000000	99.304495
1551.000000	99.301037
1550.000000	99.298902
1549.000000	99.297915
1548.000000	99.296757
1547.000000	99.294056
1546.000000	99.289614
1545.000000	99.284235
1544.000000	99.279228
1543.000000	99.275226
1542.000000	99.272127
1541.000000	99.270068
1540.000000	99.270034
1539.000000	99.270249
1538.000000	99.267007
1537.000000	99.260898
1536.000000	99.254840
1535.000000	99.249742
1534.000000	99.245137
1533.000000	99.240479
1532.000000	99.234803
1531.000000	99.228104
1530.000000	99.221613
1529.000000	99.216408
1528.000000	99.213163
1527.000000	99.211644
1526.000000	99.210422
1525.000000	99.207874
1524.000000	99.203817
1523.000000	99.199790
1522.000000	99.197104
1521.000000	99.195124
1520.000000	99.191140
1519.000000	99.184590
1518.000000	99.178676
1517.000000	99.175352
1516.000000	99.173530
1515.000000	99.170950
1514.000000	99.167732
1513.000000	99.165640
1512.000000	99.164879
1511.000000	99.164486
1510.000000	99.163619
1509.000000	99.162888
1508.000000	99.163175
1507.000000	99.165382
1506.000000	99.167677
1505.000000	99.165320
1504.000000	99.159219
1503.000000	99.153776
1502.000000	99.150655
1501.000000	99.149381
1500.000000	99.148484
1499.000000	99.146478
1498.000000	99.143397
1497.000000	99.141020
1496.000000	99.141002
1495.000000	99.141933
1494.000000	99.141462
1493.000000	99.139905
1492.000000	99.138407
1491.000000	99.137293
1490.000000	99.137047
1489.000000	99.138577
1488.000000	99.141648
1487.000000	99.144654
1486.000000	99.145841
1485.000000	99.145718
1484.000000	99.145510
1483.000000	99.145062
1482.000000	99.144120
1481.000000	99.143550
1480.000000	99.145230
1479.000000	99.149498
1478.000000	99.154446
1477.000000	99.157213
1476.000000	99.156886
1475.000000	99.155391
1474.000000	99.156146
1473.000000	99.161914
1472.000000	99.171334
1471.000000	99.179505
1470.000000	99.183841
1469.000000	99.185484
1468.000000	99.185591
1467.000000	99.184681
1466.000000	99.184301
1465.000000	99.187536
1464.000000	99.194827
1463.000000	99.202571
1462.000000	99.207836
1461.000000	99.210848
1460.000000	99.212992
1459.000000	99.214738
1458.000000	99.215522
1457.000000	99.216051
1456.000000	99.217638
1455.000000	99.219126
1454.000000	99.220523
1453.000000	99.221804
1452.000000	99.221699
1451.000000	99.220090
1450.000000	99.218111
1449.000000	99.216964
1448.000000	99.217368
1447.000000	99.218739
1446.000000	99.219696
1445.000000	99.219826
1444.000000	99.219611
1443.000000	99.220508
1442.000000	99.222855
1441.000000	99.225016
1440.000000	99.224834
1439.000000	99.221971
1438.000000	99.217916
1437.000000	99.215242
1436.000000	99.215845
1435.000000	99.217882
1434.000000	99.219348
1433.000000	99.220682
1432.000000	99.222310
1431.000000	99.223622
1430.000000	99.224055
1429.000000	99.223806
1428.000000	99.223943
1427.000000	99.224640
1426.000000	99.225130
1425.000000	99.225167
1424.000000	99.225495
1423.000000	99.227850
1422.000000	99.232772
1421.000000	99.239112
1420.000000	99.244569
1419.000000	99.247817
1418.000000	99.249266
1417.000000	99.249768
1416.000000	99.251399
1415.000000	99.255580
1414.000000	99.261661
1413.000000	99.268162
1412.000000	99.274114
1411.000000	99.279070
1410.000000	99.282058
1409.000000	99.281961
1408.000000	99.279747
1407.000000	99.278269
1406.000000	99.279755
1405.000000	99.284087
1404.000000	99.289038
1403.000000	99.293203
1402.000000	99.296754
1401.000000	99.299859
1400.000000	99.302080
1399.000000	99.303779
1398.000000	99.306313
1397.000000	99.310375
1396.000000	99.315795
1395.000000	99.321901
1394.000000	99.328082
1393.000000	99.333328
1392.000000	99.336606
1391.000000	99.338244
1390.000000	99.339377
1389.000000	99.340795
1388.000000	99.342299
1387.000000	99.343391
1386.000000	99.344346
1385.000000	99.345982
1384.000000	99.348123
1383.000000	99.349653
1382.000000	99.350274
1381.000000	99.351238
1380.000000	99.353465
1379.000000	99.355518
1378.000000	99.355224
1377.000000	99.352377
1376.000000	99.348808
1375.000000	99.346216
1374.000000	99.345037
1373.000000	99.344640
1372.000000	99.344266
1371.000000	99.343668
1370.000000	99.342952
1369.000000	99.342387
1368.000000	99.341799
1367.000000	99.340697
1366.000000	99.338953
1365.000000	99.337403
1364.000000	99.337483
1363.000000	99.340114
1362.000000	99.344552
1361.000000	99.348765
1360.000000	99.351138
1359.000000	99.351202
1358.000000	99.349566
1357.000000	99.347869
1356.000000	99.347865
1355.000000	99.349845
1354.000000	99.352200
1353.000000	99.352994
1352.000000	99.351913
1351.000000	99.350058
1350.000000	99.348632
1349.000000	99.348347
1348.000000	99.349348
1347.000000	99.351414
1346.000000	99.353535
1345.000000	99.354128
1344.000000	99.352230
1343.000000	99.348564
1342.000000	99.345117
1341.000000	99.343598
1340.000000	99.344239
1339.000000	99.345864
1338.000000	99.347009
1337.000000	99.347099
1336.000000	99.346684
1335.000000	99.346874
1334.000000	99.348501
1333.000000	99.351390
1332.000000	99.354206
1331.000000	99.355271
1330.000000	99.353880
1329.000000	99.350943
1328.000000	99.348368
1327.000000	99.347652
1326.000000	99.348846
1325.000000	99.350625
1324.000000	99.351282
1323.000000	99.350060
1322.000000	99.347486
1321.000000	99.344679
1320.000000	99.342471
1319.000000	99.341049
1318.000000	99.340035
1317.000000	99.338863
1316.000000	99.337274
1315.000000	99.335448
1314.000000	99.333588
1313.000000	99.331475
1312.000000	99.328739
1311.000000	99.325481
1310.000000	99.322276
1309.000000	99.319413
1308.000000	99.316534
1307.000000	99.313285
1306.000000	99.310176
1305.000000	99.308179
1304.000000	99.307198
1303.000000	99.305583
1302.000000	99.301676
1301.000000	99.295940
1300.000000	99.290879
1299.000000	99.288277
1298.000000	99.286775
1297.000000	99.283068
1296.000000	99.275673
1295.000000	99.266813
1294.000000	99.260078
1293.000000	99.256470
1292.000000	99.253733
1291.000000	99.249436
1290.000000	99.243710
1289.000000	99.238350
1288.000000	99.234047
1287.000000	99.229804
1286.000000	99.225200
1285.000000	99.221796
1284.000000	99.221174
1283.000000	99.222156
1282.000000	99.221320
1281.000000	99.216624
1280.000000	99.209427
1279.000000	99.202447
1278.000000	99.196534
1277.000000	99.190320
1276.000000	99.182581
1275.000000	99.173897
1274.000000	99.166001
1273.000000	99.160101
1272.000000	99.155841
1271.000000	99.151598
1270.000000	99.146161
1269.000000	99.140486
1268.000000	99.137162
1267.000000	99.137515
1266.000000	99.139782
1265.000000	99.140854
1264.000000	99.139142
1263.000000	99.134791
1262.000000	99.128044
1261.000000	99.119095
1260.000000	99.109209
1259.000000	99.100246
1258.000000	99.092708
1257.000000	99.085419
1256.000000	99.077348
1255.000000	99.068468
1254.000000	99.058585
1253.000000	99.046595
1252.000000	99.031718
1251.000000	99.014988
1250.000000	98.999002
1249.000000	98.986033
1248.000000	98.975871
1247.000000	98.965182
1246.000000	98.949979
1245.000000	98.929920
1244.000000	98.909595
1243.000000	98.894102
1242.000000	98.883665
1241.000000	98.873959
1240.000000	98.861226
1239.000000	98.845583
1238.000000	98.830027
1237.000000	98.817774
1236.000000	98.809634
1235.000000	98.801939
1234.000000	98.788028
1233.000000	98.764407
1232.000000	98.734892
1231.000000	98.706237
1230.000000	98.680316
1229.000000	98.653975
1228.000000	98.625936
1227.000000	98.598736
1226.000000	98.572600
1225.000000	98.542203
1224.000000	98.502512
1223.000000	98.454702
1222.000000	98.403651
1221.000000	98.352067
1220.000000	98.299658
1219.000000	98.245881
1218.000000	98.190464
1217.000000	98.132667
1216.000000	98.072385
1215.000000	98.010595
1214.000000	97.947027
1213.000000	97.879314
1212.000000	97.806469
1211.000000	97.731544
1210.000000	97.658925
1209.000000	97.590451
1208.000000	97.525344
1207.000000	97.461612
1206.000000	97.396415
1205.000000	97.328084
1204.000000	97.259237
1203.000000	97.194864
1202.000000	97.135829
1201.000000	97.077317
1200.000000	97.015200
1199.000000	96.950434
1198.000000	96.885409
1197.000000	96.819853
1196.000000	96.753144
1195.000000	96.687196
1194.000000	96.623830
1193.000000	96.561745
1192.000000	96.498619
1191.000000	96.433820
1190.000000	96.366845
1189.000000	96.295875
1188.000000	96.220480
1187.000000	96.143521
1186.000000	96.067862
1185.000000	95.992887
1184.000000	95.915920
1183.000000	95.834953
1182.000000	95.748792
1181.000000	95.657196
1180.000000	95.561989
1179.000000	95.465070
1178.000000	95.364524
1177.000000	95.256705
1176.000000	95.143502
1175.000000	95.032898
1174.000000	94.929807
1173.000000	94.830616
1172.000000	94.729593
1171.000000	94.626612
1170.000000	94.525574
1169.000000	94.429144
1168.000000	94.338320
1167.000000	94.254313
1166.000000	94.178835
1165.000000	94.115911
1164.000000	94.074468
1163.000000	94.063947
1162.000000	94.084470
1161.000000	94.124624
1160.000000	94.170115
1159.000000	94.210420
1158.000000	94.236540
1157.000000	94.239175
1156.000000	94.213460
1155.000000	94.162494
1154.000000	94.093665
1153.000000	94.013597
1152.000000	93.927643
1151.000000	93.840320
1150.000000	93.753568
1149.000000	93.667332
1148.000000	93.583138
1147.000000	93.503771
1146.000000	93.428834
1145.000000	93.355093
1144.000000	93.281885
1143.000000	93.211142
1142.000000	93.141433
1141.000000	93.067985
1140.000000	92.990148
1139.000000	92.913025
1138.000000	92.840067
1137.000000	92.769793
1136.000000	92.701089
1135.000000	92.634911
1134.000000	92.569064
1133.000000	92.498817
1132.000000	92.425229
1131.000000	92.355202
1130.000000	92.289928
1129.000000	92.221113
1128.000000	92.143188
1127.000000	92.062184
1126.000000	91.987387
1125.000000	91.920374
1124.000000	91.857385
1123.000000	91.796574
1122.000000	91.737296
1121.000000	91.676854
1120.000000	91.612989
1119.000000	91.546335
1118.000000	91.477624
1117.000000	91.406876
1116.000000	91.337252
1115.000000	91.273930
1114.000000	91.216824
1113.000000	91.160333
1112.000000	91.102227
1111.000000	91.045919
1110.000000	90.992324
1109.000000	90.937609
1108.000000	90.881416
1107.000000	90.828843
1106.000000	90.781097
1105.000000	90.732506
1104.000000	90.680308
1103.000000	90.629747
1102.000000	90.586040
1101.000000	90.548803
1100.000000	90.517049
1099.000000	90.491191
1098.000000	90.466990
1097.000000	90.436523
1096.000000	90.399474
1095.000000	90.365407
1094.000000	90.340474
1093.000000	90.319385
1092.000000	90.294543
1091.000000	90.266141
1090.000000	90.239286
1089.000000	90.217784
1088.000000	90.204208
1087.000000	90.199425
1086.000000	90.198902
1085.000000	90.195944
1084.000000	90.190835
1083.000000	90.190115
1082.000000	90.195601
1081.000000	90.202227
1080.000000	90.208467
1079.000000	90.219752
1078.000000	90.238181
1077.000000	90.257116
1076.000000	90.269951
1075.000000	90.277008
1074.000000	90.280019
1073.000000	90.275974
1072.000000	90.259523
1071.000000	90.226235
1070.000000	90.172229
1069.000000	90.096619
1068.000000	90.005214
1067.000000	89.905269
1066.000000	89.795978
1065.000000	89.671982
1064.000000	89.537259
1063.000000	89.406513
1062.000000	89.290433
1061.000000	89.188422
1060.000000	89.098083
1059.000000	89.021958
1058.000000	88.961444
1057.000000	88.912960
1056.000000	88.873335
1055.000000	88.840512
1054.000000	88.806739
1053.000000	88.761029
1052.000000	88.702306
1051.000000	88.640698
1050.000000	88.582089
1049.000000	88.522501
1048.000000	88.461436
1047.000000	88.407172
1046.000000	88.362929
1045.000000	88.319195
1044.000000	88.265158
1043.000000	88.199493
1042.000000	88.126960
1041.000000	88.053092
1040.000000	87.985708
1039.000000	87.932959
1038.000000	87.895248
1037.000000	87.865584
1036.000000	87.840053
1035.000000	87.820400
1034.000000	87.805430
1033.000000	87.789635
1032.000000	87.772516
1031.000000	87.759819
1030.000000	87.753427
1029.000000	87.749881
1028.000000	87.750873
1027.000000	87.763966
1026.000000	87.788934
1025.000000	87.813923
1024.000000	87.830315
1023.000000	87.842591
1022.000000	87.858568
1021.000000	87.878258
1020.000000	87.897551
1019.000000	87.915788
1018.000000	87.934440
1017.000000	87.953273
1016.000000	87.971303
1015.000000	87.987494
1014.000000	87.999560
1013.000000	88.007206
1012.000000	88.016579
1011.000000	88.035399
1010.000000	88.063843
1009.000000	88.096399
1008.000000	88.131620
1007.000000	88.172500
1006.000000	88.218230
1005.000000	88.264144
1004.000000	88.309514
1003.000000	88.357015
1002.000000	88.404920
1001.000000	88.448606
1000.000000	88.489701
999.000000	88.535110
998.000000	88.586992
997.000000	88.642300
996.000000	88.701808
995.000000	88.770016
994.000000	88.845668
993.000000	88.921879
992.000000	88.996812
991.000000	89.075208
990.000000	89.157973
989.000000	89.239022
988.000000	89.314391
987.000000	89.386947
986.000000	89.460716
985.000000	89.537861
984.000000	89.621832
983.000000	89.715654
982.000000	89.815981
981.000000	89.915830
980.000000	90.013763
979.000000	90.113614
978.000000	90.215656
977.000000	90.316082
976.000000	90.415229
975.000000	90.518054
974.000000	90.625610
973.000000	90.733460
972.000000	90.839253
971.000000	90.944904
970.000000	91.050874
969.000000	91.155064
968.000000	91.257479
967.000000	91.359549
966.000000	91.459600
965.000000	91.555879
964.000000	91.652703
963.000000	91.755472
962.000000	91.860334
961.000000	91.957653
960.000000	92.045729
959.000000	92.132351
958.000000	92.222172
957.000000	92.311234
956.000000	92.395632
955.000000	92.476969
954.000000	92.556758
953.000000	92.632955
952.000000	92.704881
951.000000	92.775145
950.000000	92.844665
949.000000	92.911885
948.000000	92.978159
947.000000	93.047206
946.000000	93.117653
945.000000	93.182896
944.000000	93.240184
943.000000	93.293478
942.000000	93.345955
941.000000	93.396385
940.000000	93.445011
939.000000	93.496119
938.000000	93.552135
937.000000	93.611140
936.000000	93.672248
935.000000	93.737271
934.000000	93.804763
933.000000	93.868625
932.000000	93.925617
931.000000	93.979248
930.000000	94.033937
929.000000	94.090036
928.000000	94.146483
927.000000	94.202973
926.000000	94.257283
925.000000	94.305701
924.000000	94.348597
923.000000	94.390952
922.000000	94.435163
921.000000	94.478026
920.000000	94.516961
919.000000	94.554472
918.000000	94.594173
917.000000	94.636922
916.000000	94.682802
915.000000	94.732033
914.000000	94.781770
913.000000	94.827506
912.000000	94.870769
911.000000	94.920258
910.000000	94.981603
909.000000	95.050425
908.000000	95.119192
907.000000	95.187070
906.000000	95.258488
905.000000	95.335106
904.000000	95.414376
903.000000	95.495092
902.000000	95.579932
901.000000	95.670954
900.000000	95.763912
899.000000	95.848720
898.000000	95.917568
897.000000	95.973416
896.000000	96.028685
895.000000	96.093361
894.000000	96.165844
893.000000	96.238187
892.000000	96.307359
891.000000	96.376308
890.000000	96.445926
889.000000	96.512809
888.000000	96.575754
887.000000	96.638131
886.000000	96.701261
885.000000	96.760412
884.000000	96.810351
883.000000	96.851101
882.000000	96.885868
881.000000	96.916788
880.000000	96.945406
879.000000	96.974221
878.000000	97.004727
877.000000	97.036505
876.000000	97.070751
875.000000	97.111597
874.000000	97.160976
873.000000	97.214835
872.000000	97.267472
871.000000	97.318038
870.000000	97.370795
869.000000	97.430468
868.000000	97.498326
867.000000	97.570419
866.000000	97.638518
865.000000	97.695297
864.000000	97.740102
863.000000	97.778177
862.000000	97.814024
861.000000	97.848251
860.000000	97.881642
859.000000	97.918466
858.000000	97.963190
857.000000	98.016229
856.000000	98.075007
855.000000	98.136762
854.000000	98.197869
853.000000	98.252629
852.000000	98.296370
851.000000	98.330415
850.000000	98.362437
849.000000	98.400486
848.000000	98.445444
847.000000	98.488782
846.000000	98.519483
845.000000	98.535163
844.000000	98.545198
843.000000	98.560643
842.000000	98.582705
841.000000	98.604684
840.000000	98.623161
839.000000	98.640797
838.000000	98.657630
837.000000	98.667014
836.000000	98.664667
835.000000	98.657555
834.000000	98.658674
833.000000	98.674205
832.000000	98.698921
831.000000	98.722523
830.000000	98.737443
829.000000	98.741979
828.000000	98.739241
827.000000	98.733281
826.000000	98.724547
825.000000	98.709746
824.000000	98.687064
823.000000	98.658932
822.000000	98.627696
821.000000	98.591456
820.000000	98.546262
819.000000	98.489308
818.000000	98.418012
817.000000	98.329212
816.000000	98.222050
815.000000	98.099205
814.000000	97.961736
813.000000	97.803276
812.000000	97.611149
811.000000	97.371991
810.000000	97.075910
809.000000	96.719823
808.000000	96.311226
807.000000	95.866571
806.000000	95.401784
805.000000	94.926861
804.000000	94.453366
803.000000	94.001919
802.000000	93.595501
801.000000	93.248794
800.000000	92.969209
799.000000	92.762972
798.000000	92.633866
797.000000	92.579541
796.000000	92.592255
795.000000	92.658147
794.000000	92.754285
793.000000	92.854693
792.000000	92.943616
791.000000	93.017723
790.000000	93.073587
789.000000	93.099805
788.000000	93.084232
787.000000	93.022420
786.000000	92.915596
785.000000	92.767000
784.000000	92.585546
783.000000	92.388223
782.000000	92.193661
781.000000	92.017174
780.000000	91.875108
779.000000	91.786232
778.000000	91.761326
777.000000	91.795247
776.000000	91.874386
775.000000	91.988672
774.000000	92.133516
773.000000	92.304765
772.000000	92.495574
771.000000	92.695662
770.000000	92.892643
769.000000	93.077684
768.000000	93.250243
767.000000	93.413802
766.000000	93.568222
765.000000	93.711534
764.000000	93.847932
763.000000	93.986247
762.000000	94.129088
761.000000	94.270250
760.000000	94.404573
759.000000	94.533189
758.000000	94.656509
757.000000	94.769970
756.000000	94.871879
755.000000	94.969412
754.000000	95.070867
753.000000	95.175849
752.000000	95.278050
751.000000	95.373649
750.000000	95.461708
749.000000	95.540304
748.000000	95.609268
747.000000	95.675265
746.000000	95.747535
745.000000	95.827888
744.000000	95.909244
743.000000	95.984081
742.000000	96.050441
741.000000	96.110227
740.000000	96.166358
739.000000	96.222478
738.000000	96.281499
737.000000	96.342776
736.000000	96.402994
735.000000	96.460224
734.000000	96.514353
733.000000	96.563054
732.000000	96.601097
731.000000	96.626409
730.000000	96.645117
729.000000	96.667796
728.000000	96.700395
727.000000	96.740465
726.000000	96.782045
725.000000	96.821850
724.000000	96.860410
723.000000	96.899814
722.000000	96.942129
721.000000	96.988926
720.000000	97.040458
719.000000	97.095147
718.000000	97.150312
717.000000	97.202529
716.000000	97.247230
715.000000	97.280572
714.000000	97.303808
713.000000	97.323819
712.000000	97.346013
711.000000	97.367488
710.000000	97.380347
709.000000	97.381876
708.000000	97.378126
707.000000	97.376063
706.000000	97.374540
705.000000	97.363028
704.000000	97.326394
703.000000	97.251045
702.000000	97.129672
701.000000	96.962386
700.000000	96.752717
699.000000	96.503574
698.000000	96.224022
697.000000	95.943380
696.000000	95.711436
695.000000	95.574862
694.000000	95.550687
693.000000	95.623463
692.000000	95.763039
691.000000	95.940567
690.000000	96.132830
689.000000	96.320225
688.000000	96.486811
687.000000	96.624622
686.000000	96.737154
685.000000	96.837368
684.000000	96.939260
683.000000	97.047789
682.000000	97.156735
681.000000	97.256459
680.000000	97.342422
679.000000	97.415074
678.000000	97.475794
677.000000	97.527457
676.000000	97.574229
675.000000	97.617621
674.000000	97.654792
673.000000	97.684454
672.000000	97.711280
671.000000	97.741160
670.000000	97.776187
669.000000	97.818785
668.000000	97.881578
667.000000	97.952991
666.000000	98.004112
665.000000	98.042067
664.000000	98.085802
663.000000	98.137085
662.000000	98.184307
661.000000	98.216213
660.000000	98.233995
659.000000	98.244340
658.000000	98.249326
657.000000	98.246363
656.000000	98.234692
655.000000	98.219690
654.000000	98.209662
653.000000	98.207023
652.000000	98.205944
651.000000	98.203047
650.000000	98.206763
649.000000	98.228227
648.000000	98.263656
647.000000	98.296768
646.000000	98.322758
645.000000	98.358133
644.000000	98.419284
643.000000	98.499225
642.000000	98.573764
641.000000	98.628290
640.000000	98.665531
639.000000	98.690784
638.000000	98.709491
637.000000	98.737841
636.000000	98.793820
635.000000	98.869918
634.000000	98.932079
633.000000	98.959885
632.000000	98.972399
631.000000	99.002306
630.000000	99.057151
629.000000	99.120095
628.000000	99.180236
627.000000	99.242499
626.000000	99.307600
625.000000	99.359714
624.000000	99.383356
623.000000	99.383300
622.000000	99.378381
621.000000	99.376859
620.000000	99.367388
619.000000	99.338430
618.000000	99.300436
617.000000	99.281297
616.000000	99.296957
615.000000	99.331209
614.000000	99.349730
613.000000	99.334088
612.000000	99.297382
611.000000	99.270222
610.000000	99.275003
609.000000	99.310531
608.000000	99.354248
607.000000	99.374114
606.000000	99.348746
605.000000	99.287415
604.000000	99.228882
603.000000	99.210855
602.000000	99.235386
601.000000	99.266548
600.000000	99.265163
599.000000	99.224823
598.000000	99.173719
597.000000	99.142525
596.000000	99.137292
595.000000	99.143891
594.000000	99.148317
593.000000	99.149963
592.000000	99.156238
591.000000	99.169025
590.000000	99.181028
589.000000	99.184744
588.000000	99.181051
587.000000	99.178848
586.000000	99.189586
585.000000	99.220497
584.000000	99.267971
583.000000	99.316944
582.000000	99.354020
581.000000	99.381845
580.000000	99.410286
579.000000	99.432894
578.000000	99.426074
577.000000	99.378138
576.000000	99.309679
575.000000	99.260650
574.000000	99.255383
573.000000	99.286641
572.000000	99.330683
571.000000	99.365093
570.000000	99.379738
569.000000	99.382820
568.000000	99.390038
567.000000	99.400629
566.000000	99.393378
565.000000	99.355890
564.000000	99.307822
563.000000	99.285416
562.000000	99.300421
561.000000	99.325898
560.000000	99.327386
559.000000	99.296190
558.000000	99.251155
557.000000	99.220774
556.000000	99.224847
555.000000	99.265288
554.000000	99.321230
553.000000	99.358939
552.000000	99.362437
551.000000	99.340257
550.000000	99.309988
