PE IR       SUBTECH     SPECTRUM    ASCII       PEDS        4.00        
   -1
BH1 8-1 4 60_1.asc
24/05/15
15:58:57.00
24/05/15
15:59:41.00
Administrator
?品 108 用? Administrator 日期 Wednesday, May 15 2024
550.000000
#HDR
-1
-1
#GR
cm-1
%T
1.0
0.0
4000.000000
-1.000000
3451
8
100.476143
80.402242
#DATA
4000.000000	100.130945
3999.000000	100.129959
3998.000000	100.129463
3997.000000	100.128285
3996.000000	100.125423
3995.000000	100.121185
3994.000000	100.117419
3993.000000	100.115602
3992.000000	100.115705
3991.000000	100.116519
3990.000000	100.116889
3989.000000	100.116598
3988.000000	100.115945
3987.000000	100.115122
3986.000000	100.114187
3985.000000	100.113372
3984.000000	100.113125
3983.000000	100.113716
3982.000000	100.114867
3981.000000	100.115813
3980.000000	100.115786
3979.000000	100.114499
3978.000000	100.112225
3977.000000	100.109583
3976.000000	100.107293
3975.000000	100.106010
3974.000000	100.106081
3973.000000	100.107229
3972.000000	100.108559
3971.000000	100.109086
3970.000000	100.108360
3969.000000	100.106622
3968.000000	100.104531
3967.000000	100.102703
3966.000000	100.101297
3965.000000	100.099925
3964.000000	100.098091
3963.000000	100.095872
3962.000000	100.094098
3961.000000	100.093636
3960.000000	100.094600
3959.000000	100.096402
3958.000000	100.098265
3957.000000	100.099697
3956.000000	100.100627
3955.000000	100.101272
3954.000000	100.101864
3953.000000	100.102366
3952.000000	100.102480
3951.000000	100.101904
3950.000000	100.100610
3949.000000	100.098878
3948.000000	100.096998
3947.000000	100.095113
3946.000000	100.093464
3945.000000	100.092579
3944.000000	100.092912
3943.000000	100.094241
3942.000000	100.095597
3941.000000	100.095965
3940.000000	100.095102
3939.000000	100.093605
3938.000000	100.092227
3937.000000	100.091381
3936.000000	100.091256
3935.000000	100.092078
3934.000000	100.093734
3933.000000	100.095259
3932.000000	100.095408
3931.000000	100.093994
3930.000000	100.092243
3929.000000	100.091537
3928.000000	100.092152
3927.000000	100.093522
3926.000000	100.095073
3925.000000	100.096339
3924.000000	100.096689
3923.000000	100.095823
3922.000000	100.094542
3921.000000	100.094200
3920.000000	100.095334
3919.000000	100.097268
3918.000000	100.098941
3917.000000	100.099833
3916.000000	100.099958
3915.000000	100.099527
3914.000000	100.098839
3913.000000	100.098155
3912.000000	100.097534
3911.000000	100.097061
3910.000000	100.096771
3909.000000	100.096427
3908.000000	100.095392
3907.000000	100.093261
3906.000000	100.090495
3905.000000	100.088228
3904.000000	100.087060
3903.000000	100.086312
3902.000000	100.085069
3901.000000	100.083678
3900.000000	100.083376
3899.000000	100.084618
3898.000000	100.086589
3897.000000	100.088184
3896.000000	100.088899
3895.000000	100.088783
3894.000000	100.088165
3893.000000	100.087740
3892.000000	100.088147
3891.000000	100.089152
3890.000000	100.089481
3889.000000	100.088321
3888.000000	100.086231
3887.000000	100.084530
3886.000000	100.083959
3885.000000	100.084054
3884.000000	100.083739
3883.000000	100.082799
3882.000000	100.082050
3881.000000	100.082192
3880.000000	100.083178
3879.000000	100.084287
3878.000000	100.084826
3877.000000	100.084850
3876.000000	100.084872
3875.000000	100.085129
3874.000000	100.085181
3873.000000	100.084342
3872.000000	100.082599
3871.000000	100.080850
3870.000000	100.079988
3869.000000	100.079820
3868.000000	100.079483
3867.000000	100.078971
3866.000000	100.079014
3865.000000	100.079747
3864.000000	100.080552
3863.000000	100.080980
3862.000000	100.081194
3861.000000	100.081528
3860.000000	100.081936
3859.000000	100.082236
3858.000000	100.082246
3857.000000	100.081749
3856.000000	100.080564
3855.000000	100.078909
3854.000000	100.077783
3853.000000	100.077856
3852.000000	100.077985
3851.000000	100.077127
3850.000000	100.076035
3849.000000	100.075616
3848.000000	100.075885
3847.000000	100.076464
3846.000000	100.076973
3845.000000	100.077130
3844.000000	100.076855
3843.000000	100.076294
3842.000000	100.075585
3841.000000	100.074794
3840.000000	100.074008
3839.000000	100.073419
3838.000000	100.073215
3837.000000	100.073422
3836.000000	100.073854
3835.000000	100.074372
3834.000000	100.074982
3833.000000	100.075674
3832.000000	100.076289
3831.000000	100.076574
3830.000000	100.076433
3829.000000	100.076137
3828.000000	100.076187
3827.000000	100.076869
3826.000000	100.077923
3825.000000	100.078726
3824.000000	100.078899
3823.000000	100.078573
3822.000000	100.078124
3821.000000	100.077812
3820.000000	100.077450
3819.000000	100.076904
3818.000000	100.076664
3817.000000	100.077173
3816.000000	100.078146
3815.000000	100.078723
3814.000000	100.078425
3813.000000	100.077811
3812.000000	100.077825
3811.000000	100.078620
3810.000000	100.079589
3809.000000	100.080149
3808.000000	100.080284
3807.000000	100.080253
3806.000000	100.079840
3805.000000	100.078559
3804.000000	100.076782
3803.000000	100.075692
3802.000000	100.076025
3801.000000	100.077233
3800.000000	100.077638
3799.000000	100.076685
3798.000000	100.075871
3797.000000	100.076643
3796.000000	100.079090
3795.000000	100.082236
3794.000000	100.085060
3793.000000	100.087166
3792.000000	100.088424
3791.000000	100.088688
3790.000000	100.088031
3789.000000	100.086783
3788.000000	100.085218
3787.000000	100.083536
3786.000000	100.082190
3785.000000	100.081697
3784.000000	100.082026
3783.000000	100.082521
3782.000000	100.082671
3781.000000	100.082627
3780.000000	100.082835
3779.000000	100.083379
3778.000000	100.083774
3777.000000	100.083624
3776.000000	100.083125
3775.000000	100.082651
3774.000000	100.082143
3773.000000	100.081368
3772.000000	100.080557
3771.000000	100.080329
3770.000000	100.080819
3769.000000	100.081346
3768.000000	100.081239
3767.000000	100.080717
3766.000000	100.080406
3765.000000	100.080400
3764.000000	100.080191
3763.000000	100.079493
3762.000000	100.078659
3761.000000	100.078120
3760.000000	100.077781
3759.000000	100.077322
3758.000000	100.076678
3757.000000	100.076050
3756.000000	100.075593
3755.000000	100.075330
3754.000000	100.075159
3753.000000	100.074757
3752.000000	100.073793
3751.000000	100.072449
3750.000000	100.071398
3749.000000	100.070765
3748.000000	100.069917
3747.000000	100.068375
3746.000000	100.066232
3745.000000	100.064268
3744.000000	100.063216
3743.000000	100.062367
3742.000000	100.060662
3741.000000	100.058902
3740.000000	100.057992
3739.000000	100.057633
3738.000000	100.057212
3737.000000	100.056742
3736.000000	100.056482
3735.000000	100.056121
3734.000000	100.055256
3733.000000	100.054361
3732.000000	100.054083
3731.000000	100.053746
3730.000000	100.052127
3729.000000	100.049326
3728.000000	100.046647
3727.000000	100.044851
3726.000000	100.043460
3725.000000	100.041625
3724.000000	100.039400
3723.000000	100.037128
3722.000000	100.034497
3721.000000	100.031446
3720.000000	100.029068
3719.000000	100.028906
3718.000000	100.030901
3717.000000	100.032661
3716.000000	100.031449
3715.000000	100.027090
3714.000000	100.021588
3713.000000	100.015820
3712.000000	100.008360
3711.000000	99.998707
3710.000000	99.989826
3709.000000	99.985564
3708.000000	99.986387
3707.000000	99.988963
3706.000000	99.989099
3705.000000	99.985052
3704.000000	99.978470
3703.000000	99.972646
3702.000000	99.969698
3701.000000	99.968876
3700.000000	99.967480
3699.000000	99.964316
3698.000000	99.961248
3697.000000	99.960094
3696.000000	99.959566
3695.000000	99.956950
3694.000000	99.951761
3693.000000	99.945419
3692.000000	99.938088
3691.000000	99.928248
3690.000000	99.915732
3689.000000	99.903680
3688.000000	99.894433
3687.000000	99.885724
3686.000000	99.875500
3685.000000	99.866195
3684.000000	99.860714
3683.000000	99.858776
3682.000000	99.858209
3681.000000	99.857343
3680.000000	99.854915
3679.000000	99.848663
3678.000000	99.837511
3677.000000	99.823895
3676.000000	99.811969
3675.000000	99.801497
3674.000000	99.786210
3673.000000	99.764682
3672.000000	99.744723
3671.000000	99.732725
3670.000000	99.727545
3669.000000	99.722828
3668.000000	99.713054
3667.000000	99.698375
3666.000000	99.681373
3665.000000	99.663353
3664.000000	99.645612
3663.000000	99.631237
3662.000000	99.623291
3661.000000	99.621076
3660.000000	99.619458
3659.000000	99.612885
3658.000000	99.600515
3657.000000	99.586479
3656.000000	99.574724
3655.000000	99.563033
3654.000000	99.547549
3653.000000	99.529783
3652.000000	99.513391
3651.000000	99.498258
3650.000000	99.481870
3649.000000	99.464456
3648.000000	99.449597
3647.000000	99.438906
3646.000000	99.429533
3645.000000	99.419033
3644.000000	99.408770
3643.000000	99.401914
3642.000000	99.399261
3641.000000	99.398054
3640.000000	99.394543
3639.000000	99.386928
3638.000000	99.374828
3637.000000	99.358046
3636.000000	99.338384
3635.000000	99.320371
3634.000000	99.307086
3633.000000	99.295852
3632.000000	99.281545
3631.000000	99.263249
3630.000000	99.246336
3629.000000	99.238720
3628.000000	99.240075
3627.000000	99.240792
3626.000000	99.238609
3625.000000	99.239643
3624.000000	99.245964
3623.000000	99.254268
3622.000000	99.261553
3621.000000	99.267969
3620.000000	99.274916
3619.000000	99.282295
3618.000000	99.287639
3617.000000	99.288418
3616.000000	99.285763
3615.000000	99.284273
3614.000000	99.287973
3613.000000	99.296971
3612.000000	99.308178
3611.000000	99.319348
3610.000000	99.331198
3609.000000	99.344519
3608.000000	99.357079
3607.000000	99.365600
3606.000000	99.370003
3605.000000	99.373452
3604.000000	99.378200
3603.000000	99.383179
3602.000000	99.386258
3601.000000	99.387641
3600.000000	99.390344
3599.000000	99.397749
3598.000000	99.411121
3597.000000	99.427695
3596.000000	99.441624
3595.000000	99.447461
3594.000000	99.444027
3593.000000	99.434806
3592.000000	99.425110
3591.000000	99.418415
3590.000000	99.415075
3589.000000	99.413884
3588.000000	99.414755
3587.000000	99.418747
3586.000000	99.424880
3585.000000	99.429540
3584.000000	99.429640
3583.000000	99.424735
3582.000000	99.416983
3581.000000	99.409740
3580.000000	99.405873
3579.000000	99.406531
3578.000000	99.411034
3577.000000	99.416883
3576.000000	99.420479
3575.000000	99.419099
3574.000000	99.412890
3573.000000	99.404741
3572.000000	99.397798
3571.000000	99.393258
3570.000000	99.390551
3569.000000	99.388656
3568.000000	99.386442
3567.000000	99.382411
3566.000000	99.375401
3565.000000	99.366047
3564.000000	99.356955
3563.000000	99.350770
3562.000000	99.348183
3561.000000	99.347899
3560.000000	99.348108
3559.000000	99.347864
3558.000000	99.347265
3557.000000	99.346814
3556.000000	99.346719
3555.000000	99.346818
3554.000000	99.346904
3553.000000	99.346983
3552.000000	99.347086
3551.000000	99.346923
3550.000000	99.345855
3549.000000	99.343233
3548.000000	99.338856
3547.000000	99.333507
3546.000000	99.328898
3545.000000	99.326390
3544.000000	99.325778
3543.000000	99.325715
3542.000000	99.325131
3541.000000	99.323874
3540.000000	99.322209
3539.000000	99.320291
3538.000000	99.318257
3537.000000	99.316515
3536.000000	99.315555
3535.000000	99.315427
3534.000000	99.315634
3533.000000	99.315487
3532.000000	99.314543
3531.000000	99.312778
3530.000000	99.310508
3529.000000	99.308255
3528.000000	99.306485
3527.000000	99.305330
3526.000000	99.304607
3525.000000	99.304010
3524.000000	99.303295
3523.000000	99.302386
3522.000000	99.301350
3521.000000	99.300293
3520.000000	99.299272
3519.000000	99.298282
3518.000000	99.297294
3517.000000	99.296297
3516.000000	99.295293
3515.000000	99.294286
3514.000000	99.293276
3513.000000	99.292259
3512.000000	99.291235
3511.000000	99.290204
3510.000000	99.289172
3509.000000	99.288148
3508.000000	99.287140
3507.000000	99.286144
3506.000000	99.285135
3505.000000	99.284090
3504.000000	99.283000
3503.000000	99.281887
3502.000000	99.280784
3501.000000	99.279712
3500.000000	99.278661
3499.000000	99.277570
3498.000000	99.276384
3497.000000	99.275110
3496.000000	99.273807
3495.000000	99.272510
3494.000000	99.271203
3493.000000	99.269850
3492.000000	99.268461
3491.000000	99.267115
3490.000000	99.265905
3489.000000	99.264794
3488.000000	99.263546
3487.000000	99.261903
3486.000000	99.259868
3485.000000	99.257794
3484.000000	99.256064
3483.000000	99.254632
3482.000000	99.252981
3481.000000	99.250687
3480.000000	99.247971
3479.000000	99.245529
3478.000000	99.243811
3477.000000	99.242678
3476.000000	99.241686
3475.000000	99.240607
3474.000000	99.239576
3473.000000	99.238731
3472.000000	99.237828
3471.000000	99.236327
3470.000000	99.233837
3469.000000	99.230504
3468.000000	99.227012
3467.000000	99.224166
3466.000000	99.222363
3465.000000	99.221416
3464.000000	99.220771
3463.000000	99.219838
3462.000000	99.218219
3461.000000	99.215868
3460.000000	99.213050
3459.000000	99.210109
3458.000000	99.207291
3457.000000	99.204745
3456.000000	99.202676
3455.000000	99.201255
3454.000000	99.200271
3453.000000	99.199026
3452.000000	99.196775
3451.000000	99.193188
3450.000000	99.188418
3449.000000	99.182840
3448.000000	99.176918
3447.000000	99.171358
3446.000000	99.167039
3445.000000	99.164517
3444.000000	99.163661
3443.000000	99.163813
3442.000000	99.164147
3441.000000	99.163705
3440.000000	99.161275
3439.000000	99.155963
3438.000000	99.148334
3437.000000	99.140687
3436.000000	99.135324
3435.000000	99.132444
3434.000000	99.130370
3433.000000	99.127839
3432.000000	99.125486
3431.000000	99.124737
3430.000000	99.126009
3429.000000	99.128487
3428.000000	99.131078
3427.000000	99.132896
3426.000000	99.133081
3425.000000	99.131063
3424.000000	99.127354
3423.000000	99.123646
3422.000000	99.121476
3421.000000	99.120764
3420.000000	99.120011
3419.000000	99.117966
3418.000000	99.114924
3417.000000	99.112316
3416.000000	99.111213
3415.000000	99.111367
3414.000000	99.111650
3413.000000	99.111330
3412.000000	99.110826
3411.000000	99.111097
3410.000000	99.112420
3409.000000	99.113935
3408.000000	99.114446
3407.000000	99.113606
3406.000000	99.112218
3405.000000	99.111476
3404.000000	99.111984
3403.000000	99.113444
3402.000000	99.114989
3401.000000	99.115805
3400.000000	99.115662
3399.000000	99.115035
3398.000000	99.114767
3397.000000	99.115369
3396.000000	99.116594
3395.000000	99.117705
3394.000000	99.118191
3393.000000	99.118138
3392.000000	99.117988
3391.000000	99.118135
3390.000000	99.118706
3389.000000	99.119661
3388.000000	99.120912
3387.000000	99.122327
3386.000000	99.123693
3385.000000	99.124804
3384.000000	99.125619
3383.000000	99.126302
3382.000000	99.127060
3381.000000	99.127958
3380.000000	99.128908
3379.000000	99.129787
3378.000000	99.130521
3377.000000	99.131101
3376.000000	99.131608
3375.000000	99.132229
3374.000000	99.133167
3373.000000	99.134498
3372.000000	99.136104
3371.000000	99.137730
3370.000000	99.139154
3369.000000	99.140342
3368.000000	99.141506
3367.000000	99.142941
3366.000000	99.144701
3365.000000	99.146370
3364.000000	99.147367
3363.000000	99.147553
3362.000000	99.147520
3361.000000	99.148110
3360.000000	99.149536
3359.000000	99.151202
3358.000000	99.152462
3357.000000	99.153485
3356.000000	99.155037
3355.000000	99.157496
3354.000000	99.160325
3353.000000	99.162587
3352.000000	99.163857
3351.000000	99.164446
3350.000000	99.164906
3349.000000	99.165497
3348.000000	99.166213
3347.000000	99.167148
3346.000000	99.168590
3345.000000	99.170710
3344.000000	99.173178
3343.000000	99.175211
3342.000000	99.176164
3341.000000	99.176242
3340.000000	99.176574
3339.000000	99.178285
3338.000000	99.181419
3337.000000	99.184896
3336.000000	99.187768
3335.000000	99.190366
3334.000000	99.193820
3333.000000	99.198551
3332.000000	99.203559
3331.000000	99.207325
3330.000000	99.209251
3329.000000	99.210001
3328.000000	99.210738
3327.000000	99.212198
3326.000000	99.214392
3325.000000	99.216826
3324.000000	99.218832
3323.000000	99.219915
3322.000000	99.220001
3321.000000	99.219481
3320.000000	99.219087
3319.000000	99.219598
3318.000000	99.221488
3317.000000	99.224601
3316.000000	99.228168
3315.000000	99.231339
3314.000000	99.233810
3313.000000	99.235852
3312.000000	99.237774
3311.000000	99.239519
3310.000000	99.240884
3309.000000	99.241959
3308.000000	99.243163
3307.000000	99.244872
3306.000000	99.247144
3305.000000	99.249784
3304.000000	99.252504
3303.000000	99.255002
3302.000000	99.257037
3301.000000	99.258574
3300.000000	99.259885
3299.000000	99.261412
3298.000000	99.263397
3297.000000	99.265698
3296.000000	99.267959
3295.000000	99.269931
3294.000000	99.271665
3293.000000	99.273383
3292.000000	99.275224
3291.000000	99.277119
3290.000000	99.278934
3289.000000	99.280674
3288.000000	99.282486
3287.000000	99.284482
3286.000000	99.286632
3285.000000	99.288838
3284.000000	99.291055
3283.000000	99.293306
3282.000000	99.295603
3281.000000	99.297879
3280.000000	99.300057
3279.000000	99.302123
3278.000000	99.304145
3277.000000	99.306217
3276.000000	99.308424
3275.000000	99.310821
3274.000000	99.313361
3273.000000	99.315831
3272.000000	99.317959
3271.000000	99.319646
3270.000000	99.321038
3269.000000	99.322423
3268.000000	99.324078
3267.000000	99.326122
3266.000000	99.328470
3265.000000	99.330928
3264.000000	99.333374
3263.000000	99.335870
3262.000000	99.338500
3261.000000	99.341165
3260.000000	99.343641
3259.000000	99.345846
3258.000000	99.347919
3257.000000	99.350068
3256.000000	99.352391
3255.000000	99.354851
3254.000000	99.357347
3253.000000	99.359800
3252.000000	99.362208
3251.000000	99.364642
3250.000000	99.367155
3249.000000	99.369692
3248.000000	99.372119
3247.000000	99.374377
3246.000000	99.376541
3245.000000	99.378729
3244.000000	99.380966
3243.000000	99.383194
3242.000000	99.385368
3241.000000	99.387517
3240.000000	99.389733
3239.000000	99.392073
3238.000000	99.394511
3237.000000	99.396965
3236.000000	99.399378
3235.000000	99.401756
3234.000000	99.404148
3233.000000	99.406596
3232.000000	99.409094
3231.000000	99.411597
3230.000000	99.414065
3229.000000	99.416484
3228.000000	99.418871
3227.000000	99.421274
3226.000000	99.423744
3225.000000	99.426298
3224.000000	99.428901
3223.000000	99.431469
3222.000000	99.433936
3221.000000	99.436292
3220.000000	99.438605
3219.000000	99.440976
3218.000000	99.443475
3217.000000	99.446114
3216.000000	99.448806
3215.000000	99.451392
3214.000000	99.453757
3213.000000	99.455935
3212.000000	99.458093
3211.000000	99.460365
3210.000000	99.462726
3209.000000	99.465043
3208.000000	99.467230
3207.000000	99.469359
3206.000000	99.471575
3205.000000	99.473923
3204.000000	99.476278
3203.000000	99.478526
3202.000000	99.480779
3201.000000	99.483277
3200.000000	99.486111
3199.000000	99.489170
3198.000000	99.492339
3197.000000	99.495619
3196.000000	99.498926
3195.000000	99.501952
3194.000000	99.504384
3193.000000	99.506223
3192.000000	99.507759
3191.000000	99.509271
3190.000000	99.510930
3189.000000	99.512925
3188.000000	99.515415
3187.000000	99.518293
3186.000000	99.521128
3185.000000	99.523552
3184.000000	99.525623
3183.000000	99.527737
3182.000000	99.530214
3181.000000	99.533037
3180.000000	99.535900
3179.000000	99.538451
3178.000000	99.540566
3177.000000	99.542449
3176.000000	99.544466
3175.000000	99.546808
3174.000000	99.549385
3173.000000	99.552036
3172.000000	99.554743
3171.000000	99.557515
3170.000000	99.560193
3169.000000	99.562543
3168.000000	99.564580
3167.000000	99.566644
3166.000000	99.569029
3165.000000	99.571633
3164.000000	99.574037
3163.000000	99.575945
3162.000000	99.577413
3161.000000	99.578772
3160.000000	99.580404
3159.000000	99.582466
3158.000000	99.584835
3157.000000	99.587208
3156.000000	99.589374
3155.000000	99.591402
3154.000000	99.593495
3153.000000	99.595728
3152.000000	99.597971
3151.000000	99.600074
3150.000000	99.602056
3149.000000	99.604086
3148.000000	99.606307
3147.000000	99.608695
3146.000000	99.611098
3145.000000	99.613381
3144.000000	99.615515
3143.000000	99.617533
3142.000000	99.619433
3141.000000	99.621204
3140.000000	99.622935
3139.000000	99.624833
3138.000000	99.627033
3137.000000	99.629459
3136.000000	99.631901
3135.000000	99.634220
3134.000000	99.636413
3133.000000	99.638500
3132.000000	99.640466
3131.000000	99.642333
3130.000000	99.644198
3129.000000	99.646130
3128.000000	99.648102
3127.000000	99.650070
3126.000000	99.652084
3125.000000	99.654260
3124.000000	99.656660
3123.000000	99.659216
3122.000000	99.661773
3121.000000	99.664166
3120.000000	99.666265
3119.000000	99.668054
3118.000000	99.669672
3117.000000	99.671364
3116.000000	99.673320
3115.000000	99.675519
3114.000000	99.677713
3113.000000	99.679625
3112.000000	99.681185
3111.000000	99.682599
3110.000000	99.684158
3109.000000	99.685987
3108.000000	99.688010
3107.000000	99.690095
3106.000000	99.692163
3105.000000	99.694160
3104.000000	99.696043
3103.000000	99.697876
3102.000000	99.699823
3101.000000	99.701935
3100.000000	99.704009
3099.000000	99.705774
3098.000000	99.707186
3097.000000	99.708439
3096.000000	99.709805
3095.000000	99.711439
3094.000000	99.713349
3093.000000	99.715436
3092.000000	99.717528
3091.000000	99.719492
3090.000000	99.721331
3089.000000	99.723152
3088.000000	99.725035
3087.000000	99.726936
3086.000000	99.728763
3085.000000	99.730508
3084.000000	99.732239
3083.000000	99.733986
3082.000000	99.735688
3081.000000	99.737261
3080.000000	99.738709
3079.000000	99.740128
3078.000000	99.741619
3077.000000	99.743188
3076.000000	99.744750
3075.000000	99.746221
3074.000000	99.747613
3073.000000	99.749017
3072.000000	99.750505
3071.000000	99.752069
3070.000000	99.753638
3069.000000	99.755114
3068.000000	99.756419
3067.000000	99.757581
3066.000000	99.758784
3065.000000	99.760242
3064.000000	99.762026
3063.000000	99.763993
3062.000000	99.765835
3061.000000	99.767275
3060.000000	99.768238
3059.000000	99.768909
3058.000000	99.769677
3057.000000	99.770873
3056.000000	99.772553
3055.000000	99.774503
3054.000000	99.776495
3053.000000	99.778424
3052.000000	99.780112
3051.000000	99.781319
3050.000000	99.782111
3049.000000	99.782932
3048.000000	99.784046
3047.000000	99.785107
3046.000000	99.785595
3045.000000	99.785499
3044.000000	99.785328
3043.000000	99.785545
3042.000000	99.786220
3041.000000	99.787185
3040.000000	99.788310
3039.000000	99.789601
3038.000000	99.791105
3037.000000	99.792731
3036.000000	99.794195
3035.000000	99.795260
3034.000000	99.795986
3033.000000	99.796521
3032.000000	99.796677
3031.000000	99.796111
3030.000000	99.795084
3029.000000	99.794584
3028.000000	99.795300
3027.000000	99.796850
3026.000000	99.798276
3025.000000	99.799128
3024.000000	99.799614
3023.000000	99.799914
3022.000000	99.799980
3021.000000	99.800062
3020.000000	99.800876
3019.000000	99.803008
3018.000000	99.806306
3017.000000	99.809842
3016.000000	99.812377
3015.000000	99.812930
3014.000000	99.811283
3013.000000	99.808220
3012.000000	99.805060
3011.000000	99.802838
3010.000000	99.801976
3009.000000	99.802371
3008.000000	99.803295
3007.000000	99.803376
3006.000000	99.801445
3005.000000	99.797758
3004.000000	99.794096
3003.000000	99.792326
3002.000000	99.793074
3001.000000	99.795757
3000.000000	99.799338
2999.000000	99.802753
2998.000000	99.805103
2997.000000	99.806034
2996.000000	99.806050
2995.000000	99.806245
2994.000000	99.807470
2993.000000	99.809516
2992.000000	99.810878
2991.000000	99.809620
2990.000000	99.805125
2989.000000	99.799288
2988.000000	99.795426
2987.000000	99.795360
2986.000000	99.797738
2985.000000	99.799465
2984.000000	99.798654
2983.000000	99.795772
2982.000000	99.792126
2981.000000	99.787988
2980.000000	99.782672
2979.000000	99.776127
2978.000000	99.769739
2977.000000	99.765288
2976.000000	99.763563
2975.000000	99.764233
2974.000000	99.766644
2973.000000	99.770187
2972.000000	99.774240
2971.000000	99.778560
2970.000000	99.783688
2969.000000	99.790163
2968.000000	99.797213
2967.000000	99.803092
2966.000000	99.807048
2965.000000	99.809971
2964.000000	99.812656
2963.000000	99.814415
2962.000000	99.814316
2961.000000	99.813030
2960.000000	99.812314
2959.000000	99.813064
2958.000000	99.814942
2957.000000	99.817595
2956.000000	99.820858
2955.000000	99.823653
2954.000000	99.824059
2953.000000	99.821282
2952.000000	99.816951
2951.000000	99.813927
2950.000000	99.813866
2949.000000	99.816216
2948.000000	99.819200
2947.000000	99.821393
2946.000000	99.822556
2945.000000	99.823228
2944.000000	99.823707
2943.000000	99.823628
2942.000000	99.822686
2941.000000	99.821562
2940.000000	99.821635
2939.000000	99.823657
2938.000000	99.826991
2937.000000	99.830174
2936.000000	99.832116
2935.000000	99.832717
2934.000000	99.832532
2933.000000	99.832072
2932.000000	99.831440
2931.000000	99.830592
2930.000000	99.829816
2929.000000	99.829726
2928.000000	99.830788
2927.000000	99.833047
2926.000000	99.836303
2925.000000	99.840175
2924.000000	99.843821
2923.000000	99.846184
2922.000000	99.847010
2921.000000	99.847222
2920.000000	99.847862
2919.000000	99.848920
2918.000000	99.849839
2917.000000	99.850861
2916.000000	99.852947
2915.000000	99.856272
2914.000000	99.859570
2913.000000	99.861377
2912.000000	99.861373
2911.000000	99.860271
2910.000000	99.858956
2909.000000	99.858030
2908.000000	99.857867
2907.000000	99.858575
2906.000000	99.859842
2905.000000	99.861161
2904.000000	99.862179
2903.000000	99.862770
2902.000000	99.862935
2901.000000	99.862807
2900.000000	99.862681
2899.000000	99.862886
2898.000000	99.863620
2897.000000	99.864871
2896.000000	99.866352
2895.000000	99.867636
2894.000000	99.868592
2893.000000	99.869611
2892.000000	99.871184
2891.000000	99.873343
2890.000000	99.875632
2889.000000	99.877501
2888.000000	99.878640
2887.000000	99.879173
2886.000000	99.879719
2885.000000	99.881064
2884.000000	99.883457
2883.000000	99.886261
2882.000000	99.888494
2881.000000	99.889771
2880.000000	99.890515
2879.000000	99.891376
2878.000000	99.892677
2877.000000	99.894373
2876.000000	99.896300
2875.000000	99.898336
2874.000000	99.900490
2873.000000	99.902861
2872.000000	99.905418
2871.000000	99.907826
2870.000000	99.909637
2869.000000	99.910705
2868.000000	99.911269
2867.000000	99.911712
2866.000000	99.912374
2865.000000	99.913508
2864.000000	99.915188
2863.000000	99.917185
2862.000000	99.919110
2861.000000	99.920801
2860.000000	99.922426
2859.000000	99.924113
2858.000000	99.925672
2857.000000	99.926844
2856.000000	99.927700
2855.000000	99.928674
2854.000000	99.930165
2853.000000	99.932207
2852.000000	99.934466
2851.000000	99.936470
2850.000000	99.937941
2849.000000	99.938915
2848.000000	99.939706
2847.000000	99.940701
2846.000000	99.942110
2845.000000	99.943931
2844.000000	99.946046
2843.000000	99.948324
2842.000000	99.950651
2841.000000	99.952891
2840.000000	99.954875
2839.000000	99.956449
2838.000000	99.957626
2837.000000	99.958688
2836.000000	99.959975
2835.000000	99.961540
2834.000000	99.963092
2833.000000	99.964361
2832.000000	99.965417
2831.000000	99.966529
2830.000000	99.967819
2829.000000	99.969160
2828.000000	99.970341
2827.000000	99.971217
2826.000000	99.971794
2825.000000	99.972282
2824.000000	99.973035
2823.000000	99.974295
2822.000000	99.975999
2821.000000	99.977869
2820.000000	99.979707
2819.000000	99.981486
2818.000000	99.983248
2817.000000	99.985018
2816.000000	99.986765
2815.000000	99.988315
2814.000000	99.989414
2813.000000	99.990020
2812.000000	99.990504
2811.000000	99.991398
2810.000000	99.992865
2809.000000	99.994540
2808.000000	99.995975
2807.000000	99.997153
2806.000000	99.998467
2805.000000	100.000173
2804.000000	100.002009
2803.000000	100.003437
2802.000000	100.004241
2801.000000	100.004688
2800.000000	100.005179
2799.000000	100.005841
2798.000000	100.006610
2797.000000	100.007530
2796.000000	100.008707
2795.000000	100.010030
2794.000000	100.011149
2793.000000	100.011827
2792.000000	100.012190
2791.000000	100.012638
2790.000000	100.013453
2789.000000	100.014588
2788.000000	100.015777
2787.000000	100.016756
2786.000000	100.017475
2785.000000	100.018128
2784.000000	100.018930
2783.000000	100.019818
2782.000000	100.020538
2781.000000	100.021081
2780.000000	100.021807
2779.000000	100.022989
2778.000000	100.024438
2777.000000	100.025740
2776.000000	100.026778
2775.000000	100.027804
2774.000000	100.029014
2773.000000	100.030288
2772.000000	100.031360
2771.000000	100.032084
2770.000000	100.032502
2769.000000	100.032785
2768.000000	100.033146
2767.000000	100.033684
2766.000000	100.034274
2765.000000	100.034720
2764.000000	100.035023
2763.000000	100.035394
2762.000000	100.036015
2761.000000	100.036891
2760.000000	100.037894
2759.000000	100.038859
2758.000000	100.039654
2757.000000	100.040239
2756.000000	100.040638
2755.000000	100.040822
2754.000000	100.040775
2753.000000	100.040756
2752.000000	100.041264
2751.000000	100.042527
2750.000000	100.044240
2749.000000	100.046043
2748.000000	100.048070
2747.000000	100.050595
2746.000000	100.053190
2745.000000	100.054754
2744.000000	100.054626
2743.000000	100.053247
2742.000000	100.051869
2741.000000	100.051467
2740.000000	100.052139
2739.000000	100.053447
2738.000000	100.054898
2737.000000	100.056233
2736.000000	100.057464
2735.000000	100.058759
2734.000000	100.060197
2733.000000	100.061522
2732.000000	100.062237
2731.000000	100.062050
2730.000000	100.061208
2729.000000	100.060340
2728.000000	100.059936
2727.000000	100.060059
2726.000000	100.060519
2725.000000	100.061121
2724.000000	100.061730
2723.000000	100.062227
2722.000000	100.062562
2721.000000	100.062830
2720.000000	100.063163
2719.000000	100.063577
2718.000000	100.064014
2717.000000	100.064531
2716.000000	100.065258
2715.000000	100.066158
2714.000000	100.066951
2713.000000	100.067383
2712.000000	100.067483
2711.000000	100.067528
2710.000000	100.067792
2709.000000	100.068359
2708.000000	100.069091
2707.000000	100.069712
2706.000000	100.070018
2705.000000	100.070034
2704.000000	100.069939
2703.000000	100.069822
2702.000000	100.069638
2701.000000	100.069446
2700.000000	100.069497
2699.000000	100.069961
2698.000000	100.070698
2697.000000	100.071383
2696.000000	100.071885
2695.000000	100.072270
2694.000000	100.072563
2693.000000	100.072733
2692.000000	100.072878
2691.000000	100.073211
2690.000000	100.073812
2689.000000	100.074469
2688.000000	100.074869
2687.000000	100.074930
2686.000000	100.074909
2685.000000	100.075127
2684.000000	100.075680
2683.000000	100.076432
2682.000000	100.077174
2681.000000	100.077722
2680.000000	100.078009
2679.000000	100.078144
2678.000000	100.078304
2677.000000	100.078484
2676.000000	100.078456
2675.000000	100.078102
2674.000000	100.077694
2673.000000	100.077666
2672.000000	100.078082
2671.000000	100.078519
2670.000000	100.078582
2669.000000	100.078415
2668.000000	100.078513
2667.000000	100.079178
2666.000000	100.080319
2665.000000	100.081690
2664.000000	100.083065
2663.000000	100.084209
2662.000000	100.084954
2661.000000	100.085395
2660.000000	100.085781
2659.000000	100.086110
2658.000000	100.086069
2657.000000	100.085498
2656.000000	100.084670
2655.000000	100.083960
2654.000000	100.083460
2653.000000	100.083116
2652.000000	100.083010
2651.000000	100.083241
2650.000000	100.083708
2649.000000	100.084318
2648.000000	100.085235
2647.000000	100.086553
2646.000000	100.087788
2645.000000	100.088154
2644.000000	100.087491
2643.000000	100.086644
2642.000000	100.086720
2641.000000	100.088016
2640.000000	100.089867
2639.000000	100.091364
2638.000000	100.092168
2637.000000	100.092540
2636.000000	100.092755
2635.000000	100.092690
2634.000000	100.092030
2633.000000	100.090738
2632.000000	100.089214
2631.000000	100.087999
2630.000000	100.087487
2629.000000	100.087845
2628.000000	100.088995
2627.000000	100.090579
2626.000000	100.092021
2625.000000	100.092879
2624.000000	100.093083
2623.000000	100.092790
2622.000000	100.092184
2621.000000	100.091444
2620.000000	100.090803
2619.000000	100.090466
2618.000000	100.090450
2617.000000	100.090593
2616.000000	100.090700
2615.000000	100.090664
2614.000000	100.090511
2613.000000	100.090384
2612.000000	100.090410
2611.000000	100.090562
2610.000000	100.090694
2609.000000	100.090726
2608.000000	100.090713
2607.000000	100.090728
2606.000000	100.090760
2605.000000	100.090777
2604.000000	100.090799
2603.000000	100.090849
2602.000000	100.090887
2601.000000	100.090859
2600.000000	100.090783
2599.000000	100.090712
2598.000000	100.090669
2597.000000	100.090640
2596.000000	100.090613
2595.000000	100.090590
2594.000000	100.090576
2593.000000	100.090575
2592.000000	100.090589
2591.000000	100.090620
2590.000000	100.090671
2589.000000	100.090737
2588.000000	100.090809
2587.000000	100.090880
2586.000000	100.090952
2585.000000	100.091034
2584.000000	100.091136
2583.000000	100.091268
2582.000000	100.091427
2581.000000	100.091603
2580.000000	100.091785
2579.000000	100.091962
2578.000000	100.092131
2577.000000	100.092301
2576.000000	100.092475
2575.000000	100.092635
2574.000000	100.092762
2573.000000	100.092846
2572.000000	100.092898
2571.000000	100.092943
2570.000000	100.093014
2569.000000	100.093135
2568.000000	100.093299
2567.000000	100.093481
2566.000000	100.093663
2565.000000	100.093849
2564.000000	100.094028
2563.000000	100.094154
2562.000000	100.094165
2561.000000	100.094035
2560.000000	100.093825
2559.000000	100.093677
2558.000000	100.093726
2557.000000	100.094001
2556.000000	100.094425
2555.000000	100.094905
2554.000000	100.095387
2553.000000	100.095821
2552.000000	100.096102
2551.000000	100.096118
2550.000000	100.095880
2549.000000	100.095586
2548.000000	100.095497
2547.000000	100.095730
2546.000000	100.096158
2545.000000	100.096524
2544.000000	100.096667
2543.000000	100.096623
2542.000000	100.096481
2541.000000	100.096236
2540.000000	100.095859
2539.000000	100.095378
2538.000000	100.094847
2537.000000	100.094319
2536.000000	100.093911
2535.000000	100.093846
2534.000000	100.094255
2533.000000	100.094960
2532.000000	100.095555
2531.000000	100.095770
2530.000000	100.095665
2529.000000	100.095480
2528.000000	100.095364
2527.000000	100.095312
2526.000000	100.095321
2525.000000	100.095453
2524.000000	100.095701
2523.000000	100.095913
2522.000000	100.095942
2521.000000	100.095815
2520.000000	100.095682
2519.000000	100.095643
2518.000000	100.095697
2517.000000	100.095821
2516.000000	100.096005
2515.000000	100.096207
2514.000000	100.096366
2513.000000	100.096465
2512.000000	100.096555
2511.000000	100.096688
2510.000000	100.096871
2509.000000	100.097068
2508.000000	100.097259
2507.000000	100.097455
2506.000000	100.097680
2505.000000	100.097952
2504.000000	100.098269
2503.000000	100.098618
2502.000000	100.098981
2501.000000	100.099340
2500.000000	100.099674
2499.000000	100.099956
2498.000000	100.100178
2497.000000	100.100393
2496.000000	100.100714
2495.000000	100.101221
2494.000000	100.101871
2493.000000	100.102516
2492.000000	100.103038
2491.000000	100.103444
2490.000000	100.103826
2489.000000	100.104253
2488.000000	100.104741
2487.000000	100.105282
2486.000000	100.105860
2485.000000	100.106407
2484.000000	100.106806
2483.000000	100.106972
2482.000000	100.106973
2481.000000	100.107067
2480.000000	100.107533
2479.000000	100.108450
2478.000000	100.109611
2477.000000	100.110665
2476.000000	100.111382
2475.000000	100.111707
2474.000000	100.111633
2473.000000	100.111183
2472.000000	100.110608
2471.000000	100.110425
2470.000000	100.111055
2469.000000	100.112462
2468.000000	100.114201
2467.000000	100.115830
2466.000000	100.117202
2465.000000	100.118304
2464.000000	100.119016
2463.000000	100.119163
2462.000000	100.118806
2461.000000	100.118380
2460.000000	100.118390
2459.000000	100.118924
2458.000000	100.119513
2457.000000	100.119577
2456.000000	100.119045
2455.000000	100.118463
2454.000000	100.118433
2453.000000	100.119033
2452.000000	100.119877
2451.000000	100.120618
2450.000000	100.121282
2449.000000	100.122095
2448.000000	100.123129
2447.000000	100.124176
2446.000000	100.124859
2445.000000	100.124899
2444.000000	100.124352
2443.000000	100.123627
2442.000000	100.123207
2441.000000	100.123258
2440.000000	100.123522
2439.000000	100.123547
2438.000000	100.123062
2437.000000	100.122220
2436.000000	100.121547
2435.000000	100.121511
2434.000000	100.122088
2433.000000	100.122787
2432.000000	100.123236
2431.000000	100.123593
2430.000000	100.124134
2429.000000	100.124626
2428.000000	100.124475
2427.000000	100.123527
2426.000000	100.122421
2425.000000	100.121941
2424.000000	100.122331
2423.000000	100.123344
2422.000000	100.124667
2421.000000	100.126058
2420.000000	100.127218
2419.000000	100.127957
2418.000000	100.128392
2417.000000	100.128768
2416.000000	100.129139
2415.000000	100.129387
2414.000000	100.129511
2413.000000	100.129641
2412.000000	100.129728
2411.000000	100.129543
2410.000000	100.129075
2409.000000	100.128671
2408.000000	100.128689
2407.000000	100.129155
2406.000000	100.129792
2405.000000	100.130280
2404.000000	100.130384
2403.000000	100.130018
2402.000000	100.129308
2401.000000	100.128599
2400.000000	100.128260
2399.000000	100.128429
2398.000000	100.128967
2397.000000	100.129646
2396.000000	100.130361
2395.000000	100.131111
2394.000000	100.131849
2393.000000	100.132459
2392.000000	100.132847
2391.000000	100.133053
2390.000000	100.133240
2389.000000	100.133546
2388.000000	100.133964
2387.000000	100.134404
2386.000000	100.134860
2385.000000	100.135408
2384.000000	100.136055
2383.000000	100.136700
2382.000000	100.137266
2381.000000	100.137779
2380.000000	100.138285
2379.000000	100.138749
2378.000000	100.139122
2377.000000	100.139433
2376.000000	100.139778
2375.000000	100.140220
2374.000000	100.140737
2373.000000	100.141274
2372.000000	100.141783
2371.000000	100.142256
2370.000000	100.142697
2369.000000	100.143111
2368.000000	100.143506
2367.000000	100.143891
2366.000000	100.144273
2365.000000	100.144650
2364.000000	100.145013
2363.000000	100.145352
2362.000000	100.145658
2361.000000	100.145931
2360.000000	100.146178
2359.000000	100.146407
2358.000000	100.146623
2357.000000	100.146828
2356.000000	100.147021
2355.000000	100.147197
2354.000000	100.147347
2353.000000	100.147458
2352.000000	100.147524
2351.000000	100.147547
2350.000000	100.147539
2349.000000	100.147507
2348.000000	100.147455
2347.000000	100.147383
2346.000000	100.147290
2345.000000	100.147175
2344.000000	100.147029
2343.000000	100.146845
2342.000000	100.146623
2341.000000	100.146374
2340.000000	100.146113
2339.000000	100.145850
2338.000000	100.145576
2337.000000	100.145283
2336.000000	100.144962
2335.000000	100.144613
2334.000000	100.144236
2333.000000	100.143831
2332.000000	100.143399
2331.000000	100.142943
2330.000000	100.142468
2329.000000	100.141978
2328.000000	100.141480
2327.000000	100.140986
2326.000000	100.140497
2325.000000	100.140002
2324.000000	100.139481
2323.000000	100.138933
2322.000000	100.138366
2321.000000	100.137791
2320.000000	100.137213
2319.000000	100.136648
2318.000000	100.136122
2317.000000	100.135638
2316.000000	100.135177
2315.000000	100.134705
2314.000000	100.134213
2313.000000	100.133730
2312.000000	100.133304
2311.000000	100.132942
2310.000000	100.132581
2309.000000	100.132149
2308.000000	100.131646
2307.000000	100.131146
2306.000000	100.130707
2305.000000	100.130293
2304.000000	100.129812
2303.000000	100.129229
2302.000000	100.128603
2301.000000	100.128033
2300.000000	100.127579
2299.000000	100.127222
2298.000000	100.126856
2297.000000	100.126367
2296.000000	100.125744
2295.000000	100.125079
2294.000000	100.124433
2293.000000	100.123812
2292.000000	100.123251
2291.000000	100.122838
2290.000000	100.122596
2289.000000	100.122437
2288.000000	100.122214
2287.000000	100.121859
2286.000000	100.121398
2285.000000	100.120899
2284.000000	100.120422
2283.000000	100.120009
2282.000000	100.119676
2281.000000	100.119387
2280.000000	100.119053
2279.000000	100.118618
2278.000000	100.118103
2277.000000	100.117576
2276.000000	100.117083
2275.000000	100.116628
2274.000000	100.116187
2273.000000	100.115719
2272.000000	100.115173
2271.000000	100.114529
2270.000000	100.113844
2269.000000	100.113240
2268.000000	100.112827
2267.000000	100.112635
2266.000000	100.112596
2265.000000	100.112579
2264.000000	100.112455
2263.000000	100.112132
2262.000000	100.111539
2261.000000	100.110654
2260.000000	100.109599
2259.000000	100.108653
2258.000000	100.108021
2257.000000	100.107617
2256.000000	100.107189
2255.000000	100.106692
2254.000000	100.106384
2253.000000	100.106475
2252.000000	100.106833
2251.000000	100.107154
2250.000000	100.107342
2249.000000	100.107581
2248.000000	100.107965
2247.000000	100.108130
2246.000000	100.107463
2245.000000	100.105756
2244.000000	100.103600
2243.000000	100.102008
2242.000000	100.101414
2241.000000	100.101446
2240.000000	100.101508
2239.000000	100.101390
2238.000000	100.101128
2237.000000	100.100607
2236.000000	100.099746
2235.000000	100.098923
2234.000000	100.098677
2233.000000	100.098993
2232.000000	100.099300
2231.000000	100.099265
2230.000000	100.099177
2229.000000	100.099365
2228.000000	100.099704
2227.000000	100.099893
2226.000000	100.099935
2225.000000	100.100037
2224.000000	100.100240
2223.000000	100.100397
2222.000000	100.100449
2221.000000	100.100488
2220.000000	100.100567
2219.000000	100.100603
2218.000000	100.100505
2217.000000	100.100299
2216.000000	100.100113
2215.000000	100.100081
2214.000000	100.100237
2213.000000	100.100514
2212.000000	100.100791
2211.000000	100.100977
2210.000000	100.101062
2209.000000	100.101095
2208.000000	100.101133
2207.000000	100.101204
2206.000000	100.101300
2205.000000	100.101396
2204.000000	100.101487
2203.000000	100.101580
2202.000000	100.101685
2201.000000	100.101801
2200.000000	100.101920
2199.000000	100.102034
2198.000000	100.102136
2197.000000	100.102226
2196.000000	100.102306
2195.000000	100.102380
2194.000000	100.102453
2193.000000	100.102530
2192.000000	100.102614
2191.000000	100.102704
2190.000000	100.102795
2189.000000	100.102885
2188.000000	100.102968
2187.000000	100.103041
2186.000000	100.103106
2185.000000	100.103162
2184.000000	100.103212
2183.000000	100.103256
2182.000000	100.103297
2181.000000	100.103335
2180.000000	100.103372
2179.000000	100.103406
2178.000000	100.103431
2177.000000	100.103441
2176.000000	100.103434
2175.000000	100.103414
2174.000000	100.103391
2173.000000	100.103371
2172.000000	100.103364
2171.000000	100.103384
2170.000000	100.103428
2169.000000	100.103468
2168.000000	100.103478
2167.000000	100.103458
2166.000000	100.103432
2165.000000	100.103412
2164.000000	100.103388
2163.000000	100.103342
2162.000000	100.103291
2161.000000	100.103292
2160.000000	100.103406
2159.000000	100.103643
2158.000000	100.103938
2157.000000	100.104182
2156.000000	100.104305
2155.000000	100.104338
2154.000000	100.104416
2153.000000	100.104669
2152.000000	100.105082
2151.000000	100.105491
2150.000000	100.105768
2149.000000	100.105980
2148.000000	100.106285
2147.000000	100.106698
2146.000000	100.107055
2145.000000	100.107238
2144.000000	100.107312
2143.000000	100.107389
2142.000000	100.107471
2141.000000	100.107512
2140.000000	100.107554
2139.000000	100.107676
2138.000000	100.107867
2137.000000	100.108075
2136.000000	100.108376
2135.000000	100.108931
2134.000000	100.109708
2133.000000	100.110386
2132.000000	100.110621
2131.000000	100.110401
2130.000000	100.110160
2129.000000	100.110445
2128.000000	100.111455
2127.000000	100.112891
2126.000000	100.114179
2125.000000	100.114974
2124.000000	100.115362
2123.000000	100.115676
2122.000000	100.116182
2121.000000	100.116914
2120.000000	100.117706
2119.000000	100.118331
2118.000000	100.118660
2117.000000	100.118784
2116.000000	100.118961
2115.000000	100.119361
2114.000000	100.119873
2113.000000	100.120227
2112.000000	100.120280
2111.000000	100.120127
2110.000000	100.119995
2109.000000	100.120074
2108.000000	100.120424
2107.000000	100.120977
2106.000000	100.121579
2105.000000	100.122096
2104.000000	100.122495
2103.000000	100.122809
2102.000000	100.123045
2101.000000	100.123185
2100.000000	100.123257
2099.000000	100.123348
2098.000000	100.123535
2097.000000	100.123819
2096.000000	100.124153
2095.000000	100.124505
2094.000000	100.124875
2093.000000	100.125277
2092.000000	100.125712
2091.000000	100.126168
2090.000000	100.126593
2089.000000	100.126878
2088.000000	100.126913
2087.000000	100.126702
2086.000000	100.126459
2085.000000	100.126478
2084.000000	100.126851
2083.000000	100.127353
2082.000000	100.127636
2081.000000	100.127621
2080.000000	100.127548
2079.000000	100.127670
2078.000000	100.127986
2077.000000	100.128303
2076.000000	100.128467
2075.000000	100.128485
2074.000000	100.128503
2073.000000	100.128682
2072.000000	100.128993
2071.000000	100.129111
2070.000000	100.128705
2069.000000	100.127928
2068.000000	100.127408
2067.000000	100.127503
2066.000000	100.127786
2065.000000	100.127590
2064.000000	100.126997
2063.000000	100.126819
2062.000000	100.127527
2061.000000	100.128623
2060.000000	100.129250
2059.000000	100.129161
2058.000000	100.128832
2057.000000	100.128813
2056.000000	100.129250
2055.000000	100.129981
2054.000000	100.130791
2053.000000	100.131425
2052.000000	100.131482
2051.000000	100.130498
2050.000000	100.128347
2049.000000	100.125593
2048.000000	100.123327
2047.000000	100.122264
2046.000000	100.122110
2045.000000	100.121995
2044.000000	100.121503
2043.000000	100.120998
2042.000000	100.120877
2041.000000	100.120930
2040.000000	100.120681
2039.000000	100.120020
2038.000000	100.119175
2037.000000	100.118283
2036.000000	100.117323
2035.000000	100.116373
2034.000000	100.115599
2033.000000	100.114999
2032.000000	100.114442
2031.000000	100.113958
2030.000000	100.113727
2029.000000	100.113657
2028.000000	100.113265
2027.000000	100.112200
2026.000000	100.110748
2025.000000	100.109619
2024.000000	100.109195
2023.000000	100.109208
2022.000000	100.109103
2021.000000	100.108599
2020.000000	100.107812
2019.000000	100.106985
2018.000000	100.106312
2017.000000	100.105907
2016.000000	100.105746
2015.000000	100.105596
2014.000000	100.105184
2013.000000	100.104505
2012.000000	100.103827
2011.000000	100.103338
2010.000000	100.102877
2009.000000	100.102140
2008.000000	100.101045
2007.000000	100.099836
2006.000000	100.098850
2005.000000	100.098236
2004.000000	100.097900
2003.000000	100.097597
2002.000000	100.097110
2001.000000	100.096419
2000.000000	100.095724
1999.000000	100.095266
1998.000000	100.095078
1997.000000	100.094960
1996.000000	100.094721
1995.000000	100.094399
1994.000000	100.094151
1993.000000	100.094010
1992.000000	100.093858
1991.000000	100.093615
1990.000000	100.093322
1989.000000	100.093043
1988.000000	100.092780
1987.000000	100.092515
1986.000000	100.092253
1985.000000	100.092000
1984.000000	100.091764
1983.000000	100.091576
1982.000000	100.091472
1981.000000	100.091420
1980.000000	100.091310
1979.000000	100.091066
1978.000000	100.090715
1977.000000	100.090341
1976.000000	100.090008
1975.000000	100.089745
1974.000000	100.089591
1973.000000	100.089588
1972.000000	100.089724
1971.000000	100.089914
1970.000000	100.090015
1969.000000	100.089921
1968.000000	100.089619
1967.000000	100.089215
1966.000000	100.088903
1965.000000	100.088814
1964.000000	100.088920
1963.000000	100.089046
1962.000000	100.089036
1961.000000	100.088936
1960.000000	100.088947
1959.000000	100.089200
1958.000000	100.089623
1957.000000	100.090040
1956.000000	100.090310
1955.000000	100.090306
1954.000000	100.089832
1953.000000	100.088744
1952.000000	100.087243
1951.000000	100.085904
1950.000000	100.085261
1949.000000	100.085353
1948.000000	100.085685
1947.000000	100.085641
1946.000000	100.084933
1945.000000	100.083662
1944.000000	100.082155
1943.000000	100.080832
1942.000000	100.080097
1941.000000	100.080152
1940.000000	100.080924
1939.000000	100.082086
1938.000000	100.083037
1937.000000	100.083088
1936.000000	100.081977
1935.000000	100.080289
1934.000000	100.079078
1933.000000	100.078828
1932.000000	100.079019
1931.000000	100.078821
1930.000000	100.078147
1929.000000	100.077674
1928.000000	100.077800
1927.000000	100.078097
1926.000000	100.077978
1925.000000	100.077580
1924.000000	100.077489
1923.000000	100.077577
1922.000000	100.076796
1921.000000	100.074305
1920.000000	100.070352
1919.000000	100.066137
1918.000000	100.062996
1917.000000	100.061262
1916.000000	100.060016
1915.000000	100.058228
1914.000000	100.055733
1913.000000	100.053054
1912.000000	100.050732
1911.000000	100.048978
1910.000000	100.047841
1909.000000	100.047145
1908.000000	100.046233
1907.000000	100.044457
1906.000000	100.041956
1905.000000	100.039556
1904.000000	100.037631
1903.000000	100.035519
1902.000000	100.032686
1901.000000	100.029958
1900.000000	100.028821
1899.000000	100.029711
1898.000000	100.031383
1897.000000	100.031897
1896.000000	100.030040
1895.000000	100.025947
1894.000000	100.020971
1893.000000	100.016748
1892.000000	100.013980
1891.000000	100.012233
1890.000000	100.010906
1889.000000	100.010100
1888.000000	100.010093
1887.000000	100.010347
1886.000000	100.009880
1885.000000	100.008627
1884.000000	100.007836
1883.000000	100.008699
1882.000000	100.010845
1881.000000	100.012496
1880.000000	100.012078
1879.000000	100.009649
1878.000000	100.006649
1877.000000	100.004466
1876.000000	100.003395
1875.000000	100.002780
1874.000000	100.001925
1873.000000	100.000908
1872.000000	100.000589
1871.000000	100.001927
1870.000000	100.004989
1869.000000	100.008171
1868.000000	100.009065
1867.000000	100.007093
1866.000000	100.004307
1865.000000	100.003144
1864.000000	100.004373
1863.000000	100.007125
1862.000000	100.010145
1861.000000	100.012752
1860.000000	100.014987
1859.000000	100.017565
1858.000000	100.021621
1857.000000	100.027528
1856.000000	100.033785
1855.000000	100.037991
1854.000000	100.039239
1853.000000	100.038818
1852.000000	100.038325
1851.000000	100.038233
1850.000000	100.038779
1849.000000	100.040989
1848.000000	100.045644
1847.000000	100.051691
1846.000000	100.056668
1845.000000	100.058659
1844.000000	100.057923
1843.000000	100.056375
1842.000000	100.055580
1841.000000	100.056115
1840.000000	100.057960
1839.000000	100.060469
1838.000000	100.062570
1837.000000	100.063796
1836.000000	100.064680
1835.000000	100.065568
1834.000000	100.065757
1833.000000	100.064416
1832.000000	100.061929
1831.000000	100.059979
1830.000000	100.059828
1829.000000	100.060581
1828.000000	100.060359
1827.000000	100.058508
1826.000000	100.055857
1825.000000	100.054029
1824.000000	100.054162
1823.000000	100.055688
1822.000000	100.057035
1821.000000	100.057331
1820.000000	100.057096
1819.000000	100.057276
1818.000000	100.057861
1817.000000	100.058215
1816.000000	100.058403
1815.000000	100.059217
1814.000000	100.060925
1813.000000	100.062603
1812.000000	100.063017
1811.000000	100.061676
1810.000000	100.058911
1809.000000	100.055514
1808.000000	100.052350
1807.000000	100.050140
1806.000000	100.049395
1805.000000	100.050339
1804.000000	100.052808
1803.000000	100.056277
1802.000000	100.059966
1801.000000	100.062943
1800.000000	100.064572
1799.000000	100.064930
1798.000000	100.064642
1797.000000	100.064416
1796.000000	100.064751
1795.000000	100.065996
1794.000000	100.068247
1793.000000	100.070737
1792.000000	100.071856
1791.000000	100.070781
1790.000000	100.068646
1789.000000	100.067222
1788.000000	100.067021
1787.000000	100.067310
1786.000000	100.067473
1785.000000	100.068111
1784.000000	100.070170
1783.000000	100.073462
1782.000000	100.077009
1781.000000	100.079989
1780.000000	100.082060
1779.000000	100.083119
1778.000000	100.083187
1777.000000	100.082686
1776.000000	100.082303
1775.000000	100.082463
1774.000000	100.082805
1773.000000	100.082462
1772.000000	100.081603
1771.000000	100.081678
1770.000000	100.083510
1769.000000	100.086670
1768.000000	100.090289
1767.000000	100.093765
1766.000000	100.096989
1765.000000	100.100243
1764.000000	100.104102
1763.000000	100.108937
1762.000000	100.113861
1761.000000	100.116648
1760.000000	100.116250
1759.000000	100.114206
1758.000000	100.113069
1757.000000	100.113974
1756.000000	100.115628
1755.000000	100.116469
1754.000000	100.116770
1753.000000	100.117777
1752.000000	100.120032
1751.000000	100.122991
1750.000000	100.125532
1749.000000	100.127264
1748.000000	100.128980
1747.000000	100.131484
1746.000000	100.134276
1745.000000	100.135398
1744.000000	100.133209
1743.000000	100.128295
1742.000000	100.123235
1741.000000	100.120380
1740.000000	100.120018
1739.000000	100.120329
1738.000000	100.119509
1737.000000	100.117490
1736.000000	100.114967
1735.000000	100.111981
1734.000000	100.109492
1733.000000	100.108720
1732.000000	100.108870
1731.000000	100.108952
1730.000000	100.108765
1729.000000	100.108467
1728.000000	100.108451
1727.000000	100.108722
1726.000000	100.108584
1725.000000	100.107372
1724.000000	100.105734
1723.000000	100.104819
1722.000000	100.104486
1721.000000	100.103800
1720.000000	100.102643
1719.000000	100.101769
1718.000000	100.101377
1717.000000	100.100630
1716.000000	100.099138
1715.000000	100.097837
1714.000000	100.097861
1713.000000	100.099022
1712.000000	100.099674
1711.000000	100.098118
1710.000000	100.094098
1709.000000	100.089022
1708.000000	100.084613
1707.000000	100.081343
1706.000000	100.078340
1705.000000	100.074914
1704.000000	100.071110
1703.000000	100.067016
1702.000000	100.062287
1701.000000	100.057199
1700.000000	100.054160
1699.000000	100.053213
1698.000000	100.051771
1697.000000	100.049808
1696.000000	100.048216
1695.000000	100.046284
1694.000000	100.042903
1693.000000	100.038426
1692.000000	100.034011
1691.000000	100.029646
1690.000000	100.024609
1689.000000	100.019119
1688.000000	100.014699
1687.000000	100.012561
1686.000000	100.011964
1685.000000	100.010184
1684.000000	100.005561
1683.000000	99.999753
1682.000000	99.995031
1681.000000	99.991187
1680.000000	99.986600
1679.000000	99.980816
1678.000000	99.975045
1677.000000	99.970483
1676.000000	99.967110
1675.000000	99.964425
1674.000000	99.962335
1673.000000	99.960887
1672.000000	99.959985
1671.000000	99.958930
1670.000000	99.956750
1669.000000	99.953680
1668.000000	99.951134
1667.000000	99.949964
1666.000000	99.949470
1665.000000	99.948124
1664.000000	99.944699
1663.000000	99.939302
1662.000000	99.933624
1661.000000	99.928976
1660.000000	99.925075
1659.000000	99.921557
1658.000000	99.918893
1657.000000	99.917975
1656.000000	99.919573
1655.000000	99.924435
1654.000000	99.932003
1653.000000	99.937885
1652.000000	99.937742
1651.000000	99.933184
1650.000000	99.927266
1649.000000	99.920737
1648.000000	99.912995
1647.000000	99.904279
1646.000000	99.896857
1645.000000	99.892087
1644.000000	99.889565
1643.000000	99.888786
1642.000000	99.889676
1641.000000	99.891607
1640.000000	99.893336
1639.000000	99.894135
1638.000000	99.894306
1637.000000	99.894651
1636.000000	99.895984
1635.000000	99.898276
1634.000000	99.900318
1633.000000	99.901235
1632.000000	99.901167
1631.000000	99.900377
1630.000000	99.898999
1629.000000	99.897355
1628.000000	99.895994
1627.000000	99.895420
1626.000000	99.896088
1625.000000	99.898520
1624.000000	99.903148
1623.000000	99.909287
1622.000000	99.914796
1621.000000	99.918207
1620.000000	99.920074
1619.000000	99.921546
1618.000000	99.922512
1617.000000	99.922253
1616.000000	99.922029
1615.000000	99.924388
1614.000000	99.929320
1613.000000	99.933845
1612.000000	99.935052
1611.000000	99.933398
1610.000000	99.932882
1609.000000	99.936342
1608.000000	99.942442
1607.000000	99.948480
1606.000000	99.953861
1605.000000	99.959194
1604.000000	99.964135
1603.000000	99.967911
1602.000000	99.970703
1601.000000	99.973271
1600.000000	99.975807
1599.000000	99.978208
1598.000000	99.981001
1597.000000	99.985095
1596.000000	99.990782
1595.000000	99.997372
1594.000000	100.003684
1593.000000	100.008636
1592.000000	100.011681
1591.000000	100.013373
1590.000000	100.015441
1589.000000	100.019260
1588.000000	100.024166
1587.000000	100.028132
1586.000000	100.030246
1585.000000	100.031792
1584.000000	100.034502
1583.000000	100.038739
1582.000000	100.043686
1581.000000	100.048538
1580.000000	100.053183
1579.000000	100.057982
1578.000000	100.063004
1577.000000	100.067457
1576.000000	100.070460
1575.000000	100.072372
1574.000000	100.074520
1573.000000	100.077930
1572.000000	100.083081
1571.000000	100.089758
1570.000000	100.096605
1569.000000	100.101255
1568.000000	100.102656
1567.000000	100.102624
1566.000000	100.103698
1565.000000	100.106666
1564.000000	100.109950
1563.000000	100.111851
1562.000000	100.112354
1561.000000	100.112668
1560.000000	100.113640
1559.000000	100.116455
1558.000000	100.119154
1557.000000	100.120471
1556.000000	100.122107
1555.000000	100.124098
1554.000000	100.125382
1553.000000	100.125507
1552.000000	100.125343
1551.000000	100.125784
1550.000000	100.126516
1549.000000	100.126938
1548.000000	100.127335
1547.000000	100.128383
1546.000000	100.130002
1545.000000	100.131172
1544.000000	100.130758
1543.000000	100.128591
1542.000000	100.125633
1541.000000	100.123712
1540.000000	100.124308
1539.000000	100.126065
1538.000000	100.126816
1537.000000	100.126652
1536.000000	100.126913
1535.000000	100.128303
1534.000000	100.130025
1533.000000	100.130292
1532.000000	100.128693
1531.000000	100.126694
1530.000000	100.125609
1529.000000	100.125709
1528.000000	100.126601
1527.000000	100.127721
1526.000000	100.128734
1525.000000	100.129526
1524.000000	100.129997
1523.000000	100.129985
1522.000000	100.129476
1521.000000	100.128979
1520.000000	100.129019
1519.000000	100.129557
1518.000000	100.130204
1517.000000	100.130426
1516.000000	100.129953
1515.000000	100.129126
1514.000000	100.128492
1513.000000	100.128252
1512.000000	100.128324
1511.000000	100.128513
1510.000000	100.128627
1509.000000	100.128617
1508.000000	100.128535
1507.000000	100.128519
1506.000000	100.128538
1505.000000	100.128573
1504.000000	100.128502
1503.000000	100.128183
1502.000000	100.127723
1501.000000	100.127365
1500.000000	100.127355
1499.000000	100.127692
1498.000000	100.128014
1497.000000	100.128093
1496.000000	100.128207
1495.000000	100.128440
1494.000000	100.128481
1493.000000	100.128233
1492.000000	100.127767
1491.000000	100.126816
1490.000000	100.124951
1489.000000	100.122547
1488.000000	100.120749
1487.000000	100.119931
1486.000000	100.119442
1485.000000	100.118620
1484.000000	100.117399
1483.000000	100.116159
1482.000000	100.115173
1481.000000	100.114350
1480.000000	100.113431
1479.000000	100.112283
1478.000000	100.110970
1477.000000	100.109723
1476.000000	100.108835
1475.000000	100.108383
1474.000000	100.108070
1473.000000	100.107313
1472.000000	100.105814
1471.000000	100.103880
1470.000000	100.102009
1469.000000	100.100358
1468.000000	100.098891
1467.000000	100.097587
1466.000000	100.096412
1465.000000	100.095125
1464.000000	100.093365
1463.000000	100.091154
1462.000000	100.088921
1461.000000	100.087037
1460.000000	100.085535
1459.000000	100.084105
1458.000000	100.082169
1457.000000	100.079510
1456.000000	100.076849
1455.000000	100.074902
1454.000000	100.073722
1453.000000	100.073176
1452.000000	100.073040
1451.000000	100.072874
1450.000000	100.071985
1449.000000	100.069561
1448.000000	100.065371
1447.000000	100.060516
1446.000000	100.056846
1445.000000	100.055268
1444.000000	100.055297
1443.000000	100.055788
1442.000000	100.055808
1441.000000	100.055175
1440.000000	100.054462
1439.000000	100.054569
1438.000000	100.055750
1437.000000	100.056756
1436.000000	100.055391
1435.000000	100.050941
1434.000000	100.044799
1433.000000	100.038760
1432.000000	100.034014
1431.000000	100.031092
1430.000000	100.029774
1429.000000	100.029342
1428.000000	100.029189
1427.000000	100.028877
1426.000000	100.028411
1425.000000	100.028551
1424.000000	100.030541
1423.000000	100.034816
1422.000000	100.039920
1421.000000	100.043426
1420.000000	100.043314
1419.000000	100.039697
1418.000000	100.034541
1417.000000	100.029472
1416.000000	100.025550
1415.000000	100.023798
1414.000000	100.024933
1413.000000	100.028834
1412.000000	100.034390
1411.000000	100.039893
1410.000000	100.043807
1409.000000	100.045866
1408.000000	100.047232
1407.000000	100.049055
1406.000000	100.051661
1405.000000	100.055085
1404.000000	100.059701
1403.000000	100.065619
1402.000000	100.071793
1401.000000	100.076807
1400.000000	100.080058
1399.000000	100.082111
1398.000000	100.083928
1397.000000	100.086185
1396.000000	100.089380
1395.000000	100.093403
1394.000000	100.097012
1393.000000	100.098914
1392.000000	100.099550
1391.000000	100.100501
1390.000000	100.102474
1389.000000	100.104681
1388.000000	100.106117
1387.000000	100.106947
1386.000000	100.107963
1385.000000	100.109260
1384.000000	100.110559
1383.000000	100.112132
1382.000000	100.114314
1381.000000	100.116433
1380.000000	100.117095
1379.000000	100.115805
1378.000000	100.113769
1377.000000	100.112773
1376.000000	100.113668
1375.000000	100.116239
1374.000000	100.119700
1373.000000	100.122976
1372.000000	100.125192
1371.000000	100.126041
1370.000000	100.125720
1369.000000	100.124665
1368.000000	100.123497
1367.000000	100.123059
1366.000000	100.124034
1365.000000	100.126395
1364.000000	100.129129
1363.000000	100.130736
1362.000000	100.130574
1361.000000	100.129433
1360.000000	100.128537
1359.000000	100.128356
1358.000000	100.128629
1357.000000	100.128886
1356.000000	100.128802
1355.000000	100.128344
1354.000000	100.127664
1353.000000	100.126875
1352.000000	100.126088
1351.000000	100.125720
1350.000000	100.126546
1349.000000	100.128777
1348.000000	100.131287
1347.000000	100.132558
1346.000000	100.132327
1345.000000	100.131615
1344.000000	100.131145
1343.000000	100.130533
1342.000000	100.129331
1341.000000	100.127951
1340.000000	100.126961
1339.000000	100.126153
1338.000000	100.125235
1337.000000	100.124822
1336.000000	100.125641
1335.000000	100.127294
1334.000000	100.128778
1333.000000	100.129918
1332.000000	100.131474
1331.000000	100.133817
1330.000000	100.136022
1329.000000	100.136360
1328.000000	100.133629
1327.000000	100.128395
1326.000000	100.123177
1325.000000	100.120582
1324.000000	100.120929
1323.000000	100.122313
1322.000000	100.123204
1321.000000	100.124173
1320.000000	100.126319
1319.000000	100.128940
1318.000000	100.130237
1317.000000	100.130054
1316.000000	100.130119
1315.000000	100.131413
1314.000000	100.132799
1313.000000	100.132869
1312.000000	100.131999
1311.000000	100.131508
1310.000000	100.131531
1309.000000	100.130979
1308.000000	100.129427
1307.000000	100.127979
1306.000000	100.128046
1305.000000	100.129680
1304.000000	100.131607
1303.000000	100.132699
1302.000000	100.133049
1301.000000	100.133510
1300.000000	100.134280
1299.000000	100.134353
1298.000000	100.132675
1297.000000	100.129713
1296.000000	100.127250
1295.000000	100.126435
1294.000000	100.126566
1293.000000	100.126260
1292.000000	100.125203
1291.000000	100.123952
1290.000000	100.122374
1289.000000	100.119500
1288.000000	100.115285
1287.000000	100.111595
1286.000000	100.110560
1285.000000	100.112222
1284.000000	100.114318
1283.000000	100.114187
1282.000000	100.110762
1281.000000	100.105276
1280.000000	100.100532
1279.000000	100.099121
1278.000000	100.101393
1277.000000	100.104908
1276.000000	100.106426
1275.000000	100.105035
1274.000000	100.103234
1273.000000	100.104463
1272.000000	100.109323
1271.000000	100.114491
1270.000000	100.115906
1269.000000	100.112904
1268.000000	100.108531
1267.000000	100.105950
1266.000000	100.105658
1265.000000	100.106832
1264.000000	100.110101
1263.000000	100.116914
1262.000000	100.126064
1261.000000	100.132830
1260.000000	100.132880
1259.000000	100.126392
1258.000000	100.117333
1257.000000	100.109233
1256.000000	100.102828
1255.000000	100.097400
1254.000000	100.092671
1253.000000	100.088589
1252.000000	100.084126
1251.000000	100.077648
1250.000000	100.068833
1249.000000	100.059469
1248.000000	100.051590
1247.000000	100.045022
1246.000000	100.037547
1245.000000	100.027673
1244.000000	100.016349
1243.000000	100.005385
1242.000000	99.995048
1241.000000	99.984272
1240.000000	99.972587
1239.000000	99.960323
1238.000000	99.947073
1237.000000	99.931784
1236.000000	99.914990
1235.000000	99.899465
1234.000000	99.887452
1233.000000	99.878104
1232.000000	99.868730
1231.000000	99.857654
1230.000000	99.844499
1229.000000	99.828100
1228.000000	99.805800
1227.000000	99.775577
1226.000000	99.738169
1225.000000	99.696524
1224.000000	99.653387
1223.000000	99.609808
1222.000000	99.565578
1221.000000	99.520104
1220.000000	99.472536
1219.000000	99.421631
1218.000000	99.366354
1217.000000	99.306760
1216.000000	99.243803
1215.000000	99.178234
1214.000000	99.110341
1213.000000	99.040830
1212.000000	98.970788
1211.000000	98.900240
1210.000000	98.828274
1209.000000	98.755785
1208.000000	98.686462
1207.000000	98.622900
1206.000000	98.562687
1205.000000	98.500606
1204.000000	98.433866
1203.000000	98.363037
1202.000000	98.289364
1201.000000	98.214158
1200.000000	98.139999
1199.000000	98.069405
1198.000000	98.002238
1197.000000	97.936570
1196.000000	97.871202
1195.000000	97.804852
1194.000000	97.734627
1193.000000	97.659239
1192.000000	97.583010
1191.000000	97.512752
1190.000000	97.450392
1189.000000	97.391556
1188.000000	97.330510
1187.000000	97.263019
1186.000000	97.186131
1185.000000	97.100532
1184.000000	97.012963
1183.000000	96.931030
1182.000000	96.854568
1181.000000	96.776439
1180.000000	96.692217
1179.000000	96.604149
1178.000000	96.514943
1177.000000	96.423243
1176.000000	96.327218
1175.000000	96.227847
1174.000000	96.126403
1173.000000	96.022528
1172.000000	95.916657
1171.000000	95.810919
1170.000000	95.706629
1169.000000	95.604480
1168.000000	95.507392
1167.000000	95.418900
1166.000000	95.339291
1165.000000	95.269359
1164.000000	95.218041
1163.000000	95.199030
1162.000000	95.217287
1161.000000	95.262976
1160.000000	95.318306
1159.000000	95.365328
1158.000000	95.388804
1157.000000	95.380422
1156.000000	95.343192
1155.000000	95.287078
1154.000000	95.219051
1153.000000	95.141682
1152.000000	95.060378
1151.000000	94.983410
1150.000000	94.912485
1149.000000	94.841028
1148.000000	94.764960
1147.000000	94.688274
1146.000000	94.614950
1145.000000	94.542319
1144.000000	94.466317
1143.000000	94.387230
1142.000000	94.306589
1141.000000	94.224005
1140.000000	94.140535
1139.000000	94.059654
1138.000000	93.981380
1137.000000	93.900442
1136.000000	93.813108
1135.000000	93.721047
1134.000000	93.626718
1133.000000	93.530544
1132.000000	93.434335
1131.000000	93.340968
1130.000000	93.248573
1129.000000	93.151744
1128.000000	93.050584
1127.000000	92.951435
1126.000000	92.856387
1125.000000	92.759906
1124.000000	92.658840
1123.000000	92.557890
1122.000000	92.461575
1121.000000	92.368380
1120.000000	92.276657
1119.000000	92.188584
1118.000000	92.104088
1117.000000	92.018274
1116.000000	91.928872
1115.000000	91.839185
1114.000000	91.750308
1113.000000	91.658201
1112.000000	91.561945
1111.000000	91.466653
1110.000000	91.374869
1109.000000	91.283493
1108.000000	91.192393
1107.000000	91.107219
1106.000000	91.029710
1105.000000	90.953482
1104.000000	90.873335
1103.000000	90.791302
1102.000000	90.710418
1101.000000	90.630177
1100.000000	90.550784
1099.000000	90.474009
1098.000000	90.398142
1097.000000	90.320051
1096.000000	90.243009
1095.000000	90.173241
1094.000000	90.108122
1093.000000	90.038566
1092.000000	89.964561
1091.000000	89.897098
1090.000000	89.842416
1089.000000	89.795314
1088.000000	89.750175
1087.000000	89.707157
1086.000000	89.664937
1085.000000	89.619059
1084.000000	89.571008
1083.000000	89.528381
1082.000000	89.492788
1081.000000	89.457282
1080.000000	89.417631
1079.000000	89.375696
1078.000000	89.330601
1077.000000	89.278098
1076.000000	89.220192
1075.000000	89.163347
1074.000000	89.104938
1073.000000	89.033213
1072.000000	88.942054
1071.000000	88.833699
1070.000000	88.706405
1069.000000	88.553362
1068.000000	88.376535
1067.000000	88.188395
1066.000000	87.996506
1065.000000	87.799312
1064.000000	87.600203
1063.000000	87.410514
1062.000000	87.233379
1061.000000	87.059479
1060.000000	86.884836
1059.000000	86.718727
1058.000000	86.567451
1057.000000	86.423282
1056.000000	86.276115
1055.000000	86.124241
1054.000000	85.968283
1053.000000	85.806241
1052.000000	85.639408
1051.000000	85.470922
1050.000000	85.294428
1049.000000	85.098936
1048.000000	84.888594
1047.000000	84.681077
1046.000000	84.483172
1045.000000	84.284691
1044.000000	84.078628
1043.000000	83.870279
1042.000000	83.663370
1041.000000	83.454300
1040.000000	83.245630
1039.000000	83.049522
1038.000000	82.871344
1037.000000	82.703784
1036.000000	82.541780
1035.000000	82.388855
1034.000000	82.245070
1033.000000	82.104749
1032.000000	81.970680
1031.000000	81.854833
1030.000000	81.760559
1029.000000	81.678937
1028.000000	81.605561
1027.000000	81.544464
1026.000000	81.492285
1025.000000	81.436383
1024.000000	81.373370
1023.000000	81.312793
1022.000000	81.258438
1021.000000	81.203015
1020.000000	81.145211
1019.000000	81.094243
1018.000000	81.052324
1017.000000	81.009311
1016.000000	80.959677
1015.000000	80.908767
1014.000000	80.857788
1013.000000	80.799152
1012.000000	80.731888
1011.000000	80.666584
1010.000000	80.610702
1009.000000	80.563273
1008.000000	80.526373
1007.000000	80.505647
1006.000000	80.496280
1005.000000	80.484376
1004.000000	80.465587
1003.000000	80.447510
1002.000000	80.432613
1001.000000	80.416080
1000.000000	80.402242
999.000000	80.404350
998.000000	80.423666
997.000000	80.445762
996.000000	80.462071
995.000000	80.479443
994.000000	80.504597
993.000000	80.534952
992.000000	80.568499
991.000000	80.607639
990.000000	80.650306
989.000000	80.692230
988.000000	80.740114
987.000000	80.807263
986.000000	80.894452
985.000000	80.990184
984.000000	81.090495
983.000000	81.202556
982.000000	81.328470
981.000000	81.463192
980.000000	81.609440
979.000000	81.776355
978.000000	81.961131
977.000000	82.149667
976.000000	82.338432
975.000000	82.538942
974.000000	82.757762
973.000000	82.988210
972.000000	83.224135
971.000000	83.465992
970.000000	83.710865
969.000000	83.952122
968.000000	84.191302
967.000000	84.435409
966.000000	84.680886
965.000000	84.915604
964.000000	85.138324
963.000000	85.360523
962.000000	85.586512
961.000000	85.806786
960.000000	86.013804
959.000000	86.209880
958.000000	86.396954
957.000000	86.572937
956.000000	86.741333
955.000000	86.910920
954.000000	87.082308
953.000000	87.247012
952.000000	87.401735
951.000000	87.550621
950.000000	87.692127
949.000000	87.818052
948.000000	87.928454
947.000000	88.033861
946.000000	88.139428
945.000000	88.240081
944.000000	88.334854
943.000000	88.432237
942.000000	88.536208
941.000000	88.639025
940.000000	88.732766
939.000000	88.817220
938.000000	88.893155
937.000000	88.959238
936.000000	89.020012
935.000000	89.086447
934.000000	89.163965
933.000000	89.248249
932.000000	89.334468
931.000000	89.420844
930.000000	89.502840
929.000000	89.575846
928.000000	89.645426
927.000000	89.723358
926.000000	89.811582
925.000000	89.901032
924.000000	89.986616
923.000000	90.070327
922.000000	90.148959
921.000000	90.213853
920.000000	90.266225
919.000000	90.318807
918.000000	90.378323
917.000000	90.439838
916.000000	90.502215
915.000000	90.574414
914.000000	90.660276
913.000000	90.750686
912.000000	90.838458
911.000000	90.929670
910.000000	91.033103
909.000000	91.149515
908.000000	91.278199
907.000000	91.423583
906.000000	91.587797
905.000000	91.765009
904.000000	91.948763
903.000000	92.137350
902.000000	92.328872
901.000000	92.520659
900.000000	92.716827
899.000000	92.925458
898.000000	93.143499
897.000000	93.354847
896.000000	93.549081
895.000000	93.732296
894.000000	93.913387
893.000000	94.088994
892.000000	94.249957
891.000000	94.395570
890.000000	94.533130
889.000000	94.667646
888.000000	94.799107
887.000000	94.927319
886.000000	95.053579
885.000000	95.178695
884.000000	95.302656
883.000000	95.424800
882.000000	95.542857
881.000000	95.654602
880.000000	95.761922
879.000000	95.870416
878.000000	95.984068
877.000000	96.102624
876.000000	96.222948
875.000000	96.339400
874.000000	96.446077
873.000000	96.544915
872.000000	96.648973
871.000000	96.770002
870.000000	96.903933
869.000000	97.036131
868.000000	97.159117
867.000000	97.276677
866.000000	97.392686
865.000000	97.505482
864.000000	97.613360
863.000000	97.716845
862.000000	97.814091
861.000000	97.902145
860.000000	97.984670
859.000000	98.070428
858.000000	98.161249
857.000000	98.248386
856.000000	98.323322
855.000000	98.385705
854.000000	98.439004
853.000000	98.486063
852.000000	98.532157
851.000000	98.584548
850.000000	98.643288
849.000000	98.697214
848.000000	98.733630
847.000000	98.749210
846.000000	98.750434
845.000000	98.748033
844.000000	98.751765
843.000000	98.763564
842.000000	98.772583
841.000000	98.762832
840.000000	98.728504
839.000000	98.677027
838.000000	98.616668
837.000000	98.548917
836.000000	98.475669
835.000000	98.404782
834.000000	98.342622
833.000000	98.287814
832.000000	98.237821
831.000000	98.195276
830.000000	98.163210
829.000000	98.142722
828.000000	98.142259
827.000000	98.178215
826.000000	98.252477
825.000000	98.335587
824.000000	98.388478
823.000000	98.400643
822.000000	98.394433
821.000000	98.392901
820.000000	98.396751
819.000000	98.393172
818.000000	98.374145
817.000000	98.340748
816.000000	98.295450
815.000000	98.235330
814.000000	98.152081
813.000000	98.036064
812.000000	97.878809
811.000000	97.671603
810.000000	97.404588
809.000000	97.071969
808.000000	96.679301
807.000000	96.242002
806.000000	95.775061
805.000000	95.288964
804.000000	94.797997
803.000000	94.325700
802.000000	93.897305
801.000000	93.532751
800.000000	93.249984
799.000000	93.064233
798.000000	92.975868
797.000000	92.965965
796.000000	93.010659
795.000000	93.094909
794.000000	93.209638
793.000000	93.343739
792.000000	93.483688
791.000000	93.615090
790.000000	93.721378
789.000000	93.786967
788.000000	93.805513
787.000000	93.781409
786.000000	93.720857
785.000000	93.624832
784.000000	93.492562
783.000000	93.329286
782.000000	93.150444
781.000000	92.981524
780.000000	92.852087
779.000000	92.783560
778.000000	92.781752
777.000000	92.843817
776.000000	92.966842
775.000000	93.141107
774.000000	93.341439
773.000000	93.539917
772.000000	93.726382
771.000000	93.904665
770.000000	94.070696
769.000000	94.208005
768.000000	94.305378
767.000000	94.366148
766.000000	94.398605
765.000000	94.410293
764.000000	94.415074
763.000000	94.432056
762.000000	94.469603
761.000000	94.518881
760.000000	94.568419
759.000000	94.616750
758.000000	94.666982
757.000000	94.719310
756.000000	94.775148
755.000000	94.839737
754.000000	94.913820
753.000000	94.989578
752.000000	95.060379
751.000000	95.128251
750.000000	95.197086
749.000000	95.265386
748.000000	95.331466
747.000000	95.399857
746.000000	95.476456
745.000000	95.561898
744.000000	95.654963
743.000000	95.758072
742.000000	95.874353
741.000000	96.002722
740.000000	96.139399
739.000000	96.280506
738.000000	96.420580
737.000000	96.553491
736.000000	96.678015
735.000000	96.797065
734.000000	96.907978
733.000000	96.999431
732.000000	97.062635
731.000000	97.101316
730.000000	97.126493
729.000000	97.145406
728.000000	97.160662
727.000000	97.176612
726.000000	97.199404
725.000000	97.230973
724.000000	97.268112
723.000000	97.308520
722.000000	97.355037
721.000000	97.413015
720.000000	97.484385
719.000000	97.564677
718.000000	97.645997
717.000000	97.722335
716.000000	97.790583
715.000000	97.847431
714.000000	97.889755
713.000000	97.920595
712.000000	97.950771
711.000000	97.989118
710.000000	98.031865
709.000000	98.066257
708.000000	98.084148
707.000000	98.087736
706.000000	98.083272
705.000000	98.073579
704.000000	98.054857
703.000000	98.014749
702.000000	97.934047
701.000000	97.797008
700.000000	97.602211
699.000000	97.361999
698.000000	97.096305
697.000000	96.835101
696.000000	96.622243
695.000000	96.500361
694.000000	96.485062
693.000000	96.558061
692.000000	96.684874
691.000000	96.834503
690.000000	96.983877
689.000000	97.115338
688.000000	97.220184
687.000000	97.302675
686.000000	97.374572
685.000000	97.445817
684.000000	97.520656
683.000000	97.598171
682.000000	97.674219
681.000000	97.745123
680.000000	97.810150
679.000000	97.868490
678.000000	97.916477
677.000000	97.952326
676.000000	97.982659
675.000000	98.016379
674.000000	98.052382
673.000000	98.081446
672.000000	98.100439
671.000000	98.119971
670.000000	98.159851
669.000000	98.242476
668.000000	98.361514
667.000000	98.456357
666.000000	98.496674
665.000000	98.513336
664.000000	98.539229
663.000000	98.585097
662.000000	98.634394
661.000000	98.659600
660.000000	98.651599
659.000000	98.623842
658.000000	98.594539
657.000000	98.574263
656.000000	98.567923
655.000000	98.571759
654.000000	98.566889
653.000000	98.535095
652.000000	98.485324
651.000000	98.448643
650.000000	98.443161
649.000000	98.461775
648.000000	98.498353
647.000000	98.561105
646.000000	98.650030
645.000000	98.744636
644.000000	98.826226
643.000000	98.894915
642.000000	98.955674
641.000000	99.003541
640.000000	99.034337
639.000000	99.058500
638.000000	99.093260
637.000000	99.149008
636.000000	99.228884
635.000000	99.325612
634.000000	99.412646
633.000000	99.459743
632.000000	99.464884
631.000000	99.459310
630.000000	99.477728
629.000000	99.531729
628.000000	99.614326
627.000000	99.711891
626.000000	99.804178
625.000000	99.873425
624.000000	99.922344
623.000000	99.967897
622.000000	100.013719
621.000000	100.047017
620.000000	100.066747
619.000000	100.091600
618.000000	100.134206
617.000000	100.187365
616.000000	100.239815
615.000000	100.279596
614.000000	100.279898
613.000000	100.215598
612.000000	100.104647
611.000000	100.006002
610.000000	99.958361
609.000000	99.945141
608.000000	99.935106
607.000000	99.921288
606.000000	99.900330
605.000000	99.850505
604.000000	99.762737
603.000000	99.668688
602.000000	99.607630
601.000000	99.582338
600.000000	99.571938
599.000000	99.566001
598.000000	99.563626
597.000000	99.563082
596.000000	99.577297
595.000000	99.635343
594.000000	99.736544
593.000000	99.824240
592.000000	99.841526
591.000000	99.801999
590.000000	99.772292
589.000000	99.787417
588.000000	99.820563
587.000000	99.830300
586.000000	99.807004
585.000000	99.774723
584.000000	99.767399
583.000000	99.803162
582.000000	99.866233
581.000000	99.926257
580.000000	99.988469
579.000000	100.098364
578.000000	100.267555
577.000000	100.421351
576.000000	100.462117
575.000000	100.371842
574.000000	100.225463
573.000000	100.103004
572.000000	100.037186
571.000000	100.049138
570.000000	100.155892
569.000000	100.321015
568.000000	100.451964
567.000000	100.476143
566.000000	100.404198
565.000000	100.296179
564.000000	100.182740
563.000000	100.049319
562.000000	99.883801
561.000000	99.717360
560.000000	99.615200
559.000000	99.624726
558.000000	99.721926
557.000000	99.824943
556.000000	99.873749
555.000000	99.874440
554.000000	99.870472
553.000000	99.894386
552.000000	99.946684
551.000000	99.994608
550.000000	99.996239
