PE IR       SUBTECH     SPECTRUM    ASCII       PEDS        4.00        
   -1
BH1 8-1 2 50_1.asc
24/05/17
13:52:34.00
24/05/17
13:52:39.00
Administrator
?品 148 用? Administrator 日期 Friday, May 17 2024
550.000000
#HDR
-1
-1
#GR
cm-1
%T
1.0
0.0
4000.000000
-1.000000
3451
8
102.485611
77.553888
#DATA
4000.000000	101.990329
3999.000000	101.986969
3998.000000	101.983240
3997.000000	101.981296
3996.000000	101.982035
3995.000000	101.984937
3994.000000	101.988199
3993.000000	101.990332
3992.000000	101.990867
3991.000000	101.989844
3990.000000	101.987326
3989.000000	101.983528
3988.000000	101.979196
3987.000000	101.975465
3986.000000	101.973249
3985.000000	101.972824
3984.000000	101.973883
3983.000000	101.975854
3982.000000	101.978077
3981.000000	101.979817
3980.000000	101.980407
3979.000000	101.979631
3978.000000	101.977995
3977.000000	101.976472
3976.000000	101.975723
3975.000000	101.975461
3974.000000	101.974670
3973.000000	101.972660
3972.000000	101.969854
3971.000000	101.967459
3970.000000	101.966416
3969.000000	101.966841
3968.000000	101.968303
3967.000000	101.970409
3966.000000	101.973069
3965.000000	101.976205
3964.000000	101.979299
3963.000000	101.981354
3962.000000	101.981588
3961.000000	101.980338
3960.000000	101.978848
3959.000000	101.977886
3958.000000	101.976834
3957.000000	101.974664
3956.000000	101.971520
3955.000000	101.969023
3954.000000	101.968950
3953.000000	101.971780
3952.000000	101.976362
3951.000000	101.980634
3950.000000	101.982968
3949.000000	101.983099
3948.000000	101.982013
3947.000000	101.981039
3946.000000	101.980973
3945.000000	101.981628
3944.000000	101.981844
3943.000000	101.980418
3942.000000	101.977488
3941.000000	101.974663
3940.000000	101.973412
3939.000000	101.973641
3938.000000	101.973735
3937.000000	101.972370
3936.000000	101.970000
3935.000000	101.968100
3934.000000	101.967272
3933.000000	101.966700
3932.000000	101.965753
3931.000000	101.964939
3930.000000	101.964614
3929.000000	101.964050
3928.000000	101.962903
3927.000000	101.962409
3926.000000	101.963468
3925.000000	101.965102
3924.000000	101.966339
3923.000000	101.967835
3922.000000	101.970140
3921.000000	101.971875
3920.000000	101.971194
3919.000000	101.968419
3918.000000	101.965481
3917.000000	101.963360
3916.000000	101.961738
3915.000000	101.960628
3914.000000	101.960466
3913.000000	101.961261
3912.000000	101.962707
3911.000000	101.964869
3910.000000	101.967763
3909.000000	101.970728
3908.000000	101.972847
3907.000000	101.973989
3906.000000	101.974609
3905.000000	101.974724
3904.000000	101.974238
3903.000000	101.973637
3902.000000	101.973576
3901.000000	101.974029
3900.000000	101.974409
3899.000000	101.974443
3898.000000	101.974370
3897.000000	101.974419
3896.000000	101.974535
3895.000000	101.974675
3894.000000	101.974894
3893.000000	101.975216
3892.000000	101.975577
3891.000000	101.975946
3890.000000	101.976329
3889.000000	101.976728
3888.000000	101.977145
3887.000000	101.977573
3886.000000	101.977996
3885.000000	101.978400
3884.000000	101.978783
3883.000000	101.979154
3882.000000	101.979521
3881.000000	101.979890
3880.000000	101.980266
3879.000000	101.980662
3878.000000	101.981089
3877.000000	101.981548
3876.000000	101.982027
3875.000000	101.982504
3874.000000	101.982966
3873.000000	101.983412
3872.000000	101.983843
3871.000000	101.984250
3870.000000	101.984609
3869.000000	101.984913
3868.000000	101.985175
3867.000000	101.985415
3866.000000	101.985638
3865.000000	101.985843
3864.000000	101.986038
3863.000000	101.986239
3862.000000	101.986457
3861.000000	101.986688
3860.000000	101.986923
3859.000000	101.987156
3858.000000	101.987378
3857.000000	101.987583
3856.000000	101.987772
3855.000000	101.987941
3854.000000	101.988074
3853.000000	101.988163
3852.000000	101.988213
3851.000000	101.988232
3850.000000	101.988223
3849.000000	101.988186
3848.000000	101.988119
3847.000000	101.988017
3846.000000	101.987879
3845.000000	101.987715
3844.000000	101.987539
3843.000000	101.987361
3842.000000	101.987184
3841.000000	101.987010
3840.000000	101.986840
3839.000000	101.986666
3838.000000	101.986476
3837.000000	101.986251
3836.000000	101.985981
3835.000000	101.985664
3834.000000	101.985306
3833.000000	101.984908
3832.000000	101.984469
3831.000000	101.983987
3830.000000	101.983467
3829.000000	101.982922
3828.000000	101.982373
3827.000000	101.981836
3826.000000	101.981310
3825.000000	101.980788
3824.000000	101.980272
3823.000000	101.979769
3822.000000	101.979275
3821.000000	101.978773
3820.000000	101.978254
3819.000000	101.977726
3818.000000	101.977197
3817.000000	101.976659
3816.000000	101.976094
3815.000000	101.975504
3814.000000	101.974914
3813.000000	101.974346
3812.000000	101.973814
3811.000000	101.973326
3810.000000	101.972894
3809.000000	101.972528
3808.000000	101.972228
3807.000000	101.971977
3806.000000	101.971763
3805.000000	101.971592
3804.000000	101.971481
3803.000000	101.971437
3802.000000	101.971434
3801.000000	101.971443
3800.000000	101.971458
3799.000000	101.971484
3798.000000	101.971522
3797.000000	101.971556
3796.000000	101.971583
3795.000000	101.971612
3794.000000	101.971664
3793.000000	101.971755
3792.000000	101.971891
3791.000000	101.972076
3790.000000	101.972307
3789.000000	101.972579
3788.000000	101.972891
3787.000000	101.973246
3786.000000	101.973638
3785.000000	101.974058
3784.000000	101.974501
3783.000000	101.974974
3782.000000	101.975478
3781.000000	101.976006
3780.000000	101.976543
3779.000000	101.977086
3778.000000	101.977636
3777.000000	101.978189
3776.000000	101.978739
3775.000000	101.979294
3774.000000	101.979871
3773.000000	101.980494
3772.000000	101.981164
3771.000000	101.981857
3770.000000	101.982556
3769.000000	101.983253
3768.000000	101.983912
3767.000000	101.984549
3766.000000	101.985210
3765.000000	101.985845
3764.000000	101.986395
3763.000000	101.987011
3762.000000	101.987864
3761.000000	101.988561
3760.000000	101.988431
3759.000000	101.987731
3758.000000	101.987443
3757.000000	101.987740
3756.000000	101.987852
3755.000000	101.987367
3754.000000	101.986802
3753.000000	101.986745
3752.000000	101.987329
3751.000000	101.988658
3750.000000	101.990322
3749.000000	101.990533
3748.000000	101.987875
3747.000000	101.984797
3746.000000	101.985388
3745.000000	101.987441
3744.000000	101.986663
3743.000000	101.984513
3742.000000	101.983606
3741.000000	101.983242
3740.000000	101.980709
3739.000000	101.975284
3738.000000	101.969921
3737.000000	101.966854
3736.000000	101.964689
3735.000000	101.962399
3734.000000	101.961982
3733.000000	101.963845
3732.000000	101.964569
3731.000000	101.961420
3730.000000	101.955617
3729.000000	101.950704
3728.000000	101.948039
3727.000000	101.945018
3726.000000	101.940011
3725.000000	101.935819
3724.000000	101.935261
3723.000000	101.936410
3722.000000	101.934733
3721.000000	101.928253
3720.000000	101.918753
3719.000000	101.909454
3718.000000	101.901328
3717.000000	101.893040
3716.000000	101.884077
3715.000000	101.876110
3714.000000	101.871129
3713.000000	101.868259
3712.000000	101.864416
3711.000000	101.858833
3710.000000	101.853459
3709.000000	101.849527
3708.000000	101.845804
3707.000000	101.839547
3706.000000	101.829059
3705.000000	101.815499
3704.000000	101.802241
3703.000000	101.791764
3702.000000	101.783567
3701.000000	101.775806
3700.000000	101.768024
3699.000000	101.762054
3698.000000	101.759240
3697.000000	101.757200
3696.000000	101.752275
3695.000000	101.743640
3694.000000	101.732734
3693.000000	101.721637
3692.000000	101.714305
3691.000000	101.716349
3690.000000	101.727670
3689.000000	101.738833
3688.000000	101.740721
3687.000000	101.732783
3686.000000	101.720067
3685.000000	101.706759
3684.000000	101.693086
3683.000000	101.678806
3682.000000	101.667154
3681.000000	101.659334
3680.000000	101.649346
3679.000000	101.631282
3678.000000	101.612411
3677.000000	101.604302
3676.000000	101.600892
3675.000000	101.590603
3674.000000	101.573135
3673.000000	101.554098
3672.000000	101.539913
3671.000000	101.528668
3670.000000	101.513715
3669.000000	101.498732
3668.000000	101.488624
3667.000000	101.478734
3666.000000	101.461886
3665.000000	101.435960
3664.000000	101.405721
3663.000000	101.379288
3662.000000	101.361371
3661.000000	101.349626
3660.000000	101.338416
3659.000000	101.325538
3658.000000	101.313282
3657.000000	101.300997
3656.000000	101.285310
3655.000000	101.266253
3654.000000	101.246938
3653.000000	101.231658
3652.000000	101.222580
3651.000000	101.214609
3650.000000	101.200582
3649.000000	101.181937
3648.000000	101.162638
3647.000000	101.141232
3646.000000	101.116383
3645.000000	101.091196
3644.000000	101.069484
3643.000000	101.051715
3642.000000	101.036126
3641.000000	101.023116
3640.000000	101.014821
3639.000000	101.009520
3638.000000	101.001918
3637.000000	100.989968
3636.000000	100.977658
3635.000000	100.967497
3634.000000	100.955492
3633.000000	100.937391
3632.000000	100.916860
3631.000000	100.904226
3630.000000	100.896488
3629.000000	100.879414
3628.000000	100.859120
3627.000000	100.851196
3626.000000	100.856210
3625.000000	100.865140
3624.000000	100.869437
3623.000000	100.868059
3622.000000	100.866872
3621.000000	100.870367
3620.000000	100.877067
3619.000000	100.885592
3618.000000	100.898223
3617.000000	100.915425
3616.000000	100.934978
3615.000000	100.954281
3614.000000	100.970679
3613.000000	100.983954
3612.000000	100.997124
3611.000000	101.012120
3610.000000	101.026129
3609.000000	101.034530
3608.000000	101.038537
3607.000000	101.045633
3606.000000	101.059876
3605.000000	101.077048
3604.000000	101.090411
3603.000000	101.098042
3602.000000	101.103442
3601.000000	101.110024
3600.000000	101.118400
3599.000000	101.127216
3598.000000	101.134156
3597.000000	101.138137
3596.000000	101.142079
3595.000000	101.151253
3594.000000	101.168533
3593.000000	101.190927
3592.000000	101.211088
3591.000000	101.223600
3590.000000	101.228670
3589.000000	101.229122
3588.000000	101.225740
3587.000000	101.218471
3586.000000	101.208560
3585.000000	101.197838
3584.000000	101.188381
3583.000000	101.182150
3582.000000	101.179967
3581.000000	101.180573
3580.000000	101.181404
3579.000000	101.180617
3578.000000	101.178199
3577.000000	101.175362
3576.000000	101.173121
3575.000000	101.171694
3574.000000	101.171115
3573.000000	101.172127
3572.000000	101.175131
3571.000000	101.178881
3570.000000	101.180643
3569.000000	101.176960
3568.000000	101.165716
3567.000000	101.150486
3566.000000	101.139500
3565.000000	101.136788
3564.000000	101.139253
3563.000000	101.141381
3562.000000	101.139713
3561.000000	101.134322
3560.000000	101.127635
3559.000000	101.122367
3558.000000	101.119732
3557.000000	101.118911
3556.000000	101.118419
3555.000000	101.118200
3554.000000	101.119646
3553.000000	101.123443
3552.000000	101.128298
3551.000000	101.132070
3550.000000	101.133522
3549.000000	101.132585
3548.000000	101.129880
3547.000000	101.126631
3546.000000	101.124162
3545.000000	101.122625
3544.000000	101.120700
3543.000000	101.117083
3542.000000	101.111977
3541.000000	101.107008
3540.000000	101.103909
3539.000000	101.103352
3538.000000	101.104816
3537.000000	101.107205
3536.000000	101.109582
3535.000000	101.111369
3534.000000	101.112212
3533.000000	101.111889
3532.000000	101.110515
3531.000000	101.108783
3530.000000	101.107690
3529.000000	101.107766
3528.000000	101.108584
3527.000000	101.109251
3526.000000	101.109355
3525.000000	101.109327
3524.000000	101.109865
3523.000000	101.111143
3522.000000	101.112603
3521.000000	101.113534
3520.000000	101.113695
3519.000000	101.113319
3518.000000	101.112785
3517.000000	101.112373
3516.000000	101.112231
3515.000000	101.112393
3514.000000	101.112799
3513.000000	101.113318
3512.000000	101.113781
3511.000000	101.114032
3510.000000	101.114003
3509.000000	101.113757
3508.000000	101.113432
3507.000000	101.113165
3506.000000	101.113046
3505.000000	101.113105
3504.000000	101.113313
3503.000000	101.113582
3502.000000	101.113792
3501.000000	101.113860
3500.000000	101.113796
3499.000000	101.113656
3498.000000	101.113496
3497.000000	101.113330
3496.000000	101.113143
3495.000000	101.112927
3494.000000	101.112672
3493.000000	101.112367
3492.000000	101.111997
3491.000000	101.111561
3490.000000	101.111084
3489.000000	101.110602
3488.000000	101.110125
3487.000000	101.109620
3486.000000	101.109024
3485.000000	101.108311
3484.000000	101.107537
3483.000000	101.106818
3482.000000	101.106217
3481.000000	101.105657
3480.000000	101.104965
3479.000000	101.104061
3478.000000	101.103036
3477.000000	101.102041
3476.000000	101.101107
3475.000000	101.100109
3474.000000	101.098890
3473.000000	101.097384
3472.000000	101.095665
3471.000000	101.093886
3470.000000	101.092194
3469.000000	101.090690
3468.000000	101.089413
3467.000000	101.088294
3466.000000	101.087084
3465.000000	101.085454
3464.000000	101.083220
3463.000000	101.080525
3462.000000	101.077818
3461.000000	101.075502
3460.000000	101.073610
3459.000000	101.071824
3458.000000	101.069840
3457.000000	101.067662
3456.000000	101.065549
3455.000000	101.063820
3454.000000	101.062676
3453.000000	101.061957
3452.000000	101.061030
3451.000000	101.059170
3450.000000	101.056214
3449.000000	101.052820
3448.000000	101.049936
3447.000000	101.048011
3446.000000	101.046799
3445.000000	101.045647
3444.000000	101.043874
3443.000000	101.041100
3442.000000	101.037616
3441.000000	101.034389
3440.000000	101.032211
3439.000000	101.030732
3438.000000	101.028687
3437.000000	101.025227
3436.000000	101.020759
3435.000000	101.016419
3434.000000	101.012982
3433.000000	101.010506
3432.000000	101.008802
3431.000000	101.007822
3430.000000	101.007430
3429.000000	101.007094
3428.000000	101.006145
3427.000000	101.004330
3426.000000	101.001905
3425.000000	100.999177
3424.000000	100.996181
3423.000000	100.992962
3422.000000	100.990072
3421.000000	100.988448
3420.000000	100.988579
3419.000000	100.989955
3418.000000	100.991427
3417.000000	100.992123
3416.000000	100.992002
3415.000000	100.991552
3414.000000	100.991185
3413.000000	100.990889
3412.000000	100.990226
3411.000000	100.988668
3410.000000	100.986131
3409.000000	100.983259
3408.000000	100.981107
3407.000000	100.980274
3406.000000	100.980426
3405.000000	100.980722
3404.000000	100.980549
3403.000000	100.979784
3402.000000	100.978575
3401.000000	100.977264
3400.000000	100.976445
3399.000000	100.976651
3398.000000	100.977860
3397.000000	100.979479
3396.000000	100.980825
3395.000000	100.981566
3394.000000	100.981671
3393.000000	100.981276
3392.000000	100.980701
3391.000000	100.980376
3390.000000	100.980526
3389.000000	100.981001
3388.000000	100.981465
3387.000000	100.981721
3386.000000	100.981846
3385.000000	100.982062
3384.000000	100.982515
3383.000000	100.983163
3382.000000	100.983835
3381.000000	100.984391
3380.000000	100.984840
3379.000000	100.985330
3378.000000	100.986010
3377.000000	100.986873
3376.000000	100.987751
3375.000000	100.988463
3374.000000	100.989010
3373.000000	100.989612
3372.000000	100.990508
3371.000000	100.991743
3370.000000	100.993124
3369.000000	100.994376
3368.000000	100.995367
3367.000000	100.996189
3366.000000	100.997107
3365.000000	100.998353
3364.000000	100.999952
3363.000000	101.001665
3362.000000	101.003167
3361.000000	101.004317
3360.000000	101.005291
3359.000000	101.006399
3358.000000	101.007756
3357.000000	101.009202
3356.000000	101.010602
3355.000000	101.012105
3354.000000	101.013956
3353.000000	101.016051
3352.000000	101.017879
3351.000000	101.019043
3350.000000	101.019742
3349.000000	101.020676
3348.000000	101.022439
3347.000000	101.025068
3346.000000	101.028051
3345.000000	101.030699
3344.000000	101.032621
3343.000000	101.034010
3342.000000	101.035468
3341.000000	101.037366
3340.000000	101.039336
3339.000000	101.040554
3338.000000	101.040595
3337.000000	101.039946
3336.000000	101.039618
3335.000000	101.040240
3334.000000	101.041609
3333.000000	101.043049
3332.000000	101.044139
3331.000000	101.045086
3330.000000	101.046397
3329.000000	101.048256
3328.000000	101.050271
3327.000000	101.051846
3326.000000	101.052707
3325.000000	101.053099
3324.000000	101.053620
3323.000000	101.054962
3322.000000	101.057598
3321.000000	101.061383
3320.000000	101.065363
3319.000000	101.068273
3318.000000	101.069577
3317.000000	101.069970
3316.000000	101.070798
3315.000000	101.072803
3314.000000	101.075588
3313.000000	101.078257
3312.000000	101.080358
3311.000000	101.082086
3310.000000	101.083759
3309.000000	101.085405
3308.000000	101.086920
3307.000000	101.088312
3306.000000	101.089641
3305.000000	101.090888
3304.000000	101.092083
3303.000000	101.093503
3302.000000	101.095529
3301.000000	101.098238
3300.000000	101.101179
3299.000000	101.103675
3298.000000	101.105374
3297.000000	101.106460
3296.000000	101.107379
3295.000000	101.108407
3294.000000	101.109611
3293.000000	101.111177
3292.000000	101.113512
3291.000000	101.116843
3290.000000	101.120874
3289.000000	101.124924
3288.000000	101.128407
3287.000000	101.131110
3286.000000	101.133145
3285.000000	101.134778
3284.000000	101.136242
3283.000000	101.137575
3282.000000	101.138664
3281.000000	101.139621
3280.000000	101.141050
3279.000000	101.143630
3278.000000	101.147357
3277.000000	101.151374
3276.000000	101.154739
3275.000000	101.157403
3274.000000	101.160141
3273.000000	101.163589
3272.000000	101.167455
3271.000000	101.170745
3270.000000	101.172712
3269.000000	101.173489
3268.000000	101.173987
3267.000000	101.175162
3266.000000	101.177297
3265.000000	101.179978
3264.000000	101.182597
3263.000000	101.184874
3262.000000	101.186922
3261.000000	101.188932
3260.000000	101.190924
3259.000000	101.192828
3258.000000	101.194714
3257.000000	101.196787
3256.000000	101.199131
3255.000000	101.201538
3254.000000	101.203695
3253.000000	101.205492
3252.000000	101.207098
3251.000000	101.208772
3250.000000	101.210710
3249.000000	101.213046
3248.000000	101.215827
3247.000000	101.218895
3246.000000	101.221840
3245.000000	101.224234
3244.000000	101.225952
3243.000000	101.227189
3242.000000	101.228268
3241.000000	101.229455
3240.000000	101.230923
3239.000000	101.232794
3238.000000	101.235133
3237.000000	101.237882
3236.000000	101.240803
3235.000000	101.243514
3234.000000	101.245738
3233.000000	101.247519
3232.000000	101.249189
3231.000000	101.251041
3230.000000	101.253049
3229.000000	101.255017
3228.000000	101.256880
3227.000000	101.258727
3226.000000	101.260598
3225.000000	101.262401
3224.000000	101.264095
3223.000000	101.265814
3222.000000	101.267720
3221.000000	101.269839
3220.000000	101.272087
3219.000000	101.274359
3218.000000	101.276546
3217.000000	101.278576
3216.000000	101.280526
3215.000000	101.282595
3214.000000	101.284848
3213.000000	101.287067
3212.000000	101.288971
3211.000000	101.290576
3210.000000	101.292244
3209.000000	101.294290
3208.000000	101.296591
3207.000000	101.298640
3206.000000	101.300021
3205.000000	101.300830
3204.000000	101.301746
3203.000000	101.303453
3202.000000	101.306033
3201.000000	101.308902
3200.000000	101.311429
3199.000000	101.313561
3198.000000	101.315655
3197.000000	101.317946
3196.000000	101.320386
3195.000000	101.322842
3194.000000	101.325198
3193.000000	101.327254
3192.000000	101.328797
3191.000000	101.329891
3190.000000	101.330957
3189.000000	101.332470
3188.000000	101.334660
3187.000000	101.337459
3186.000000	101.340637
3185.000000	101.343903
3184.000000	101.346944
3183.000000	101.349494
3182.000000	101.351466
3181.000000	101.353060
3180.000000	101.354708
3179.000000	101.356764
3178.000000	101.359216
3177.000000	101.361808
3176.000000	101.364452
3175.000000	101.367375
3174.000000	101.370728
3173.000000	101.374194
3172.000000	101.377158
3171.000000	101.379251
3170.000000	101.380560
3169.000000	101.381438
3168.000000	101.382306
3167.000000	101.383576
3166.000000	101.385497
3165.000000	101.387971
3164.000000	101.390587
3163.000000	101.392924
3162.000000	101.394829
3161.000000	101.396411
3160.000000	101.397918
3159.000000	101.399638
3158.000000	101.401737
3157.000000	101.404102
3156.000000	101.406379
3155.000000	101.408327
3154.000000	101.410093
3153.000000	101.412080
3152.000000	101.414533
3151.000000	101.417298
3150.000000	101.419943
3149.000000	101.422147
3148.000000	101.423936
3147.000000	101.425624
3146.000000	101.427545
3145.000000	101.429791
3144.000000	101.432162
3143.000000	101.434341
3142.000000	101.436210
3141.000000	101.437971
3140.000000	101.439915
3139.000000	101.442062
3138.000000	101.444108
3137.000000	101.445773
3136.000000	101.447133
3135.000000	101.448547
3134.000000	101.450297
3133.000000	101.452447
3132.000000	101.454990
3131.000000	101.457932
3130.000000	101.461130
3129.000000	101.464182
3128.000000	101.466656
3127.000000	101.468476
3126.000000	101.470016
3125.000000	101.471722
3124.000000	101.473654
3123.000000	101.475469
3122.000000	101.476805
3121.000000	101.477662
3120.000000	101.478494
3119.000000	101.479903
3118.000000	101.482201
3117.000000	101.485201
3116.000000	101.488401
3115.000000	101.491397
3114.000000	101.494188
3113.000000	101.497084
3112.000000	101.500281
3111.000000	101.503403
3110.000000	101.505527
3109.000000	101.505890
3108.000000	101.504737
3107.000000	101.503468
3106.000000	101.503575
3105.000000	101.505322
3104.000000	101.507742
3103.000000	101.509855
3102.000000	101.511671
3101.000000	101.513706
3100.000000	101.515923
3099.000000	101.517690
3098.000000	101.518788
3097.000000	101.519997
3096.000000	101.522340
3095.000000	101.525915
3094.000000	101.529658
3093.000000	101.532348
3092.000000	101.533801
3091.000000	101.535024
3090.000000	101.537135
3089.000000	101.540104
3088.000000	101.542834
3087.000000	101.544609
3086.000000	101.546112
3085.000000	101.548581
3084.000000	101.552138
3083.000000	101.555485
3082.000000	101.557324
3081.000000	101.557605
3080.000000	101.557287
3079.000000	101.557316
3078.000000	101.558065
3077.000000	101.559449
3076.000000	101.561110
3075.000000	101.562558
3074.000000	101.563478
3073.000000	101.563940
3072.000000	101.564245
3071.000000	101.564716
3070.000000	101.565658
3069.000000	101.567281
3068.000000	101.569348
3067.000000	101.571077
3066.000000	101.571746
3065.000000	101.571360
3064.000000	101.570474
3063.000000	101.569504
3062.000000	101.568651
3061.000000	101.568430
3060.000000	101.569632
3059.000000	101.572311
3058.000000	101.575147
3057.000000	101.576515
3056.000000	101.576266
3055.000000	101.576008
3054.000000	101.577424
3053.000000	101.580682
3052.000000	101.584637
3051.000000	101.588111
3050.000000	101.590459
3049.000000	101.591158
3048.000000	101.589738
3047.000000	101.586495
3046.000000	101.582835
3045.000000	101.580224
3044.000000	101.578899
3043.000000	101.578048
3042.000000	101.577135
3041.000000	101.576607
3040.000000	101.577162
3039.000000	101.578745
3038.000000	101.580558
3037.000000	101.581847
3036.000000	101.582375
3035.000000	101.582210
3034.000000	101.581494
3033.000000	101.580510
3032.000000	101.579663
3031.000000	101.579096
3030.000000	101.578482
3029.000000	101.577494
3028.000000	101.576420
3027.000000	101.576001
3026.000000	101.576601
3025.000000	101.577752
3024.000000	101.578677
3023.000000	101.579119
3022.000000	101.579499
3021.000000	101.580400
3020.000000	101.582064
3019.000000	101.584186
3018.000000	101.585902
3017.000000	101.586171
3016.000000	101.584660
3015.000000	101.582387
3014.000000	101.581082
3013.000000	101.581522
3012.000000	101.582840
3011.000000	101.583663
3010.000000	101.583599
3009.000000	101.583155
3008.000000	101.582580
3007.000000	101.581602
3006.000000	101.580267
3005.000000	101.579208
3004.000000	101.578663
3003.000000	101.577846
3002.000000	101.575930
3001.000000	101.573344
3000.000000	101.571486
2999.000000	101.571197
2998.000000	101.572170
2997.000000	101.573765
2996.000000	101.575719
2995.000000	101.577703
2994.000000	101.578745
2993.000000	101.577851
2992.000000	101.574995
2991.000000	101.571189
2990.000000	101.567523
2989.000000	101.564349
2988.000000	101.561673
2987.000000	101.559880
2986.000000	101.559490
2985.000000	101.560152
2984.000000	101.560353
2983.000000	101.558646
2982.000000	101.555168
2981.000000	101.551691
2980.000000	101.549882
2979.000000	101.549688
2978.000000	101.549785
2977.000000	101.549423
2976.000000	101.549186
2975.000000	101.549649
2974.000000	101.549871
2973.000000	101.548061
2972.000000	101.543705
2971.000000	101.538310
2970.000000	101.533723
2969.000000	101.530280
2968.000000	101.527203
2967.000000	101.524267
2966.000000	101.522107
2965.000000	101.520891
2964.000000	101.519671
2963.000000	101.517547
2962.000000	101.514918
2961.000000	101.513044
2960.000000	101.512741
2959.000000	101.513933
2958.000000	101.516034
2957.000000	101.518121
2956.000000	101.519070
2955.000000	101.518487
2954.000000	101.517785
2953.000000	101.519613
2952.000000	101.525499
2951.000000	101.533862
2950.000000	101.540511
2949.000000	101.541404
2948.000000	101.535350
2947.000000	101.524618
2946.000000	101.513020
2945.000000	101.503081
2944.000000	101.495107
2943.000000	101.488871
2942.000000	101.485097
2941.000000	101.484140
2940.000000	101.483681
2939.000000	101.479373
2938.000000	101.468495
2937.000000	101.452267
2936.000000	101.434261
2935.000000	101.417380
2934.000000	101.402882
2933.000000	101.391262
2932.000000	101.382701
2931.000000	101.376650
2930.000000	101.371663
2929.000000	101.365830
2928.000000	101.357732
2927.000000	101.347915
2926.000000	101.339527
2925.000000	101.336208
2924.000000	101.338577
2923.000000	101.343742
2922.000000	101.349088
2921.000000	101.355616
2920.000000	101.366142
2919.000000	101.381182
2918.000000	101.398070
2917.000000	101.413745
2916.000000	101.427078
2915.000000	101.438609
2914.000000	101.449398
2913.000000	101.460400
2912.000000	101.471838
2911.000000	101.482901
2910.000000	101.492751
2909.000000	101.501770
2908.000000	101.511018
2907.000000	101.520537
2906.000000	101.529201
2905.000000	101.536203
2904.000000	101.541624
2903.000000	101.545619
2902.000000	101.548188
2901.000000	101.549947
2900.000000	101.551943
2899.000000	101.554596
2898.000000	101.557929
2897.000000	101.562751
2896.000000	101.570088
2895.000000	101.579145
2894.000000	101.587502
2893.000000	101.593994
2892.000000	101.599697
2891.000000	101.605231
2890.000000	101.608863
2889.000000	101.609011
2888.000000	101.607411
2887.000000	101.607744
2886.000000	101.611438
2885.000000	101.616471
2884.000000	101.620445
2883.000000	101.623320
2882.000000	101.626656
2881.000000	101.631069
2880.000000	101.634920
2879.000000	101.635356
2878.000000	101.630845
2877.000000	101.623406
2876.000000	101.618071
2875.000000	101.619005
2874.000000	101.625805
2873.000000	101.634082
2872.000000	101.639709
2871.000000	101.642097
2870.000000	101.643404
2869.000000	101.645556
2868.000000	101.648374
2867.000000	101.650039
2866.000000	101.648800
2865.000000	101.644401
2864.000000	101.638132
2863.000000	101.631483
2862.000000	101.624780
2861.000000	101.617241
2860.000000	101.608134
2859.000000	101.597635
2858.000000	101.586858
2857.000000	101.577464
2856.000000	101.570907
2855.000000	101.567556
2854.000000	101.566677
2853.000000	101.567717
2852.000000	101.571330
2851.000000	101.578485
2850.000000	101.588746
2849.000000	101.600167
2848.000000	101.610974
2847.000000	101.620782
2846.000000	101.630250
2845.000000	101.640305
2844.000000	101.651762
2843.000000	101.664785
2842.000000	101.678328
2841.000000	101.690819
2840.000000	101.701681
2839.000000	101.711490
2838.000000	101.720323
2837.000000	101.726993
2836.000000	101.730898
2835.000000	101.733845
2834.000000	101.738489
2833.000000	101.744818
2832.000000	101.749559
2831.000000	101.749811
2830.000000	101.746425
2829.000000	101.743117
2828.000000	101.742842
2827.000000	101.745775
2826.000000	101.750351
2825.000000	101.754863
2824.000000	101.757892
2823.000000	101.758698
2822.000000	101.758130
2821.000000	101.758385
2820.000000	101.760734
2819.000000	101.763935
2818.000000	101.765858
2817.000000	101.766412
2816.000000	101.767779
2815.000000	101.771761
2814.000000	101.777928
2813.000000	101.784521
2812.000000	101.790217
2811.000000	101.794611
2810.000000	101.797781
2809.000000	101.799933
2808.000000	101.801068
2807.000000	101.800721
2806.000000	101.798589
2805.000000	101.795742
2804.000000	101.794478
2803.000000	101.796250
2802.000000	101.800130
2801.000000	101.803841
2800.000000	101.806187
2799.000000	101.807972
2798.000000	101.810535
2797.000000	101.814092
2796.000000	101.817670
2795.000000	101.820184
2794.000000	101.821284
2793.000000	101.821470
2792.000000	101.821673
2791.000000	101.822549
2790.000000	101.824007
2789.000000	101.825487
2788.000000	101.826738
2787.000000	101.828148
2786.000000	101.830167
2785.000000	101.832568
2784.000000	101.834564
2783.000000	101.835692
2782.000000	101.836191
2781.000000	101.836561
2780.000000	101.837025
2779.000000	101.837561
2778.000000	101.838240
2777.000000	101.839178
2776.000000	101.840282
2775.000000	101.841320
2774.000000	101.842263
2773.000000	101.843304
2772.000000	101.844506
2771.000000	101.845673
2770.000000	101.846611
2769.000000	101.847370
2768.000000	101.848107
2767.000000	101.848901
2766.000000	101.849730
2765.000000	101.850559
2764.000000	101.851374
2763.000000	101.852168
2762.000000	101.852945
2761.000000	101.853705
2760.000000	101.854454
2759.000000	101.855195
2758.000000	101.855927
2757.000000	101.856646
2756.000000	101.857345
2755.000000	101.858024
2754.000000	101.858686
2753.000000	101.859343
2752.000000	101.860003
2751.000000	101.860670
2750.000000	101.861344
2749.000000	101.862013
2748.000000	101.862668
2747.000000	101.863301
2746.000000	101.863909
2745.000000	101.864499
2744.000000	101.865086
2743.000000	101.865683
2742.000000	101.866299
2741.000000	101.866927
2740.000000	101.867554
2739.000000	101.868167
2738.000000	101.868756
2737.000000	101.869316
2736.000000	101.869848
2735.000000	101.870358
2734.000000	101.870852
2733.000000	101.871334
2732.000000	101.871805
2731.000000	101.872263
2730.000000	101.872703
2729.000000	101.873122
2728.000000	101.873527
2727.000000	101.873931
2726.000000	101.874338
2725.000000	101.874750
2724.000000	101.875159
2723.000000	101.875565
2722.000000	101.875971
2721.000000	101.876380
2720.000000	101.876791
2719.000000	101.877192
2718.000000	101.877567
2717.000000	101.877903
2716.000000	101.878197
2715.000000	101.878457
2714.000000	101.878698
2713.000000	101.878928
2712.000000	101.879149
2711.000000	101.879353
2710.000000	101.879533
2709.000000	101.879688
2708.000000	101.879821
2707.000000	101.879936
2706.000000	101.880054
2705.000000	101.880204
2704.000000	101.880427
2703.000000	101.880736
2702.000000	101.881063
2701.000000	101.881285
2700.000000	101.881322
2699.000000	101.881208
2698.000000	101.881023
2697.000000	101.880794
2696.000000	101.880551
2695.000000	101.880419
2694.000000	101.880541
2693.000000	101.880917
2692.000000	101.881353
2691.000000	101.881625
2690.000000	101.881670
2689.000000	101.881623
2688.000000	101.881700
2687.000000	101.881997
2686.000000	101.882378
2685.000000	101.882604
2684.000000	101.882634
2683.000000	101.882697
2682.000000	101.882996
2681.000000	101.883404
2680.000000	101.883617
2679.000000	101.883561
2678.000000	101.883426
2677.000000	101.883286
2676.000000	101.882935
2675.000000	101.882223
2674.000000	101.881366
2673.000000	101.880731
2672.000000	101.880380
2671.000000	101.880078
2670.000000	101.879744
2669.000000	101.879724
2668.000000	101.880494
2667.000000	101.882141
2666.000000	101.884179
2665.000000	101.885870
2664.000000	101.886717
2663.000000	101.886625
2662.000000	101.885822
2661.000000	101.884798
2660.000000	101.884095
2659.000000	101.883923
2658.000000	101.883997
2657.000000	101.883871
2656.000000	101.883493
2655.000000	101.883248
2654.000000	101.883421
2653.000000	101.883790
2652.000000	101.883872
2651.000000	101.883439
2650.000000	101.882652
2649.000000	101.881817
2648.000000	101.881194
2647.000000	101.880987
2646.000000	101.881314
2645.000000	101.882067
2644.000000	101.882858
2643.000000	101.883248
2642.000000	101.883122
2641.000000	101.882823
2640.000000	101.882800
2639.000000	101.883040
2638.000000	101.882984
2637.000000	101.882192
2636.000000	101.880980
2635.000000	101.880197
2634.000000	101.880314
2633.000000	101.881016
2632.000000	101.881703
2631.000000	101.882139
2630.000000	101.882399
2629.000000	101.882475
2628.000000	101.882298
2627.000000	101.881940
2626.000000	101.881443
2625.000000	101.880583
2624.000000	101.879271
2623.000000	101.878152
2622.000000	101.878211
2621.000000	101.879636
2620.000000	101.881426
2619.000000	101.882372
2618.000000	101.882314
2617.000000	101.882100
2616.000000	101.882587
2615.000000	101.883911
2614.000000	101.885575
2613.000000	101.886934
2612.000000	101.887605
2611.000000	101.887593
2610.000000	101.887192
2609.000000	101.886806
2608.000000	101.886802
2607.000000	101.887360
2606.000000	101.888318
2605.000000	101.889227
2604.000000	101.889759
2603.000000	101.890030
2602.000000	101.890320
2601.000000	101.890534
2600.000000	101.890274
2599.000000	101.889513
2598.000000	101.888833
2597.000000	101.888749
2596.000000	101.889014
2595.000000	101.888913
2594.000000	101.888183
2593.000000	101.887365
2592.000000	101.887170
2591.000000	101.887701
2590.000000	101.888448
2589.000000	101.888921
2588.000000	101.889087
2587.000000	101.889152
2586.000000	101.889113
2585.000000	101.888715
2584.000000	101.887804
2583.000000	101.886577
2582.000000	101.885482
2581.000000	101.884990
2580.000000	101.885420
2579.000000	101.886810
2578.000000	101.888718
2577.000000	101.890334
2576.000000	101.891082
2575.000000	101.891002
2574.000000	101.890569
2573.000000	101.890246
2572.000000	101.890206
2571.000000	101.890387
2570.000000	101.890600
2569.000000	101.890620
2568.000000	101.890392
2567.000000	101.890156
2566.000000	101.890232
2565.000000	101.890645
2564.000000	101.891098
2563.000000	101.891314
2562.000000	101.891314
2561.000000	101.891275
2560.000000	101.891287
2559.000000	101.891334
2558.000000	101.891434
2557.000000	101.891649
2556.000000	101.891969
2555.000000	101.892292
2554.000000	101.892551
2553.000000	101.892797
2552.000000	101.893099
2551.000000	101.893463
2550.000000	101.893861
2549.000000	101.894280
2548.000000	101.894656
2547.000000	101.894846
2546.000000	101.894760
2545.000000	101.894507
2544.000000	101.894310
2543.000000	101.894291
2542.000000	101.894401
2541.000000	101.894567
2540.000000	101.894814
2539.000000	101.895205
2538.000000	101.895714
2537.000000	101.896188
2536.000000	101.896440
2535.000000	101.896386
2534.000000	101.896129
2533.000000	101.895952
2532.000000	101.896088
2531.000000	101.896507
2530.000000	101.896968
2529.000000	101.897314
2528.000000	101.897689
2527.000000	101.898349
2526.000000	101.899265
2525.000000	101.900048
2524.000000	101.900360
2523.000000	101.900257
2522.000000	101.900116
2521.000000	101.900189
2520.000000	101.900401
2519.000000	101.900564
2518.000000	101.900643
2517.000000	101.900772
2516.000000	101.901098
2515.000000	101.901648
2514.000000	101.902325
2513.000000	101.902975
2512.000000	101.903484
2511.000000	101.903842
2510.000000	101.904138
2509.000000	101.904512
2508.000000	101.905068
2507.000000	101.905821
2506.000000	101.906689
2505.000000	101.907541
2504.000000	101.908296
2503.000000	101.908961
2502.000000	101.909590
2501.000000	101.910220
2500.000000	101.910850
2499.000000	101.911476
2498.000000	101.912113
2497.000000	101.912799
2496.000000	101.913575
2495.000000	101.914451
2494.000000	101.915356
2493.000000	101.916174
2492.000000	101.916870
2491.000000	101.917560
2490.000000	101.918389
2489.000000	101.919366
2488.000000	101.920338
2487.000000	101.921166
2486.000000	101.921869
2485.000000	101.922612
2484.000000	101.923526
2483.000000	101.924571
2482.000000	101.925564
2481.000000	101.926357
2480.000000	101.926969
2479.000000	101.927585
2478.000000	101.928413
2477.000000	101.929482
2476.000000	101.930610
2475.000000	101.931558
2474.000000	101.932247
2473.000000	101.932784
2472.000000	101.933353
2471.000000	101.934070
2470.000000	101.934934
2469.000000	101.935864
2468.000000	101.936824
2467.000000	101.937900
2466.000000	101.939206
2465.000000	101.940722
2464.000000	101.942231
2463.000000	101.943505
2462.000000	101.944510
2461.000000	101.945402
2460.000000	101.946368
2459.000000	101.947474
2458.000000	101.948636
2457.000000	101.949679
2456.000000	101.950463
2455.000000	101.951021
2454.000000	101.951562
2453.000000	101.952281
2452.000000	101.953190
2451.000000	101.954157
2450.000000	101.955058
2449.000000	101.955870
2448.000000	101.956650
2447.000000	101.957481
2446.000000	101.958386
2445.000000	101.959257
2444.000000	101.959912
2443.000000	101.960304
2442.000000	101.960601
2441.000000	101.961058
2440.000000	101.961789
2439.000000	101.962741
2438.000000	101.963764
2437.000000	101.964677
2436.000000	101.965311
2435.000000	101.965598
2434.000000	101.965670
2433.000000	101.965806
2432.000000	101.966184
2431.000000	101.966756
2430.000000	101.967398
2429.000000	101.968096
2428.000000	101.968911
2427.000000	101.969797
2426.000000	101.970556
2425.000000	101.971001
2424.000000	101.971107
2423.000000	101.971051
2422.000000	101.971086
2421.000000	101.971304
2420.000000	101.971520
2419.000000	101.971460
2418.000000	101.971077
2417.000000	101.970653
2416.000000	101.970514
2415.000000	101.970720
2414.000000	101.971090
2413.000000	101.971436
2412.000000	101.971703
2411.000000	101.971868
2410.000000	101.971843
2409.000000	101.971558
2408.000000	101.971034
2407.000000	101.970375
2406.000000	101.969739
2405.000000	101.969319
2404.000000	101.969279
2403.000000	101.969664
2402.000000	101.970324
2401.000000	101.970912
2400.000000	101.971027
2399.000000	101.970481
2398.000000	101.969526
2397.000000	101.968692
2396.000000	101.968292
2395.000000	101.968192
2394.000000	101.968063
2393.000000	101.967696
2392.000000	101.966975
2391.000000	101.965785
2390.000000	101.964226
2389.000000	101.962806
2388.000000	101.962064
2387.000000	101.961973
2386.000000	101.961921
2385.000000	101.961333
2384.000000	101.960206
2383.000000	101.958927
2382.000000	101.957795
2381.000000	101.956873
2380.000000	101.956211
2379.000000	101.955890
2378.000000	101.955831
2377.000000	101.955758
2376.000000	101.955487
2375.000000	101.955158
2374.000000	101.955006
2373.000000	101.954965
2372.000000	101.954627
2371.000000	101.953655
2370.000000	101.952117
2369.000000	101.950516
2368.000000	101.949465
2367.000000	101.949252
2366.000000	101.949709
2365.000000	101.950398
2364.000000	101.950981
2363.000000	101.951372
2362.000000	101.951585
2361.000000	101.951556
2360.000000	101.951186
2359.000000	101.950545
2358.000000	101.949911
2357.000000	101.949567
2356.000000	101.949542
2355.000000	101.949646
2354.000000	101.949697
2353.000000	101.949671
2352.000000	101.949664
2351.000000	101.949740
2350.000000	101.949867
2349.000000	101.949983
2348.000000	101.950063
2347.000000	101.950145
2346.000000	101.950259
2345.000000	101.950383
2344.000000	101.950493
2343.000000	101.950608
2342.000000	101.950753
2341.000000	101.950919
2340.000000	101.951087
2339.000000	101.951262
2338.000000	101.951455
2337.000000	101.951660
2336.000000	101.951854
2335.000000	101.952017
2334.000000	101.952149
2333.000000	101.952265
2332.000000	101.952383
2331.000000	101.952512
2330.000000	101.952655
2329.000000	101.952811
2328.000000	101.952973
2327.000000	101.953133
2326.000000	101.953279
2325.000000	101.953404
2324.000000	101.953508
2323.000000	101.953593
2322.000000	101.953667
2321.000000	101.953745
2320.000000	101.953839
2319.000000	101.953942
2318.000000	101.954031
2317.000000	101.954092
2316.000000	101.954151
2315.000000	101.954256
2314.000000	101.954437
2313.000000	101.954676
2312.000000	101.954895
2311.000000	101.954993
2310.000000	101.954919
2309.000000	101.954697
2308.000000	101.954361
2307.000000	101.953911
2306.000000	101.953396
2305.000000	101.953008
2304.000000	101.952974
2303.000000	101.953354
2302.000000	101.953954
2301.000000	101.954446
2300.000000	101.954624
2299.000000	101.954516
2298.000000	101.954344
2297.000000	101.954294
2296.000000	101.954288
2295.000000	101.954092
2294.000000	101.953651
2293.000000	101.953222
2292.000000	101.953063
2291.000000	101.953123
2290.000000	101.953153
2289.000000	101.953036
2288.000000	101.952869
2287.000000	101.952775
2286.000000	101.952738
2285.000000	101.952612
2284.000000	101.952237
2283.000000	101.951587
2282.000000	101.950892
2281.000000	101.950488
2280.000000	101.950422
2279.000000	101.950266
2278.000000	101.949536
2277.000000	101.948220
2276.000000	101.946816
2275.000000	101.945842
2274.000000	101.945384
2273.000000	101.945193
2272.000000	101.944988
2271.000000	101.944667
2270.000000	101.944290
2269.000000	101.943979
2268.000000	101.943763
2267.000000	101.943489
2266.000000	101.942936
2265.000000	101.942052
2264.000000	101.940984
2263.000000	101.939872
2262.000000	101.938785
2261.000000	101.937883
2260.000000	101.937435
2259.000000	101.937484
2258.000000	101.937625
2257.000000	101.937329
2256.000000	101.936524
2255.000000	101.935657
2254.000000	101.935174
2253.000000	101.935053
2252.000000	101.934899
2251.000000	101.934376
2250.000000	101.933419
2249.000000	101.932072
2248.000000	101.930324
2247.000000	101.928265
2246.000000	101.926387
2245.000000	101.925378
2244.000000	101.925469
2243.000000	101.926122
2242.000000	101.926563
2241.000000	101.926594
2240.000000	101.926538
2239.000000	101.926549
2238.000000	101.926383
2237.000000	101.925888
2236.000000	101.925407
2235.000000	101.925432
2234.000000	101.925978
2233.000000	101.926539
2232.000000	101.926634
2231.000000	101.926291
2230.000000	101.925976
2229.000000	101.926072
2228.000000	101.926489
2227.000000	101.926812
2226.000000	101.926821
2225.000000	101.926707
2224.000000	101.926746
2223.000000	101.926935
2222.000000	101.927084
2221.000000	101.927131
2220.000000	101.927194
2219.000000	101.927344
2218.000000	101.927519
2217.000000	101.927651
2216.000000	101.927785
2215.000000	101.928032
2214.000000	101.928460
2213.000000	101.929047
2212.000000	101.929672
2211.000000	101.930170
2210.000000	101.930458
2209.000000	101.930595
2208.000000	101.930738
2207.000000	101.930999
2206.000000	101.931362
2205.000000	101.931749
2204.000000	101.932111
2203.000000	101.932460
2202.000000	101.932829
2201.000000	101.933239
2200.000000	101.933677
2199.000000	101.934101
2198.000000	101.934470
2197.000000	101.934779
2196.000000	101.935072
2195.000000	101.935388
2194.000000	101.935726
2193.000000	101.936049
2192.000000	101.936333
2191.000000	101.936602
2190.000000	101.936908
2189.000000	101.937290
2188.000000	101.937739
2187.000000	101.938187
2186.000000	101.938540
2185.000000	101.938742
2184.000000	101.938798
2183.000000	101.938781
2182.000000	101.938821
2181.000000	101.939056
2180.000000	101.939550
2179.000000	101.940235
2178.000000	101.940948
2177.000000	101.941561
2176.000000	101.942052
2175.000000	101.942428
2174.000000	101.942657
2173.000000	101.942738
2172.000000	101.942751
2171.000000	101.942777
2170.000000	101.942811
2169.000000	101.942822
2168.000000	101.942857
2167.000000	101.943022
2166.000000	101.943352
2165.000000	101.943762
2164.000000	101.944098
2163.000000	101.944264
2162.000000	101.944279
2161.000000	101.944240
2160.000000	101.944248
2159.000000	101.944355
2158.000000	101.944557
2157.000000	101.944792
2156.000000	101.944973
2155.000000	101.945049
2154.000000	101.945048
2153.000000	101.945047
2152.000000	101.945110
2151.000000	101.945270
2150.000000	101.945545
2149.000000	101.945917
2148.000000	101.946299
2147.000000	101.946580
2146.000000	101.946753
2145.000000	101.946940
2144.000000	101.947256
2143.000000	101.947666
2142.000000	101.948030
2141.000000	101.948277
2140.000000	101.948482
2139.000000	101.948770
2138.000000	101.949183
2137.000000	101.949685
2136.000000	101.950188
2135.000000	101.950553
2134.000000	101.950675
2133.000000	101.950652
2132.000000	101.950760
2131.000000	101.951162
2130.000000	101.951741
2129.000000	101.952311
2128.000000	101.952886
2127.000000	101.953532
2126.000000	101.954108
2125.000000	101.954437
2124.000000	101.954668
2123.000000	101.955163
2122.000000	101.955986
2121.000000	101.956751
2120.000000	101.957041
2119.000000	101.956852
2118.000000	101.956607
2117.000000	101.956864
2116.000000	101.957945
2115.000000	101.959691
2114.000000	101.961493
2113.000000	101.962766
2112.000000	101.963397
2111.000000	101.963700
2110.000000	101.964069
2109.000000	101.964781
2108.000000	101.965959
2107.000000	101.967478
2106.000000	101.968952
2105.000000	101.970125
2104.000000	101.971268
2103.000000	101.972866
2102.000000	101.974840
2101.000000	101.976406
2100.000000	101.976971
2099.000000	101.976787
2098.000000	101.976595
2097.000000	101.976788
2096.000000	101.977201
2095.000000	101.977574
2094.000000	101.977894
2093.000000	101.978351
2092.000000	101.979132
2091.000000	101.980244
2090.000000	101.981443
2089.000000	101.982371
2088.000000	101.982845
2087.000000	101.982991
2086.000000	101.983111
2085.000000	101.983483
2084.000000	101.984264
2083.000000	101.985433
2082.000000	101.986680
2081.000000	101.987508
2080.000000	101.987674
2079.000000	101.987450
2078.000000	101.987371
2077.000000	101.987650
2076.000000	101.988065
2075.000000	101.988332
2074.000000	101.988382
2073.000000	101.988266
2072.000000	101.988014
2071.000000	101.987713
2070.000000	101.987570
2069.000000	101.987724
2068.000000	101.988043
2067.000000	101.988252
2066.000000	101.988266
2065.000000	101.988270
2064.000000	101.988458
2063.000000	101.988756
2062.000000	101.988879
2061.000000	101.988617
2060.000000	101.988014
2059.000000	101.987344
2058.000000	101.986932
2057.000000	101.986955
2056.000000	101.987372
2055.000000	101.987954
2054.000000	101.988435
2053.000000	101.988684
2052.000000	101.988711
2051.000000	101.988548
2050.000000	101.988177
2049.000000	101.987591
2048.000000	101.986875
2047.000000	101.986156
2046.000000	101.985531
2045.000000	101.985047
2044.000000	101.984720
2043.000000	101.984503
2042.000000	101.984240
2041.000000	101.983743
2040.000000	101.982975
2039.000000	101.982100
2038.000000	101.981350
2037.000000	101.980810
2036.000000	101.980380
2035.000000	101.979895
2034.000000	101.979271
2033.000000	101.978526
2032.000000	101.977685
2031.000000	101.976777
2030.000000	101.975881
2029.000000	101.975099
2028.000000	101.974456
2027.000000	101.973866
2026.000000	101.973202
2025.000000	101.972398
2024.000000	101.971463
2023.000000	101.970446
2022.000000	101.969437
2021.000000	101.968542
2020.000000	101.967807
2019.000000	101.967158
2018.000000	101.966445
2017.000000	101.965588
2016.000000	101.964636
2015.000000	101.963678
2014.000000	101.962754
2013.000000	101.961850
2012.000000	101.960946
2011.000000	101.960037
2010.000000	101.959134
2009.000000	101.958254
2008.000000	101.957397
2007.000000	101.956526
2006.000000	101.955597
2005.000000	101.954611
2004.000000	101.953635
2003.000000	101.952753
2002.000000	101.952002
2001.000000	101.951332
2000.000000	101.950634
1999.000000	101.949822
1998.000000	101.948918
1997.000000	101.948086
1996.000000	101.947482
1995.000000	101.947102
1994.000000	101.946782
1993.000000	101.946346
1992.000000	101.945755
1991.000000	101.945082
1990.000000	101.944434
1989.000000	101.943885
1988.000000	101.943437
1987.000000	101.943037
1986.000000	101.942629
1985.000000	101.942218
1984.000000	101.941851
1983.000000	101.941545
1982.000000	101.941263
1981.000000	101.940950
1980.000000	101.940588
1979.000000	101.940189
1978.000000	101.939787
1977.000000	101.939416
1976.000000	101.939095
1975.000000	101.938815
1974.000000	101.938546
1973.000000	101.938262
1972.000000	101.937967
1971.000000	101.937685
1970.000000	101.937444
1969.000000	101.937265
1968.000000	101.937152
1967.000000	101.937079
1966.000000	101.937007
1965.000000	101.936922
1964.000000	101.936838
1963.000000	101.936729
1962.000000	101.936501
1961.000000	101.936110
1960.000000	101.935704
1959.000000	101.935510
1958.000000	101.935466
1957.000000	101.935155
1956.000000	101.934362
1955.000000	101.933499
1954.000000	101.933112
1953.000000	101.933147
1952.000000	101.933135
1951.000000	101.932961
1950.000000	101.932971
1949.000000	101.933330
1948.000000	101.933711
1947.000000	101.933673
1946.000000	101.932903
1945.000000	101.931148
1944.000000	101.928553
1943.000000	101.926201
1942.000000	101.925537
1941.000000	101.926684
1940.000000	101.928140
1939.000000	101.928747
1938.000000	101.929041
1937.000000	101.930054
1936.000000	101.931390
1935.000000	101.931400
1934.000000	101.929232
1933.000000	101.926070
1932.000000	101.924082
1931.000000	101.924272
1930.000000	101.925864
1929.000000	101.927273
1928.000000	101.927561
1927.000000	101.927105
1926.000000	101.926803
1925.000000	101.926855
1924.000000	101.926412
1923.000000	101.924859
1922.000000	101.922974
1921.000000	101.921675
1920.000000	101.920443
1919.000000	101.918034
1918.000000	101.914340
1917.000000	101.910819
1916.000000	101.908150
1915.000000	101.904989
1914.000000	101.899902
1913.000000	101.893084
1912.000000	101.886118
1911.000000	101.880800
1910.000000	101.878237
1909.000000	101.877933
1908.000000	101.877645
1907.000000	101.875350
1906.000000	101.871434
1905.000000	101.868244
1904.000000	101.866872
1903.000000	101.865544
1902.000000	101.861991
1901.000000	101.856184
1900.000000	101.850117
1899.000000	101.845762
1898.000000	101.843799
1897.000000	101.843711
1896.000000	101.844176
1895.000000	101.844021
1894.000000	101.843303
1893.000000	101.842404
1892.000000	101.840203
1891.000000	101.834755
1890.000000	101.826344
1889.000000	101.818609
1888.000000	101.814588
1887.000000	101.813459
1886.000000	101.813188
1885.000000	101.813814
1884.000000	101.816248
1883.000000	101.819539
1882.000000	101.821385
1881.000000	101.820636
1880.000000	101.817866
1879.000000	101.814228
1878.000000	101.810773
1877.000000	101.808508
1876.000000	101.807825
1875.000000	101.807991
1874.000000	101.808357
1873.000000	101.809451
1872.000000	101.811771
1871.000000	101.814449
1870.000000	101.816045
1869.000000	101.816343
1868.000000	101.816515
1867.000000	101.817038
1866.000000	101.817399
1865.000000	101.818032
1864.000000	101.820016
1863.000000	101.823099
1862.000000	101.825979
1861.000000	101.828418
1860.000000	101.831424
1859.000000	101.835189
1858.000000	101.838503
1857.000000	101.840640
1856.000000	101.842524
1855.000000	101.845484
1854.000000	101.849977
1853.000000	101.855500
1852.000000	101.860974
1851.000000	101.865692
1850.000000	101.869655
1849.000000	101.873228
1848.000000	101.876434
1847.000000	101.879010
1846.000000	101.881562
1845.000000	101.885288
1844.000000	101.890392
1843.000000	101.895879
1842.000000	101.900085
1841.000000	101.901597
1840.000000	101.900222
1839.000000	101.896668
1838.000000	101.892155
1837.000000	101.888373
1836.000000	101.886583
1835.000000	101.886916
1834.000000	101.888774
1833.000000	101.891387
1832.000000	101.894370
1831.000000	101.897799
1830.000000	101.901380
1829.000000	101.904786
1828.000000	101.907531
1827.000000	101.908455
1826.000000	101.907071
1825.000000	101.904765
1824.000000	101.903818
1823.000000	101.904594
1822.000000	101.905327
1821.000000	101.904904
1820.000000	101.904024
1819.000000	101.903775
1818.000000	101.904425
1817.000000	101.906176
1816.000000	101.909319
1815.000000	101.913070
1814.000000	101.915599
1813.000000	101.915872
1812.000000	101.914932
1811.000000	101.914379
1810.000000	101.914296
1809.000000	101.913638
1808.000000	101.911718
1807.000000	101.908832
1806.000000	101.906100
1805.000000	101.904860
1804.000000	101.905463
1803.000000	101.906802
1802.000000	101.907449
1801.000000	101.907041
1800.000000	101.906430
1799.000000	101.906257
1798.000000	101.906529
1797.000000	101.907491
1796.000000	101.909611
1795.000000	101.912958
1794.000000	101.917112
1793.000000	101.920825
1792.000000	101.922501
1791.000000	101.922066
1790.000000	101.921071
1789.000000	101.920889
1788.000000	101.921569
1787.000000	101.921959
1786.000000	101.921453
1785.000000	101.921734
1784.000000	101.924804
1783.000000	101.929885
1782.000000	101.934386
1781.000000	101.936954
1780.000000	101.938712
1779.000000	101.940903
1778.000000	101.942914
1777.000000	101.943640
1776.000000	101.943432
1775.000000	101.944054
1774.000000	101.947252
1773.000000	101.952856
1772.000000	101.958655
1771.000000	101.963145
1770.000000	101.965731
1769.000000	101.965943
1768.000000	101.964478
1767.000000	101.963150
1766.000000	101.963054
1765.000000	101.963850
1764.000000	101.965355
1763.000000	101.968026
1762.000000	101.971659
1761.000000	101.975359
1760.000000	101.978635
1759.000000	101.981152
1758.000000	101.982602
1757.000000	101.982717
1756.000000	101.982008
1755.000000	101.981444
1754.000000	101.980758
1753.000000	101.979065
1752.000000	101.976525
1751.000000	101.974693
1750.000000	101.974808
1749.000000	101.976441
1748.000000	101.978594
1747.000000	101.980816
1746.000000	101.982259
1745.000000	101.981330
1744.000000	101.977553
1743.000000	101.972680
1742.000000	101.969161
1741.000000	101.967985
1740.000000	101.968551
1739.000000	101.970091
1738.000000	101.972334
1737.000000	101.974620
1736.000000	101.977178
1735.000000	101.980412
1734.000000	101.982246
1733.000000	101.981954
1732.000000	101.980463
1731.000000	101.977553
1730.000000	101.974045
1729.000000	101.971766
1728.000000	101.971194
1727.000000	101.970823
1726.000000	101.968898
1725.000000	101.965320
1724.000000	101.961821
1723.000000	101.959968
1722.000000	101.959718
1721.000000	101.960059
1720.000000	101.960514
1719.000000	101.961131
1718.000000	101.960688
1717.000000	101.959079
1716.000000	101.958943
1715.000000	101.960373
1714.000000	101.960729
1713.000000	101.958546
1712.000000	101.953837
1711.000000	101.947139
1710.000000	101.939928
1709.000000	101.934659
1708.000000	101.932790
1707.000000	101.933225
1706.000000	101.933202
1705.000000	101.931903
1704.000000	101.930826
1703.000000	101.929654
1702.000000	101.927536
1701.000000	101.923996
1700.000000	101.919306
1699.000000	101.916203
1698.000000	101.913801
1697.000000	101.910043
1696.000000	101.904998
1695.000000	101.899756
1694.000000	101.895123
1693.000000	101.890096
1692.000000	101.884193
1691.000000	101.877948
1690.000000	101.871959
1689.000000	101.866913
1688.000000	101.863235
1687.000000	101.860448
1686.000000	101.858097
1685.000000	101.855756
1684.000000	101.852638
1683.000000	101.849827
1682.000000	101.847095
1681.000000	101.843093
1680.000000	101.838410
1679.000000	101.834412
1678.000000	101.831339
1677.000000	101.828400
1676.000000	101.825020
1675.000000	101.821533
1674.000000	101.818473
1673.000000	101.815395
1672.000000	101.811707
1671.000000	101.807524
1670.000000	101.803379
1669.000000	101.799733
1668.000000	101.796691
1667.000000	101.793950
1666.000000	101.791020
1665.000000	101.787601
1664.000000	101.783826
1663.000000	101.780156
1662.000000	101.776988
1661.000000	101.774086
1660.000000	101.770786
1659.000000	101.767062
1658.000000	101.763563
1657.000000	101.760712
1656.000000	101.758070
1655.000000	101.755830
1654.000000	101.753878
1653.000000	101.749142
1652.000000	101.745153
1651.000000	101.745661
1650.000000	101.747400
1649.000000	101.747603
1648.000000	101.745427
1647.000000	101.740504
1646.000000	101.734716
1645.000000	101.731362
1644.000000	101.730329
1643.000000	101.729202
1642.000000	101.726482
1641.000000	101.722156
1640.000000	101.717447
1639.000000	101.713826
1638.000000	101.712490
1637.000000	101.714675
1636.000000	101.718698
1635.000000	101.721077
1634.000000	101.722060
1633.000000	101.722499
1632.000000	101.721851
1631.000000	101.719828
1630.000000	101.716808
1629.000000	101.713885
1628.000000	101.712408
1627.000000	101.712880
1626.000000	101.714194
1625.000000	101.714910
1624.000000	101.715481
1623.000000	101.717638
1622.000000	101.721920
1621.000000	101.725624
1620.000000	101.725450
1619.000000	101.722121
1618.000000	101.720479
1617.000000	101.723831
1616.000000	101.730359
1615.000000	101.737307
1614.000000	101.743093
1613.000000	101.747128
1612.000000	101.750092
1611.000000	101.753657
1610.000000	101.759383
1609.000000	101.766869
1608.000000	101.774222
1607.000000	101.780640
1606.000000	101.786721
1605.000000	101.791679
1604.000000	101.793610
1603.000000	101.793002
1602.000000	101.793421
1601.000000	101.797328
1600.000000	101.803178
1599.000000	101.808095
1598.000000	101.811676
1597.000000	101.815846
1596.000000	101.821893
1595.000000	101.828704
1594.000000	101.834199
1593.000000	101.837767
1592.000000	101.840649
1591.000000	101.844430
1590.000000	101.849498
1589.000000	101.854628
1588.000000	101.858074
1587.000000	101.859059
1586.000000	101.858326
1585.000000	101.857285
1584.000000	101.856783
1583.000000	101.857342
1582.000000	101.859443
1581.000000	101.862883
1580.000000	101.866490
1579.000000	101.869212
1578.000000	101.871103
1577.000000	101.872528
1576.000000	101.873080
1575.000000	101.873547
1574.000000	101.875098
1573.000000	101.877184
1572.000000	101.879353
1571.000000	101.881997
1570.000000	101.885051
1569.000000	101.887622
1568.000000	101.889164
1567.000000	101.889704
1566.000000	101.889408
1565.000000	101.888569
1564.000000	101.887550
1563.000000	101.886668
1562.000000	101.885988
1561.000000	101.886266
1560.000000	101.889349
1559.000000	101.893459
1558.000000	101.894630
1557.000000	101.893865
1556.000000	101.892185
1555.000000	101.890128
1554.000000	101.888546
1553.000000	101.887695
1552.000000	101.887108
1551.000000	101.886382
1550.000000	101.885732
1549.000000	101.885632
1548.000000	101.886032
1547.000000	101.886447
1546.000000	101.886536
1545.000000	101.886318
1544.000000	101.886053
1543.000000	101.886037
1542.000000	101.886402
1541.000000	101.886864
1540.000000	101.886320
1539.000000	101.884660
1538.000000	101.883335
1537.000000	101.882693
1536.000000	101.882259
1535.000000	101.881913
1534.000000	101.881808
1533.000000	101.881837
1532.000000	101.881714
1531.000000	101.881124
1530.000000	101.880058
1529.000000	101.879063
1528.000000	101.878746
1527.000000	101.879107
1526.000000	101.879642
1525.000000	101.880067
1524.000000	101.880531
1523.000000	101.881164
1522.000000	101.881524
1521.000000	101.881050
1520.000000	101.880375
1519.000000	101.880075
1518.000000	101.879935
1517.000000	101.879886
1516.000000	101.880340
1515.000000	101.881535
1514.000000	101.882908
1513.000000	101.883803
1512.000000	101.884085
1511.000000	101.883680
1510.000000	101.882210
1509.000000	101.879806
1508.000000	101.878620
1507.000000	101.880459
1506.000000	101.882977
1505.000000	101.884060
1504.000000	101.883933
1503.000000	101.883147
1502.000000	101.882101
1501.000000	101.881071
1500.000000	101.880246
1499.000000	101.879492
1498.000000	101.877995
1497.000000	101.875347
1496.000000	101.873292
1495.000000	101.873635
1494.000000	101.875102
1493.000000	101.875149
1492.000000	101.872947
1491.000000	101.869770
1490.000000	101.867533
1489.000000	101.866785
1488.000000	101.866323
1487.000000	101.864524
1486.000000	101.861049
1485.000000	101.857146
1484.000000	101.854208
1483.000000	101.852820
1482.000000	101.852434
1481.000000	101.851851
1480.000000	101.850071
1479.000000	101.846753
1478.000000	101.842390
1477.000000	101.838429
1476.000000	101.836223
1475.000000	101.835071
1474.000000	101.832665
1473.000000	101.827323
1472.000000	101.820439
1471.000000	101.814934
1470.000000	101.810739
1469.000000	101.806280
1468.000000	101.801333
1467.000000	101.796642
1466.000000	101.792661
1465.000000	101.789366
1464.000000	101.787444
1463.000000	101.787708
1462.000000	101.788991
1461.000000	101.789190
1460.000000	101.787154
1459.000000	101.783262
1458.000000	101.778306
1457.000000	101.772784
1456.000000	101.770297
1455.000000	101.772463
1454.000000	101.775335
1453.000000	101.775246
1452.000000	101.771708
1451.000000	101.766469
1450.000000	101.761184
1449.000000	101.756354
1448.000000	101.752436
1447.000000	101.750201
1446.000000	101.749939
1445.000000	101.750890
1444.000000	101.752428
1443.000000	101.753874
1442.000000	101.753845
1441.000000	101.751651
1440.000000	101.748541
1439.000000	101.746476
1438.000000	101.745614
1437.000000	101.743812
1436.000000	101.740125
1435.000000	101.736552
1434.000000	101.733152
1433.000000	101.729649
1432.000000	101.728429
1431.000000	101.731548
1430.000000	101.736352
1429.000000	101.738540
1428.000000	101.738700
1427.000000	101.740212
1426.000000	101.743607
1425.000000	101.746185
1424.000000	101.746691
1423.000000	101.747145
1422.000000	101.748386
1421.000000	101.749049
1420.000000	101.749215
1419.000000	101.750930
1418.000000	101.754580
1417.000000	101.758088
1416.000000	101.761277
1415.000000	101.766167
1414.000000	101.772204
1413.000000	101.775651
1412.000000	101.775316
1411.000000	101.775460
1410.000000	101.780202
1409.000000	101.788476
1408.000000	101.797008
1407.000000	101.804676
1406.000000	101.812486
1405.000000	101.820585
1404.000000	101.828133
1403.000000	101.834972
1402.000000	101.840926
1401.000000	101.845490
1400.000000	101.849064
1399.000000	101.853322
1398.000000	101.859071
1397.000000	101.865080
1396.000000	101.870692
1395.000000	101.877255
1394.000000	101.885756
1393.000000	101.894805
1392.000000	101.903074
1391.000000	101.911302
1390.000000	101.920438
1389.000000	101.929312
1388.000000	101.935258
1387.000000	101.936898
1386.000000	101.935470
1385.000000	101.932966
1384.000000	101.931451
1383.000000	101.933713
1382.000000	101.941026
1381.000000	101.950443
1380.000000	101.956781
1379.000000	101.957878
1378.000000	101.956194
1377.000000	101.955021
1376.000000	101.954962
1375.000000	101.955218
1374.000000	101.956394
1373.000000	101.959823
1372.000000	101.964764
1371.000000	101.968734
1370.000000	101.970512
1369.000000	101.971271
1368.000000	101.973125
1367.000000	101.976631
1366.000000	101.979799
1365.000000	101.979841
1364.000000	101.976057
1363.000000	101.971478
1362.000000	101.970569
1361.000000	101.974245
1360.000000	101.979365
1359.000000	101.983167
1358.000000	101.985800
1357.000000	101.988558
1356.000000	101.991355
1355.000000	101.992840
1354.000000	101.992381
1353.000000	101.990779
1352.000000	101.989109
1351.000000	101.987716
1350.000000	101.986763
1349.000000	101.986559
1348.000000	101.987270
1347.000000	101.988716
1346.000000	101.990494
1345.000000	101.991894
1344.000000	101.991926
1343.000000	101.990094
1342.000000	101.987294
1341.000000	101.985547
1340.000000	101.986288
1339.000000	101.988862
1338.000000	101.991168
1337.000000	101.991662
1336.000000	101.990261
1335.000000	101.987872
1334.000000	101.985651
1333.000000	101.984334
1332.000000	101.983678
1331.000000	101.982763
1330.000000	101.981468
1329.000000	101.981532
1328.000000	101.985216
1327.000000	101.992317
1326.000000	101.999030
1325.000000	102.000783
1324.000000	101.996425
1323.000000	101.989433
1322.000000	101.984933
1321.000000	101.985163
1320.000000	101.988034
1319.000000	101.989742
1318.000000	101.988564
1317.000000	101.986102
1316.000000	101.985090
1315.000000	101.986540
1314.000000	101.988999
1313.000000	101.990156
1312.000000	101.988992
1311.000000	101.986504
1310.000000	101.984710
1309.000000	101.985137
1308.000000	101.987858
1307.000000	101.991470
1306.000000	101.994241
1305.000000	101.995394
1304.000000	101.995092
1303.000000	101.993313
1302.000000	101.989543
1301.000000	101.984017
1300.000000	101.978500
1299.000000	101.974912
1298.000000	101.973428
1297.000000	101.972857
1296.000000	101.972649
1295.000000	101.973386
1294.000000	101.975184
1293.000000	101.976854
1292.000000	101.977247
1291.000000	101.976493
1290.000000	101.975063
1289.000000	101.972224
1288.000000	101.966663
1287.000000	101.958853
1286.000000	101.951781
1285.000000	101.948323
1284.000000	101.948096
1283.000000	101.947754
1282.000000	101.944943
1281.000000	101.941281
1280.000000	101.939972
1279.000000	101.940737
1278.000000	101.939235
1277.000000	101.932511
1276.000000	101.923195
1275.000000	101.916780
1274.000000	101.915861
1273.000000	101.918662
1272.000000	101.921964
1271.000000	101.923229
1270.000000	101.920697
1269.000000	101.914055
1268.000000	101.905342
1267.000000	101.897427
1266.000000	101.891338
1265.000000	101.886361
1264.000000	101.882351
1263.000000	101.880010
1262.000000	101.879100
1261.000000	101.878343
1260.000000	101.877086
1259.000000	101.875492
1258.000000	101.873357
1257.000000	101.870370
1256.000000	101.866989
1255.000000	101.863265
1254.000000	101.857538
1253.000000	101.848401
1252.000000	101.837226
1251.000000	101.826362
1250.000000	101.815582
1249.000000	101.803201
1248.000000	101.790154
1247.000000	101.779400
1246.000000	101.770895
1245.000000	101.760735
1244.000000	101.746522
1243.000000	101.730659
1242.000000	101.716832
1241.000000	101.705442
1240.000000	101.693874
1239.000000	101.679507
1238.000000	101.661586
1237.000000	101.641787
1236.000000	101.623440
1235.000000	101.608389
1234.000000	101.594377
1233.000000	101.577438
1232.000000	101.556629
1231.000000	101.534109
1230.000000	101.510880
1229.000000	101.485267
1228.000000	101.455529
1227.000000	101.420923
1226.000000	101.380310
1225.000000	101.333202
1224.000000	101.282294
1223.000000	101.230883
1222.000000	101.176971
1221.000000	101.114388
1220.000000	101.041391
1219.000000	100.964269
1218.000000	100.890261
1217.000000	100.820021
1216.000000	100.749240
1215.000000	100.674145
1214.000000	100.593061
1213.000000	100.505902
1212.000000	100.414847
1211.000000	100.323291
1210.000000	100.232591
1209.000000	100.142360
1208.000000	100.054246
1207.000000	99.971063
1206.000000	99.891285
1205.000000	99.809512
1204.000000	99.723945
1203.000000	99.638461
1202.000000	99.555882
1201.000000	99.474324
1200.000000	99.391898
1199.000000	99.309512
1198.000000	99.226594
1197.000000	99.139387
1196.000000	99.046597
1195.000000	98.952366
1194.000000	98.860892
1193.000000	98.772059
1192.000000	98.684444
1191.000000	98.598126
1190.000000	98.512180
1189.000000	98.423734
1188.000000	98.331946
1187.000000	98.239213
1186.000000	98.146758
1185.000000	98.052919
1184.000000	97.956795
1183.000000	97.858947
1182.000000	97.757655
1181.000000	97.649771
1180.000000	97.536397
1179.000000	97.422148
1178.000000	97.307647
1177.000000	97.188786
1176.000000	97.064609
1175.000000	96.939153
1174.000000	96.813753
1173.000000	96.684757
1172.000000	96.551207
1171.000000	96.417464
1170.000000	96.285555
1169.000000	96.152673
1168.000000	96.019831
1167.000000	95.895902
1166.000000	95.789729
1165.000000	95.705444
1164.000000	95.648512
1163.000000	95.627791
1162.000000	95.646154
1161.000000	95.694203
1160.000000	95.755690
1159.000000	95.813810
1158.000000	95.852069
1157.000000	95.858001
1156.000000	95.830069
1155.000000	95.776158
1154.000000	95.703617
1153.000000	95.615481
1152.000000	95.516422
1151.000000	95.414319
1150.000000	95.313285
1149.000000	95.211767
1148.000000	95.109345
1147.000000	95.008449
1146.000000	94.908471
1145.000000	94.806448
1144.000000	94.704816
1143.000000	94.609527
1142.000000	94.518919
1141.000000	94.424092
1140.000000	94.322247
1139.000000	94.219566
1138.000000	94.118539
1137.000000	94.013241
1136.000000	93.900760
1135.000000	93.786779
1134.000000	93.675640
1133.000000	93.564787
1132.000000	93.453171
1131.000000	93.344962
1130.000000	93.240435
1129.000000	93.133001
1128.000000	93.019614
1127.000000	92.904492
1126.000000	92.788871
1125.000000	92.667758
1124.000000	92.541276
1123.000000	92.418330
1122.000000	92.303738
1121.000000	92.191804
1120.000000	92.077515
1119.000000	91.963674
1118.000000	91.852362
1117.000000	91.740545
1116.000000	91.628775
1115.000000	91.522380
1114.000000	91.419130
1113.000000	91.308566
1112.000000	91.189389
1111.000000	91.074319
1110.000000	90.971263
1109.000000	90.872376
1108.000000	90.768106
1107.000000	90.659942
1106.000000	90.552614
1105.000000	90.445668
1104.000000	90.339638
1103.000000	90.239327
1102.000000	90.144521
1101.000000	90.047973
1100.000000	89.947838
1099.000000	89.851128
1098.000000	89.760430
1097.000000	89.669108
1096.000000	89.574085
1095.000000	89.481046
1094.000000	89.392379
1093.000000	89.302543
1092.000000	89.210302
1091.000000	89.123345
1090.000000	89.046043
1089.000000	88.974082
1088.000000	88.904323
1087.000000	88.837688
1086.000000	88.770284
1085.000000	88.695780
1084.000000	88.619298
1083.000000	88.554508
1082.000000	88.503714
1081.000000	88.455075
1080.000000	88.402135
1079.000000	88.350645
1078.000000	88.303219
1077.000000	88.253119
1076.000000	88.196911
1075.000000	88.137210
1074.000000	88.068974
1073.000000	87.978844
1072.000000	87.862083
1071.000000	87.725487
1070.000000	87.570808
1069.000000	87.390866
1068.000000	87.185973
1067.000000	86.968783
1066.000000	86.748394
1065.000000	86.524303
1064.000000	86.299516
1063.000000	86.083058
1062.000000	85.875601
1061.000000	85.669525
1060.000000	85.467299
1059.000000	85.282554
1058.000000	85.118636
1057.000000	84.962759
1056.000000	84.804508
1055.000000	84.642865
1054.000000	84.472982
1053.000000	84.285697
1052.000000	84.084285
1051.000000	83.881654
1050.000000	83.676378
1049.000000	83.453741
1048.000000	83.213876
1047.000000	82.973909
1046.000000	82.739773
1045.000000	82.500777
1044.000000	82.253380
1043.000000	82.005891
1042.000000	81.758256
1041.000000	81.502229
1040.000000	81.244781
1039.000000	81.005602
1038.000000	80.786886
1037.000000	80.571667
1036.000000	80.357126
1035.000000	80.161996
1034.000000	79.994031
1033.000000	79.838342
1032.000000	79.686702
1031.000000	79.551483
1030.000000	79.439908
1029.000000	79.339566
1028.000000	79.239774
1027.000000	79.144363
1026.000000	79.054540
1025.000000	78.962677
1024.000000	78.871332
1023.000000	78.794664
1022.000000	78.732794
1021.000000	78.667976
1020.000000	78.593528
1019.000000	78.522607
1018.000000	78.460822
1017.000000	78.394706
1016.000000	78.315615
1015.000000	78.231822
1014.000000	78.149456
1013.000000	78.064885
1012.000000	77.982908
1011.000000	77.918333
1010.000000	77.871461
1009.000000	77.824818
1008.000000	77.771300
1007.000000	77.723057
1006.000000	77.686612
1005.000000	77.653146
1004.000000	77.619753
1003.000000	77.596316
1002.000000	77.584348
1001.000000	77.572326
1000.000000	77.558308
999.000000	77.553888
998.000000	77.560125
997.000000	77.563890
996.000000	77.564053
995.000000	77.576437
994.000000	77.605972
993.000000	77.638422
992.000000	77.666769
991.000000	77.701721
990.000000	77.748696
989.000000	77.798709
988.000000	77.849811
987.000000	77.914069
986.000000	77.995469
985.000000	78.083843
984.000000	78.177868
983.000000	78.291159
982.000000	78.428006
981.000000	78.575495
980.000000	78.727076
979.000000	78.892506
978.000000	79.077944
977.000000	79.277546
976.000000	79.489791
975.000000	79.719873
974.000000	79.960929
973.000000	80.196380
972.000000	80.427099
971.000000	80.673068
970.000000	80.941596
969.000000	81.216692
968.000000	81.486272
967.000000	81.756134
966.000000	82.028421
965.000000	82.289657
964.000000	82.531622
963.000000	82.764770
962.000000	83.000464
961.000000	83.237026
960.000000	83.471815
959.000000	83.709276
958.000000	83.947700
957.000000	84.174558
956.000000	84.384127
955.000000	84.585129
954.000000	84.783813
953.000000	84.974235
952.000000	85.151937
951.000000	85.321878
950.000000	85.485965
949.000000	85.637466
948.000000	85.774375
947.000000	85.903812
946.000000	86.027475
945.000000	86.137773
944.000000	86.234421
943.000000	86.329605
942.000000	86.430124
941.000000	86.529093
940.000000	86.621798
939.000000	86.714460
938.000000	86.810318
937.000000	86.902089
936.000000	86.986293
935.000000	87.071550
934.000000	87.165118
933.000000	87.263410
932.000000	87.361816
931.000000	87.461073
930.000000	87.558934
929.000000	87.649338
928.000000	87.735221
927.000000	87.828294
926.000000	87.930430
925.000000	88.028828
924.000000	88.114922
923.000000	88.194456
922.000000	88.273970
921.000000	88.351690
920.000000	88.427502
919.000000	88.507624
918.000000	88.592823
917.000000	88.675118
916.000000	88.751988
915.000000	88.831180
914.000000	88.916936
913.000000	89.005622
912.000000	89.099926
911.000000	89.212255
910.000000	89.347568
909.000000	89.497095
908.000000	89.655297
907.000000	89.829088
906.000000	90.023823
905.000000	90.234326
904.000000	90.456288
903.000000	90.693125
902.000000	90.944926
901.000000	91.202792
900.000000	91.459815
899.000000	91.716224
898.000000	91.969793
897.000000	92.213912
896.000000	92.449122
895.000000	92.683566
894.000000	92.917587
893.000000	93.140936
892.000000	93.350095
891.000000	93.555078
890.000000	93.762857
889.000000	93.966169
888.000000	94.155483
887.000000	94.330881
886.000000	94.495778
885.000000	94.650028
884.000000	94.796672
883.000000	94.945413
882.000000	95.101180
881.000000	95.257608
880.000000	95.408814
879.000000	95.559087
878.000000	95.714341
877.000000	95.872711
876.000000	96.030694
875.000000	96.190498
874.000000	96.354671
873.000000	96.520750
872.000000	96.686590
871.000000	96.853652
870.000000	97.020886
869.000000	97.183511
868.000000	97.342169
867.000000	97.505127
866.000000	97.676288
865.000000	97.847645
864.000000	98.008253
863.000000	98.154781
862.000000	98.289634
861.000000	98.415035
860.000000	98.533886
859.000000	98.651476
858.000000	98.770989
857.000000	98.890161
856.000000	99.005539
855.000000	99.116817
854.000000	99.224728
853.000000	99.328055
852.000000	99.424586
851.000000	99.511884
850.000000	99.586581
849.000000	99.647161
848.000000	99.698178
847.000000	99.747037
846.000000	99.795051
845.000000	99.835311
844.000000	99.859397
843.000000	99.862028
842.000000	99.840770
841.000000	99.797643
840.000000	99.741011
839.000000	99.679668
838.000000	99.614793
837.000000	99.543397
836.000000	99.468096
835.000000	99.395155
834.000000	99.323904
833.000000	99.249343
832.000000	99.177339
831.000000	99.125587
830.000000	99.104493
829.000000	99.107663
828.000000	99.127031
827.000000	99.165177
826.000000	99.222705
825.000000	99.283551
824.000000	99.325803
823.000000	99.342639
822.000000	99.343585
821.000000	99.339599
820.000000	99.334245
819.000000	99.324764
818.000000	99.304439
817.000000	99.265572
816.000000	99.203111
815.000000	99.113348
814.000000	98.988602
813.000000	98.816969
812.000000	98.588152
811.000000	98.296467
810.000000	97.939410
809.000000	97.518566
808.000000	97.041085
807.000000	96.513851
806.000000	95.937965
805.000000	95.319191
804.000000	94.683887
803.000000	94.071651
802.000000	93.510017
801.000000	93.010856
800.000000	92.592965
799.000000	92.286785
798.000000	92.108232
797.000000	92.045362
796.000000	92.077031
795.000000	92.185152
794.000000	92.341934
793.000000	92.507336
792.000000	92.652520
791.000000	92.772734
790.000000	92.869742
789.000000	92.935595
788.000000	92.960011
787.000000	92.938156
786.000000	92.862789
785.000000	92.723723
784.000000	92.526348
783.000000	92.299779
782.000000	92.076753
781.000000	91.875721
780.000000	91.710494
779.000000	91.603113
778.000000	91.573948
777.000000	91.627381
776.000000	91.755451
775.000000	91.945790
774.000000	92.179165
773.000000	92.430014
772.000000	92.677661
771.000000	92.911447
770.000000	93.123601
769.000000	93.306761
768.000000	93.460648
767.000000	93.590593
766.000000	93.696215
765.000000	93.771841
764.000000	93.822089
763.000000	93.866897
762.000000	93.925516
761.000000	94.002517
760.000000	94.091760
759.000000	94.185154
758.000000	94.275654
757.000000	94.361797
756.000000	94.451997
755.000000	94.555491
754.000000	94.668191
753.000000	94.777395
752.000000	94.879792
751.000000	94.982332
750.000000	95.085288
749.000000	95.179264
748.000000	95.262899
747.000000	95.350438
746.000000	95.456369
745.000000	95.583074
744.000000	95.727144
743.000000	95.886290
742.000000	96.056065
741.000000	96.230891
740.000000	96.411693
739.000000	96.601525
738.000000	96.791384
737.000000	96.962955
736.000000	97.108987
735.000000	97.238821
734.000000	97.360802
733.000000	97.471282
732.000000	97.565039
731.000000	97.644628
730.000000	97.713603
729.000000	97.770575
728.000000	97.816440
727.000000	97.859697
726.000000	97.908975
725.000000	97.966213
724.000000	98.029694
723.000000	98.096524
722.000000	98.161682
721.000000	98.224570
720.000000	98.297331
719.000000	98.394640
718.000000	98.512677
717.000000	98.630244
716.000000	98.732691
715.000000	98.821887
714.000000	98.900228
713.000000	98.959523
712.000000	98.993292
711.000000	99.008767
710.000000	99.018411
709.000000	99.027678
708.000000	99.036275
707.000000	99.041515
706.000000	99.034059
705.000000	98.999737
704.000000	98.932029
703.000000	98.833537
702.000000	98.698861
701.000000	98.506461
700.000000	98.236682
699.000000	97.894131
698.000000	97.512450
697.000000	97.147577
696.000000	96.865943
695.000000	96.718625
694.000000	96.712665
693.000000	96.812737
692.000000	96.975134
691.000000	97.173156
690.000000	97.389355
689.000000	97.601985
688.000000	97.793640
687.000000	97.963546
686.000000	98.117686
685.000000	98.253679
684.000000	98.365162
683.000000	98.452873
682.000000	98.522914
681.000000	98.581749
680.000000	98.639661
679.000000	98.709148
678.000000	98.791870
677.000000	98.874074
676.000000	98.943107
675.000000	99.002468
674.000000	99.063790
673.000000	99.133639
672.000000	99.214553
671.000000	99.309365
670.000000	99.415082
669.000000	99.520934
668.000000	99.611747
667.000000	99.669884
666.000000	99.706211
665.000000	99.750885
664.000000	99.817230
663.000000	99.902419
662.000000	99.983943
661.000000	100.031109
660.000000	100.034136
659.000000	100.014717
658.000000	99.998144
657.000000	99.982628
656.000000	99.951509
655.000000	99.907955
654.000000	99.875268
653.000000	99.866729
652.000000	99.875948
651.000000	99.894385
650.000000	99.918704
649.000000	99.943967
648.000000	99.967827
647.000000	100.000306
646.000000	100.053082
645.000000	100.120758
644.000000	100.188708
643.000000	100.258810
642.000000	100.352608
641.000000	100.484781
640.000000	100.641198
639.000000	100.785198
638.000000	100.886487
637.000000	100.944135
636.000000	100.979583
635.000000	101.010155
634.000000	101.033753
633.000000	101.042955
632.000000	101.049231
631.000000	101.081035
630.000000	101.155059
629.000000	101.260778
628.000000	101.378577
627.000000	101.500421
626.000000	101.626290
625.000000	101.750335
624.000000	101.858806
623.000000	101.937617
622.000000	101.980934
621.000000	101.998653
620.000000	102.012994
619.000000	102.038531
618.000000	102.065421
617.000000	102.073463
616.000000	102.061877
615.000000	102.049349
614.000000	102.042187
613.000000	102.020721
612.000000	101.964429
611.000000	101.875885
610.000000	101.775929
609.000000	101.687006
608.000000	101.627174
607.000000	101.604245
606.000000	101.599974
605.000000	101.574587
604.000000	101.500865
603.000000	101.388553
602.000000	101.277861
601.000000	101.217875
600.000000	101.242894
599.000000	101.340688
598.000000	101.440500
597.000000	101.468179
596.000000	101.418303
595.000000	101.351530
594.000000	101.325709
593.000000	101.352120
592.000000	101.416960
591.000000	101.501466
590.000000	101.572909
589.000000	101.605068
588.000000	101.620693
587.000000	101.675214
586.000000	101.780898
585.000000	101.882406
584.000000	101.929927
583.000000	101.935367
582.000000	101.931487
581.000000	101.918495
580.000000	101.889833
579.000000	101.881370
578.000000	101.946518
577.000000	102.094940
576.000000	102.283233
575.000000	102.438019
574.000000	102.485611
573.000000	102.398048
572.000000	102.225855
571.000000	102.076994
570.000000	102.022183
569.000000	102.028708
568.000000	102.023689
567.000000	101.982578
566.000000	101.926821
565.000000	101.880391
564.000000	101.865166
563.000000	101.898163
562.000000	101.952583
561.000000	101.966103
560.000000	101.917703
559.000000	101.852114
558.000000	101.804905
557.000000	101.754661
556.000000	101.687106
555.000000	101.644450
554.000000	101.661312
553.000000	101.711237
552.000000	101.763259
551.000000	101.830155
550.000000	101.907375
