PE IR       SUBTECH     SPECTRUM    ASCII       PEDS        4.00        
   -1
BH1 8-3 12 0_1.asc
24/05/14
14:24:58.00
24/05/14
14:25:07.00
Administrator
?品 061 用? Administrator 日期 Tuesday, May 14 2024
550.000000
#HDR
-1
-1
#GR
cm-1
%T
1.0
0.0
4000.000000
-1.000000
3451
8
100.719357
83.329635
#DATA
4000.000000	100.274650
3999.000000	100.274904
3998.000000	100.275179
3997.000000	100.275399
3996.000000	100.275519
3995.000000	100.275504
3994.000000	100.275283
3993.000000	100.274696
3992.000000	100.273651
3991.000000	100.272344
3990.000000	100.271154
3989.000000	100.270333
3988.000000	100.269875
3987.000000	100.269555
3986.000000	100.269073
3985.000000	100.268217
3984.000000	100.267002
3983.000000	100.265709
3982.000000	100.264725
3981.000000	100.264256
3980.000000	100.264223
3979.000000	100.264375
3978.000000	100.264460
3977.000000	100.264313
3976.000000	100.263904
3975.000000	100.263337
3974.000000	100.262790
3973.000000	100.262416
3972.000000	100.262306
3971.000000	100.262478
3970.000000	100.262863
3969.000000	100.263289
3968.000000	100.263517
3967.000000	100.263336
3966.000000	100.262668
3965.000000	100.261648
3964.000000	100.260640
3963.000000	100.260034
3962.000000	100.259927
3961.000000	100.260028
3960.000000	100.259879
3959.000000	100.259255
3958.000000	100.258324
3957.000000	100.257491
3956.000000	100.257069
3955.000000	100.257064
3954.000000	100.257207
3953.000000	100.257180
3952.000000	100.256843
3951.000000	100.256254
3950.000000	100.255572
3949.000000	100.254935
3948.000000	100.254394
3947.000000	100.253865
3946.000000	100.253152
3945.000000	100.252135
3944.000000	100.251043
3943.000000	100.250477
3942.000000	100.250925
3941.000000	100.252300
3940.000000	100.253977
3939.000000	100.255229
3938.000000	100.255656
3937.000000	100.255292
3936.000000	100.254501
3935.000000	100.253727
3934.000000	100.253195
3933.000000	100.252852
3932.000000	100.252537
3931.000000	100.252153
3930.000000	100.251623
3929.000000	100.250804
3928.000000	100.249631
3927.000000	100.248349
3926.000000	100.247446
3925.000000	100.247228
3924.000000	100.247576
3923.000000	100.248037
3922.000000	100.248157
3921.000000	100.247746
3920.000000	100.246956
3919.000000	100.246201
3918.000000	100.245809
3917.000000	100.245776
3916.000000	100.245879
3915.000000	100.245954
3914.000000	100.245973
3913.000000	100.245893
3912.000000	100.245666
3911.000000	100.245323
3910.000000	100.244966
3909.000000	100.244686
3908.000000	100.244537
3907.000000	100.244545
3906.000000	100.244673
3905.000000	100.244786
3904.000000	100.244730
3903.000000	100.244493
3902.000000	100.244196
3901.000000	100.243963
3900.000000	100.243819
3899.000000	100.243725
3898.000000	100.243622
3897.000000	100.243466
3896.000000	100.243251
3895.000000	100.242999
3894.000000	100.242741
3893.000000	100.242499
3892.000000	100.242284
3891.000000	100.242095
3890.000000	100.241924
3889.000000	100.241770
3888.000000	100.241641
3887.000000	100.241548
3886.000000	100.241501
3885.000000	100.241514
3884.000000	100.241600
3883.000000	100.241763
3882.000000	100.241972
3881.000000	100.242154
3880.000000	100.242222
3879.000000	100.242187
3878.000000	100.242234
3877.000000	100.242574
3876.000000	100.243278
3875.000000	100.244174
3874.000000	100.244878
3873.000000	100.245106
3872.000000	100.244984
3871.000000	100.244973
3870.000000	100.245375
3869.000000	100.246114
3868.000000	100.247097
3867.000000	100.248301
3866.000000	100.249277
3865.000000	100.249258
3864.000000	100.248254
3863.000000	100.247434
3862.000000	100.247920
3861.000000	100.249607
3860.000000	100.251535
3859.000000	100.252829
3858.000000	100.253088
3857.000000	100.252241
3856.000000	100.250523
3855.000000	100.248340
3854.000000	100.246154
3853.000000	100.244815
3852.000000	100.245739
3851.000000	100.249154
3850.000000	100.252976
3849.000000	100.254863
3848.000000	100.254842
3847.000000	100.255056
3846.000000	100.257467
3845.000000	100.262158
3844.000000	100.267607
3843.000000	100.271957
3842.000000	100.274580
3841.000000	100.276310
3840.000000	100.278022
3839.000000	100.279330
3838.000000	100.279246
3837.000000	100.277572
3836.000000	100.275137
3835.000000	100.272786
3834.000000	100.270812
3833.000000	100.269086
3832.000000	100.267387
3831.000000	100.265826
3830.000000	100.264864
3829.000000	100.264737
3828.000000	100.265233
3827.000000	100.265710
3826.000000	100.265532
3825.000000	100.264823
3824.000000	100.264605
3823.000000	100.265708
3822.000000	100.267694
3821.000000	100.269021
3820.000000	100.269034
3819.000000	100.268999
3818.000000	100.269892
3817.000000	100.270770
3816.000000	100.269738
3815.000000	100.266260
3814.000000	100.262079
3813.000000	100.259135
3812.000000	100.257722
3811.000000	100.257379
3810.000000	100.258089
3809.000000	100.260173
3808.000000	100.263391
3807.000000	100.266504
3806.000000	100.268423
3805.000000	100.269209
3804.000000	100.269291
3803.000000	100.268361
3802.000000	100.265761
3801.000000	100.261687
3800.000000	100.257787
3799.000000	100.255852
3798.000000	100.256216
3797.000000	100.258021
3796.000000	100.259917
3795.000000	100.260819
3794.000000	100.260379
3793.000000	100.258778
3792.000000	100.256416
3791.000000	100.253854
3790.000000	100.251632
3789.000000	100.250005
3788.000000	100.249004
3787.000000	100.248693
3786.000000	100.249211
3785.000000	100.250466
3784.000000	100.252053
3783.000000	100.253610
3782.000000	100.255007
3781.000000	100.255992
3780.000000	100.256076
3779.000000	100.255008
3778.000000	100.253412
3777.000000	100.252489
3776.000000	100.252905
3775.000000	100.254125
3774.000000	100.255045
3773.000000	100.255274
3772.000000	100.255574
3771.000000	100.256766
3770.000000	100.258468
3769.000000	100.259367
3768.000000	100.258533
3767.000000	100.256015
3766.000000	100.252515
3765.000000	100.248952
3764.000000	100.246262
3763.000000	100.245348
3762.000000	100.246718
3761.000000	100.249938
3760.000000	100.254099
3759.000000	100.258805
3758.000000	100.263910
3757.000000	100.268352
3756.000000	100.270628
3755.000000	100.270606
3754.000000	100.269696
3753.000000	100.268686
3752.000000	100.266186
3751.000000	100.260826
3750.000000	100.254277
3749.000000	100.249273
3748.000000	100.246301
3747.000000	100.244839
3746.000000	100.244870
3745.000000	100.246161
3744.000000	100.247664
3743.000000	100.249459
3742.000000	100.252655
3741.000000	100.256077
3740.000000	100.257480
3739.000000	100.257100
3738.000000	100.257048
3737.000000	100.257846
3736.000000	100.257271
3735.000000	100.253952
3734.000000	100.249990
3733.000000	100.247692
3732.000000	100.246386
3731.000000	100.244399
3730.000000	100.241766
3729.000000	100.240161
3728.000000	100.240806
3727.000000	100.243216
3726.000000	100.245936
3725.000000	100.248254
3724.000000	100.250300
3723.000000	100.251735
3722.000000	100.252092
3721.000000	100.251305
3720.000000	100.249476
3719.000000	100.246644
3718.000000	100.242617
3717.000000	100.237199
3716.000000	100.231013
3715.000000	100.225734
3714.000000	100.222772
3713.000000	100.221574
3712.000000	100.219891
3711.000000	100.216143
3710.000000	100.211079
3709.000000	100.206586
3708.000000	100.203655
3707.000000	100.202105
3706.000000	100.201290
3705.000000	100.200092
3704.000000	100.196582
3703.000000	100.188743
3702.000000	100.176866
3701.000000	100.164491
3700.000000	100.155580
3699.000000	100.151433
3698.000000	100.150670
3697.000000	100.151267
3696.000000	100.152596
3695.000000	100.155496
3694.000000	100.160118
3693.000000	100.164485
3692.000000	100.166092
3691.000000	100.164227
3690.000000	100.160024
3689.000000	100.154727
3688.000000	100.148817
3687.000000	100.142506
3686.000000	100.135801
3685.000000	100.127831
3684.000000	100.117268
3683.000000	100.104216
3682.000000	100.091289
3681.000000	100.082217
3680.000000	100.078820
3679.000000	100.080337
3678.000000	100.084876
3677.000000	100.088450
3676.000000	100.084359
3675.000000	100.069835
3674.000000	100.051074
3673.000000	100.035554
3672.000000	100.023583
3671.000000	100.009802
3670.000000	99.990225
3669.000000	99.967571
3668.000000	99.948458
3667.000000	99.935794
3666.000000	99.927539
3665.000000	99.920375
3664.000000	99.911920
3663.000000	99.901240
3662.000000	99.888610
3661.000000	99.875259
3660.000000	99.862785
3659.000000	99.852579
3658.000000	99.844955
3657.000000	99.838649
3656.000000	99.831937
3655.000000	99.825092
3654.000000	99.820263
3653.000000	99.818531
3652.000000	99.817973
3651.000000	99.813819
3650.000000	99.801475
3649.000000	99.781876
3648.000000	99.761713
3647.000000	99.745795
3646.000000	99.733101
3645.000000	99.719987
3644.000000	99.704230
3643.000000	99.686854
3642.000000	99.671503
3641.000000	99.661924
3640.000000	99.659003
3639.000000	99.659641
3638.000000	99.658632
3637.000000	99.652368
3636.000000	99.640681
3635.000000	99.625566
3634.000000	99.609091
3633.000000	99.593137
3632.000000	99.580081
3631.000000	99.572105
3630.000000	99.568440
3629.000000	99.564591
3628.000000	99.558476
3627.000000	99.553447
3626.000000	99.551407
3625.000000	99.550368
3624.000000	99.548794
3623.000000	99.547935
3622.000000	99.550663
3621.000000	99.558239
3620.000000	99.567785
3619.000000	99.573930
3618.000000	99.574233
3617.000000	99.571840
3616.000000	99.572862
3615.000000	99.581580
3614.000000	99.597116
3613.000000	99.614211
3612.000000	99.628367
3611.000000	99.639463
3610.000000	99.649594
3609.000000	99.659240
3608.000000	99.667589
3607.000000	99.675638
3606.000000	99.685996
3605.000000	99.699563
3604.000000	99.714444
3603.000000	99.728201
3602.000000	99.740159
3601.000000	99.750558
3600.000000	99.758284
3599.000000	99.761236
3598.000000	99.758723
3597.000000	99.753214
3596.000000	99.749310
3595.000000	99.749998
3594.000000	99.754417
3593.000000	99.759518
3592.000000	99.762550
3591.000000	99.762256
3590.000000	99.759109
3589.000000	99.755166
3588.000000	99.753108
3587.000000	99.754536
3586.000000	99.758585
3585.000000	99.762651
3584.000000	99.764772
3583.000000	99.765083
3582.000000	99.764716
3581.000000	99.764071
3580.000000	99.762724
3579.000000	99.760626
3578.000000	99.758360
3577.000000	99.756101
3576.000000	99.753212
3575.000000	99.749274
3574.000000	99.745158
3573.000000	99.742740
3572.000000	99.743353
3571.000000	99.746614
3570.000000	99.750703
3569.000000	99.753068
3568.000000	99.751477
3567.000000	99.746196
3566.000000	99.740844
3565.000000	99.738932
3564.000000	99.740363
3563.000000	99.742311
3562.000000	99.742405
3561.000000	99.740654
3560.000000	99.738658
3559.000000	99.737461
3558.000000	99.736695
3557.000000	99.735737
3556.000000	99.734821
3555.000000	99.734398
3554.000000	99.733719
3553.000000	99.731102
3552.000000	99.726081
3551.000000	99.720658
3550.000000	99.717564
3549.000000	99.717689
3548.000000	99.719606
3547.000000	99.721248
3546.000000	99.721911
3545.000000	99.722475
3544.000000	99.723942
3543.000000	99.726441
3542.000000	99.729375
3541.000000	99.731835
3540.000000	99.732836
3539.000000	99.731767
3538.000000	99.728988
3537.000000	99.725891
3536.000000	99.723959
3535.000000	99.723642
3534.000000	99.724394
3533.000000	99.725630
3532.000000	99.727273
3531.000000	99.729327
3530.000000	99.731272
3529.000000	99.732278
3528.000000	99.731966
3527.000000	99.730735
3526.000000	99.729248
3525.000000	99.727774
3524.000000	99.726207
3523.000000	99.724718
3522.000000	99.724139
3521.000000	99.725458
3520.000000	99.728925
3519.000000	99.733721
3518.000000	99.738504
3517.000000	99.742463
3516.000000	99.745621
3515.000000	99.748099
3514.000000	99.749581
3513.000000	99.749825
3512.000000	99.749276
3511.000000	99.748713
3510.000000	99.748381
3509.000000	99.748055
3508.000000	99.747869
3507.000000	99.748462
3506.000000	99.750102
3505.000000	99.752074
3504.000000	99.753189
3503.000000	99.752807
3502.000000	99.751187
3501.000000	99.749164
3500.000000	99.747724
3499.000000	99.747544
3498.000000	99.748469
3497.000000	99.749475
3496.000000	99.749704
3495.000000	99.749565
3494.000000	99.750293
3493.000000	99.752452
3492.000000	99.755290
3491.000000	99.757553
3490.000000	99.758547
3489.000000	99.758288
3488.000000	99.757140
3487.000000	99.755739
3486.000000	99.754932
3485.000000	99.755224
3484.000000	99.756272
3483.000000	99.757151
3482.000000	99.757172
3481.000000	99.756267
3480.000000	99.754660
3479.000000	99.752574
3478.000000	99.750397
3477.000000	99.748812
3476.000000	99.748382
3475.000000	99.749001
3474.000000	99.749987
3473.000000	99.750692
3472.000000	99.750941
3471.000000	99.751030
3470.000000	99.751382
3469.000000	99.752165
3468.000000	99.753030
3467.000000	99.753260
3466.000000	99.752371
3465.000000	99.750608
3464.000000	99.748808
3463.000000	99.747727
3462.000000	99.747500
3461.000000	99.747750
3460.000000	99.747978
3459.000000	99.747831
3458.000000	99.747141
3457.000000	99.745950
3456.000000	99.744560
3455.000000	99.743392
3454.000000	99.742658
3453.000000	99.742176
3452.000000	99.741552
3451.000000	99.740598
3450.000000	99.739522
3449.000000	99.738731
3448.000000	99.738511
3447.000000	99.738911
3446.000000	99.739792
3445.000000	99.740891
3444.000000	99.741832
3443.000000	99.742261
3442.000000	99.742063
3441.000000	99.741437
3440.000000	99.740693
3439.000000	99.739950
3438.000000	99.739062
3437.000000	99.737850
3436.000000	99.736407
3435.000000	99.735204
3434.000000	99.734790
3433.000000	99.735294
3432.000000	99.736235
3431.000000	99.736773
3430.000000	99.736450
3429.000000	99.735478
3428.000000	99.734497
3427.000000	99.733960
3426.000000	99.733806
3425.000000	99.733723
3424.000000	99.733554
3423.000000	99.733393
3422.000000	99.733400
3421.000000	99.733614
3420.000000	99.733909
3419.000000	99.734063
3418.000000	99.733898
3417.000000	99.733443
3416.000000	99.732983
3415.000000	99.732849
3414.000000	99.733156
3413.000000	99.733784
3412.000000	99.734565
3411.000000	99.735363
3410.000000	99.736032
3409.000000	99.736461
3408.000000	99.736738
3407.000000	99.737133
3406.000000	99.737810
3405.000000	99.738599
3404.000000	99.739196
3403.000000	99.739572
3402.000000	99.740034
3401.000000	99.740829
3400.000000	99.741864
3399.000000	99.742904
3398.000000	99.743900
3397.000000	99.744975
3396.000000	99.746141
3395.000000	99.747186
3394.000000	99.747941
3393.000000	99.748592
3392.000000	99.749594
3391.000000	99.751212
3390.000000	99.753187
3389.000000	99.754910
3388.000000	99.755981
3387.000000	99.756483
3386.000000	99.756790
3385.000000	99.757129
3384.000000	99.757525
3383.000000	99.758106
3382.000000	99.759210
3381.000000	99.761053
3380.000000	99.763393
3379.000000	99.765604
3378.000000	99.767222
3377.000000	99.768244
3376.000000	99.768941
3375.000000	99.769566
3374.000000	99.770257
3373.000000	99.771164
3372.000000	99.772452
3371.000000	99.774162
3370.000000	99.776123
3369.000000	99.778046
3368.000000	99.779635
3367.000000	99.780648
3366.000000	99.780978
3365.000000	99.780793
3364.000000	99.780558
3363.000000	99.780780
3362.000000	99.781642
3361.000000	99.782868
3360.000000	99.783915
3359.000000	99.784427
3358.000000	99.784557
3357.000000	99.784833
3356.000000	99.785650
3355.000000	99.786872
3354.000000	99.787980
3353.000000	99.788629
3352.000000	99.788980
3351.000000	99.789507
3350.000000	99.790559
3349.000000	99.792155
3348.000000	99.794050
3347.000000	99.795884
3346.000000	99.797338
3345.000000	99.798295
3344.000000	99.798923
3343.000000	99.799595
3342.000000	99.800682
3341.000000	99.802327
3340.000000	99.804245
3339.000000	99.805711
3338.000000	99.805968
3337.000000	99.804821
3336.000000	99.802917
3335.000000	99.801420
3334.000000	99.801209
3333.000000	99.802463
3332.000000	99.804774
3331.000000	99.807359
3330.000000	99.809334
3329.000000	99.810183
3328.000000	99.810204
3327.000000	99.810390
3326.000000	99.811628
3325.000000	99.814029
3324.000000	99.817009
3323.000000	99.819841
3322.000000	99.822036
3321.000000	99.823413
3320.000000	99.824118
3319.000000	99.824656
3318.000000	99.825641
3317.000000	99.827363
3316.000000	99.829633
3315.000000	99.832091
3314.000000	99.834544
3313.000000	99.836907
3312.000000	99.838906
3311.000000	99.840048
3310.000000	99.840083
3309.000000	99.839398
3308.000000	99.838755
3307.000000	99.838619
3306.000000	99.838983
3305.000000	99.840013
3304.000000	99.842428
3303.000000	99.846649
3302.000000	99.851646
3301.000000	99.855349
3300.000000	99.856722
3299.000000	99.856909
3298.000000	99.857976
3297.000000	99.860602
3296.000000	99.863593
3295.000000	99.865504
3294.000000	99.865910
3293.000000	99.865057
3292.000000	99.863209
3291.000000	99.860827
3290.000000	99.858760
3289.000000	99.857627
3288.000000	99.857292
3287.000000	99.857280
3286.000000	99.857516
3285.000000	99.858365
3284.000000	99.860117
3283.000000	99.862641
3282.000000	99.865317
3281.000000	99.867178
3280.000000	99.867494
3279.000000	99.866620
3278.000000	99.866035
3277.000000	99.866930
3276.000000	99.868823
3275.000000	99.870019
3274.000000	99.869568
3273.000000	99.868347
3272.000000	99.868059
3271.000000	99.869475
3270.000000	99.871981
3269.000000	99.874352
3268.000000	99.875830
3267.000000	99.876574
3266.000000	99.877359
3265.000000	99.878820
3264.000000	99.880853
3263.000000	99.882753
3262.000000	99.883975
3261.000000	99.884640
3260.000000	99.885207
3259.000000	99.885935
3258.000000	99.886804
3257.000000	99.887723
3256.000000	99.888576
3255.000000	99.889210
3254.000000	99.889616
3253.000000	99.890036
3252.000000	99.890738
3251.000000	99.891726
3250.000000	99.892774
3249.000000	99.893703
3248.000000	99.894578
3247.000000	99.895595
3246.000000	99.896835
3245.000000	99.898190
3244.000000	99.899485
3243.000000	99.900638
3242.000000	99.901702
3241.000000	99.902777
3240.000000	99.903879
3239.000000	99.904913
3238.000000	99.905807
3237.000000	99.906620
3236.000000	99.907468
3235.000000	99.908348
3234.000000	99.909173
3233.000000	99.909952
3232.000000	99.910860
3231.000000	99.912042
3230.000000	99.913435
3229.000000	99.914842
3228.000000	99.916097
3227.000000	99.917158
3226.000000	99.918078
3225.000000	99.918967
3224.000000	99.919942
3223.000000	99.921037
3222.000000	99.922162
3221.000000	99.923148
3220.000000	99.923927
3219.000000	99.924566
3218.000000	99.925216
3217.000000	99.925996
3216.000000	99.926919
3215.000000	99.927928
3214.000000	99.928935
3213.000000	99.929896
3212.000000	99.930832
3211.000000	99.931790
3210.000000	99.932799
3209.000000	99.933838
3208.000000	99.934856
3207.000000	99.935810
3206.000000	99.936695
3205.000000	99.937550
3204.000000	99.938428
3203.000000	99.939353
3202.000000	99.940315
3201.000000	99.941296
3200.000000	99.942281
3199.000000	99.943241
3198.000000	99.944145
3197.000000	99.944999
3196.000000	99.945859
3195.000000	99.946775
3194.000000	99.947741
3193.000000	99.948709
3192.000000	99.949650
3191.000000	99.950576
3190.000000	99.951488
3189.000000	99.952344
3188.000000	99.953093
3187.000000	99.953753
3186.000000	99.954415
3185.000000	99.955187
3184.000000	99.956129
3183.000000	99.957211
3182.000000	99.958325
3181.000000	99.959375
3180.000000	99.960361
3179.000000	99.961352
3178.000000	99.962336
3177.000000	99.963184
3176.000000	99.963800
3175.000000	99.964234
3174.000000	99.964659
3173.000000	99.965258
3172.000000	99.966121
3171.000000	99.967209
3170.000000	99.968339
3169.000000	99.969290
3168.000000	99.969998
3167.000000	99.970583
3166.000000	99.971188
3165.000000	99.971890
3164.000000	99.972778
3163.000000	99.973947
3162.000000	99.975322
3161.000000	99.976585
3160.000000	99.977458
3159.000000	99.978005
3158.000000	99.978586
3157.000000	99.979522
3156.000000	99.980905
3155.000000	99.982663
3154.000000	99.984622
3153.000000	99.986480
3152.000000	99.987886
3151.000000	99.988658
3150.000000	99.988864
3149.000000	99.988711
3148.000000	99.988463
3147.000000	99.988462
3146.000000	99.989076
3145.000000	99.990487
3144.000000	99.992498
3143.000000	99.994586
3142.000000	99.996222
3141.000000	99.997205
3140.000000	99.997710
3139.000000	99.998110
3138.000000	99.998653
3137.000000	99.999333
3136.000000	100.000040
3135.000000	100.000756
3134.000000	100.001534
3133.000000	100.002368
3132.000000	100.003268
3131.000000	100.004471
3130.000000	100.006336
3129.000000	100.008895
3128.000000	100.011589
3127.000000	100.013636
3126.000000	100.014753
3125.000000	100.015422
3124.000000	100.016469
3123.000000	100.018262
3122.000000	100.020382
3121.000000	100.022064
3120.000000	100.022926
3119.000000	100.023220
3118.000000	100.023490
3117.000000	100.024035
3116.000000	100.024751
3115.000000	100.025401
3114.000000	100.025941
3113.000000	100.026559
3112.000000	100.027500
3111.000000	100.028896
3110.000000	100.030746
3109.000000	100.032952
3108.000000	100.035281
3107.000000	100.037319
3106.000000	100.038642
3105.000000	100.039141
3104.000000	100.039195
3103.000000	100.039435
3102.000000	100.040217
3101.000000	100.041454
3100.000000	100.042916
3099.000000	100.044514
3098.000000	100.046196
3097.000000	100.047792
3096.000000	100.049149
3095.000000	100.050326
3094.000000	100.051465
3093.000000	100.052517
3092.000000	100.053311
3091.000000	100.053862
3090.000000	100.054406
3089.000000	100.055106
3088.000000	100.055894
3087.000000	100.056632
3086.000000	100.057297
3085.000000	100.057951
3084.000000	100.058651
3083.000000	100.059465
3082.000000	100.060460
3081.000000	100.061547
3080.000000	100.062432
3079.000000	100.062946
3078.000000	100.063353
3077.000000	100.064075
3076.000000	100.065041
3075.000000	100.065642
3074.000000	100.065502
3073.000000	100.065112
3072.000000	100.065405
3071.000000	100.066759
3070.000000	100.068700
3069.000000	100.070444
3068.000000	100.071649
3067.000000	100.072461
3066.000000	100.073101
3065.000000	100.073671
3064.000000	100.074280
3063.000000	100.075057
3062.000000	100.075925
3061.000000	100.076546
3060.000000	100.076647
3059.000000	100.076345
3058.000000	100.076082
3057.000000	100.076307
3056.000000	100.077319
3055.000000	100.079227
3054.000000	100.081761
3053.000000	100.084085
3052.000000	100.085152
3051.000000	100.084461
3050.000000	100.082459
3049.000000	100.080178
3048.000000	100.078448
3047.000000	100.077506
3046.000000	100.077126
3045.000000	100.076916
3044.000000	100.076735
3043.000000	100.077021
3042.000000	100.078475
3041.000000	100.081252
3040.000000	100.084707
3039.000000	100.088178
3038.000000	100.091659
3037.000000	100.095275
3036.000000	100.098414
3035.000000	100.100082
3034.000000	100.100147
3033.000000	100.099699
3032.000000	100.099983
3031.000000	100.101296
3030.000000	100.102993
3029.000000	100.104246
3028.000000	100.104738
3027.000000	100.104973
3026.000000	100.105927
3025.000000	100.107992
3024.000000	100.110270
3023.000000	100.111476
3022.000000	100.111615
3021.000000	100.112015
3020.000000	100.113483
3019.000000	100.115339
3018.000000	100.116734
3017.000000	100.117917
3016.000000	100.119349
3015.000000	100.120496
3014.000000	100.120798
3013.000000	100.121392
3012.000000	100.124536
3011.000000	100.131288
3010.000000	100.140482
3009.000000	100.149808
3008.000000	100.157043
3007.000000	100.160603
3006.000000	100.160195
3005.000000	100.157417
3004.000000	100.154961
3003.000000	100.154638
3002.000000	100.156398
3001.000000	100.159178
3000.000000	100.162243
2999.000000	100.165642
2998.000000	100.169773
2997.000000	100.174580
2996.000000	100.179082
2995.000000	100.182180
2994.000000	100.184468
2993.000000	100.188646
2992.000000	100.197082
2991.000000	100.208952
2990.000000	100.220553
2989.000000	100.228419
2988.000000	100.231517
2987.000000	100.230968
2986.000000	100.229050
2985.000000	100.228387
2984.000000	100.230488
2983.000000	100.234293
2982.000000	100.237317
2981.000000	100.238749
2980.000000	100.240297
2979.000000	100.243189
2978.000000	100.245709
2977.000000	100.245150
2976.000000	100.241255
2975.000000	100.235970
2974.000000	100.229854
2973.000000	100.220523
2972.000000	100.205404
2971.000000	100.185061
2970.000000	100.163011
2969.000000	100.142512
2968.000000	100.124211
2967.000000	100.106897
2966.000000	100.089831
2965.000000	100.073650
2964.000000	100.059146
2963.000000	100.045981
2962.000000	100.033305
2961.000000	100.021319
2960.000000	100.011212
2959.000000	100.003404
2958.000000	99.996852
2957.000000	99.990718
2956.000000	99.985932
2955.000000	99.984118
2954.000000	99.985252
2953.000000	99.987420
2952.000000	99.988919
2951.000000	99.989767
2950.000000	99.990840
2949.000000	99.992191
2948.000000	99.992743
2947.000000	99.991294
2946.000000	99.987319
2945.000000	99.980676
2944.000000	99.970791
2943.000000	99.956597
2942.000000	99.937809
2941.000000	99.916327
2940.000000	99.895607
2939.000000	99.877761
2938.000000	99.861314
2937.000000	99.842456
2936.000000	99.818564
2935.000000	99.790166
2934.000000	99.759871
2933.000000	99.730666
2932.000000	99.705395
2931.000000	99.686169
2930.000000	99.672516
2929.000000	99.660595
2928.000000	99.646196
2927.000000	99.629297
2926.000000	99.614533
2925.000000	99.606678
2924.000000	99.606810
2923.000000	99.613370
2922.000000	99.625552
2921.000000	99.644253
2920.000000	99.670193
2919.000000	99.702462
2918.000000	99.738639
2917.000000	99.775224
2916.000000	99.808394
2915.000000	99.836122
2914.000000	99.860011
2913.000000	99.883609
2912.000000	99.908126
2911.000000	99.930815
2910.000000	99.948368
2909.000000	99.960756
2908.000000	99.970744
2907.000000	99.980598
2906.000000	99.990871
2905.000000	100.001801
2904.000000	100.013979
2903.000000	100.027140
2902.000000	100.039597
2901.000000	100.049451
2900.000000	100.056299
2899.000000	100.061362
2898.000000	100.066943
2897.000000	100.075274
2896.000000	100.086478
2895.000000	100.097332
2894.000000	100.103377
2893.000000	100.103421
2892.000000	100.101433
2891.000000	100.103276
2890.000000	100.111409
2889.000000	100.122818
2888.000000	100.131557
2887.000000	100.133426
2886.000000	100.129062
2885.000000	100.123452
2884.000000	100.121969
2883.000000	100.126191
2882.000000	100.133326
2881.000000	100.139258
2880.000000	100.141360
2879.000000	100.139023
2878.000000	100.133194
2877.000000	100.126119
2876.000000	100.120088
2875.000000	100.115383
2874.000000	100.110353
2873.000000	100.104255
2872.000000	100.098671
2871.000000	100.094821
2870.000000	100.090854
2869.000000	100.083982
2868.000000	100.074798
2867.000000	100.066989
2866.000000	100.062256
2865.000000	100.057642
2864.000000	100.049182
2863.000000	100.036734
2862.000000	100.023424
2861.000000	100.010810
2860.000000	99.996324
2859.000000	99.976117
2858.000000	99.949870
2857.000000	99.922275
2856.000000	99.899906
2855.000000	99.886727
2854.000000	99.882438
2853.000000	99.884446
2852.000000	99.890818
2851.000000	99.901232
2850.000000	99.915778
2849.000000	99.933943
2848.000000	99.954932
2847.000000	99.978166
2846.000000	100.002962
2845.000000	100.028003
2844.000000	100.051636
2843.000000	100.072887
2842.000000	100.092038
2841.000000	100.109881
2840.000000	100.126256
2839.000000	100.139660
2838.000000	100.148884
2837.000000	100.154955
2836.000000	100.160406
2835.000000	100.166073
2834.000000	100.169744
2833.000000	100.169066
2832.000000	100.165038
2831.000000	100.161093
2830.000000	100.159095
2829.000000	100.158119
2828.000000	100.157373
2827.000000	100.158168
2826.000000	100.161775
2825.000000	100.166898
2824.000000	100.171109
2823.000000	100.174093
2822.000000	100.177640
2821.000000	100.182551
2820.000000	100.187272
2819.000000	100.190065
2818.000000	100.191119
2817.000000	100.191698
2816.000000	100.192217
2815.000000	100.192346
2814.000000	100.192564
2813.000000	100.194369
2812.000000	100.198540
2811.000000	100.203825
2810.000000	100.207735
2809.000000	100.208476
2808.000000	100.206165
2807.000000	100.202735
2806.000000	100.200922
2805.000000	100.202715
2804.000000	100.207963
2803.000000	100.214197
2802.000000	100.218265
2801.000000	100.218806
2800.000000	100.217193
2799.000000	100.216102
2798.000000	100.217104
2797.000000	100.219666
2796.000000	100.222176
2795.000000	100.223558
2794.000000	100.223882
2793.000000	100.223766
2792.000000	100.223562
2791.000000	100.223169
2790.000000	100.222435
2789.000000	100.221617
2788.000000	100.221347
2787.000000	100.222098
2786.000000	100.223671
2785.000000	100.225264
2784.000000	100.226163
2783.000000	100.226421
2782.000000	100.226773
2781.000000	100.227857
2780.000000	100.229562
2779.000000	100.231149
2778.000000	100.232003
2777.000000	100.232136
2776.000000	100.231958
2775.000000	100.231765
2774.000000	100.231598
2773.000000	100.231542
2772.000000	100.231863
2771.000000	100.232715
2770.000000	100.233918
2769.000000	100.235234
2768.000000	100.236711
2767.000000	100.238482
2766.000000	100.240234
2765.000000	100.241180
2764.000000	100.240733
2763.000000	100.239076
2762.000000	100.237118
2761.000000	100.235827
2760.000000	100.235588
2759.000000	100.236225
2758.000000	100.237396
2757.000000	100.238977
2756.000000	100.241042
2755.000000	100.243438
2754.000000	100.245527
2753.000000	100.246509
2752.000000	100.246082
2751.000000	100.244762
2750.000000	100.243529
2749.000000	100.243060
2748.000000	100.243220
2747.000000	100.243281
2746.000000	100.242638
2745.000000	100.241330
2744.000000	100.239914
2743.000000	100.238960
2742.000000	100.238799
2741.000000	100.239554
2740.000000	100.241028
2739.000000	100.242613
2738.000000	100.243694
2737.000000	100.244292
2736.000000	100.245043
2735.000000	100.246354
2734.000000	100.247802
2733.000000	100.248593
2732.000000	100.248439
2731.000000	100.247766
2730.000000	100.247294
2729.000000	100.247564
2728.000000	100.248642
2727.000000	100.250014
2726.000000	100.250868
2725.000000	100.250755
2724.000000	100.249900
2723.000000	100.248777
2722.000000	100.247634
2721.000000	100.246633
2720.000000	100.246140
2719.000000	100.246446
2718.000000	100.247335
2717.000000	100.248274
2716.000000	100.248996
2715.000000	100.249539
2714.000000	100.249747
2713.000000	100.249290
2712.000000	100.248301
2711.000000	100.247558
2710.000000	100.247704
2709.000000	100.248477
2708.000000	100.248950
2707.000000	100.248487
2706.000000	100.247253
2705.000000	100.245945
2704.000000	100.245119
2703.000000	100.244825
2702.000000	100.244772
2701.000000	100.244706
2700.000000	100.244572
2699.000000	100.244335
2698.000000	100.243856
2697.000000	100.243104
2696.000000	100.242441
2695.000000	100.242420
2694.000000	100.243196
2693.000000	100.244275
2692.000000	100.244926
2691.000000	100.244744
2690.000000	100.243821
2689.000000	100.242680
2688.000000	100.241972
2687.000000	100.241945
2686.000000	100.242258
2685.000000	100.242447
2684.000000	100.242610
2683.000000	100.243256
2682.000000	100.244496
2681.000000	100.245728
2680.000000	100.246330
2679.000000	100.246326
2678.000000	100.246197
2677.000000	100.246250
2676.000000	100.246403
2675.000000	100.246511
2674.000000	100.246567
2673.000000	100.246611
2672.000000	100.246638
2671.000000	100.246634
2670.000000	100.246602
2669.000000	100.246575
2668.000000	100.246673
2667.000000	100.247079
2666.000000	100.247825
2665.000000	100.248644
2664.000000	100.249164
2663.000000	100.249257
2662.000000	100.249102
2661.000000	100.248934
2660.000000	100.248775
2659.000000	100.248426
2658.000000	100.247716
2657.000000	100.246837
2656.000000	100.246410
2655.000000	100.246942
2654.000000	100.248335
2653.000000	100.249911
2652.000000	100.251014
2651.000000	100.251514
2650.000000	100.251575
2649.000000	100.251314
2648.000000	100.250860
2647.000000	100.250529
2646.000000	100.250581
2645.000000	100.250882
2644.000000	100.251123
2643.000000	100.251357
2642.000000	100.251954
2641.000000	100.252908
2640.000000	100.253563
2639.000000	100.253382
2638.000000	100.252589
2637.000000	100.251911
2636.000000	100.251738
2635.000000	100.251908
2634.000000	100.252185
2633.000000	100.252501
2632.000000	100.252763
2631.000000	100.252796
2630.000000	100.252580
2629.000000	100.252272
2628.000000	100.251954
2627.000000	100.251595
2626.000000	100.251282
2625.000000	100.251148
2624.000000	100.251016
2623.000000	100.250466
2622.000000	100.249408
2621.000000	100.248277
2620.000000	100.247476
2619.000000	100.246995
2618.000000	100.246794
2617.000000	100.247096
2616.000000	100.247891
2615.000000	100.248594
2614.000000	100.248692
2613.000000	100.248474
2612.000000	100.248659
2611.000000	100.249423
2610.000000	100.250239
2609.000000	100.250586
2608.000000	100.250433
2607.000000	100.250056
2606.000000	100.249712
2605.000000	100.249582
2604.000000	100.249745
2603.000000	100.250071
2602.000000	100.250282
2601.000000	100.250185
2600.000000	100.249838
2599.000000	100.249533
2598.000000	100.249609
2597.000000	100.250156
2596.000000	100.250829
2595.000000	100.251134
2594.000000	100.250933
2593.000000	100.250543
2592.000000	100.250290
2591.000000	100.250065
2590.000000	100.249513
2589.000000	100.248500
2588.000000	100.247282
2587.000000	100.246330
2586.000000	100.246028
2585.000000	100.246467
2584.000000	100.247396
2583.000000	100.248399
2582.000000	100.249187
2581.000000	100.249717
2580.000000	100.250027
2579.000000	100.250084
2578.000000	100.249839
2577.000000	100.249370
2576.000000	100.248922
2575.000000	100.248765
2574.000000	100.249008
2573.000000	100.249523
2572.000000	100.249995
2571.000000	100.250173
2570.000000	100.250085
2569.000000	100.249969
2568.000000	100.250027
2567.000000	100.250256
2566.000000	100.250527
2565.000000	100.250760
2564.000000	100.250951
2563.000000	100.251070
2562.000000	100.251049
2561.000000	100.250876
2560.000000	100.250650
2559.000000	100.250492
2558.000000	100.250442
2557.000000	100.250439
2556.000000	100.250398
2555.000000	100.250297
2554.000000	100.250192
2553.000000	100.250157
2552.000000	100.250199
2551.000000	100.250267
2550.000000	100.250310
2549.000000	100.250331
2548.000000	100.250354
2547.000000	100.250388
2546.000000	100.250423
2545.000000	100.250454
2544.000000	100.250482
2543.000000	100.250508
2542.000000	100.250530
2541.000000	100.250547
2540.000000	100.250563
2539.000000	100.250580
2538.000000	100.250600
2537.000000	100.250623
2536.000000	100.250647
2535.000000	100.250665
2534.000000	100.250677
2533.000000	100.250679
2532.000000	100.250673
2531.000000	100.250661
2530.000000	100.250646
2529.000000	100.250633
2528.000000	100.250624
2527.000000	100.250615
2526.000000	100.250598
2525.000000	100.250568
2524.000000	100.250526
2523.000000	100.250478
2522.000000	100.250434
2521.000000	100.250400
2520.000000	100.250381
2519.000000	100.250376
2518.000000	100.250385
2517.000000	100.250407
2516.000000	100.250441
2515.000000	100.250483
2514.000000	100.250531
2513.000000	100.250582
2512.000000	100.250637
2511.000000	100.250695
2510.000000	100.250764
2509.000000	100.250859
2508.000000	100.251001
2507.000000	100.251189
2506.000000	100.251374
2505.000000	100.251486
2504.000000	100.251497
2503.000000	100.251470
2502.000000	100.251531
2501.000000	100.251772
2500.000000	100.252185
2499.000000	100.252633
2498.000000	100.252925
2497.000000	100.252929
2496.000000	100.252668
2495.000000	100.252368
2494.000000	100.252328
2493.000000	100.252672
2492.000000	100.253217
2491.000000	100.253628
2490.000000	100.253760
2489.000000	100.253790
2488.000000	100.253997
2487.000000	100.254484
2486.000000	100.255117
2485.000000	100.255622
2484.000000	100.255685
2483.000000	100.255083
2482.000000	100.253879
2481.000000	100.252493
2480.000000	100.251461
2479.000000	100.251169
2478.000000	100.251777
2477.000000	100.253228
2476.000000	100.255215
2475.000000	100.257227
2474.000000	100.258811
2473.000000	100.259865
2472.000000	100.260708
2471.000000	100.261894
2470.000000	100.263792
2469.000000	100.266075
2468.000000	100.267737
2467.000000	100.267993
2466.000000	100.267197
2465.000000	100.266542
2464.000000	100.266604
2463.000000	100.266764
2462.000000	100.266369
2461.000000	100.265821
2460.000000	100.265921
2459.000000	100.266607
2458.000000	100.267084
2457.000000	100.267083
2456.000000	100.267190
2455.000000	100.267829
2454.000000	100.268523
2453.000000	100.268479
2452.000000	100.267525
2451.000000	100.266259
2450.000000	100.265532
2449.000000	100.265844
2448.000000	100.267028
2447.000000	100.268280
2446.000000	100.268752
2445.000000	100.268360
2444.000000	100.267867
2443.000000	100.268098
2442.000000	100.269178
2441.000000	100.270598
2440.000000	100.271805
2439.000000	100.272616
2438.000000	100.273134
2437.000000	100.273496
2436.000000	100.273675
2435.000000	100.273464
2434.000000	100.272726
2433.000000	100.271714
2432.000000	100.271032
2431.000000	100.271102
2430.000000	100.271797
2429.000000	100.272704
2428.000000	100.273621
2427.000000	100.274609
2426.000000	100.275651
2425.000000	100.276454
2424.000000	100.276650
2423.000000	100.276055
2422.000000	100.274736
2421.000000	100.273042
2420.000000	100.271540
2419.000000	100.270724
2418.000000	100.270664
2417.000000	100.271014
2416.000000	100.271383
2415.000000	100.271706
2414.000000	100.272195
2413.000000	100.273033
2412.000000	100.274210
2411.000000	100.275555
2410.000000	100.276764
2409.000000	100.277415
2408.000000	100.277153
2407.000000	100.276013
2406.000000	100.274547
2405.000000	100.273443
2404.000000	100.272953
2403.000000	100.272909
2402.000000	100.273229
2401.000000	100.274062
2400.000000	100.275381
2399.000000	100.276664
2398.000000	100.277414
2397.000000	100.277813
2396.000000	100.278436
2395.000000	100.279434
2394.000000	100.280332
2393.000000	100.280647
2392.000000	100.280446
2391.000000	100.280210
2390.000000	100.280351
2389.000000	100.280928
2388.000000	100.281720
2387.000000	100.282399
2386.000000	100.282737
2385.000000	100.282747
2384.000000	100.282653
2383.000000	100.282668
2382.000000	100.282813
2381.000000	100.282994
2380.000000	100.283148
2379.000000	100.283287
2378.000000	100.283437
2377.000000	100.283597
2376.000000	100.283752
2375.000000	100.283887
2374.000000	100.283997
2373.000000	100.284078
2372.000000	100.284128
2371.000000	100.284149
2370.000000	100.284149
2369.000000	100.284133
2368.000000	100.284106
2367.000000	100.284073
2366.000000	100.284035
2365.000000	100.283990
2364.000000	100.283937
2363.000000	100.283869
2362.000000	100.283784
2361.000000	100.283672
2360.000000	100.283531
2359.000000	100.283360
2358.000000	100.283168
2357.000000	100.282964
2356.000000	100.282752
2355.000000	100.282533
2354.000000	100.282306
2353.000000	100.282071
2352.000000	100.281828
2351.000000	100.281580
2350.000000	100.281331
2349.000000	100.281082
2348.000000	100.280828
2347.000000	100.280557
2346.000000	100.280263
2345.000000	100.279952
2344.000000	100.279643
2343.000000	100.279356
2342.000000	100.279101
2341.000000	100.278873
2340.000000	100.278658
2339.000000	100.278440
2338.000000	100.278210
2337.000000	100.277968
2336.000000	100.277723
2335.000000	100.277482
2334.000000	100.277245
2333.000000	100.277014
2332.000000	100.276793
2331.000000	100.276590
2330.000000	100.276412
2329.000000	100.276258
2328.000000	100.276121
2327.000000	100.275991
2326.000000	100.275858
2325.000000	100.275719
2324.000000	100.275575
2323.000000	100.275427
2322.000000	100.275278
2321.000000	100.275130
2320.000000	100.274987
2319.000000	100.274850
2318.000000	100.274715
2317.000000	100.274574
2316.000000	100.274427
2315.000000	100.274274
2314.000000	100.274122
2313.000000	100.273973
2312.000000	100.273827
2311.000000	100.273680
2310.000000	100.273530
2309.000000	100.273375
2308.000000	100.273214
2307.000000	100.273045
2306.000000	100.272869
2305.000000	100.272693
2304.000000	100.272524
2303.000000	100.272368
2302.000000	100.272221
2301.000000	100.272072
2300.000000	100.271909
2299.000000	100.271729
2298.000000	100.271537
2297.000000	100.271342
2296.000000	100.271149
2295.000000	100.270959
2294.000000	100.270767
2293.000000	100.270570
2292.000000	100.270365
2291.000000	100.270154
2290.000000	100.269939
2289.000000	100.269718
2288.000000	100.269489
2287.000000	100.269249
2286.000000	100.268999
2285.000000	100.268745
2284.000000	100.268492
2283.000000	100.268247
2282.000000	100.268011
2281.000000	100.267785
2280.000000	100.267569
2279.000000	100.267361
2278.000000	100.267154
2277.000000	100.266946
2276.000000	100.266739
2275.000000	100.266541
2274.000000	100.266354
2273.000000	100.266174
2272.000000	100.265998
2271.000000	100.265823
2270.000000	100.265646
2269.000000	100.265446
2268.000000	100.265188
2267.000000	100.264872
2266.000000	100.264546
2265.000000	100.264238
2264.000000	100.263966
2263.000000	100.263775
2262.000000	100.263713
2261.000000	100.263736
2260.000000	100.263730
2259.000000	100.263664
2258.000000	100.263580
2257.000000	100.263452
2256.000000	100.263160
2255.000000	100.262644
2254.000000	100.261972
2253.000000	100.261303
2252.000000	100.260832
2251.000000	100.260727
2250.000000	100.261004
2249.000000	100.261398
2248.000000	100.261515
2247.000000	100.261200
2246.000000	100.260746
2245.000000	100.260613
2244.000000	100.260908
2243.000000	100.261220
2242.000000	100.261080
2241.000000	100.260530
2240.000000	100.260086
2239.000000	100.260081
2238.000000	100.260184
2237.000000	100.259790
2236.000000	100.258789
2235.000000	100.257695
2234.000000	100.257044
2233.000000	100.256817
2232.000000	100.256582
2231.000000	100.256024
2230.000000	100.255201
2229.000000	100.254390
2228.000000	100.253846
2227.000000	100.253625
2226.000000	100.253475
2225.000000	100.252985
2224.000000	100.252038
2223.000000	100.251138
2222.000000	100.251015
2221.000000	100.251893
2220.000000	100.253305
2219.000000	100.254517
2218.000000	100.255100
2217.000000	100.255004
2216.000000	100.254348
2215.000000	100.253373
2214.000000	100.252436
2213.000000	100.251817
2212.000000	100.251507
2211.000000	100.251346
2210.000000	100.251332
2209.000000	100.251576
2208.000000	100.251962
2207.000000	100.252144
2206.000000	100.252001
2205.000000	100.251850
2204.000000	100.252020
2203.000000	100.252416
2202.000000	100.252706
2201.000000	100.252802
2200.000000	100.252886
2199.000000	100.253012
2198.000000	100.252991
2197.000000	100.252740
2196.000000	100.252512
2195.000000	100.252628
2194.000000	100.253073
2193.000000	100.253483
2192.000000	100.253515
2191.000000	100.253155
2190.000000	100.252701
2189.000000	100.252500
2188.000000	100.252660
2187.000000	100.252990
2186.000000	100.253173
2185.000000	100.253058
2184.000000	100.252760
2183.000000	100.252500
2182.000000	100.252389
2181.000000	100.252382
2180.000000	100.252378
2179.000000	100.252285
2178.000000	100.252048
2177.000000	100.251678
2176.000000	100.251284
2175.000000	100.251030
2174.000000	100.251024
2173.000000	100.251260
2172.000000	100.251634
2171.000000	100.251978
2170.000000	100.252155
2169.000000	100.252175
2168.000000	100.252186
2167.000000	100.252331
2166.000000	100.252620
2165.000000	100.252926
2164.000000	100.253088
2163.000000	100.253029
2162.000000	100.252798
2161.000000	100.252537
2160.000000	100.252384
2159.000000	100.252367
2158.000000	100.252431
2157.000000	100.252530
2156.000000	100.252674
2155.000000	100.252871
2154.000000	100.253071
2153.000000	100.253209
2152.000000	100.253272
2151.000000	100.253302
2150.000000	100.253345
2149.000000	100.253433
2148.000000	100.253589
2147.000000	100.253806
2146.000000	100.254022
2145.000000	100.254164
2144.000000	100.254230
2143.000000	100.254270
2142.000000	100.254332
2141.000000	100.254433
2140.000000	100.254571
2139.000000	100.254742
2138.000000	100.254935
2137.000000	100.255132
2136.000000	100.255325
2135.000000	100.255518
2134.000000	100.255708
2133.000000	100.255886
2132.000000	100.256051
2131.000000	100.256218
2130.000000	100.256408
2129.000000	100.256628
2128.000000	100.256869
2127.000000	100.257112
2126.000000	100.257346
2125.000000	100.257573
2124.000000	100.257798
2123.000000	100.258028
2122.000000	100.258270
2121.000000	100.258526
2120.000000	100.258799
2119.000000	100.259089
2118.000000	100.259391
2117.000000	100.259697
2116.000000	100.259996
2115.000000	100.260284
2114.000000	100.260563
2113.000000	100.260839
2112.000000	100.261119
2111.000000	100.261410
2110.000000	100.261712
2109.000000	100.262027
2108.000000	100.262354
2107.000000	100.262693
2106.000000	100.263045
2105.000000	100.263406
2104.000000	100.263773
2103.000000	100.264139
2102.000000	100.264505
2101.000000	100.264879
2100.000000	100.265267
2099.000000	100.265672
2098.000000	100.266089
2097.000000	100.266511
2096.000000	100.266925
2095.000000	100.267326
2094.000000	100.267711
2093.000000	100.268082
2092.000000	100.268447
2091.000000	100.268812
2090.000000	100.269179
2089.000000	100.269545
2088.000000	100.269903
2087.000000	100.270247
2086.000000	100.270576
2085.000000	100.270895
2084.000000	100.271209
2083.000000	100.271526
2082.000000	100.271849
2081.000000	100.272170
2080.000000	100.272474
2079.000000	100.272748
2078.000000	100.273005
2077.000000	100.273276
2076.000000	100.273578
2075.000000	100.273889
2074.000000	100.274176
2073.000000	100.274440
2072.000000	100.274702
2071.000000	100.274954
2070.000000	100.275160
2069.000000	100.275290
2068.000000	100.275347
2067.000000	100.275373
2066.000000	100.275438
2065.000000	100.275586
2064.000000	100.275754
2063.000000	100.275798
2062.000000	100.275650
2061.000000	100.275401
2060.000000	100.275234
2059.000000	100.275236
2058.000000	100.275372
2057.000000	100.275546
2056.000000	100.275670
2055.000000	100.275692
2054.000000	100.275603
2053.000000	100.275460
2052.000000	100.275357
2051.000000	100.275334
2050.000000	100.275347
2049.000000	100.275361
2048.000000	100.275418
2047.000000	100.275555
2046.000000	100.275698
2045.000000	100.275719
2044.000000	100.275608
2043.000000	100.275488
2042.000000	100.275427
2041.000000	100.275356
2040.000000	100.275203
2039.000000	100.275003
2038.000000	100.274822
2037.000000	100.274662
2036.000000	100.274472
2035.000000	100.274199
2034.000000	100.273828
2033.000000	100.273404
2032.000000	100.273025
2031.000000	100.272751
2030.000000	100.272536
2029.000000	100.272294
2028.000000	100.272021
2027.000000	100.271785
2026.000000	100.271584
2025.000000	100.271303
2024.000000	100.270904
2023.000000	100.270602
2022.000000	100.270657
2021.000000	100.271020
2020.000000	100.271267
2019.000000	100.271049
2018.000000	100.270459
2017.000000	100.269918
2016.000000	100.269680
2015.000000	100.269602
2014.000000	100.269383
2013.000000	100.268871
2012.000000	100.268159
2011.000000	100.267492
2010.000000	100.266993
2009.000000	100.266463
2008.000000	100.265572
2007.000000	100.264380
2006.000000	100.263532
2005.000000	100.263645
2004.000000	100.264661
2003.000000	100.265842
2002.000000	100.266448
2001.000000	100.266326
2000.000000	100.265812
1999.000000	100.265372
1998.000000	100.265278
1997.000000	100.265460
1996.000000	100.265541
1995.000000	100.265183
1994.000000	100.264494
1993.000000	100.264017
1992.000000	100.264227
1991.000000	100.265130
1990.000000	100.266404
1989.000000	100.267743
1988.000000	100.268945
1987.000000	100.269863
1986.000000	100.270411
1985.000000	100.270535
1984.000000	100.270119
1983.000000	100.269104
1982.000000	100.267747
1981.000000	100.266540
1980.000000	100.265729
1979.000000	100.265193
1978.000000	100.264841
1977.000000	100.264894
1976.000000	100.265492
1975.000000	100.266355
1974.000000	100.267098
1973.000000	100.267648
1972.000000	100.268114
1971.000000	100.268472
1970.000000	100.268664
1969.000000	100.268841
1968.000000	100.269207
1967.000000	100.269671
1966.000000	100.269932
1965.000000	100.269894
1964.000000	100.269734
1963.000000	100.269639
1962.000000	100.269699
1961.000000	100.270024
1960.000000	100.270719
1959.000000	100.271653
1958.000000	100.272392
1957.000000	100.272512
1956.000000	100.271934
1955.000000	100.271004
1954.000000	100.270327
1953.000000	100.270369
1952.000000	100.271108
1951.000000	100.271977
1950.000000	100.272304
1949.000000	100.271912
1948.000000	100.271231
1947.000000	100.270793
1946.000000	100.270680
1945.000000	100.270535
1944.000000	100.269954
1943.000000	100.268805
1942.000000	100.267341
1941.000000	100.266075
1940.000000	100.265403
1939.000000	100.265376
1938.000000	100.265817
1937.000000	100.266517
1936.000000	100.267237
1935.000000	100.267613
1934.000000	100.267356
1933.000000	100.266641
1932.000000	100.266126
1931.000000	100.266283
1930.000000	100.266841
1929.000000	100.267022
1928.000000	100.266352
1927.000000	100.264987
1926.000000	100.263416
1925.000000	100.262180
1924.000000	100.261579
1923.000000	100.261446
1922.000000	100.261181
1921.000000	100.260364
1920.000000	100.259164
1919.000000	100.258012
1918.000000	100.257094
1917.000000	100.256352
1916.000000	100.255770
1915.000000	100.255260
1914.000000	100.254438
1913.000000	100.253017
1912.000000	100.251271
1911.000000	100.249622
1910.000000	100.247908
1909.000000	100.245623
1908.000000	100.242985
1907.000000	100.241008
1906.000000	100.240252
1905.000000	100.240232
1904.000000	100.240103
1903.000000	100.239651
1902.000000	100.239139
1901.000000	100.238485
1900.000000	100.237145
1899.000000	100.234881
1898.000000	100.232250
1897.000000	100.230197
1896.000000	100.229187
1895.000000	100.228816
1894.000000	100.228192
1893.000000	100.226752
1892.000000	100.224720
1891.000000	100.222935
1890.000000	100.222269
1889.000000	100.222813
1888.000000	100.223524
1887.000000	100.223017
1886.000000	100.220845
1885.000000	100.218039
1884.000000	100.216267
1883.000000	100.216196
1882.000000	100.217024
1881.000000	100.217543
1880.000000	100.217288
1879.000000	100.216479
1878.000000	100.215339
1877.000000	100.213994
1876.000000	100.212803
1875.000000	100.212315
1874.000000	100.212850
1873.000000	100.214257
1872.000000	100.216059
1871.000000	100.217677
1870.000000	100.218597
1869.000000	100.218691
1868.000000	100.218542
1867.000000	100.218864
1866.000000	100.219599
1865.000000	100.220194
1864.000000	100.220441
1863.000000	100.220725
1862.000000	100.221615
1861.000000	100.223439
1860.000000	100.226152
1859.000000	100.229261
1858.000000	100.231832
1857.000000	100.232955
1856.000000	100.232433
1855.000000	100.230928
1854.000000	100.229535
1853.000000	100.229107
1852.000000	100.229857
1851.000000	100.231490
1850.000000	100.233411
1849.000000	100.235009
1848.000000	100.235911
1847.000000	100.236150
1846.000000	100.236094
1845.000000	100.236233
1844.000000	100.236803
1843.000000	100.237610
1842.000000	100.238405
1841.000000	100.239192
1840.000000	100.240085
1839.000000	100.241183
1838.000000	100.242516
1837.000000	100.243948
1836.000000	100.245094
1835.000000	100.245560
1834.000000	100.245341
1833.000000	100.244842
1832.000000	100.244537
1831.000000	100.244759
1830.000000	100.245596
1829.000000	100.246758
1828.000000	100.247609
1827.000000	100.247592
1826.000000	100.246670
1825.000000	100.245552
1824.000000	100.245187
1823.000000	100.245790
1822.000000	100.246745
1821.000000	100.247312
1820.000000	100.247207
1819.000000	100.246632
1818.000000	100.246032
1817.000000	100.245900
1816.000000	100.246472
1815.000000	100.247426
1814.000000	100.247997
1813.000000	100.247672
1812.000000	100.246763
1811.000000	100.245831
1810.000000	100.244774
1809.000000	100.243247
1808.000000	100.241881
1807.000000	100.241851
1806.000000	100.243336
1805.000000	100.245445
1804.000000	100.247501
1803.000000	100.249552
1802.000000	100.251375
1801.000000	100.251973
1800.000000	100.251173
1799.000000	100.250286
1798.000000	100.250332
1797.000000	100.250891
1796.000000	100.251275
1795.000000	100.251622
1794.000000	100.252456
1793.000000	100.253690
1792.000000	100.254717
1791.000000	100.255473
1790.000000	100.256446
1789.000000	100.257830
1788.000000	100.259574
1787.000000	100.261512
1786.000000	100.263088
1785.000000	100.263441
1784.000000	100.262323
1783.000000	100.260684
1782.000000	100.260085
1781.000000	100.261647
1780.000000	100.265659
1779.000000	100.271071
1778.000000	100.276321
1777.000000	100.280350
1776.000000	100.282716
1775.000000	100.282842
1774.000000	100.279587
1773.000000	100.272730
1772.000000	100.264771
1771.000000	100.259798
1770.000000	100.259544
1769.000000	100.262660
1768.000000	100.266630
1767.000000	100.269441
1766.000000	100.270290
1765.000000	100.269530
1764.000000	100.268355
1763.000000	100.267975
1762.000000	100.268166
1761.000000	100.266923
1760.000000	100.263527
1759.000000	100.259562
1758.000000	100.256548
1757.000000	100.253532
1756.000000	100.248259
1755.000000	100.240595
1754.000000	100.232633
1753.000000	100.225882
1752.000000	100.220219
1751.000000	100.214886
1750.000000	100.210062
1749.000000	100.206823
1748.000000	100.204693
1747.000000	100.201909
1746.000000	100.197417
1745.000000	100.191622
1744.000000	100.185827
1743.000000	100.181483
1742.000000	100.180073
1741.000000	100.182703
1740.000000	100.189292
1739.000000	100.198118
1738.000000	100.207485
1737.000000	100.216875
1736.000000	100.225971
1735.000000	100.233172
1734.000000	100.235491
1733.000000	100.233391
1732.000000	100.231884
1731.000000	100.233497
1730.000000	100.237525
1729.000000	100.242943
1728.000000	100.248993
1727.000000	100.254586
1726.000000	100.258116
1725.000000	100.258774
1724.000000	100.257880
1723.000000	100.257618
1722.000000	100.258908
1721.000000	100.260654
1720.000000	100.261475
1719.000000	100.261505
1718.000000	100.261977
1717.000000	100.261859
1716.000000	100.259592
1715.000000	100.256437
1714.000000	100.254755
1713.000000	100.256332
1712.000000	100.261059
1711.000000	100.266250
1710.000000	100.268540
1709.000000	100.266579
1708.000000	100.262391
1707.000000	100.259575
1706.000000	100.259450
1705.000000	100.259970
1704.000000	100.259171
1703.000000	100.257592
1702.000000	100.255987
1701.000000	100.254431
1700.000000	100.252002
1699.000000	100.249218
1698.000000	100.246940
1697.000000	100.245242
1696.000000	100.244559
1695.000000	100.244710
1694.000000	100.243344
1693.000000	100.238746
1692.000000	100.231735
1691.000000	100.224484
1690.000000	100.219191
1689.000000	100.216314
1688.000000	100.214548
1687.000000	100.212463
1686.000000	100.209133
1685.000000	100.205634
1684.000000	100.203547
1683.000000	100.202353
1682.000000	100.200320
1681.000000	100.196891
1680.000000	100.192657
1679.000000	100.189111
1678.000000	100.187042
1677.000000	100.186040
1676.000000	100.185259
1675.000000	100.183918
1674.000000	100.181833
1673.000000	100.179217
1672.000000	100.176356
1671.000000	100.173516
1670.000000	100.171020
1669.000000	100.168884
1668.000000	100.166989
1667.000000	100.165297
1666.000000	100.163931
1665.000000	100.162916
1664.000000	100.161978
1663.000000	100.160472
1662.000000	100.158111
1661.000000	100.155590
1660.000000	100.153582
1659.000000	100.151513
1658.000000	100.148498
1657.000000	100.144488
1656.000000	100.140194
1655.000000	100.135206
1654.000000	100.128710
1653.000000	100.122764
1652.000000	100.122405
1651.000000	100.126961
1650.000000	100.132768
1649.000000	100.137076
1648.000000	100.138854
1647.000000	100.138114
1646.000000	100.136045
1645.000000	100.134159
1644.000000	100.132895
1643.000000	100.131897
1642.000000	100.130582
1641.000000	100.128507
1640.000000	100.126080
1639.000000	100.124185
1638.000000	100.123263
1637.000000	100.123348
1636.000000	100.124438
1635.000000	100.125736
1634.000000	100.126500
1633.000000	100.127004
1632.000000	100.127798
1631.000000	100.129105
1630.000000	100.130709
1629.000000	100.132229
1628.000000	100.133457
1627.000000	100.134165
1626.000000	100.134162
1625.000000	100.133872
1624.000000	100.134640
1623.000000	100.137215
1622.000000	100.140490
1621.000000	100.143181
1620.000000	100.145411
1619.000000	100.147799
1618.000000	100.150175
1617.000000	100.151791
1616.000000	100.152556
1615.000000	100.153047
1614.000000	100.153070
1613.000000	100.152127
1612.000000	100.150763
1611.000000	100.150792
1610.000000	100.153308
1609.000000	100.157209
1608.000000	100.160387
1607.000000	100.162057
1606.000000	100.163089
1605.000000	100.164452
1604.000000	100.166430
1603.000000	100.168985
1602.000000	100.172321
1601.000000	100.176565
1600.000000	100.181040
1599.000000	100.184501
1598.000000	100.186220
1597.000000	100.186385
1596.000000	100.185426
1595.000000	100.183554
1594.000000	100.181290
1593.000000	100.179872
1592.000000	100.180371
1591.000000	100.182567
1590.000000	100.185145
1589.000000	100.187024
1588.000000	100.188102
1587.000000	100.188752
1586.000000	100.189318
1585.000000	100.189976
1584.000000	100.190548
1583.000000	100.190711
1582.000000	100.190338
1581.000000	100.189837
1580.000000	100.189498
1579.000000	100.189034
1578.000000	100.188077
1577.000000	100.187273
1576.000000	100.187364
1575.000000	100.187342
1574.000000	100.186107
1573.000000	100.183895
1572.000000	100.181184
1571.000000	100.178381
1570.000000	100.176224
1569.000000	100.175435
1568.000000	100.175824
1567.000000	100.176462
1566.000000	100.176936
1565.000000	100.177548
1564.000000	100.178330
1563.000000	100.178540
1562.000000	100.177305
1561.000000	100.174619
1560.000000	100.172043
1559.000000	100.171301
1558.000000	100.171247
1557.000000	100.171294
1556.000000	100.171549
1555.000000	100.171834
1554.000000	100.171888
1553.000000	100.171403
1552.000000	100.170309
1551.000000	100.168828
1550.000000	100.167367
1549.000000	100.166326
1548.000000	100.165685
1547.000000	100.165114
1546.000000	100.164366
1545.000000	100.163567
1544.000000	100.163061
1543.000000	100.162957
1542.000000	100.162935
1541.000000	100.162623
1540.000000	100.162039
1539.000000	100.161488
1538.000000	100.161046
1537.000000	100.160585
1536.000000	100.160101
1535.000000	100.159642
1534.000000	100.159038
1533.000000	100.157933
1532.000000	100.156708
1531.000000	100.156221
1530.000000	100.156590
1529.000000	100.157093
1528.000000	100.156946
1527.000000	100.156073
1526.000000	100.155145
1525.000000	100.154644
1524.000000	100.154497
1523.000000	100.154395
1522.000000	100.154087
1521.000000	100.153516
1520.000000	100.153516
1519.000000	100.155068
1518.000000	100.158101
1517.000000	100.161144
1516.000000	100.162245
1515.000000	100.160971
1514.000000	100.158355
1513.000000	100.155368
1512.000000	100.152798
1511.000000	100.151346
1510.000000	100.151080
1509.000000	100.151338
1508.000000	100.151377
1507.000000	100.151006
1506.000000	100.149953
1505.000000	100.148914
1504.000000	100.148001
1503.000000	100.146183
1502.000000	100.142064
1501.000000	100.135454
1500.000000	100.128801
1499.000000	100.126485
1498.000000	100.130535
1497.000000	100.137132
1496.000000	100.140175
1495.000000	100.139168
1494.000000	100.137485
1493.000000	100.136023
1492.000000	100.133304
1491.000000	100.128842
1490.000000	100.124365
1489.000000	100.121139
1488.000000	100.118796
1487.000000	100.116742
1486.000000	100.114363
1485.000000	100.111142
1484.000000	100.106917
1483.000000	100.102182
1482.000000	100.098183
1481.000000	100.096269
1480.000000	100.096174
1479.000000	100.095674
1478.000000	100.092230
1477.000000	100.085606
1476.000000	100.078650
1475.000000	100.073960
1474.000000	100.069428
1473.000000	100.059732
1472.000000	100.043993
1471.000000	100.028233
1470.000000	100.016213
1469.000000	100.006761
1468.000000	99.998591
1467.000000	99.992321
1466.000000	99.988656
1465.000000	99.986333
1464.000000	99.983979
1463.000000	99.982280
1462.000000	99.982167
1461.000000	99.983484
1460.000000	99.986125
1459.000000	99.990378
1458.000000	99.995608
1457.000000	99.998222
1456.000000	99.996040
1455.000000	99.992678
1454.000000	99.990427
1453.000000	99.988075
1452.000000	99.984933
1451.000000	99.982457
1450.000000	99.982526
1449.000000	99.985227
1448.000000	99.989346
1447.000000	99.993937
1446.000000	99.997994
1445.000000	99.999538
1444.000000	99.998022
1443.000000	99.995548
1442.000000	99.994645
1441.000000	99.995048
1440.000000	99.994305
1439.000000	99.991614
1438.000000	99.989840
1437.000000	99.993000
1436.000000	100.000729
1435.000000	100.009468
1434.000000	100.017585
1433.000000	100.024666
1432.000000	100.029457
1431.000000	100.030856
1430.000000	100.030214
1429.000000	100.030726
1428.000000	100.034013
1427.000000	100.039424
1426.000000	100.045988
1425.000000	100.053014
1424.000000	100.058980
1423.000000	100.061897
1422.000000	100.061735
1421.000000	100.060353
1420.000000	100.060203
1419.000000	100.063279
1418.000000	100.070071
1417.000000	100.079462
1416.000000	100.089951
1415.000000	100.100674
1414.000000	100.111001
1413.000000	100.119846
1412.000000	100.125943
1411.000000	100.129616
1410.000000	100.133610
1409.000000	100.140214
1408.000000	100.148216
1407.000000	100.154289
1406.000000	100.156933
1405.000000	100.157888
1404.000000	100.159661
1403.000000	100.163212
1402.000000	100.168903
1401.000000	100.177546
1400.000000	100.189026
1399.000000	100.200384
1398.000000	100.208416
1397.000000	100.213734
1396.000000	100.219379
1395.000000	100.226638
1394.000000	100.233449
1393.000000	100.237046
1392.000000	100.236880
1391.000000	100.235122
1390.000000	100.235250
1389.000000	100.239621
1388.000000	100.247382
1387.000000	100.254961
1386.000000	100.260103
1385.000000	100.263704
1384.000000	100.266705
1383.000000	100.267953
1382.000000	100.266150
1381.000000	100.262428
1380.000000	100.259745
1379.000000	100.259930
1378.000000	100.262237
1377.000000	100.264858
1376.000000	100.266620
1375.000000	100.267065
1374.000000	100.266112
1373.000000	100.264243
1372.000000	100.262040
1371.000000	100.259402
1370.000000	100.256267
1369.000000	100.253992
1368.000000	100.254655
1367.000000	100.258623
1366.000000	100.263785
1365.000000	100.267392
1364.000000	100.268124
1363.000000	100.266494
1362.000000	100.264011
1361.000000	100.262344
1360.000000	100.262604
1359.000000	100.264743
1358.000000	100.267519
1357.000000	100.269470
1356.000000	100.270191
1355.000000	100.270425
1354.000000	100.270784
1353.000000	100.270947
1352.000000	100.270569
1351.000000	100.270303
1350.000000	100.271288
1349.000000	100.273948
1348.000000	100.277381
1347.000000	100.279926
1346.000000	100.280381
1345.000000	100.278846
1344.000000	100.276565
1343.000000	100.274910
1342.000000	100.274190
1341.000000	100.273425
1340.000000	100.271628
1339.000000	100.269463
1338.000000	100.268989
1337.000000	100.271081
1336.000000	100.274071
1335.000000	100.275611
1334.000000	100.275272
1333.000000	100.274616
1332.000000	100.275019
1331.000000	100.276229
1330.000000	100.277358
1329.000000	100.278330
1328.000000	100.279478
1327.000000	100.280270
1326.000000	100.279614
1325.000000	100.277362
1324.000000	100.274576
1323.000000	100.272399
1322.000000	100.271308
1321.000000	100.271345
1320.000000	100.272287
1319.000000	100.273415
1318.000000	100.273806
1317.000000	100.273263
1316.000000	100.272703
1315.000000	100.273395
1314.000000	100.275839
1313.000000	100.279163
1312.000000	100.281476
1311.000000	100.281131
1310.000000	100.277987
1309.000000	100.273729
1308.000000	100.270840
1307.000000	100.270760
1306.000000	100.272904
1305.000000	100.275337
1304.000000	100.276380
1303.000000	100.275855
1302.000000	100.275015
1301.000000	100.275125
1300.000000	100.275965
1299.000000	100.276083
1298.000000	100.274733
1297.000000	100.273088
1296.000000	100.272935
1295.000000	100.274412
1294.000000	100.276013
1293.000000	100.276883
1292.000000	100.277782
1291.000000	100.279222
1290.000000	100.279909
1289.000000	100.278427
1288.000000	100.275787
1287.000000	100.274665
1286.000000	100.275940
1285.000000	100.277366
1284.000000	100.276175
1283.000000	100.272028
1282.000000	100.267077
1281.000000	100.263798
1280.000000	100.263160
1279.000000	100.264245
1278.000000	100.265221
1277.000000	100.265135
1276.000000	100.264886
1275.000000	100.265840
1274.000000	100.267627
1273.000000	100.268356
1272.000000	100.267344
1271.000000	100.266434
1270.000000	100.267711
1269.000000	100.270682
1268.000000	100.272855
1267.000000	100.272791
1266.000000	100.271549
1265.000000	100.270949
1264.000000	100.271227
1263.000000	100.270988
1262.000000	100.269228
1261.000000	100.266865
1260.000000	100.265987
1259.000000	100.267659
1258.000000	100.270876
1257.000000	100.273704
1256.000000	100.274884
1255.000000	100.273985
1254.000000	100.270669
1253.000000	100.264708
1252.000000	100.256786
1251.000000	100.248457
1250.000000	100.240978
1249.000000	100.234515
1248.000000	100.228668
1247.000000	100.223251
1246.000000	100.218271
1245.000000	100.213564
1244.000000	100.208863
1243.000000	100.203900
1242.000000	100.198009
1241.000000	100.190005
1240.000000	100.179337
1239.000000	100.167564
1238.000000	100.157815
1237.000000	100.151783
1236.000000	100.147293
1235.000000	100.139852
1234.000000	100.127358
1233.000000	100.112766
1232.000000	100.101153
1231.000000	100.094134
1230.000000	100.087925
1229.000000	100.076923
1228.000000	100.058155
1227.000000	100.032343
1226.000000	100.002227
1225.000000	99.970504
1224.000000	99.938175
1223.000000	99.903986
1222.000000	99.866362
1221.000000	99.826486
1220.000000	99.787944
1219.000000	99.751915
1218.000000	99.714217
1217.000000	99.669232
1216.000000	99.615636
1215.000000	99.556198
1214.000000	99.493365
1213.000000	99.428348
1212.000000	99.364253
1211.000000	99.305957
1210.000000	99.254996
1209.000000	99.206991
1208.000000	99.155583
1207.000000	99.097345
1206.000000	99.033057
1205.000000	98.966891
1204.000000	98.904646
1203.000000	98.849680
1202.000000	98.799404
1201.000000	98.748020
1200.000000	98.693225
1199.000000	98.637627
1198.000000	98.583555
1197.000000	98.530185
1196.000000	98.476647
1195.000000	98.423924
1194.000000	98.371879
1193.000000	98.317883
1192.000000	98.260594
1191.000000	98.202289
1190.000000	98.145339
1189.000000	98.088934
1188.000000	98.031420
1187.000000	97.973478
1186.000000	97.916692
1185.000000	97.860835
1184.000000	97.804590
1183.000000	97.747286
1182.000000	97.688228
1181.000000	97.625916
1180.000000	97.559520
1179.000000	97.489903
1178.000000	97.418328
1177.000000	97.345689
1176.000000	97.273423
1175.000000	97.202791
1174.000000	97.132447
1173.000000	97.059241
1172.000000	96.982490
1171.000000	96.905144
1170.000000	96.829917
1169.000000	96.756706
1168.000000	96.684649
1167.000000	96.614534
1166.000000	96.549087
1165.000000	96.493778
1164.000000	96.457289
1163.000000	96.447120
1162.000000	96.462953
1161.000000	96.495920
1160.000000	96.533968
1159.000000	96.565806
1158.000000	96.582038
1157.000000	96.577845
1156.000000	96.555057
1155.000000	96.518365
1154.000000	96.469765
1153.000000	96.409837
1152.000000	96.343154
1151.000000	96.277209
1150.000000	96.215370
1149.000000	96.155105
1148.000000	96.093388
1147.000000	96.029545
1146.000000	95.963175
1145.000000	95.894329
1144.000000	95.825937
1143.000000	95.761100
1142.000000	95.697874
1141.000000	95.631857
1140.000000	95.563549
1139.000000	95.497233
1138.000000	95.432681
1137.000000	95.364559
1136.000000	95.290797
1135.000000	95.215088
1134.000000	95.140080
1133.000000	95.064341
1132.000000	94.987117
1131.000000	94.909698
1130.000000	94.830915
1129.000000	94.747611
1128.000000	94.660610
1127.000000	94.574015
1126.000000	94.488087
1125.000000	94.399598
1124.000000	94.309298
1123.000000	94.221060
1122.000000	94.133304
1121.000000	94.040408
1120.000000	93.944063
1119.000000	93.853575
1118.000000	93.772586
1117.000000	93.694983
1116.000000	93.616233
1115.000000	93.538899
1114.000000	93.464000
1113.000000	93.387276
1112.000000	93.308043
1111.000000	93.232027
1110.000000	93.161298
1109.000000	93.090661
1108.000000	93.018092
1107.000000	92.949680
1106.000000	92.889800
1105.000000	92.834878
1104.000000	92.780808
1103.000000	92.728140
1102.000000	92.676191
1101.000000	92.620881
1100.000000	92.562237
1099.000000	92.506300
1098.000000	92.455298
1097.000000	92.404519
1096.000000	92.351833
1095.000000	92.301770
1094.000000	92.256853
1093.000000	92.213453
1092.000000	92.169443
1091.000000	92.127525
1090.000000	92.088162
1089.000000	92.047717
1088.000000	92.006064
1087.000000	91.967166
1086.000000	91.929973
1085.000000	91.888324
1084.000000	91.842471
1083.000000	91.800916
1082.000000	91.767387
1081.000000	91.734908
1080.000000	91.695868
1079.000000	91.649510
1078.000000	91.597710
1077.000000	91.542347
1076.000000	91.488122
1075.000000	91.437871
1074.000000	91.383163
1073.000000	91.309835
1072.000000	91.214579
1071.000000	91.106421
1070.000000	90.991326
1069.000000	90.866332
1068.000000	90.730070
1067.000000	90.586648
1066.000000	90.436802
1065.000000	90.277892
1064.000000	90.115735
1063.000000	89.963625
1062.000000	89.826135
1061.000000	89.696756
1060.000000	89.574315
1059.000000	89.466845
1058.000000	89.374716
1057.000000	89.284688
1056.000000	89.186189
1055.000000	89.079504
1054.000000	88.962670
1053.000000	88.825125
1052.000000	88.662395
1051.000000	88.483731
1050.000000	88.296596
1049.000000	88.097525
1048.000000	87.886645
1047.000000	87.674616
1046.000000	87.465972
1045.000000	87.250904
1044.000000	87.021701
1043.000000	86.783957
1042.000000	86.545248
1041.000000	86.306635
1040.000000	86.072924
1039.000000	85.856970
1038.000000	85.664095
1037.000000	85.484244
1036.000000	85.308063
1035.000000	85.139163
1034.000000	84.983408
1033.000000	84.839122
1032.000000	84.705985
1031.000000	84.591255
1030.000000	84.498604
1029.000000	84.420891
1028.000000	84.350021
1027.000000	84.283362
1026.000000	84.216360
1025.000000	84.141900
1024.000000	84.062536
1023.000000	83.990805
1022.000000	83.931919
1021.000000	83.877736
1020.000000	83.821842
1019.000000	83.767783
1018.000000	83.718331
1017.000000	83.670131
1016.000000	83.623306
1015.000000	83.583060
1014.000000	83.547777
1013.000000	83.509143
1012.000000	83.467733
1011.000000	83.434297
1010.000000	83.411722
1009.000000	83.390378
1008.000000	83.365715
1007.000000	83.345713
1006.000000	83.335907
1005.000000	83.331537
1004.000000	83.329635
1003.000000	83.334557
1002.000000	83.346093
1001.000000	83.356005
1000.000000	83.362229
999.000000	83.373530
998.000000	83.394772
997.000000	83.420499
996.000000	83.448032
995.000000	83.483640
994.000000	83.530124
993.000000	83.580737
992.000000	83.631212
991.000000	83.686652
990.000000	83.751610
989.000000	83.824221
988.000000	83.904245
987.000000	83.996052
986.000000	84.099990
985.000000	84.211298
984.000000	84.330393
983.000000	84.463753
982.000000	84.612634
981.000000	84.771761
980.000000	84.940654
979.000000	85.124844
978.000000	85.324488
977.000000	85.533071
976.000000	85.748132
975.000000	85.971663
974.000000	86.199582
973.000000	86.423468
972.000000	86.643932
971.000000	86.870019
970.000000	87.104067
969.000000	87.338923
968.000000	87.570926
967.000000	87.803066
966.000000	88.033788
965.000000	88.255162
964.000000	88.464581
963.000000	88.667054
962.000000	88.864149
961.000000	89.052159
960.000000	89.233060
959.000000	89.414828
958.000000	89.597191
957.000000	89.768622
956.000000	89.922219
955.000000	90.064782
954.000000	90.206090
953.000000	90.348095
952.000000	90.488754
951.000000	90.627347
950.000000	90.760812
949.000000	90.882390
948.000000	90.988915
947.000000	91.084424
946.000000	91.174036
945.000000	91.259416
944.000000	91.341301
943.000000	91.419882
942.000000	91.491785
941.000000	91.554031
940.000000	91.611942
939.000000	91.675477
938.000000	91.746599
937.000000	91.818309
936.000000	91.887049
935.000000	91.957159
934.000000	92.031633
933.000000	92.107828
932.000000	92.184704
931.000000	92.265026
930.000000	92.347209
929.000000	92.423688
928.000000	92.491231
927.000000	92.555673
926.000000	92.623478
925.000000	92.695370
924.000000	92.770130
923.000000	92.846211
922.000000	92.916784
921.000000	92.972064
920.000000	93.011561
919.000000	93.047600
918.000000	93.092289
917.000000	93.146238
916.000000	93.203154
915.000000	93.259613
914.000000	93.317002
913.000000	93.379046
912.000000	93.450684
911.000000	93.535680
910.000000	93.634133
909.000000	93.746262
908.000000	93.876982
907.000000	94.029574
906.000000	94.195866
905.000000	94.361742
904.000000	94.523479
903.000000	94.689790
902.000000	94.866351
901.000000	95.047174
900.000000	95.223841
899.000000	95.395228
898.000000	95.564186
897.000000	95.731001
896.000000	95.893845
895.000000	96.051071
894.000000	96.200568
893.000000	96.340704
892.000000	96.473019
891.000000	96.599987
890.000000	96.719907
889.000000	96.828795
888.000000	96.927420
887.000000	97.021002
886.000000	97.111443
885.000000	97.195863
884.000000	97.273992
883.000000	97.350754
882.000000	97.429144
881.000000	97.505768
880.000000	97.576123
879.000000	97.640397
878.000000	97.702789
877.000000	97.769115
876.000000	97.845196
875.000000	97.932422
874.000000	98.024813
873.000000	98.115892
872.000000	98.207452
871.000000	98.304840
870.000000	98.405053
869.000000	98.498510
868.000000	98.582881
867.000000	98.665732
866.000000	98.751036
865.000000	98.831962
864.000000	98.901831
863.000000	98.965309
862.000000	99.032821
861.000000	99.107404
860.000000	99.181364
859.000000	99.243209
858.000000	99.285616
857.000000	99.310997
856.000000	99.332928
855.000000	99.368155
854.000000	99.422074
853.000000	99.483505
852.000000	99.536132
851.000000	99.572611
850.000000	99.596396
849.000000	99.614286
848.000000	99.630326
847.000000	99.643891
846.000000	99.650409
845.000000	99.645884
844.000000	99.632297
843.000000	99.615571
842.000000	99.596840
841.000000	99.569758
840.000000	99.528446
839.000000	99.474061
838.000000	99.412009
837.000000	99.347899
836.000000	99.288656
835.000000	99.241074
834.000000	99.204129
833.000000	99.167923
832.000000	99.125949
831.000000	99.084446
830.000000	99.054289
829.000000	99.037958
828.000000	99.031437
827.000000	99.035084
826.000000	99.053427
825.000000	99.084829
824.000000	99.119625
823.000000	99.149717
822.000000	99.174311
821.000000	99.196016
820.000000	99.216221
819.000000	99.233596
818.000000	99.242247
817.000000	99.231633
816.000000	99.192757
815.000000	99.125507
814.000000	99.036890
813.000000	98.930706
812.000000	98.800864
811.000000	98.635374
810.000000	98.425186
809.000000	98.169209
808.000000	97.872984
807.000000	97.543684
806.000000	97.186674
805.000000	96.809072
804.000000	96.427537
803.000000	96.068304
802.000000	95.756081
801.000000	95.505905
800.000000	95.326975
799.000000	95.226773
798.000000	95.205833
797.000000	95.252750
796.000000	95.348287
795.000000	95.472257
794.000000	95.607454
793.000000	95.742620
792.000000	95.871885
791.000000	95.986867
790.000000	96.071353
789.000000	96.110667
788.000000	96.105402
787.000000	96.068356
786.000000	96.007236
785.000000	95.918235
784.000000	95.799147
783.000000	95.661365
782.000000	95.524945
781.000000	95.408220
780.000000	95.326557
779.000000	95.294244
778.000000	95.320032
777.000000	95.402100
776.000000	95.528907
775.000000	95.681945
774.000000	95.839524
773.000000	95.985792
772.000000	96.117854
771.000000	96.238851
770.000000	96.344070
769.000000	96.420809
768.000000	96.463390
767.000000	96.481282
766.000000	96.489455
765.000000	96.496395
764.000000	96.504378
763.000000	96.514841
762.000000	96.528323
761.000000	96.543454
760.000000	96.560604
759.000000	96.583803
758.000000	96.616442
757.000000	96.658179
756.000000	96.707497
755.000000	96.762836
754.000000	96.819588
753.000000	96.871189
752.000000	96.915905
751.000000	96.958645
750.000000	97.004135
749.000000	97.052457
748.000000	97.103226
747.000000	97.159233
746.000000	97.222724
745.000000	97.292364
744.000000	97.367462
743.000000	97.451522
742.000000	97.547797
741.000000	97.653617
740.000000	97.761530
739.000000	97.863750
738.000000	97.954230
737.000000	98.029919
736.000000	98.092758
735.000000	98.148808
734.000000	98.203600
733.000000	98.258525
732.000000	98.310561
731.000000	98.353021
730.000000	98.378040
729.000000	98.383290
728.000000	98.377317
727.000000	98.375006
726.000000	98.386840
725.000000	98.414538
724.000000	98.455556
723.000000	98.506535
722.000000	98.561929
721.000000	98.614743
720.000000	98.661438
719.000000	98.704024
718.000000	98.746684
717.000000	98.792307
716.000000	98.841051
715.000000	98.888545
714.000000	98.927352
713.000000	98.955061
712.000000	98.978840
711.000000	99.005821
710.000000	99.030208
709.000000	99.037907
708.000000	99.024450
707.000000	99.000570
706.000000	98.978453
705.000000	98.959094
704.000000	98.934998
703.000000	98.896903
702.000000	98.833417
701.000000	98.731647
700.000000	98.585756
699.000000	98.404029
698.000000	98.207087
697.000000	98.023224
696.000000	97.884004
695.000000	97.813575
694.000000	97.815157
693.000000	97.870753
692.000000	97.956361
691.000000	98.054960
690.000000	98.155997
689.000000	98.250467
688.000000	98.331575
687.000000	98.397072
686.000000	98.448598
685.000000	98.491706
684.000000	98.534669
683.000000	98.580057
682.000000	98.619460
681.000000	98.645485
680.000000	98.667049
679.000000	98.699960
678.000000	98.742409
677.000000	98.776437
676.000000	98.796608
675.000000	98.819471
674.000000	98.855974
673.000000	98.891251
672.000000	98.905925
671.000000	98.906288
670.000000	98.919777
669.000000	98.966847
668.000000	99.034165
667.000000	99.085748
666.000000	99.118606
665.000000	99.155808
664.000000	99.205040
663.000000	99.254313
662.000000	99.285218
661.000000	99.291642
660.000000	99.285012
659.000000	99.279453
658.000000	99.275745
657.000000	99.263652
656.000000	99.238425
655.000000	99.208963
654.000000	99.187098
653.000000	99.174057
652.000000	99.164416
651.000000	99.157746
650.000000	99.158660
649.000000	99.168976
648.000000	99.186612
647.000000	99.210333
646.000000	99.241666
645.000000	99.284180
644.000000	99.343163
643.000000	99.420531
642.000000	99.505293
641.000000	99.577012
640.000000	99.622261
639.000000	99.643753
638.000000	99.655647
637.000000	99.674919
636.000000	99.715956
635.000000	99.781328
634.000000	99.852550
633.000000	99.903209
632.000000	99.927003
631.000000	99.943661
630.000000	99.974487
629.000000	100.020014
628.000000	100.066569
627.000000	100.103870
626.000000	100.128508
625.000000	100.138699
624.000000	100.136121
623.000000	100.130251
622.000000	100.131559
621.000000	100.142912
620.000000	100.163097
619.000000	100.188850
618.000000	100.211710
617.000000	100.229028
616.000000	100.257480
615.000000	100.315141
614.000000	100.384246
613.000000	100.415243
612.000000	100.380556
611.000000	100.308175
610.000000	100.253071
609.000000	100.241957
608.000000	100.262451
607.000000	100.289364
606.000000	100.300490
605.000000	100.284665
604.000000	100.256750
603.000000	100.252405
602.000000	100.283658
601.000000	100.309960
600.000000	100.278721
599.000000	100.189058
598.000000	100.095377
597.000000	100.045337
596.000000	100.039346
595.000000	100.049060
594.000000	100.046802
593.000000	100.018174
592.000000	99.969618
591.000000	99.931661
590.000000	99.934362
589.000000	99.970928
588.000000	100.002576
587.000000	100.000806
586.000000	99.978298
585.000000	99.977184
584.000000	100.030026
583.000000	100.126904
582.000000	100.211968
581.000000	100.232163
580.000000	100.204401
579.000000	100.219479
578.000000	100.349143
577.000000	100.551620
576.000000	100.702926
575.000000	100.719357
574.000000	100.627762
573.000000	100.515994
572.000000	100.451421
571.000000	100.463376
570.000000	100.544536
569.000000	100.645077
568.000000	100.703308
567.000000	100.700871
566.000000	100.673700
565.000000	100.656271
564.000000	100.638106
563.000000	100.587063
562.000000	100.490499
561.000000	100.358579
560.000000	100.204749
559.000000	100.046164
558.000000	99.912048
557.000000	99.836566
556.000000	99.846915
555.000000	99.941232
554.000000	100.062173
553.000000	100.128776
552.000000	100.121741
551.000000	100.110394
550.000000	100.178448
