PE IR       SUBTECH     SPECTRUM    ASCII       PEDS        4.00        
   -1
BH1 8-4 13 50_1.asc
24/05/15
13:08:34.00
24/05/15
13:08:41.00
Administrator
?品 067 用? Administrator 日期 Wednesday, May 15 2024
550.000000
#HDR
-1
-1
#GR
cm-1
%T
1.0
0.0
4000.000000
-1.000000
3451
8
100.457294
87.046689
#DATA
4000.000000	100.258200
3999.000000	100.258376
3998.000000	100.258205
3997.000000	100.257060
3996.000000	100.254807
3995.000000	100.252187
3994.000000	100.250438
3993.000000	100.250235
3992.000000	100.251245
3991.000000	100.252695
3990.000000	100.254073
3989.000000	100.255229
3988.000000	100.256106
3987.000000	100.256627
3986.000000	100.256786
3985.000000	100.256705
3984.000000	100.256581
3983.000000	100.256514
3982.000000	100.256419
3981.000000	100.256166
3980.000000	100.255840
3979.000000	100.255741
3978.000000	100.256089
3977.000000	100.256742
3976.000000	100.257248
3975.000000	100.257234
3974.000000	100.256682
3973.000000	100.255858
3972.000000	100.255045
3971.000000	100.254355
3970.000000	100.253748
3969.000000	100.253182
3968.000000	100.252721
3967.000000	100.252497
3966.000000	100.252563
3965.000000	100.252778
3964.000000	100.252911
3963.000000	100.252848
3962.000000	100.252657
3961.000000	100.252421
3960.000000	100.252081
3959.000000	100.251501
3958.000000	100.250634
3957.000000	100.249635
3956.000000	100.248822
3955.000000	100.248467
3954.000000	100.248587
3953.000000	100.248936
3952.000000	100.249194
3951.000000	100.249191
3950.000000	100.248944
3949.000000	100.248559
3948.000000	100.248172
3947.000000	100.247897
3946.000000	100.247794
3945.000000	100.247841
3944.000000	100.247909
3943.000000	100.247806
3942.000000	100.247426
3941.000000	100.246811
3940.000000	100.246159
3939.000000	100.245700
3938.000000	100.245539
3937.000000	100.245627
3936.000000	100.245797
3935.000000	100.245909
3934.000000	100.245941
3933.000000	100.245930
3932.000000	100.245867
3931.000000	100.245692
3930.000000	100.245385
3929.000000	100.245027
3928.000000	100.244750
3927.000000	100.244647
3926.000000	100.244725
3925.000000	100.244856
3924.000000	100.244811
3923.000000	100.244400
3922.000000	100.243620
3921.000000	100.242665
3920.000000	100.241783
3919.000000	100.241149
3918.000000	100.240821
3917.000000	100.240761
3916.000000	100.240907
3915.000000	100.241225
3914.000000	100.241660
3913.000000	100.242032
3912.000000	100.242037
3911.000000	100.241465
3910.000000	100.240518
3909.000000	100.239809
3908.000000	100.239909
3907.000000	100.240907
3906.000000	100.242409
3905.000000	100.243814
3904.000000	100.244561
3903.000000	100.244342
3902.000000	100.243272
3901.000000	100.241923
3900.000000	100.241055
3899.000000	100.241094
3898.000000	100.241910
3897.000000	100.243131
3896.000000	100.244486
3895.000000	100.245741
3894.000000	100.246605
3893.000000	100.246771
3892.000000	100.246269
3891.000000	100.245528
3890.000000	100.244837
3889.000000	100.244033
3888.000000	100.242892
3887.000000	100.241590
3886.000000	100.240573
3885.000000	100.240128
3884.000000	100.240254
3883.000000	100.240897
3882.000000	100.241992
3881.000000	100.243182
3880.000000	100.243818
3879.000000	100.243612
3878.000000	100.243056
3877.000000	100.243102
3876.000000	100.244484
3875.000000	100.247211
3874.000000	100.250441
3873.000000	100.253074
3872.000000	100.254664
3871.000000	100.255478
3870.000000	100.255691
3869.000000	100.254978
3868.000000	100.253279
3867.000000	100.251445
3866.000000	100.250732
3865.000000	100.251577
3864.000000	100.253116
3863.000000	100.253991
3862.000000	100.253715
3861.000000	100.252747
3860.000000	100.251894
3859.000000	100.251663
3858.000000	100.252074
3857.000000	100.252887
3856.000000	100.253878
3855.000000	100.254849
3854.000000	100.255496
3853.000000	100.255683
3852.000000	100.255695
3851.000000	100.255824
3850.000000	100.256147
3849.000000	100.256603
3848.000000	100.257023
3847.000000	100.257239
3846.000000	100.257290
3845.000000	100.257395
3844.000000	100.257747
3843.000000	100.258272
3842.000000	100.258637
3841.000000	100.258546
3840.000000	100.258026
3839.000000	100.257379
3838.000000	100.256941
3837.000000	100.256820
3836.000000	100.256847
3835.000000	100.256742
3834.000000	100.256352
3833.000000	100.255748
3832.000000	100.255164
3831.000000	100.254778
3830.000000	100.254586
3829.000000	100.254459
3828.000000	100.254262
3827.000000	100.253931
3826.000000	100.253463
3825.000000	100.252861
3824.000000	100.252165
3823.000000	100.251535
3822.000000	100.251198
3821.000000	100.251240
3820.000000	100.251464
3819.000000	100.251545
3818.000000	100.251374
3817.000000	100.251107
3816.000000	100.250871
3815.000000	100.250509
3814.000000	100.249786
3813.000000	100.248714
3812.000000	100.247571
3811.000000	100.246654
3810.000000	100.246141
3809.000000	100.246164
3808.000000	100.246797
3807.000000	100.247796
3806.000000	100.248563
3805.000000	100.248615
3804.000000	100.247967
3803.000000	100.247129
3802.000000	100.246744
3801.000000	100.246972
3800.000000	100.247423
3799.000000	100.247650
3798.000000	100.247449
3797.000000	100.246826
3796.000000	100.245938
3795.000000	100.245117
3794.000000	100.244756
3793.000000	100.244983
3792.000000	100.245424
3791.000000	100.245397
3790.000000	100.244510
3789.000000	100.243045
3788.000000	100.241719
3787.000000	100.241143
3786.000000	100.241557
3785.000000	100.242857
3784.000000	100.244678
3783.000000	100.246575
3782.000000	100.248345
3781.000000	100.250059
3780.000000	100.251660
3779.000000	100.252616
3778.000000	100.252353
3777.000000	100.250925
3776.000000	100.249074
3775.000000	100.247574
3774.000000	100.246461
3773.000000	100.245134
3772.000000	100.243294
3771.000000	100.241588
3770.000000	100.240988
3769.000000	100.241613
3768.000000	100.242571
3767.000000	100.242861
3766.000000	100.242223
3765.000000	100.241152
3764.000000	100.240314
3763.000000	100.240191
3762.000000	100.241038
3761.000000	100.242432
3760.000000	100.243093
3759.000000	100.241918
3758.000000	100.239382
3757.000000	100.237006
3756.000000	100.235711
3755.000000	100.235585
3754.000000	100.236546
3753.000000	100.238334
3752.000000	100.239899
3751.000000	100.240343
3750.000000	100.240580
3749.000000	100.241833
3748.000000	100.243181
3747.000000	100.242696
3746.000000	100.239865
3745.000000	100.236041
3744.000000	100.232804
3743.000000	100.230615
3742.000000	100.229344
3741.000000	100.229226
3740.000000	100.230645
3739.000000	100.232979
3738.000000	100.234592
3737.000000	100.234390
3736.000000	100.232946
3735.000000	100.231761
3734.000000	100.231145
3733.000000	100.230090
3732.000000	100.228055
3731.000000	100.225611
3730.000000	100.223552
3729.000000	100.222228
3728.000000	100.221688
3727.000000	100.221870
3726.000000	100.222374
3725.000000	100.222391
3724.000000	100.220921
3723.000000	100.217181
3722.000000	100.211274
3721.000000	100.204479
3720.000000	100.198595
3719.000000	100.194743
3718.000000	100.192886
3717.000000	100.192040
3716.000000	100.190957
3715.000000	100.189284
3714.000000	100.187961
3713.000000	100.188064
3712.000000	100.189019
3711.000000	100.188459
3710.000000	100.184530
3709.000000	100.177593
3708.000000	100.169692
3707.000000	100.162768
3706.000000	100.157478
3705.000000	100.153612
3704.000000	100.151024
3703.000000	100.149680
3702.000000	100.148835
3701.000000	100.146807
3700.000000	100.142356
3699.000000	100.136103
3698.000000	100.130192
3697.000000	100.126271
3696.000000	100.123709
3695.000000	100.120401
3694.000000	100.115307
3693.000000	100.109527
3692.000000	100.105079
3691.000000	100.103008
3690.000000	100.102446
3689.000000	100.101330
3688.000000	100.098430
3687.000000	100.093898
3686.000000	100.088193
3685.000000	100.081665
3684.000000	100.074626
3683.000000	100.067167
3682.000000	100.059323
3681.000000	100.051565
3680.000000	100.044258
3679.000000	100.037053
3678.000000	100.029814
3677.000000	100.024013
3676.000000	100.021152
3675.000000	100.019251
3674.000000	100.014144
3673.000000	100.004205
3672.000000	99.992088
3671.000000	99.982414
3670.000000	99.976954
3669.000000	99.973063
3668.000000	99.967745
3667.000000	99.960803
3666.000000	99.953531
3665.000000	99.946360
3664.000000	99.938299
3663.000000	99.928375
3662.000000	99.917161
3661.000000	99.906354
3660.000000	99.896942
3659.000000	99.888874
3658.000000	99.882063
3657.000000	99.877095
3656.000000	99.874306
3655.000000	99.872971
3654.000000	99.872145
3653.000000	99.871883
3652.000000	99.872813
3651.000000	99.873820
3650.000000	99.871763
3649.000000	99.865768
3648.000000	99.858828
3647.000000	99.852968
3646.000000	99.846936
3645.000000	99.838883
3644.000000	99.828447
3643.000000	99.816445
3642.000000	99.804107
3641.000000	99.792654
3640.000000	99.783102
3639.000000	99.775896
3638.000000	99.770678
3637.000000	99.767123
3636.000000	99.765686
3635.000000	99.766602
3634.000000	99.767695
3633.000000	99.764731
3632.000000	99.755612
3631.000000	99.743675
3630.000000	99.735630
3629.000000	99.734552
3628.000000	99.736455
3627.000000	99.735941
3626.000000	99.731755
3625.000000	99.725593
3624.000000	99.718984
3623.000000	99.712558
3622.000000	99.707880
3621.000000	99.708534
3620.000000	99.717259
3619.000000	99.731954
3618.000000	99.746692
3617.000000	99.757220
3616.000000	99.763553
3615.000000	99.767927
3614.000000	99.771667
3613.000000	99.774366
3612.000000	99.775945
3611.000000	99.778353
3610.000000	99.784036
3609.000000	99.792700
3608.000000	99.800551
3607.000000	99.803918
3606.000000	99.803090
3605.000000	99.801747
3604.000000	99.803371
3603.000000	99.808470
3602.000000	99.814803
3601.000000	99.820063
3600.000000	99.823814
3599.000000	99.827028
3598.000000	99.830359
3597.000000	99.833800
3596.000000	99.837633
3595.000000	99.842751
3594.000000	99.848992
3593.000000	99.854509
3592.000000	99.857809
3591.000000	99.859412
3590.000000	99.860807
3589.000000	99.861901
3588.000000	99.860570
3587.000000	99.855819
3586.000000	99.850096
3585.000000	99.846844
3584.000000	99.847000
3583.000000	99.848712
3582.000000	99.849281
3581.000000	99.847448
3580.000000	99.844291
3579.000000	99.842179
3578.000000	99.842675
3577.000000	99.845340
3576.000000	99.848377
3575.000000	99.850318
3574.000000	99.851015
3573.000000	99.851209
3572.000000	99.851625
3571.000000	99.852604
3570.000000	99.854319
3569.000000	99.856851
3568.000000	99.859689
3567.000000	99.861414
3566.000000	99.860530
3565.000000	99.856738
3564.000000	99.851218
3563.000000	99.845955
3562.000000	99.842562
3561.000000	99.841451
3560.000000	99.841838
3559.000000	99.842475
3558.000000	99.842546
3557.000000	99.842075
3556.000000	99.841703
3555.000000	99.842119
3554.000000	99.843410
3553.000000	99.844783
3552.000000	99.845139
3551.000000	99.844140
3550.000000	99.842536
3549.000000	99.841496
3548.000000	99.841693
3547.000000	99.842994
3546.000000	99.844697
3545.000000	99.845947
3544.000000	99.846178
3543.000000	99.845333
3542.000000	99.843843
3541.000000	99.842356
3540.000000	99.841309
3539.000000	99.840820
3538.000000	99.840884
3537.000000	99.841458
3536.000000	99.842312
3535.000000	99.843030
3534.000000	99.843373
3533.000000	99.843541
3532.000000	99.843943
3531.000000	99.844781
3530.000000	99.845890
3529.000000	99.846882
3528.000000	99.847369
3527.000000	99.847193
3526.000000	99.846593
3525.000000	99.846147
3524.000000	99.846297
3523.000000	99.846929
3522.000000	99.847496
3521.000000	99.847590
3520.000000	99.847306
3519.000000	99.847019
3518.000000	99.846911
3517.000000	99.846864
3516.000000	99.846785
3515.000000	99.846803
3514.000000	99.847062
3513.000000	99.847486
3512.000000	99.847887
3511.000000	99.848243
3510.000000	99.848730
3509.000000	99.849437
3508.000000	99.850161
3507.000000	99.850600
3506.000000	99.850608
3505.000000	99.850233
3504.000000	99.849667
3503.000000	99.849195
3502.000000	99.849117
3501.000000	99.849541
3500.000000	99.850244
3499.000000	99.850836
3498.000000	99.851089
3497.000000	99.851054
3496.000000	99.850906
3495.000000	99.850764
3494.000000	99.850691
3493.000000	99.850784
3492.000000	99.851126
3491.000000	99.851646
3490.000000	99.852113
3489.000000	99.852389
3488.000000	99.852623
3487.000000	99.853081
3486.000000	99.853730
3485.000000	99.854097
3484.000000	99.853644
3483.000000	99.852268
3482.000000	99.850467
3481.000000	99.849052
3480.000000	99.848521
3479.000000	99.848846
3478.000000	99.849740
3477.000000	99.850850
3476.000000	99.851847
3475.000000	99.852484
3474.000000	99.852718
3473.000000	99.852767
3472.000000	99.852880
3471.000000	99.853007
3470.000000	99.852781
3469.000000	99.851897
3468.000000	99.850483
3467.000000	99.849080
3466.000000	99.848168
3465.000000	99.847705
3464.000000	99.847203
3463.000000	99.846337
3462.000000	99.845476
3461.000000	99.845359
3460.000000	99.846184
3459.000000	99.847175
3458.000000	99.847316
3457.000000	99.846423
3456.000000	99.845190
3455.000000	99.844322
3454.000000	99.843827
3453.000000	99.843351
3452.000000	99.842790
3451.000000	99.842202
3450.000000	99.841376
3449.000000	99.839987
3448.000000	99.838214
3447.000000	99.836773
3446.000000	99.836084
3445.000000	99.835658
3444.000000	99.834670
3443.000000	99.833043
3442.000000	99.831635
3441.000000	99.831174
3440.000000	99.831294
3439.000000	99.830879
3438.000000	99.829318
3437.000000	99.827154
3436.000000	99.825523
3435.000000	99.825113
3434.000000	99.825817
3433.000000	99.827009
3432.000000	99.827960
3431.000000	99.828214
3430.000000	99.827787
3429.000000	99.827043
3428.000000	99.826297
3427.000000	99.825552
3426.000000	99.824727
3425.000000	99.824008
3424.000000	99.823730
3423.000000	99.823968
3422.000000	99.824439
3421.000000	99.824819
3420.000000	99.824989
3419.000000	99.824997
3418.000000	99.825024
3417.000000	99.825391
3416.000000	99.826283
3415.000000	99.827347
3414.000000	99.827796
3413.000000	99.827200
3412.000000	99.825916
3411.000000	99.824847
3410.000000	99.824568
3409.000000	99.824964
3408.000000	99.825566
3407.000000	99.825989
3406.000000	99.826142
3405.000000	99.826153
3404.000000	99.826221
3403.000000	99.826437
3402.000000	99.826656
3401.000000	99.826606
3400.000000	99.826201
3399.000000	99.825701
3398.000000	99.825476
3397.000000	99.825627
3396.000000	99.825942
3395.000000	99.826164
3394.000000	99.826249
3393.000000	99.826340
3392.000000	99.826563
3391.000000	99.826902
3390.000000	99.827241
3389.000000	99.827513
3388.000000	99.827790
3387.000000	99.828222
3386.000000	99.828874
3385.000000	99.829639
3384.000000	99.830316
3383.000000	99.830773
3382.000000	99.831024
3381.000000	99.831153
3380.000000	99.831218
3379.000000	99.831244
3378.000000	99.831292
3377.000000	99.831493
3376.000000	99.831957
3375.000000	99.832661
3374.000000	99.833424
3373.000000	99.834035
3372.000000	99.834435
3371.000000	99.834780
3370.000000	99.835332
3369.000000	99.836250
3368.000000	99.837467
3367.000000	99.838692
3366.000000	99.839612
3365.000000	99.840093
3364.000000	99.840188
3363.000000	99.840070
3362.000000	99.839988
3361.000000	99.840220
3360.000000	99.840945
3359.000000	99.842094
3358.000000	99.843341
3357.000000	99.844367
3356.000000	99.845141
3355.000000	99.845852
3354.000000	99.846586
3353.000000	99.847178
3352.000000	99.847430
3351.000000	99.847379
3350.000000	99.847356
3349.000000	99.847741
3348.000000	99.848677
3347.000000	99.849992
3346.000000	99.851313
3345.000000	99.852339
3344.000000	99.853030
3343.000000	99.853578
3342.000000	99.854227
3341.000000	99.855093
3340.000000	99.856162
3339.000000	99.857379
3338.000000	99.858627
3337.000000	99.859708
3336.000000	99.860463
3335.000000	99.860971
3334.000000	99.861514
3333.000000	99.862284
3332.000000	99.863187
3331.000000	99.863989
3330.000000	99.864602
3329.000000	99.865196
3328.000000	99.866072
3327.000000	99.867409
3326.000000	99.869017
3325.000000	99.870326
3324.000000	99.870834
3323.000000	99.870580
3322.000000	99.870152
3321.000000	99.870132
3320.000000	99.870612
3319.000000	99.871390
3318.000000	99.872372
3317.000000	99.873552
3316.000000	99.874730
3315.000000	99.875521
3314.000000	99.875655
3313.000000	99.875195
3312.000000	99.874471
3311.000000	99.873931
3310.000000	99.873966
3309.000000	99.874703
3308.000000	99.875882
3307.000000	99.877061
3306.000000	99.877989
3305.000000	99.878722
3304.000000	99.879479
3303.000000	99.880478
3302.000000	99.881814
3301.000000	99.883353
3300.000000	99.884740
3299.000000	99.885664
3298.000000	99.886169
3297.000000	99.886616
3296.000000	99.887274
3295.000000	99.888037
3294.000000	99.888623
3293.000000	99.888931
3292.000000	99.889074
3291.000000	99.889117
3290.000000	99.888969
3289.000000	99.888613
3288.000000	99.888297
3287.000000	99.888405
3286.000000	99.889082
3285.000000	99.890082
3284.000000	99.890899
3283.000000	99.891208
3282.000000	99.891083
3281.000000	99.890866
3280.000000	99.890893
3279.000000	99.891241
3278.000000	99.891811
3277.000000	99.892454
3276.000000	99.893038
3275.000000	99.893451
3274.000000	99.893630
3273.000000	99.893655
3272.000000	99.893719
3271.000000	99.893950
3270.000000	99.894280
3269.000000	99.894552
3268.000000	99.894739
3267.000000	99.894976
3266.000000	99.895378
3265.000000	99.895920
3264.000000	99.896493
3263.000000	99.897018
3262.000000	99.897476
3261.000000	99.897866
3260.000000	99.898181
3259.000000	99.898446
3258.000000	99.898730
3257.000000	99.899101
3256.000000	99.899575
3255.000000	99.900114
3254.000000	99.900679
3253.000000	99.901262
3252.000000	99.901857
3251.000000	99.902432
3250.000000	99.902954
3249.000000	99.903454
3248.000000	99.904034
3247.000000	99.904741
3246.000000	99.905467
3245.000000	99.906037
3244.000000	99.906426
3243.000000	99.906821
3242.000000	99.907388
3241.000000	99.908043
3240.000000	99.908572
3239.000000	99.908953
3238.000000	99.909404
3237.000000	99.910095
3236.000000	99.910898
3235.000000	99.911556
3234.000000	99.912061
3233.000000	99.912715
3232.000000	99.913789
3231.000000	99.915244
3230.000000	99.916754
3229.000000	99.917951
3228.000000	99.918664
3227.000000	99.918964
3226.000000	99.919129
3225.000000	99.919498
3224.000000	99.920224
3223.000000	99.921177
3222.000000	99.922126
3221.000000	99.923035
3220.000000	99.924105
3219.000000	99.925521
3218.000000	99.927195
3217.000000	99.928783
3216.000000	99.929980
3215.000000	99.930706
3214.000000	99.931024
3213.000000	99.931047
3212.000000	99.930999
3211.000000	99.931239
3210.000000	99.932049
3209.000000	99.933375
3208.000000	99.934892
3207.000000	99.936335
3206.000000	99.937675
3205.000000	99.938973
3204.000000	99.940198
3203.000000	99.941233
3202.000000	99.941995
3201.000000	99.942498
3200.000000	99.942835
3199.000000	99.943167
3198.000000	99.943689
3197.000000	99.944522
3196.000000	99.945605
3195.000000	99.946687
3194.000000	99.947506
3193.000000	99.948016
3192.000000	99.948447
3191.000000	99.949120
3190.000000	99.950167
3189.000000	99.951441
3188.000000	99.952644
3187.000000	99.953523
3186.000000	99.953957
3185.000000	99.954005
3184.000000	99.954004
3183.000000	99.954463
3182.000000	99.955715
3181.000000	99.957626
3180.000000	99.959642
3179.000000	99.961229
3178.000000	99.962217
3177.000000	99.962657
3176.000000	99.962552
3175.000000	99.961883
3174.000000	99.960851
3173.000000	99.959953
3172.000000	99.959726
3171.000000	99.960427
3170.000000	99.961862
3169.000000	99.963417
3168.000000	99.964469
3167.000000	99.964858
3166.000000	99.964916
3165.000000	99.965042
3164.000000	99.965336
3163.000000	99.965711
3162.000000	99.966230
3161.000000	99.967075
3160.000000	99.968245
3159.000000	99.969544
3158.000000	99.970834
3157.000000	99.972116
3156.000000	99.973345
3155.000000	99.974361
3154.000000	99.975064
3153.000000	99.975483
3152.000000	99.975630
3151.000000	99.975541
3150.000000	99.975539
3149.000000	99.976133
3148.000000	99.977478
3147.000000	99.979107
3146.000000	99.980410
3145.000000	99.981240
3144.000000	99.981828
3143.000000	99.982328
3142.000000	99.982745
3141.000000	99.983173
3140.000000	99.983723
3139.000000	99.984255
3138.000000	99.984537
3137.000000	99.984727
3136.000000	99.985327
3135.000000	99.986611
3134.000000	99.988351
3133.000000	99.990103
3132.000000	99.991589
3131.000000	99.992776
3130.000000	99.993813
3129.000000	99.994984
3128.000000	99.996498
3127.000000	99.998158
3126.000000	99.999391
3125.000000	99.999820
3124.000000	99.999843
3123.000000	100.000492
3122.000000	100.002533
3121.000000	100.005854
3120.000000	100.009447
3119.000000	100.012166
3118.000000	100.013678
3117.000000	100.014542
3116.000000	100.015441
3115.000000	100.016366
3114.000000	100.016880
3113.000000	100.016920
3112.000000	100.016945
3111.000000	100.017360
3110.000000	100.018109
3109.000000	100.018982
3108.000000	100.019996
3107.000000	100.021296
3106.000000	100.022850
3105.000000	100.024415
3104.000000	100.025761
3103.000000	100.026803
3102.000000	100.027556
3101.000000	100.028117
3100.000000	100.028671
3099.000000	100.029440
3098.000000	100.030538
3097.000000	100.031886
3096.000000	100.033240
3095.000000	100.034334
3094.000000	100.035073
3093.000000	100.035571
3092.000000	100.036028
3091.000000	100.036568
3090.000000	100.037204
3089.000000	100.037911
3088.000000	100.038665
3087.000000	100.039418
3086.000000	100.040110
3085.000000	100.040728
3084.000000	100.041310
3083.000000	100.041859
3082.000000	100.042328
3081.000000	100.042704
3080.000000	100.043036
3079.000000	100.043384
3078.000000	100.043776
3077.000000	100.044207
3076.000000	100.044663
3075.000000	100.045127
3074.000000	100.045589
3073.000000	100.046044
3072.000000	100.046486
3071.000000	100.046923
3070.000000	100.047368
3069.000000	100.047821
3068.000000	100.048272
3067.000000	100.048707
3066.000000	100.049117
3065.000000	100.049500
3064.000000	100.049856
3063.000000	100.050181
3062.000000	100.050469
3061.000000	100.050737
3060.000000	100.051045
3059.000000	100.051455
3058.000000	100.051965
3057.000000	100.052502
3056.000000	100.053002
3055.000000	100.053464
3054.000000	100.053899
3053.000000	100.054282
3052.000000	100.054573
3051.000000	100.054801
3050.000000	100.055083
3049.000000	100.055506
3048.000000	100.055983
3047.000000	100.056261
3046.000000	100.056168
3045.000000	100.055896
3044.000000	100.055975
3043.000000	100.056771
3042.000000	100.058081
3041.000000	100.059262
3040.000000	100.059961
3039.000000	100.060448
3038.000000	100.061150
3037.000000	100.062017
3036.000000	100.062636
3035.000000	100.062831
3034.000000	100.062764
3033.000000	100.062569
3032.000000	100.062329
3031.000000	100.062388
3030.000000	100.063135
3029.000000	100.064279
3028.000000	100.064837
3027.000000	100.064218
3026.000000	100.063012
3025.000000	100.062366
3024.000000	100.062742
3023.000000	100.063689
3022.000000	100.064661
3021.000000	100.065755
3020.000000	100.067484
3019.000000	100.070045
3018.000000	100.072981
3017.000000	100.075468
3016.000000	100.076881
3015.000000	100.077169
3014.000000	100.076816
3013.000000	100.076569
3012.000000	100.077075
3011.000000	100.078642
3010.000000	100.081112
3009.000000	100.083860
3008.000000	100.086120
3007.000000	100.087540
3006.000000	100.088345
3005.000000	100.088988
3004.000000	100.089673
3003.000000	100.090351
3002.000000	100.091070
3001.000000	100.092092
3000.000000	100.093601
2999.000000	100.095439
2998.000000	100.097164
2997.000000	100.098337
2996.000000	100.098803
2995.000000	100.098828
2994.000000	100.098997
2993.000000	100.099765
2992.000000	100.101040
2991.000000	100.102247
2990.000000	100.102932
2989.000000	100.103207
2988.000000	100.103553
2987.000000	100.104260
2986.000000	100.105235
2985.000000	100.106341
2984.000000	100.107700
2983.000000	100.109483
2982.000000	100.111488
2981.000000	100.113084
2980.000000	100.113762
2979.000000	100.113593
2978.000000	100.113148
2977.000000	100.112998
2976.000000	100.113287
2975.000000	100.113812
2974.000000	100.114332
2973.000000	100.114748
2972.000000	100.115103
2971.000000	100.115502
2970.000000	100.116042
2969.000000	100.116702
2968.000000	100.117259
2967.000000	100.117415
2966.000000	100.117073
2965.000000	100.116498
2964.000000	100.116158
2963.000000	100.116329
2962.000000	100.116891
2961.000000	100.117453
2960.000000	100.117688
2959.000000	100.117591
2958.000000	100.117417
2957.000000	100.117410
2956.000000	100.117611
2955.000000	100.117948
2954.000000	100.118461
2953.000000	100.119302
2952.000000	100.120483
2951.000000	100.121667
2950.000000	100.122353
2949.000000	100.122324
2948.000000	100.121795
2947.000000	100.121260
2946.000000	100.121042
2945.000000	100.121099
2944.000000	100.121276
2943.000000	100.121604
2942.000000	100.122246
2941.000000	100.123181
2940.000000	100.124108
2939.000000	100.124698
2938.000000	100.124831
2937.000000	100.124567
2936.000000	100.124080
2935.000000	100.123700
2934.000000	100.123873
2933.000000	100.124838
2932.000000	100.126309
2931.000000	100.127677
2930.000000	100.128652
2929.000000	100.129467
2928.000000	100.130324
2927.000000	100.130867
2926.000000	100.130569
2925.000000	100.129514
2924.000000	100.128470
2923.000000	100.128063
2922.000000	100.128158
2921.000000	100.128253
2920.000000	100.128253
2919.000000	100.128559
2918.000000	100.129477
2917.000000	100.130864
2916.000000	100.132379
2915.000000	100.133838
2914.000000	100.135150
2913.000000	100.136111
2912.000000	100.136465
2911.000000	100.136080
2910.000000	100.134950
2909.000000	100.133161
2908.000000	100.131057
2907.000000	100.129429
2906.000000	100.129139
2905.000000	100.130465
2904.000000	100.133083
2903.000000	100.136465
2902.000000	100.140072
2901.000000	100.143172
2900.000000	100.144916
2899.000000	100.144951
2898.000000	100.143827
2897.000000	100.142567
2896.000000	100.141789
2895.000000	100.141458
2894.000000	100.141389
2893.000000	100.141606
2892.000000	100.142169
2891.000000	100.142969
2890.000000	100.143826
2889.000000	100.144643
2888.000000	100.145391
2887.000000	100.146044
2886.000000	100.146637
2885.000000	100.147267
2884.000000	100.147982
2883.000000	100.148702
2882.000000	100.149253
2881.000000	100.149468
2880.000000	100.149323
2879.000000	100.149075
2878.000000	100.149146
2877.000000	100.149720
2876.000000	100.150475
2875.000000	100.150871
2874.000000	100.150727
2873.000000	100.150371
2872.000000	100.150254
2871.000000	100.150506
2870.000000	100.150953
2869.000000	100.151368
2868.000000	100.151615
2867.000000	100.151678
2866.000000	100.151650
2865.000000	100.151675
2864.000000	100.151810
2863.000000	100.151992
2862.000000	100.152143
2861.000000	100.152235
2860.000000	100.152292
2859.000000	100.152343
2858.000000	100.152396
2857.000000	100.152448
2856.000000	100.152507
2855.000000	100.152586
2854.000000	100.152689
2853.000000	100.152808
2852.000000	100.152912
2851.000000	100.152951
2850.000000	100.152877
2849.000000	100.152714
2848.000000	100.152568
2847.000000	100.152548
2846.000000	100.152660
2845.000000	100.152825
2844.000000	100.152966
2843.000000	100.153044
2842.000000	100.153071
2841.000000	100.153119
2840.000000	100.153283
2839.000000	100.153575
2838.000000	100.153885
2837.000000	100.154104
2836.000000	100.154274
2835.000000	100.154544
2834.000000	100.154984
2833.000000	100.155525
2832.000000	100.156082
2831.000000	100.156624
2830.000000	100.157133
2829.000000	100.157555
2828.000000	100.157852
2827.000000	100.158105
2826.000000	100.158499
2825.000000	100.159169
2824.000000	100.160042
2823.000000	100.160875
2822.000000	100.161479
2821.000000	100.161892
2820.000000	100.162325
2819.000000	100.162968
2818.000000	100.163819
2817.000000	100.164685
2816.000000	100.165320
2815.000000	100.165623
2814.000000	100.165758
2813.000000	100.166042
2812.000000	100.166640
2811.000000	100.167414
2810.000000	100.168157
2809.000000	100.168933
2808.000000	100.170026
2807.000000	100.171543
2806.000000	100.173175
2805.000000	100.174441
2804.000000	100.175158
2803.000000	100.175625
2802.000000	100.176373
2801.000000	100.177641
2800.000000	100.179067
2799.000000	100.179985
2798.000000	100.180079
2797.000000	100.179693
2796.000000	100.179488
2795.000000	100.179822
2794.000000	100.180691
2793.000000	100.182112
2792.000000	100.184170
2791.000000	100.186577
2790.000000	100.188591
2789.000000	100.189729
2788.000000	100.190297
2787.000000	100.190899
2786.000000	100.191537
2785.000000	100.191723
2784.000000	100.191395
2783.000000	100.191155
2782.000000	100.191490
2781.000000	100.192116
2780.000000	100.192356
2779.000000	100.191982
2778.000000	100.191481
2777.000000	100.191504
2776.000000	100.192208
2775.000000	100.193209
2774.000000	100.194048
2773.000000	100.194624
2772.000000	100.195111
2771.000000	100.195607
2770.000000	100.196024
2769.000000	100.196300
2768.000000	100.196512
2767.000000	100.196721
2766.000000	100.196915
2765.000000	100.197199
2764.000000	100.197880
2763.000000	100.199160
2762.000000	100.200813
2761.000000	100.202284
2760.000000	100.203091
2759.000000	100.203040
2758.000000	100.202192
2757.000000	100.200902
2756.000000	100.199801
2755.000000	100.199426
2754.000000	100.199835
2753.000000	100.200729
2752.000000	100.201844
2751.000000	100.203060
2750.000000	100.204151
2749.000000	100.204765
2748.000000	100.204800
2747.000000	100.204585
2746.000000	100.204523
2745.000000	100.204661
2744.000000	100.204747
2743.000000	100.204620
2742.000000	100.204388
2741.000000	100.204257
2740.000000	100.204305
2739.000000	100.204521
2738.000000	100.204967
2737.000000	100.205827
2736.000000	100.207220
2735.000000	100.208942
2734.000000	100.210442
2733.000000	100.211173
2732.000000	100.210979
2731.000000	100.210135
2730.000000	100.209148
2729.000000	100.208518
2728.000000	100.208544
2727.000000	100.209179
2726.000000	100.210055
2725.000000	100.210812
2724.000000	100.211356
2723.000000	100.211610
2722.000000	100.211197
2721.000000	100.209760
2720.000000	100.207651
2719.000000	100.205944
2718.000000	100.205467
2717.000000	100.206175
2716.000000	100.207529
2715.000000	100.209170
2714.000000	100.210914
2713.000000	100.212359
2712.000000	100.213080
2711.000000	100.213184
2710.000000	100.213249
2709.000000	100.213636
2708.000000	100.214108
2707.000000	100.214127
2706.000000	100.213285
2705.000000	100.211589
2704.000000	100.209697
2703.000000	100.208739
2702.000000	100.209409
2701.000000	100.211081
2700.000000	100.212172
2699.000000	100.211719
2698.000000	100.210259
2697.000000	100.209013
2696.000000	100.208587
2695.000000	100.208884
2694.000000	100.209732
2693.000000	100.211073
2692.000000	100.212694
2691.000000	100.214181
2690.000000	100.215309
2689.000000	100.216251
2688.000000	100.217346
2687.000000	100.218792
2686.000000	100.220481
2685.000000	100.221943
2684.000000	100.222501
2683.000000	100.221770
2682.000000	100.220159
2681.000000	100.218792
2680.000000	100.218634
2679.000000	100.219668
2678.000000	100.220950
2677.000000	100.221503
2676.000000	100.221170
2675.000000	100.220574
2674.000000	100.220318
2673.000000	100.220289
2672.000000	100.219848
2671.000000	100.218659
2670.000000	100.217082
2669.000000	100.215706
2668.000000	100.214802
2667.000000	100.214407
2666.000000	100.214659
2665.000000	100.215626
2664.000000	100.216869
2663.000000	100.217569
2662.000000	100.217288
2661.000000	100.216401
2660.000000	100.215708
2659.000000	100.215747
2658.000000	100.216488
2657.000000	100.217392
2656.000000	100.217621
2655.000000	100.216576
2654.000000	100.214542
2653.000000	100.212787
2652.000000	100.212510
2651.000000	100.213791
2650.000000	100.215623
2649.000000	100.216923
2648.000000	100.217358
2647.000000	100.217176
2646.000000	100.216787
2645.000000	100.216668
2644.000000	100.217270
2643.000000	100.218673
2642.000000	100.220380
2641.000000	100.221543
2640.000000	100.221348
2639.000000	100.219338
2638.000000	100.215779
2637.000000	100.211876
2636.000000	100.209050
2635.000000	100.207746
2634.000000	100.207401
2633.000000	100.207536
2632.000000	100.208411
2631.000000	100.210212
2630.000000	100.212136
2629.000000	100.212950
2628.000000	100.212270
2627.000000	100.210721
2626.000000	100.209039
2625.000000	100.207499
2624.000000	100.206238
2623.000000	100.205545
2622.000000	100.205566
2621.000000	100.206086
2620.000000	100.206793
2619.000000	100.207503
2618.000000	100.208090
2617.000000	100.208436
2616.000000	100.208540
2615.000000	100.208493
2614.000000	100.208340
2613.000000	100.208205
2612.000000	100.208403
2611.000000	100.209108
2610.000000	100.209972
2609.000000	100.210403
2608.000000	100.210230
2607.000000	100.209797
2606.000000	100.209474
2605.000000	100.209459
2604.000000	100.209889
2603.000000	100.210692
2602.000000	100.211312
2601.000000	100.211098
2600.000000	100.210087
2599.000000	100.209092
2598.000000	100.208896
2597.000000	100.209608
2596.000000	100.210796
2595.000000	100.211918
2594.000000	100.212595
2593.000000	100.212619
2592.000000	100.212033
2591.000000	100.211051
2590.000000	100.209812
2589.000000	100.208441
2588.000000	100.207306
2587.000000	100.206895
2586.000000	100.207362
2585.000000	100.208367
2584.000000	100.209450
2583.000000	100.210391
2582.000000	100.211061
2581.000000	100.211302
2580.000000	100.211132
2579.000000	100.210867
2578.000000	100.210851
2577.000000	100.211107
2576.000000	100.211379
2575.000000	100.211469
2574.000000	100.211432
2573.000000	100.211451
2572.000000	100.211615
2571.000000	100.211840
2570.000000	100.211946
2569.000000	100.211807
2568.000000	100.211454
2567.000000	100.211047
2566.000000	100.210735
2565.000000	100.210544
2564.000000	100.210421
2563.000000	100.210338
2562.000000	100.210299
2561.000000	100.210288
2560.000000	100.210269
2559.000000	100.210249
2558.000000	100.210277
2557.000000	100.210361
2556.000000	100.210455
2555.000000	100.210514
2554.000000	100.210534
2553.000000	100.210531
2552.000000	100.210515
2551.000000	100.210501
2550.000000	100.210504
2549.000000	100.210528
2548.000000	100.210567
2547.000000	100.210608
2546.000000	100.210639
2545.000000	100.210654
2544.000000	100.210656
2543.000000	100.210652
2542.000000	100.210649
2541.000000	100.210648
2540.000000	100.210650
2539.000000	100.210655
2538.000000	100.210664
2537.000000	100.210676
2536.000000	100.210683
2535.000000	100.210676
2534.000000	100.210646
2533.000000	100.210590
2532.000000	100.210512
2531.000000	100.210427
2530.000000	100.210354
2529.000000	100.210309
2528.000000	100.210301
2527.000000	100.210331
2526.000000	100.210385
2525.000000	100.210439
2524.000000	100.210497
2523.000000	100.210612
2522.000000	100.210813
2521.000000	100.211057
2520.000000	100.211284
2519.000000	100.211519
2518.000000	100.211831
2517.000000	100.212195
2516.000000	100.212447
2515.000000	100.212383
2514.000000	100.211880
2513.000000	100.211022
2512.000000	100.210158
2511.000000	100.209774
2510.000000	100.210111
2509.000000	100.210951
2508.000000	100.211904
2507.000000	100.212723
2506.000000	100.213334
2505.000000	100.213771
2504.000000	100.214169
2503.000000	100.214657
2502.000000	100.215132
2501.000000	100.215332
2500.000000	100.215289
2499.000000	100.215472
2498.000000	100.216217
2497.000000	100.217161
2496.000000	100.217502
2495.000000	100.216806
2494.000000	100.215414
2493.000000	100.214180
2492.000000	100.213844
2491.000000	100.214608
2490.000000	100.216087
2489.000000	100.217665
2488.000000	100.219124
2487.000000	100.220748
2486.000000	100.222685
2485.000000	100.224412
2484.000000	100.225170
2483.000000	100.224854
2482.000000	100.224229
2481.000000	100.224257
2480.000000	100.225260
2479.000000	100.226853
2478.000000	100.228375
2477.000000	100.229346
2476.000000	100.229654
2475.000000	100.229473
2474.000000	100.229029
2473.000000	100.228436
2472.000000	100.227773
2471.000000	100.227241
2470.000000	100.227110
2469.000000	100.227543
2468.000000	100.228524
2467.000000	100.229919
2466.000000	100.231495
2465.000000	100.232922
2464.000000	100.233918
2463.000000	100.234469
2462.000000	100.234804
2461.000000	100.235125
2460.000000	100.235416
2459.000000	100.235543
2458.000000	100.235486
2457.000000	100.235419
2456.000000	100.235604
2455.000000	100.236190
2454.000000	100.237100
2453.000000	100.238111
2452.000000	100.239057
2451.000000	100.239930
2450.000000	100.240778
2449.000000	100.241554
2448.000000	100.242137
2447.000000	100.242475
2446.000000	100.242649
2445.000000	100.242835
2444.000000	100.243192
2443.000000	100.243761
2442.000000	100.244464
2441.000000	100.245139
2440.000000	100.245653
2439.000000	100.245995
2438.000000	100.246258
2437.000000	100.246554
2436.000000	100.246930
2435.000000	100.247368
2434.000000	100.247840
2433.000000	100.248338
2432.000000	100.248860
2431.000000	100.249394
2430.000000	100.249907
2429.000000	100.250364
2428.000000	100.250755
2427.000000	100.251102
2426.000000	100.251439
2425.000000	100.251779
2424.000000	100.252107
2423.000000	100.252397
2422.000000	100.252629
2421.000000	100.252810
2420.000000	100.252984
2419.000000	100.253209
2418.000000	100.253506
2417.000000	100.253843
2416.000000	100.254161
2415.000000	100.254436
2414.000000	100.254702
2413.000000	100.254998
2412.000000	100.255313
2411.000000	100.255597
2410.000000	100.255830
2409.000000	100.256061
2408.000000	100.256339
2407.000000	100.256629
2406.000000	100.256845
2405.000000	100.256969
2404.000000	100.257101
2403.000000	100.257333
2402.000000	100.257610
2401.000000	100.257775
2400.000000	100.257774
2399.000000	100.257760
2398.000000	100.257971
2397.000000	100.258520
2396.000000	100.259296
2395.000000	100.260029
2394.000000	100.260478
2393.000000	100.260585
2392.000000	100.260452
2391.000000	100.260201
2390.000000	100.259907
2389.000000	100.259665
2388.000000	100.259622
2387.000000	100.259822
2386.000000	100.260056
2385.000000	100.259994
2384.000000	100.259512
2383.000000	100.258873
2382.000000	100.258554
2381.000000	100.258834
2380.000000	100.259655
2379.000000	100.260706
2378.000000	100.261633
2377.000000	100.262253
2376.000000	100.262563
2375.000000	100.262635
2374.000000	100.262531
2373.000000	100.262307
2372.000000	100.262070
2371.000000	100.261925
2370.000000	100.261883
2369.000000	100.261899
2368.000000	100.261973
2367.000000	100.262155
2366.000000	100.262428
2365.000000	100.262681
2364.000000	100.262817
2363.000000	100.262803
2362.000000	100.262668
2361.000000	100.262461
2360.000000	100.262237
2359.000000	100.262029
2358.000000	100.261755
2357.000000	100.261435
2356.000000	100.261319
2355.000000	100.261643
2354.000000	100.262296
2353.000000	100.262770
2352.000000	100.262735
2351.000000	100.262240
2350.000000	100.261553
2349.000000	100.260935
2348.000000	100.260507
2347.000000	100.260349
2346.000000	100.260318
2345.000000	100.260172
2344.000000	100.259886
2343.000000	100.259746
2342.000000	100.259965
2341.000000	100.260092
2340.000000	100.259576
2339.000000	100.258428
2338.000000	100.257257
2337.000000	100.256446
2336.000000	100.255795
2335.000000	100.254960
2334.000000	100.254104
2333.000000	100.253709
2332.000000	100.254175
2331.000000	100.255359
2330.000000	100.256614
2329.000000	100.257227
2328.000000	100.256817
2327.000000	100.255652
2326.000000	100.254079
2325.000000	100.252280
2324.000000	100.250345
2323.000000	100.248604
2322.000000	100.247498
2321.000000	100.247007
2320.000000	100.246793
2319.000000	100.246564
2318.000000	100.246386
2317.000000	100.246248
2316.000000	100.245902
2315.000000	100.245083
2314.000000	100.243870
2313.000000	100.242645
2312.000000	100.241760
2311.000000	100.241274
2310.000000	100.240973
2309.000000	100.240598
2308.000000	100.240056
2307.000000	100.239509
2306.000000	100.239163
2305.000000	100.239029
2304.000000	100.238897
2303.000000	100.238560
2302.000000	100.238007
2301.000000	100.237384
2300.000000	100.236856
2299.000000	100.236499
2298.000000	100.236258
2297.000000	100.235969
2296.000000	100.235481
2295.000000	100.234803
2294.000000	100.234112
2293.000000	100.233614
2292.000000	100.233362
2291.000000	100.233251
2290.000000	100.233072
2289.000000	100.232672
2288.000000	100.232042
2287.000000	100.231299
2286.000000	100.230611
2285.000000	100.230087
2284.000000	100.229734
2283.000000	100.229494
2282.000000	100.229326
2281.000000	100.229242
2280.000000	100.229219
2279.000000	100.229095
2278.000000	100.228673
2277.000000	100.227903
2276.000000	100.226952
2275.000000	100.226088
2274.000000	100.225505
2273.000000	100.225266
2272.000000	100.225346
2271.000000	100.225700
2270.000000	100.226271
2269.000000	100.226943
2268.000000	100.227544
2267.000000	100.227955
2266.000000	100.228194
2265.000000	100.228329
2264.000000	100.228259
2263.000000	100.227699
2262.000000	100.226462
2261.000000	100.224748
2260.000000	100.223046
2259.000000	100.221765
2258.000000	100.221038
2257.000000	100.220882
2256.000000	100.221387
2255.000000	100.222560
2254.000000	100.224053
2253.000000	100.225146
2252.000000	100.225228
2251.000000	100.224246
2250.000000	100.222620
2249.000000	100.220867
2248.000000	100.219221
2247.000000	100.217622
2246.000000	100.216046
2245.000000	100.214724
2244.000000	100.214022
2243.000000	100.214120
2242.000000	100.214747
2241.000000	100.215260
2240.000000	100.215110
2239.000000	100.214275
2238.000000	100.213269
2237.000000	100.212713
2236.000000	100.212859
2235.000000	100.213481
2234.000000	100.214129
2233.000000	100.214452
2232.000000	100.214291
2231.000000	100.213586
2230.000000	100.212420
2229.000000	100.211159
2228.000000	100.210316
2227.000000	100.210061
2226.000000	100.209998
2225.000000	100.209615
2224.000000	100.208919
2223.000000	100.208348
2222.000000	100.208145
2221.000000	100.208166
2220.000000	100.208318
2219.000000	100.208746
2218.000000	100.209370
2217.000000	100.209646
2216.000000	100.209197
2215.000000	100.208467
2214.000000	100.208320
2213.000000	100.209033
2212.000000	100.210078
2211.000000	100.210796
2210.000000	100.211000
2209.000000	100.210836
2208.000000	100.210503
2207.000000	100.210321
2206.000000	100.210715
2205.000000	100.211753
2204.000000	100.212847
2203.000000	100.213299
2202.000000	100.213066
2201.000000	100.212670
2200.000000	100.212396
2199.000000	100.211914
2198.000000	100.210844
2197.000000	100.209389
2196.000000	100.208268
2195.000000	100.208040
2194.000000	100.208631
2193.000000	100.209436
2192.000000	100.209914
2191.000000	100.210113
2190.000000	100.210465
2189.000000	100.211114
2188.000000	100.211695
2187.000000	100.211853
2186.000000	100.211762
2185.000000	100.211891
2184.000000	100.212388
2183.000000	100.212950
2182.000000	100.213263
2181.000000	100.213350
2180.000000	100.213416
2179.000000	100.213573
2178.000000	100.213790
2177.000000	100.213992
2176.000000	100.214110
2175.000000	100.214090
2174.000000	100.213922
2173.000000	100.213656
2172.000000	100.213352
2171.000000	100.213091
2170.000000	100.213009
2169.000000	100.213224
2168.000000	100.213767
2167.000000	100.214559
2166.000000	100.215412
2165.000000	100.216057
2164.000000	100.216299
2163.000000	100.216243
2162.000000	100.216261
2161.000000	100.216574
2160.000000	100.217003
2159.000000	100.217262
2158.000000	100.217348
2157.000000	100.217485
2156.000000	100.217752
2155.000000	100.217972
2154.000000	100.218053
2153.000000	100.218169
2152.000000	100.218476
2151.000000	100.218839
2150.000000	100.219017
2149.000000	100.218981
2148.000000	100.218940
2147.000000	100.219054
2146.000000	100.219266
2145.000000	100.219464
2144.000000	100.219681
2143.000000	100.220012
2142.000000	100.220439
2141.000000	100.220872
2140.000000	100.221259
2139.000000	100.221578
2138.000000	100.221789
2137.000000	100.221892
2136.000000	100.221994
2135.000000	100.222207
2134.000000	100.222508
2133.000000	100.222782
2132.000000	100.223018
2131.000000	100.223347
2130.000000	100.223866
2129.000000	100.224516
2128.000000	100.225135
2127.000000	100.225604
2126.000000	100.225934
2125.000000	100.226248
2124.000000	100.226663
2123.000000	100.227157
2122.000000	100.227600
2121.000000	100.227939
2120.000000	100.228274
2119.000000	100.228714
2118.000000	100.229200
2117.000000	100.229589
2116.000000	100.229925
2115.000000	100.230462
2114.000000	100.231368
2113.000000	100.232587
2112.000000	100.233966
2111.000000	100.235313
2110.000000	100.236301
2109.000000	100.236610
2108.000000	100.236254
2107.000000	100.235613
2106.000000	100.235107
2105.000000	100.235019
2104.000000	100.235602
2103.000000	100.236874
2102.000000	100.238260
2101.000000	100.238930
2100.000000	100.238741
2099.000000	100.238439
2098.000000	100.238730
2097.000000	100.239615
2096.000000	100.240890
2095.000000	100.242703
2094.000000	100.245027
2093.000000	100.247020
2092.000000	100.247717
2091.000000	100.247238
2090.000000	100.246770
2089.000000	100.247265
2088.000000	100.248617
2087.000000	100.250185
2086.000000	100.251520
2085.000000	100.252390
2084.000000	100.252629
2083.000000	100.252434
2082.000000	100.252522
2081.000000	100.253627
2080.000000	100.255806
2079.000000	100.258328
2078.000000	100.260201
2077.000000	100.260837
2076.000000	100.260332
2075.000000	100.259182
2074.000000	100.257686
2073.000000	100.255765
2072.000000	100.253483
2071.000000	100.251471
2070.000000	100.250454
2069.000000	100.250417
2068.000000	100.250597
2067.000000	100.250380
2066.000000	100.249973
2065.000000	100.250069
2064.000000	100.251056
2063.000000	100.252646
2062.000000	100.254090
2061.000000	100.254686
2060.000000	100.254250
2059.000000	100.253230
2058.000000	100.252329
2057.000000	100.251974
2056.000000	100.252194
2055.000000	100.252901
2054.000000	100.254037
2053.000000	100.255441
2052.000000	100.256766
2051.000000	100.257641
2050.000000	100.257799
2049.000000	100.257077
2048.000000	100.255481
2047.000000	100.253329
2046.000000	100.251262
2045.000000	100.249949
2044.000000	100.249689
2043.000000	100.250229
2042.000000	100.250869
2041.000000	100.250876
2040.000000	100.250001
2039.000000	100.248598
2038.000000	100.247271
2037.000000	100.246398
2036.000000	100.245952
2035.000000	100.245657
2034.000000	100.245230
2033.000000	100.244572
2032.000000	100.243817
2031.000000	100.243164
2030.000000	100.242622
2029.000000	100.242014
2028.000000	100.241272
2027.000000	100.240568
2026.000000	100.240017
2025.000000	100.239447
2024.000000	100.238642
2023.000000	100.237677
2022.000000	100.236793
2021.000000	100.236016
2020.000000	100.235104
2019.000000	100.233884
2018.000000	100.232463
2017.000000	100.231131
2016.000000	100.230138
2015.000000	100.229618
2014.000000	100.229498
2013.000000	100.229433
2012.000000	100.229007
2011.000000	100.228120
2010.000000	100.227043
2009.000000	100.226075
2008.000000	100.225283
2007.000000	100.224625
2006.000000	100.224107
2005.000000	100.223680
2004.000000	100.223171
2003.000000	100.222519
2002.000000	100.221941
2001.000000	100.221617
2000.000000	100.221316
1999.000000	100.220602
1998.000000	100.219330
1997.000000	100.217795
1996.000000	100.216434
1995.000000	100.215575
1994.000000	100.215345
1993.000000	100.215528
1992.000000	100.215635
1991.000000	100.215441
1990.000000	100.215309
1989.000000	100.215667
1988.000000	100.216314
1987.000000	100.216589
1986.000000	100.216103
1985.000000	100.214974
1984.000000	100.213460
1983.000000	100.211753
1982.000000	100.210240
1981.000000	100.209453
1980.000000	100.209494
1979.000000	100.209773
1978.000000	100.209612
1977.000000	100.209069
1976.000000	100.208822
1975.000000	100.209301
1974.000000	100.210216
1973.000000	100.210911
1972.000000	100.211079
1971.000000	100.211017
1970.000000	100.211232
1969.000000	100.211883
1968.000000	100.212628
1967.000000	100.212986
1966.000000	100.212785
1965.000000	100.212206
1964.000000	100.211516
1963.000000	100.210912
1962.000000	100.210534
1961.000000	100.210438
1960.000000	100.210513
1959.000000	100.210521
1958.000000	100.210251
1957.000000	100.209660
1956.000000	100.208975
1955.000000	100.208676
1954.000000	100.209127
1953.000000	100.210072
1952.000000	100.210654
1951.000000	100.210307
1950.000000	100.209496
1949.000000	100.209206
1948.000000	100.209588
1947.000000	100.209604
1946.000000	100.208274
1945.000000	100.205834
1944.000000	100.203515
1943.000000	100.202345
1942.000000	100.202471
1941.000000	100.203447
1940.000000	100.204659
1939.000000	100.205544
1938.000000	100.205856
1937.000000	100.205923
1936.000000	100.206287
1935.000000	100.206884
1934.000000	100.206943
1933.000000	100.205910
1932.000000	100.204117
1931.000000	100.202329
1930.000000	100.200921
1929.000000	100.199708
1928.000000	100.198402
1927.000000	100.196965
1926.000000	100.195571
1925.000000	100.194411
1924.000000	100.193540
1923.000000	100.192924
1922.000000	100.192576
1921.000000	100.192467
1920.000000	100.192193
1919.000000	100.190996
1918.000000	100.188472
1917.000000	100.185259
1916.000000	100.182465
1915.000000	100.180445
1914.000000	100.178822
1913.000000	100.177309
1912.000000	100.175904
1911.000000	100.174482
1910.000000	100.172733
1909.000000	100.170572
1908.000000	100.168200
1907.000000	100.165633
1906.000000	100.162752
1905.000000	100.159961
1904.000000	100.158148
1903.000000	100.157665
1902.000000	100.157758
1901.000000	100.157295
1900.000000	100.155677
1899.000000	100.152783
1898.000000	100.148596
1897.000000	100.143553
1896.000000	100.139048
1895.000000	100.136773
1894.000000	100.137222
1893.000000	100.139021
1892.000000	100.139833
1891.000000	100.138035
1890.000000	100.133876
1889.000000	100.129512
1888.000000	100.127079
1887.000000	100.126632
1886.000000	100.126647
1885.000000	100.126130
1884.000000	100.125607
1883.000000	100.125935
1882.000000	100.126766
1881.000000	100.126811
1880.000000	100.125371
1879.000000	100.122944
1878.000000	100.120304
1877.000000	100.117652
1876.000000	100.115013
1875.000000	100.113028
1874.000000	100.112671
1873.000000	100.114058
1872.000000	100.115977
1871.000000	100.116987
1870.000000	100.116874
1869.000000	100.116808
1868.000000	100.117919
1867.000000	100.120020
1866.000000	100.122236
1865.000000	100.124312
1864.000000	100.126531
1863.000000	100.128738
1862.000000	100.130250
1861.000000	100.130874
1860.000000	100.131411
1859.000000	100.132783
1858.000000	100.135044
1857.000000	100.137459
1856.000000	100.139135
1855.000000	100.139513
1854.000000	100.138917
1853.000000	100.138784
1852.000000	100.140600
1851.000000	100.144289
1850.000000	100.148148
1849.000000	100.150686
1848.000000	100.152134
1847.000000	100.153845
1846.000000	100.156568
1845.000000	100.159543
1844.000000	100.161301
1843.000000	100.161716
1842.000000	100.162085
1841.000000	100.163243
1840.000000	100.165138
1839.000000	100.167408
1838.000000	100.169571
1837.000000	100.171259
1836.000000	100.172392
1835.000000	100.173047
1834.000000	100.173287
1833.000000	100.173155
1832.000000	100.172651
1831.000000	100.171673
1830.000000	100.170256
1829.000000	100.169151
1828.000000	100.169419
1827.000000	100.171278
1826.000000	100.173896
1825.000000	100.175981
1824.000000	100.176754
1823.000000	100.176453
1822.000000	100.175613
1821.000000	100.174447
1820.000000	100.173003
1819.000000	100.171481
1818.000000	100.170389
1817.000000	100.170429
1816.000000	100.171924
1815.000000	100.174216
1814.000000	100.175964
1813.000000	100.176258
1812.000000	100.175390
1811.000000	100.174344
1810.000000	100.173664
1809.000000	100.173210
1808.000000	100.172846
1807.000000	100.172690
1806.000000	100.172762
1805.000000	100.172941
1804.000000	100.173264
1803.000000	100.173936
1802.000000	100.175002
1801.000000	100.176223
1800.000000	100.177318
1799.000000	100.178045
1798.000000	100.178114
1797.000000	100.177446
1796.000000	100.176529
1795.000000	100.176192
1794.000000	100.176973
1793.000000	100.178713
1792.000000	100.180723
1791.000000	100.182470
1790.000000	100.183821
1789.000000	100.184743
1788.000000	100.185279
1787.000000	100.185680
1786.000000	100.186287
1785.000000	100.187291
1784.000000	100.188651
1783.000000	100.190227
1782.000000	100.191874
1781.000000	100.193438
1780.000000	100.194819
1779.000000	100.196055
1778.000000	100.197256
1777.000000	100.198454
1776.000000	100.199620
1775.000000	100.200799
1774.000000	100.202162
1773.000000	100.203818
1772.000000	100.205573
1771.000000	100.207091
1770.000000	100.208312
1769.000000	100.209436
1768.000000	100.210722
1767.000000	100.212281
1766.000000	100.214014
1765.000000	100.215734
1764.000000	100.217360
1763.000000	100.218944
1762.000000	100.220516
1761.000000	100.221999
1760.000000	100.223338
1759.000000	100.224613
1758.000000	100.225961
1757.000000	100.227414
1756.000000	100.228804
1755.000000	100.229934
1754.000000	100.230770
1753.000000	100.231484
1752.000000	100.232423
1751.000000	100.233889
1750.000000	100.235814
1749.000000	100.237693
1748.000000	100.239031
1747.000000	100.239714
1746.000000	100.239950
1745.000000	100.239986
1744.000000	100.240063
1743.000000	100.240544
1742.000000	100.241721
1741.000000	100.243408
1740.000000	100.244889
1739.000000	100.245679
1738.000000	100.246106
1737.000000	100.246681
1736.000000	100.247534
1735.000000	100.248283
1734.000000	100.248091
1733.000000	100.247227
1732.000000	100.246874
1731.000000	100.246984
1730.000000	100.246878
1729.000000	100.246570
1728.000000	100.246574
1727.000000	100.247196
1726.000000	100.248133
1725.000000	100.248830
1724.000000	100.248839
1723.000000	100.248041
1722.000000	100.246572
1721.000000	100.244711
1720.000000	100.242877
1719.000000	100.241537
1718.000000	100.240701
1717.000000	100.239915
1716.000000	100.239219
1715.000000	100.238984
1714.000000	100.239058
1713.000000	100.238983
1712.000000	100.238492
1711.000000	100.237626
1710.000000	100.236569
1709.000000	100.235482
1708.000000	100.234450
1707.000000	100.233486
1706.000000	100.232536
1705.000000	100.231517
1704.000000	100.230412
1703.000000	100.229203
1702.000000	100.227873
1701.000000	100.226406
1700.000000	100.224932
1699.000000	100.223683
1698.000000	100.222605
1697.000000	100.221532
1696.000000	100.220374
1695.000000	100.219141
1694.000000	100.217875
1693.000000	100.216585
1692.000000	100.215273
1691.000000	100.213950
1690.000000	100.212613
1689.000000	100.211258
1688.000000	100.209888
1687.000000	100.208507
1686.000000	100.207116
1685.000000	100.205709
1684.000000	100.204277
1683.000000	100.202825
1682.000000	100.201372
1681.000000	100.199932
1680.000000	100.198511
1679.000000	100.197108
1678.000000	100.195717
1677.000000	100.194328
1676.000000	100.192932
1675.000000	100.191520
1674.000000	100.190089
1673.000000	100.188644
1672.000000	100.187188
1671.000000	100.185727
1670.000000	100.184265
1669.000000	100.182800
1668.000000	100.181333
1667.000000	100.179863
1666.000000	100.178392
1665.000000	100.176954
1664.000000	100.175527
1663.000000	100.174037
1662.000000	100.172439
1661.000000	100.170803
1660.000000	100.169231
1659.000000	100.167777
1658.000000	100.166420
1657.000000	100.165082
1656.000000	100.163743
1655.000000	100.162835
1654.000000	100.162822
1653.000000	100.162139
1652.000000	100.159889
1651.000000	100.158103
1650.000000	100.157322
1649.000000	100.156658
1648.000000	100.155815
1647.000000	100.154317
1646.000000	100.152065
1645.000000	100.149842
1644.000000	100.148390
1643.000000	100.147532
1642.000000	100.147109
1641.000000	100.147076
1640.000000	100.147197
1639.000000	100.147222
1638.000000	100.147275
1637.000000	100.147434
1636.000000	100.146207
1635.000000	100.142362
1634.000000	100.138400
1633.000000	100.136902
1632.000000	100.137290
1631.000000	100.137839
1630.000000	100.137143
1629.000000	100.134919
1628.000000	100.132127
1627.000000	100.130240
1626.000000	100.130337
1625.000000	100.132955
1624.000000	100.137858
1623.000000	100.143049
1622.000000	100.146051
1621.000000	100.146579
1620.000000	100.145965
1619.000000	100.145548
1618.000000	100.146313
1617.000000	100.148090
1616.000000	100.149887
1615.000000	100.151545
1614.000000	100.153266
1613.000000	100.154790
1612.000000	100.156092
1611.000000	100.157480
1610.000000	100.159245
1609.000000	100.161529
1608.000000	100.164085
1607.000000	100.166050
1606.000000	100.166605
1605.000000	100.166139
1604.000000	100.166396
1603.000000	100.169080
1602.000000	100.174222
1601.000000	100.180100
1600.000000	100.184814
1599.000000	100.187567
1598.000000	100.188549
1597.000000	100.188381
1596.000000	100.187957
1595.000000	100.188249
1594.000000	100.189627
1593.000000	100.191599
1592.000000	100.193618
1591.000000	100.195823
1590.000000	100.198504
1589.000000	100.201283
1588.000000	100.203541
1587.000000	100.205475
1586.000000	100.207886
1585.000000	100.210691
1584.000000	100.212565
1583.000000	100.212782
1582.000000	100.212573
1581.000000	100.213531
1580.000000	100.214931
1579.000000	100.214484
1578.000000	100.211576
1577.000000	100.208652
1576.000000	100.208278
1575.000000	100.209734
1574.000000	100.210827
1573.000000	100.210674
1572.000000	100.209792
1571.000000	100.209109
1570.000000	100.208489
1569.000000	100.207383
1568.000000	100.206474
1567.000000	100.206656
1566.000000	100.207777
1565.000000	100.209243
1564.000000	100.210163
1563.000000	100.209608
1562.000000	100.207326
1561.000000	100.204549
1560.000000	100.203364
1559.000000	100.202363
1558.000000	100.200108
1557.000000	100.199746
1556.000000	100.201417
1555.000000	100.202615
1554.000000	100.202566
1553.000000	100.200793
1552.000000	100.197489
1551.000000	100.193232
1550.000000	100.189411
1549.000000	100.187048
1548.000000	100.185972
1547.000000	100.185493
1546.000000	100.185395
1545.000000	100.185505
1544.000000	100.184859
1543.000000	100.182717
1542.000000	100.179947
1541.000000	100.178232
1540.000000	100.176530
1539.000000	100.172385
1538.000000	100.166968
1537.000000	100.162492
1536.000000	100.159078
1535.000000	100.156151
1534.000000	100.152582
1533.000000	100.147667
1532.000000	100.142704
1531.000000	100.139357
1530.000000	100.137633
1529.000000	100.136506
1528.000000	100.134751
1527.000000	100.131695
1526.000000	100.127820
1525.000000	100.124419
1524.000000	100.122329
1523.000000	100.121438
1522.000000	100.120645
1521.000000	100.118407
1520.000000	100.114700
1519.000000	100.110787
1518.000000	100.107424
1517.000000	100.104775
1516.000000	100.102569
1515.000000	100.100263
1514.000000	100.097697
1513.000000	100.095288
1512.000000	100.093565
1511.000000	100.092333
1510.000000	100.090704
1509.000000	100.088099
1508.000000	100.084948
1507.000000	100.081793
1506.000000	100.078434
1505.000000	100.075229
1504.000000	100.072642
1503.000000	100.070333
1502.000000	100.068197
1501.000000	100.066441
1500.000000	100.065177
1499.000000	100.064056
1498.000000	100.062492
1497.000000	100.060152
1496.000000	100.057439
1495.000000	100.055095
1494.000000	100.053176
1493.000000	100.051427
1492.000000	100.050256
1491.000000	100.050211
1490.000000	100.050315
1489.000000	100.048638
1488.000000	100.045123
1487.000000	100.041340
1486.000000	100.038061
1485.000000	100.035087
1484.000000	100.032400
1483.000000	100.030484
1482.000000	100.029648
1481.000000	100.029502
1480.000000	100.029504
1479.000000	100.029565
1478.000000	100.029533
1477.000000	100.028640
1476.000000	100.026513
1475.000000	100.024514
1474.000000	100.024860
1473.000000	100.027852
1472.000000	100.030838
1471.000000	100.031759
1470.000000	100.031215
1469.000000	100.030223
1468.000000	100.029343
1467.000000	100.029229
1466.000000	100.030602
1465.000000	100.033193
1464.000000	100.035212
1463.000000	100.035219
1462.000000	100.033302
1461.000000	100.030375
1460.000000	100.027514
1459.000000	100.025655
1458.000000	100.024987
1457.000000	100.024480
1456.000000	100.024181
1455.000000	100.025484
1454.000000	100.027690
1453.000000	100.028772
1452.000000	100.028014
1451.000000	100.026197
1450.000000	100.024445
1449.000000	100.022963
1448.000000	100.021668
1447.000000	100.021280
1446.000000	100.022654
1445.000000	100.025214
1444.000000	100.027339
1443.000000	100.028146
1442.000000	100.028210
1441.000000	100.028296
1440.000000	100.028156
1439.000000	100.027340
1438.000000	100.026752
1437.000000	100.027928
1436.000000	100.030538
1435.000000	100.032856
1434.000000	100.033998
1433.000000	100.034243
1432.000000	100.034777
1431.000000	100.036798
1430.000000	100.040224
1429.000000	100.043676
1428.000000	100.045777
1427.000000	100.046340
1426.000000	100.046428
1425.000000	100.047542
1424.000000	100.050124
1423.000000	100.053035
1422.000000	100.055176
1421.000000	100.056890
1420.000000	100.059140
1419.000000	100.061365
1418.000000	100.062357
1417.000000	100.062778
1416.000000	100.064183
1415.000000	100.067338
1414.000000	100.071743
1413.000000	100.075720
1412.000000	100.077951
1411.000000	100.079080
1410.000000	100.081249
1409.000000	100.085868
1408.000000	100.092701
1407.000000	100.100650
1406.000000	100.108356
1405.000000	100.114264
1404.000000	100.117483
1403.000000	100.119059
1402.000000	100.121013
1401.000000	100.124362
1400.000000	100.128794
1399.000000	100.133701
1398.000000	100.139463
1397.000000	100.146891
1396.000000	100.155357
1395.000000	100.162441
1394.000000	100.166345
1393.000000	100.168094
1392.000000	100.169969
1391.000000	100.173278
1390.000000	100.178229
1389.000000	100.184284
1388.000000	100.190236
1387.000000	100.194786
1386.000000	100.197663
1385.000000	100.199495
1384.000000	100.200915
1383.000000	100.202695
1382.000000	100.205661
1381.000000	100.209799
1380.000000	100.214314
1379.000000	100.218874
1378.000000	100.224002
1377.000000	100.229720
1376.000000	100.234516
1375.000000	100.236507
1374.000000	100.235747
1373.000000	100.234473
1372.000000	100.234346
1371.000000	100.234940
1370.000000	100.235567
1369.000000	100.236752
1368.000000	100.239132
1367.000000	100.241975
1366.000000	100.243693
1365.000000	100.243468
1364.000000	100.242009
1363.000000	100.240948
1362.000000	100.241413
1361.000000	100.243196
1360.000000	100.245376
1359.000000	100.247352
1358.000000	100.249058
1357.000000	100.250424
1356.000000	100.251087
1355.000000	100.250910
1354.000000	100.250386
1353.000000	100.250196
1352.000000	100.250740
1351.000000	100.252266
1350.000000	100.254969
1349.000000	100.258445
1348.000000	100.261252
1347.000000	100.261847
1346.000000	100.260073
1345.000000	100.257354
1344.000000	100.255389
1343.000000	100.254774
1342.000000	100.254851
1341.000000	100.254569
1340.000000	100.253507
1339.000000	100.252454
1338.000000	100.252757
1337.000000	100.254792
1336.000000	100.257512
1335.000000	100.259543
1334.000000	100.260250
1333.000000	100.259792
1332.000000	100.258814
1331.000000	100.258243
1330.000000	100.258646
1329.000000	100.259406
1328.000000	100.259232
1327.000000	100.257934
1326.000000	100.257010
1325.000000	100.257784
1324.000000	100.259581
1323.000000	100.260707
1322.000000	100.260518
1321.000000	100.259490
1320.000000	100.257987
1319.000000	100.256344
1318.000000	100.255583
1317.000000	100.256347
1316.000000	100.257515
1315.000000	100.257583
1314.000000	100.257151
1313.000000	100.258187
1312.000000	100.260598
1311.000000	100.261662
1310.000000	100.259789
1309.000000	100.256991
1308.000000	100.256482
1307.000000	100.258679
1306.000000	100.260959
1305.000000	100.260970
1304.000000	100.258791
1303.000000	100.256310
1302.000000	100.255509
1301.000000	100.257006
1300.000000	100.259613
1299.000000	100.261284
1298.000000	100.260975
1297.000000	100.259513
1296.000000	100.258411
1295.000000	100.258096
1294.000000	100.257686
1293.000000	100.256211
1292.000000	100.253549
1291.000000	100.250452
1290.000000	100.248116
1289.000000	100.247510
1288.000000	100.248639
1287.000000	100.250559
1286.000000	100.252432
1285.000000	100.254284
1284.000000	100.256306
1283.000000	100.257848
1282.000000	100.257876
1281.000000	100.256239
1280.000000	100.253792
1279.000000	100.251382
1278.000000	100.249435
1277.000000	100.248387
1276.000000	100.248565
1275.000000	100.249443
1274.000000	100.249963
1273.000000	100.249974
1272.000000	100.250606
1271.000000	100.252777
1270.000000	100.255902
1269.000000	100.258354
1268.000000	100.258466
1267.000000	100.255053
1266.000000	100.248442
1265.000000	100.241809
1264.000000	100.240064
1263.000000	100.245439
1262.000000	100.254154
1261.000000	100.258899
1260.000000	100.255243
1259.000000	100.245098
1258.000000	100.234076
1257.000000	100.226310
1256.000000	100.222104
1255.000000	100.219341
1254.000000	100.216013
1253.000000	100.211756
1252.000000	100.207827
1251.000000	100.205896
1250.000000	100.206529
1249.000000	100.208257
1248.000000	100.207773
1247.000000	100.201488
1246.000000	100.188243
1245.000000	100.171348
1244.000000	100.157257
1243.000000	100.150704
1242.000000	100.150560
1241.000000	100.151112
1240.000000	100.147531
1239.000000	100.139443
1238.000000	100.129343
1237.000000	100.118709
1236.000000	100.106456
1235.000000	100.090834
1234.000000	100.072126
1233.000000	100.053346
1232.000000	100.038199
1231.000000	100.027880
1230.000000	100.019710
1229.000000	100.009318
1228.000000	99.994082
1227.000000	99.973999
1226.000000	99.949768
1225.000000	99.921426
1224.000000	99.889295
1223.000000	99.854964
1222.000000	99.820106
1221.000000	99.784776
1220.000000	99.747682
1219.000000	99.707879
1218.000000	99.665792
1217.000000	99.623040
1216.000000	99.581353
1215.000000	99.540732
1214.000000	99.498325
1213.000000	99.450268
1212.000000	99.395622
1211.000000	99.338047
1210.000000	99.282878
1209.000000	99.232752
1208.000000	99.186243
1207.000000	99.139915
1206.000000	99.091546
1205.000000	99.042289
1204.000000	98.995488
1203.000000	98.952201
1202.000000	98.908447
1201.000000	98.858903
1200.000000	98.803189
1199.000000	98.746458
1198.000000	98.693657
1197.000000	98.645421
1196.000000	98.599687
1195.000000	98.554237
1194.000000	98.506591
1193.000000	98.454242
1192.000000	98.396967
1191.000000	98.337687
1190.000000	98.279849
1189.000000	98.224841
1188.000000	98.172278
1187.000000	98.121250
1186.000000	98.070789
1185.000000	98.020306
1184.000000	97.969427
1183.000000	97.916260
1182.000000	97.857133
1181.000000	97.790621
1180.000000	97.720748
1179.000000	97.652913
1178.000000	97.587164
1177.000000	97.519115
1176.000000	97.446836
1175.000000	97.372479
1174.000000	97.297237
1173.000000	97.219839
1172.000000	97.141022
1171.000000	97.064527
1170.000000	96.992088
1169.000000	96.922124
1168.000000	96.855112
1167.000000	96.795474
1166.000000	96.746219
1165.000000	96.706708
1164.000000	96.678201
1163.000000	96.666660
1162.000000	96.676306
1161.000000	96.703176
1160.000000	96.736801
1159.000000	96.765286
1158.000000	96.778001
1157.000000	96.768040
1156.000000	96.735448
1155.000000	96.686544
1154.000000	96.628510
1153.000000	96.565880
1152.000000	96.502094
1151.000000	96.440528
1150.000000	96.382369
1149.000000	96.326492
1148.000000	96.272414
1147.000000	96.220335
1146.000000	96.168411
1145.000000	96.114205
1144.000000	96.058818
1143.000000	96.004413
1142.000000	95.947397
1141.000000	95.880506
1140.000000	95.803636
1139.000000	95.726937
1138.000000	95.660425
1137.000000	95.604921
1136.000000	95.554924
1135.000000	95.504743
1134.000000	95.449693
1133.000000	95.387257
1132.000000	95.320367
1131.000000	95.255059
1130.000000	95.192607
1129.000000	95.128583
1128.000000	95.060887
1127.000000	94.992398
1126.000000	94.923823
1125.000000	94.851287
1124.000000	94.774423
1123.000000	94.699753
1122.000000	94.631560
1121.000000	94.565769
1120.000000	94.497719
1119.000000	94.430091
1118.000000	94.367797
1117.000000	94.310127
1116.000000	94.252841
1115.000000	94.193468
1114.000000	94.130564
1113.000000	94.062810
1112.000000	93.992913
1111.000000	93.927335
1110.000000	93.868500
1109.000000	93.812528
1108.000000	93.757403
1107.000000	93.706546
1106.000000	93.660621
1105.000000	93.613413
1104.000000	93.561047
1103.000000	93.508724
1102.000000	93.462685
1101.000000	93.421326
1100.000000	93.379771
1099.000000	93.337961
1098.000000	93.298387
1097.000000	93.260212
1096.000000	93.220574
1095.000000	93.178454
1094.000000	93.133785
1093.000000	93.086417
1092.000000	93.038613
1091.000000	92.994605
1090.000000	92.955578
1089.000000	92.919327
1088.000000	92.885796
1087.000000	92.857191
1086.000000	92.831792
1085.000000	92.804758
1084.000000	92.776810
1083.000000	92.754634
1082.000000	92.739967
1081.000000	92.725377
1080.000000	92.703936
1079.000000	92.676509
1078.000000	92.646732
1077.000000	92.615160
1076.000000	92.581228
1075.000000	92.544553
1074.000000	92.501112
1073.000000	92.443864
1072.000000	92.370009
1071.000000	92.283171
1070.000000	92.187397
1069.000000	92.084131
1068.000000	91.975038
1067.000000	91.860500
1066.000000	91.734762
1065.000000	91.591319
1064.000000	91.435452
1063.000000	91.283715
1062.000000	91.148201
1061.000000	91.028228
1060.000000	90.918476
1059.000000	90.815836
1058.000000	90.716505
1057.000000	90.616254
1056.000000	90.516194
1055.000000	90.419058
1054.000000	90.317781
1053.000000	90.198792
1052.000000	90.060924
1051.000000	89.920448
1050.000000	89.791461
1049.000000	89.671367
1048.000000	89.550399
1047.000000	89.423102
1046.000000	89.285877
1045.000000	89.136012
1044.000000	88.978802
1043.000000	88.825768
1042.000000	88.681654
1041.000000	88.542064
1040.000000	88.405889
1039.000000	88.278770
1038.000000	88.161323
1037.000000	88.046513
1036.000000	87.933512
1035.000000	87.832463
1034.000000	87.750232
1033.000000	87.682213
1032.000000	87.622521
1031.000000	87.571223
1030.000000	87.526916
1029.000000	87.483417
1028.000000	87.439217
1027.000000	87.400467
1026.000000	87.370152
1025.000000	87.343553
1024.000000	87.317539
1023.000000	87.294613
1022.000000	87.275063
1021.000000	87.255219
1020.000000	87.235709
1019.000000	87.220807
1018.000000	87.207755
1017.000000	87.188052
1016.000000	87.161180
1015.000000	87.135468
1014.000000	87.113793
1013.000000	87.091005
1012.000000	87.067603
1011.000000	87.052514
1010.000000	87.048722
1009.000000	87.048521
1008.000000	87.046711
1007.000000	87.046689
1006.000000	87.050350
1005.000000	87.054440
1004.000000	87.060329
1003.000000	87.074905
1002.000000	87.097963
1001.000000	87.120847
1000.000000	87.141349
999.000000	87.167363
998.000000	87.201614
997.000000	87.235903
996.000000	87.266163
995.000000	87.300846
994.000000	87.347089
993.000000	87.398970
992.000000	87.446699
991.000000	87.489486
990.000000	87.533604
989.000000	87.585064
988.000000	87.648627
987.000000	87.726626
986.000000	87.814665
985.000000	87.904962
984.000000	87.996241
983.000000	88.093684
982.000000	88.199049
981.000000	88.309851
980.000000	88.428753
979.000000	88.563128
978.000000	88.712730
977.000000	88.867100
976.000000	89.018043
975.000000	89.167071
974.000000	89.319291
973.000000	89.478127
972.000000	89.646542
971.000000	89.824105
970.000000	90.001641
969.000000	90.168091
968.000000	90.324138
967.000000	90.480548
966.000000	90.642283
965.000000	90.803225
964.000000	90.957485
963.000000	91.106067
962.000000	91.250344
961.000000	91.388214
960.000000	91.519412
959.000000	91.646611
958.000000	91.769332
957.000000	91.884852
956.000000	91.996534
955.000000	92.112110
954.000000	92.231197
953.000000	92.343546
952.000000	92.442601
951.000000	92.531967
950.000000	92.615612
949.000000	92.690883
948.000000	92.755964
947.000000	92.815951
946.000000	92.876037
945.000000	92.935416
944.000000	92.993045
943.000000	93.052792
942.000000	93.117307
941.000000	93.182400
940.000000	93.242787
939.000000	93.298509
938.000000	93.351110
937.000000	93.398550
936.000000	93.439292
935.000000	93.477649
934.000000	93.519862
933.000000	93.567015
932.000000	93.615486
931.000000	93.662447
930.000000	93.708523
929.000000	93.757062
928.000000	93.811724
927.000000	93.871860
926.000000	93.930173
925.000000	93.979396
924.000000	94.021791
923.000000	94.067063
922.000000	94.119972
921.000000	94.175223
920.000000	94.225616
919.000000	94.269535
918.000000	94.308790
917.000000	94.345136
916.000000	94.381670
915.000000	94.422442
914.000000	94.467829
913.000000	94.515065
912.000000	94.565866
911.000000	94.628259
910.000000	94.707615
909.000000	94.800237
908.000000	94.898639
907.000000	94.999099
906.000000	95.101402
905.000000	95.205801
904.000000	95.314070
903.000000	95.430504
902.000000	95.558175
901.000000	95.694935
900.000000	95.833858
899.000000	95.966242
898.000000	96.085528
897.000000	96.192373
896.000000	96.296338
895.000000	96.408527
894.000000	96.530511
893.000000	96.652599
892.000000	96.763349
891.000000	96.858089
890.000000	96.939021
889.000000	97.011805
888.000000	97.083482
887.000000	97.159687
886.000000	97.240590
885.000000	97.320802
884.000000	97.394482
883.000000	97.459412
882.000000	97.516599
881.000000	97.568831
880.000000	97.620274
879.000000	97.674851
878.000000	97.733753
877.000000	97.796013
876.000000	97.861211
875.000000	97.929105
874.000000	97.997537
873.000000	98.064348
872.000000	98.131060
871.000000	98.201046
870.000000	98.274434
869.000000	98.348701
868.000000	98.423828
867.000000	98.502006
866.000000	98.581478
865.000000	98.655519
864.000000	98.719898
863.000000	98.778483
862.000000	98.839432
861.000000	98.907566
860.000000	98.981085
859.000000	99.052965
858.000000	99.114640
857.000000	99.161861
856.000000	99.199338
855.000000	99.237397
854.000000	99.281553
853.000000	99.327149
852.000000	99.366429
851.000000	99.398386
850.000000	99.428125
849.000000	99.458024
848.000000	99.484066
847.000000	99.501771
846.000000	99.512259
845.000000	99.519976
844.000000	99.525906
843.000000	99.526066
842.000000	99.517713
841.000000	99.505007
840.000000	99.495571
839.000000	99.490601
838.000000	99.480808
837.000000	99.455055
836.000000	99.412888
835.000000	99.366365
834.000000	99.329045
833.000000	99.304889
832.000000	99.288745
831.000000	99.275336
830.000000	99.265774
829.000000	99.265963
828.000000	99.279594
827.000000	99.302321
826.000000	99.323135
825.000000	99.333222
824.000000	99.333874
823.000000	99.334330
822.000000	99.341578
821.000000	99.353365
820.000000	99.360317
819.000000	99.352880
818.000000	99.327118
817.000000	99.286070
816.000000	99.235494
815.000000	99.177205
814.000000	99.106840
813.000000	99.018037
812.000000	98.905806
811.000000	98.763681
810.000000	98.581309
809.000000	98.350595
808.000000	98.074202
807.000000	97.763727
806.000000	97.429716
805.000000	97.079729
804.000000	96.727761
803.000000	96.397348
802.000000	96.109406
801.000000	95.872287
800.000000	95.688298
799.000000	95.563341
798.000000	95.503879
797.000000	95.508424
796.000000	95.565853
795.000000	95.658038
794.000000	95.762785
793.000000	95.860888
792.000000	95.944286
791.000000	96.014188
790.000000	96.070163
789.000000	96.105341
788.000000	96.112909
787.000000	96.091325
786.000000	96.040425
785.000000	95.958005
784.000000	95.845405
783.000000	95.713767
782.000000	95.580304
781.000000	95.459985
780.000000	95.364263
779.000000	95.304981
778.000000	95.293587
777.000000	95.334910
776.000000	95.422758
775.000000	95.541851
774.000000	95.675501
773.000000	95.812967
772.000000	95.948486
771.000000	96.074489
770.000000	96.181572
769.000000	96.267128
768.000000	96.337684
767.000000	96.398326
766.000000	96.445295
765.000000	96.474680
764.000000	96.493391
763.000000	96.513965
762.000000	96.541633
761.000000	96.574130
760.000000	96.611517
759.000000	96.657413
758.000000	96.711633
757.000000	96.769989
756.000000	96.830815
755.000000	96.893708
754.000000	96.952944
753.000000	97.001619
752.000000	97.043010
751.000000	97.088674
750.000000	97.143118
749.000000	97.198597
748.000000	97.248157
747.000000	97.296060
746.000000	97.350932
745.000000	97.414991
744.000000	97.485149
743.000000	97.560070
742.000000	97.641005
741.000000	97.727864
740.000000	97.817328
739.000000	97.903114
738.000000	97.978093
737.000000	98.040234
736.000000	98.096594
735.000000	98.156038
734.000000	98.217164
733.000000	98.269254
732.000000	98.306973
731.000000	98.338634
730.000000	98.376530
729.000000	98.422607
728.000000	98.466883
727.000000	98.497311
726.000000	98.509136
725.000000	98.508395
724.000000	98.509739
723.000000	98.528242
722.000000	98.569126
721.000000	98.624875
720.000000	98.682831
719.000000	98.734758
718.000000	98.779799
717.000000	98.821456
716.000000	98.863275
715.000000	98.905485
714.000000	98.944822
713.000000	98.978741
712.000000	99.008420
711.000000	99.034806
710.000000	99.053696
709.000000	99.060026
708.000000	99.056971
707.000000	99.055274
706.000000	99.061312
705.000000	99.069068
704.000000	99.064294
703.000000	99.032144
702.000000	98.960969
701.000000	98.845541
700.000000	98.690230
699.000000	98.506417
698.000000	98.307137
697.000000	98.110272
696.000000	97.946267
695.000000	97.850646
694.000000	97.841057
693.000000	97.904267
692.000000	98.007145
691.000000	98.118397
690.000000	98.220785
689.000000	98.310464
688.000000	98.391597
687.000000	98.469115
686.000000	98.542205
685.000000	98.606476
684.000000	98.662607
683.000000	98.716538
682.000000	98.768898
681.000000	98.811572
680.000000	98.840220
679.000000	98.864310
678.000000	98.896917
677.000000	98.938273
676.000000	98.977909
675.000000	99.010758
674.000000	99.043383
673.000000	99.082845
672.000000	99.126214
671.000000	99.164623
670.000000	99.193990
669.000000	99.220035
668.000000	99.254629
667.000000	99.299897
666.000000	99.341003
665.000000	99.365769
664.000000	99.377699
663.000000	99.392958
662.000000	99.425926
661.000000	99.471099
660.000000	99.505257
659.000000	99.508457
658.000000	99.479530
657.000000	99.433595
656.000000	99.388776
655.000000	99.355122
654.000000	99.330862
653.000000	99.308627
652.000000	99.290113
651.000000	99.289316
650.000000	99.313072
649.000000	99.346923
648.000000	99.373714
647.000000	99.400381
646.000000	99.450060
645.000000	99.526906
644.000000	99.606367
643.000000	99.665191
642.000000	99.707114
641.000000	99.748104
640.000000	99.786044
639.000000	99.805012
638.000000	99.807131
637.000000	99.817940
636.000000	99.853896
635.000000	99.901531
634.000000	99.937411
633.000000	99.956611
632.000000	99.968896
631.000000	99.979170
630.000000	99.988056
629.000000	100.004489
628.000000	100.040434
627.000000	100.091991
626.000000	100.139596
625.000000	100.173225
624.000000	100.204366
623.000000	100.244420
622.000000	100.283714
621.000000	100.304201
620.000000	100.304380
619.000000	100.300751
618.000000	100.308554
617.000000	100.325895
616.000000	100.334238
615.000000	100.312103
614.000000	100.254161
613.000000	100.181433
612.000000	100.129779
611.000000	100.123020
610.000000	100.152387
609.000000	100.185158
608.000000	100.196162
607.000000	100.187858
606.000000	100.179370
605.000000	100.175156
604.000000	100.148610
603.000000	100.066490
602.000000	99.936929
601.000000	99.824885
600.000000	99.802130
599.000000	99.879305
598.000000	99.990278
597.000000	100.057418
596.000000	100.065497
595.000000	100.052148
594.000000	100.049443
593.000000	100.058784
592.000000	100.076570
591.000000	100.110735
590.000000	100.158701
589.000000	100.194364
588.000000	100.193589
587.000000	100.160408
586.000000	100.121512
585.000000	100.101802
584.000000	100.112734
583.000000	100.155727
582.000000	100.224432
581.000000	100.303918
580.000000	100.369975
579.000000	100.392820
578.000000	100.356318
577.000000	100.283619
576.000000	100.231226
575.000000	100.239578
574.000000	100.292330
573.000000	100.344630
572.000000	100.377961
571.000000	100.402047
570.000000	100.421913
569.000000	100.434124
568.000000	100.445035
567.000000	100.457294
566.000000	100.446345
565.000000	100.391368
564.000000	100.324596
563.000000	100.307564
562.000000	100.348574
561.000000	100.381912
560.000000	100.343836
559.000000	100.234067
558.000000	100.102495
557.000000	100.006956
556.000000	99.986283
555.000000	100.039464
554.000000	100.111553
553.000000	100.140451
552.000000	100.132105
551.000000	100.138697
550.000000	100.169415
