PE IR       SUBTECH     SPECTRUM    ASCII       PEDS        4.00        
   -1
BH1 8-2 5 55_1.asc
24/05/15
14:20:42.00
24/05/15
14:20:48.00
Administrator
?品 087 用? Administrator 日期 Wednesday, May 15 2024
550.000000
#HDR
-1
-1
#GR
cm-1
%T
1.0
0.0
4000.000000
-1.000000
3451
8
100.650581
84.207417
#DATA
4000.000000	100.510516
3999.000000	100.507648
3998.000000	100.504081
3997.000000	100.500449
3996.000000	100.497996
3995.000000	100.497645
3994.000000	100.499190
3993.000000	100.501265
3992.000000	100.502458
3991.000000	100.502577
3990.000000	100.502539
3989.000000	100.503301
3988.000000	100.505059
3987.000000	100.507193
3986.000000	100.508760
3985.000000	100.509174
3984.000000	100.508419
3983.000000	100.506909
3982.000000	100.505286
3981.000000	100.504118
3980.000000	100.503637
3979.000000	100.503617
3978.000000	100.503534
3977.000000	100.503007
3976.000000	100.502151
3975.000000	100.501455
3974.000000	100.501305
3973.000000	100.501609
3972.000000	100.501862
3971.000000	100.501591
3970.000000	100.500682
3969.000000	100.499379
3968.000000	100.498111
3967.000000	100.497229
3966.000000	100.496843
3965.000000	100.496779
3964.000000	100.496676
3963.000000	100.496247
3962.000000	100.495518
3961.000000	100.494825
3960.000000	100.494496
3959.000000	100.494547
3958.000000	100.494718
3957.000000	100.494724
3956.000000	100.494481
3955.000000	100.494084
3954.000000	100.493659
3953.000000	100.493253
3952.000000	100.492844
3951.000000	100.492403
3950.000000	100.491945
3949.000000	100.491525
3948.000000	100.491196
3947.000000	100.490945
3946.000000	100.490714
3945.000000	100.490449
3944.000000	100.490141
3943.000000	100.489815
3942.000000	100.489499
3941.000000	100.489210
3940.000000	100.488952
3939.000000	100.488724
3938.000000	100.488528
3937.000000	100.488364
3936.000000	100.488232
3935.000000	100.488123
3934.000000	100.488016
3933.000000	100.487896
3932.000000	100.487760
3931.000000	100.487624
3930.000000	100.487508
3929.000000	100.487411
3928.000000	100.487314
3927.000000	100.487187
3926.000000	100.487015
3925.000000	100.486808
3924.000000	100.486598
3923.000000	100.486416
3922.000000	100.486273
3921.000000	100.486162
3920.000000	100.486073
3919.000000	100.485999
3918.000000	100.485933
3917.000000	100.485864
3916.000000	100.485777
3915.000000	100.485668
3914.000000	100.485550
3913.000000	100.485451
3912.000000	100.485405
3911.000000	100.485419
3910.000000	100.485474
3909.000000	100.485536
3908.000000	100.485576
3907.000000	100.485580
3906.000000	100.485547
3905.000000	100.485486
3904.000000	100.485416
3903.000000	100.485373
3902.000000	100.485385
3901.000000	100.485462
3900.000000	100.485584
3899.000000	100.485714
3898.000000	100.485819
3897.000000	100.485882
3896.000000	100.485902
3895.000000	100.485880
3894.000000	100.485824
3893.000000	100.485760
3892.000000	100.485720
3891.000000	100.485722
3890.000000	100.485761
3889.000000	100.485812
3888.000000	100.485856
3887.000000	100.485888
3886.000000	100.485920
3885.000000	100.485970
3884.000000	100.486051
3883.000000	100.486162
3882.000000	100.486287
3881.000000	100.486399
3880.000000	100.486477
3879.000000	100.486513
3878.000000	100.486518
3877.000000	100.486514
3876.000000	100.486528
3875.000000	100.486599
3874.000000	100.486773
3873.000000	100.487074
3872.000000	100.487458
3871.000000	100.487817
3870.000000	100.488053
3869.000000	100.488126
3868.000000	100.488078
3867.000000	100.488032
3866.000000	100.488127
3865.000000	100.488452
3864.000000	100.488982
3863.000000	100.489575
3862.000000	100.490061
3861.000000	100.490348
3860.000000	100.490479
3859.000000	100.490618
3858.000000	100.490936
3857.000000	100.491455
3856.000000	100.491941
3855.000000	100.492021
3854.000000	100.491662
3853.000000	100.491525
3852.000000	100.492205
3851.000000	100.493613
3850.000000	100.495170
3849.000000	100.496160
3848.000000	100.496121
3847.000000	100.495140
3846.000000	100.493774
3845.000000	100.492613
3844.000000	100.491957
3843.000000	100.491865
3842.000000	100.492283
3841.000000	100.492968
3840.000000	100.493533
3839.000000	100.493849
3838.000000	100.494380
3837.000000	100.495805
3836.000000	100.498266
3835.000000	100.501146
3834.000000	100.503369
3833.000000	100.504132
3832.000000	100.503434
3831.000000	100.502029
3830.000000	100.500819
3829.000000	100.500227
3828.000000	100.500196
3827.000000	100.500606
3826.000000	100.501543
3825.000000	100.503131
3824.000000	100.505180
3823.000000	100.507059
3822.000000	100.508065
3821.000000	100.508110
3820.000000	100.507723
3819.000000	100.507344
3818.000000	100.506983
3817.000000	100.506479
3816.000000	100.505893
3815.000000	100.505539
3814.000000	100.505620
3813.000000	100.506125
3812.000000	100.506956
3811.000000	100.507938
3810.000000	100.508743
3809.000000	100.508909
3808.000000	100.508202
3807.000000	100.506941
3806.000000	100.505830
3805.000000	100.505297
3804.000000	100.505251
3803.000000	100.505377
3802.000000	100.505520
3801.000000	100.505729
3800.000000	100.505908
3799.000000	100.505773
3798.000000	100.505140
3797.000000	100.504104
3796.000000	100.503107
3795.000000	100.502616
3794.000000	100.502754
3793.000000	100.503219
3792.000000	100.503527
3791.000000	100.503433
3790.000000	100.503093
3789.000000	100.502847
3788.000000	100.502780
3787.000000	100.502573
3786.000000	100.501846
3785.000000	100.500606
3784.000000	100.499252
3783.000000	100.498158
3782.000000	100.497345
3781.000000	100.496602
3780.000000	100.495872
3779.000000	100.495434
3778.000000	100.495539
3777.000000	100.496016
3776.000000	100.496394
3775.000000	100.496226
3774.000000	100.495245
3773.000000	100.493287
3772.000000	100.490311
3771.000000	100.486763
3770.000000	100.483675
3769.000000	100.481832
3768.000000	100.481094
3767.000000	100.480778
3766.000000	100.480436
3765.000000	100.480230
3764.000000	100.480664
3763.000000	100.482107
3762.000000	100.484374
3761.000000	100.486627
3760.000000	100.487995
3759.000000	100.488293
3758.000000	100.488077
3757.000000	100.487961
3756.000000	100.488055
3755.000000	100.488080
3754.000000	100.487768
3753.000000	100.487208
3752.000000	100.486842
3751.000000	100.486847
3750.000000	100.486672
3749.000000	100.485867
3748.000000	100.485077
3747.000000	100.484764
3746.000000	100.484090
3745.000000	100.482386
3744.000000	100.480162
3743.000000	100.477809
3742.000000	100.475456
3741.000000	100.473107
3740.000000	100.470262
3739.000000	100.466532
3738.000000	100.462657
3737.000000	100.460783
3736.000000	100.463084
3735.000000	100.469541
3734.000000	100.476836
3733.000000	100.481046
3732.000000	100.481302
3731.000000	100.479630
3730.000000	100.478400
3729.000000	100.478030
3728.000000	100.477151
3727.000000	100.474628
3726.000000	100.471044
3725.000000	100.467982
3724.000000	100.466105
3723.000000	100.464608
3722.000000	100.462296
3721.000000	100.458874
3720.000000	100.455168
3719.000000	100.452122
3718.000000	100.450104
3717.000000	100.449093
3716.000000	100.448885
3715.000000	100.448626
3714.000000	100.446354
3713.000000	100.440227
3712.000000	100.431231
3711.000000	100.423871
3710.000000	100.421803
3709.000000	100.424302
3708.000000	100.427777
3707.000000	100.429053
3706.000000	100.426815
3705.000000	100.421249
3704.000000	100.413770
3703.000000	100.406926
3702.000000	100.403295
3701.000000	100.403058
3700.000000	100.403522
3699.000000	100.401939
3698.000000	100.398089
3697.000000	100.393736
3696.000000	100.390301
3695.000000	100.387258
3694.000000	100.383053
3693.000000	100.377031
3692.000000	100.369952
3691.000000	100.363304
3690.000000	100.358474
3689.000000	100.356516
3688.000000	100.357107
3687.000000	100.358566
3686.000000	100.358813
3685.000000	100.355688
3684.000000	100.347779
3683.000000	100.335486
3682.000000	100.320827
3681.000000	100.306100
3680.000000	100.293145
3679.000000	100.282809
3678.000000	100.273945
3677.000000	100.263732
3676.000000	100.251145
3675.000000	100.238933
3674.000000	100.229617
3673.000000	100.222966
3672.000000	100.216904
3671.000000	100.208728
3670.000000	100.197831
3669.000000	100.186264
3668.000000	100.175149
3667.000000	100.163939
3666.000000	100.151976
3665.000000	100.138964
3664.000000	100.125167
3663.000000	100.111445
3662.000000	100.098954
3661.000000	100.088307
3660.000000	100.078585
3659.000000	100.067388
3658.000000	100.052652
3657.000000	100.035572
3656.000000	100.020650
3655.000000	100.010955
3654.000000	100.004922
3653.000000	99.997571
3652.000000	99.983361
3651.000000	99.961113
3650.000000	99.938269
3649.000000	99.925491
3648.000000	99.923765
3647.000000	99.923783
3646.000000	99.917565
3645.000000	99.904361
3644.000000	99.888530
3643.000000	99.875420
3642.000000	99.868123
3641.000000	99.865399
3640.000000	99.862301
3639.000000	99.853846
3638.000000	99.838557
3637.000000	99.819159
3636.000000	99.800350
3635.000000	99.785990
3634.000000	99.776977
3633.000000	99.770671
3632.000000	99.762431
3631.000000	99.748655
3630.000000	99.731324
3629.000000	99.718500
3628.000000	99.713998
3627.000000	99.711817
3626.000000	99.707013
3625.000000	99.701384
3624.000000	99.698897
3623.000000	99.701619
3622.000000	99.707987
3621.000000	99.713632
3620.000000	99.715109
3619.000000	99.713549
3618.000000	99.713212
3617.000000	99.716964
3616.000000	99.724796
3615.000000	99.735364
3614.000000	99.747696
3613.000000	99.761405
3612.000000	99.775383
3611.000000	99.787458
3610.000000	99.796080
3609.000000	99.802183
3608.000000	99.808546
3607.000000	99.816983
3606.000000	99.826870
3605.000000	99.836116
3604.000000	99.842517
3603.000000	99.844768
3602.000000	99.843914
3601.000000	99.843744
3600.000000	99.847905
3599.000000	99.856004
3598.000000	99.863606
3597.000000	99.866511
3596.000000	99.864374
3595.000000	99.860943
3594.000000	99.860675
3593.000000	99.865109
3592.000000	99.872182
3591.000000	99.877911
3590.000000	99.878646
3589.000000	99.874162
3588.000000	99.869492
3587.000000	99.870509
3586.000000	99.876738
3585.000000	99.882638
3584.000000	99.884683
3583.000000	99.883248
3582.000000	99.880016
3581.000000	99.875761
3580.000000	99.870891
3579.000000	99.866762
3578.000000	99.865243
3577.000000	99.866652
3576.000000	99.868574
3575.000000	99.867340
3574.000000	99.860956
3573.000000	99.850886
3572.000000	99.841157
3571.000000	99.835416
3570.000000	99.834225
3569.000000	99.834978
3568.000000	99.834705
3567.000000	99.833034
3566.000000	99.831076
3565.000000	99.828434
3564.000000	99.823853
3563.000000	99.817749
3562.000000	99.812475
3561.000000	99.810176
3560.000000	99.810800
3559.000000	99.812353
3558.000000	99.812800
3557.000000	99.811285
3556.000000	99.807783
3555.000000	99.802589
3554.000000	99.796655
3553.000000	99.791772
3552.000000	99.789525
3551.000000	99.789936
3550.000000	99.791474
3549.000000	99.792341
3548.000000	99.791688
3547.000000	99.789909
3546.000000	99.788108
3545.000000	99.787085
3544.000000	99.786868
3543.000000	99.787211
3542.000000	99.788242
3541.000000	99.790173
3540.000000	99.792444
3539.000000	99.793586
3538.000000	99.792306
3537.000000	99.788729
3536.000000	99.784457
3535.000000	99.781255
3534.000000	99.779778
3533.000000	99.779596
3532.000000	99.779979
3531.000000	99.780461
3530.000000	99.780970
3529.000000	99.781590
3528.000000	99.782087
3527.000000	99.781743
3526.000000	99.780170
3525.000000	99.778472
3524.000000	99.779051
3523.000000	99.783505
3522.000000	99.790781
3521.000000	99.797564
3520.000000	99.801092
3519.000000	99.801167
3518.000000	99.799601
3517.000000	99.798232
3516.000000	99.797454
3515.000000	99.796694
3514.000000	99.795720
3513.000000	99.795045
3512.000000	99.795265
3511.000000	99.796494
3510.000000	99.798463
3509.000000	99.800732
3508.000000	99.802497
3507.000000	99.802646
3506.000000	99.800653
3505.000000	99.797434
3504.000000	99.794719
3503.000000	99.793046
3502.000000	99.791076
3501.000000	99.787607
3500.000000	99.783737
3499.000000	99.781941
3498.000000	99.783249
3497.000000	99.786223
3496.000000	99.788885
3495.000000	99.790986
3494.000000	99.793619
3493.000000	99.797138
3492.000000	99.800402
3491.000000	99.802015
3490.000000	99.801692
3489.000000	99.800309
3488.000000	99.799067
3487.000000	99.798704
3486.000000	99.799164
3485.000000	99.799717
3484.000000	99.799462
3483.000000	99.797974
3482.000000	99.795582
3481.000000	99.793002
3480.000000	99.790772
3479.000000	99.789101
3478.000000	99.788031
3477.000000	99.787464
3476.000000	99.786948
3475.000000	99.785660
3474.000000	99.782925
3473.000000	99.778901
3472.000000	99.774650
3471.000000	99.771423
3470.000000	99.769780
3469.000000	99.769383
3468.000000	99.769551
3467.000000	99.769885
3466.000000	99.770280
3465.000000	99.770442
3464.000000	99.769677
3463.000000	99.767407
3462.000000	99.763991
3461.000000	99.760855
3460.000000	99.759459
3459.000000	99.760121
3458.000000	99.761806
3457.000000	99.762948
3456.000000	99.762537
3455.000000	99.760420
3454.000000	99.756969
3453.000000	99.752831
3452.000000	99.748788
3451.000000	99.745428
3450.000000	99.742855
3449.000000	99.740891
3448.000000	99.739567
3447.000000	99.739126
3446.000000	99.739452
3445.000000	99.739884
3444.000000	99.739865
3443.000000	99.739510
3442.000000	99.739254
3441.000000	99.739141
3440.000000	99.738788
3439.000000	99.737967
3438.000000	99.736847
3437.000000	99.735573
3436.000000	99.733910
3435.000000	99.731570
3434.000000	99.728749
3433.000000	99.726145
3432.000000	99.724455
3431.000000	99.723912
3430.000000	99.724179
3429.000000	99.724541
3428.000000	99.724347
3427.000000	99.723502
3426.000000	99.722485
3425.000000	99.721696
3424.000000	99.720806
3423.000000	99.719047
3422.000000	99.716267
3421.000000	99.713525
3420.000000	99.712259
3419.000000	99.712966
3418.000000	99.714984
3417.000000	99.717126
3416.000000	99.718429
3415.000000	99.718401
3414.000000	99.717010
3413.000000	99.714822
3412.000000	99.712774
3411.000000	99.711395
3410.000000	99.710416
3409.000000	99.709414
3408.000000	99.708649
3407.000000	99.708816
3406.000000	99.710024
3405.000000	99.711530
3404.000000	99.712613
3403.000000	99.713375
3402.000000	99.714326
3401.000000	99.715445
3400.000000	99.716042
3399.000000	99.715571
3398.000000	99.714271
3397.000000	99.712904
3396.000000	99.712007
3395.000000	99.711603
3394.000000	99.711581
3393.000000	99.712108
3392.000000	99.713509
3391.000000	99.715682
3390.000000	99.717875
3389.000000	99.719312
3388.000000	99.719990
3387.000000	99.720669
3386.000000	99.722057
3385.000000	99.724129
3384.000000	99.726272
3383.000000	99.727902
3382.000000	99.728794
3381.000000	99.729046
3380.000000	99.729015
3379.000000	99.729144
3378.000000	99.729574
3377.000000	99.730059
3376.000000	99.730405
3375.000000	99.730807
3374.000000	99.731570
3373.000000	99.732639
3372.000000	99.733634
3371.000000	99.734359
3370.000000	99.735029
3369.000000	99.735933
3368.000000	99.737114
3367.000000	99.738463
3366.000000	99.739923
3365.000000	99.741472
3364.000000	99.743009
3363.000000	99.744427
3362.000000	99.745786
3361.000000	99.747264
3360.000000	99.748900
3359.000000	99.750468
3358.000000	99.751718
3357.000000	99.752725
3356.000000	99.753926
3355.000000	99.755697
3354.000000	99.757929
3353.000000	99.760030
3352.000000	99.761444
3351.000000	99.762139
3350.000000	99.762631
3349.000000	99.763555
3348.000000	99.765101
3347.000000	99.766957
3346.000000	99.768683
3345.000000	99.770168
3344.000000	99.771691
3343.000000	99.773635
3342.000000	99.776173
3341.000000	99.779135
3340.000000	99.782037
3339.000000	99.784277
3338.000000	99.785394
3337.000000	99.785283
3336.000000	99.784365
3335.000000	99.783564
3334.000000	99.783800
3333.000000	99.785423
3332.000000	99.788017
3331.000000	99.790749
3330.000000	99.793053
3329.000000	99.794954
3328.000000	99.796851
3327.000000	99.799127
3326.000000	99.801861
3325.000000	99.804756
3324.000000	99.807338
3323.000000	99.809375
3322.000000	99.811093
3321.000000	99.812876
3320.000000	99.814742
3319.000000	99.816285
3318.000000	99.817227
3317.000000	99.817848
3316.000000	99.818676
3315.000000	99.819787
3314.000000	99.820667
3313.000000	99.820862
3312.000000	99.820717
3311.000000	99.821337
3310.000000	99.823688
3309.000000	99.827647
3308.000000	99.831912
3307.000000	99.835177
3306.000000	99.837368
3305.000000	99.839624
3304.000000	99.842984
3303.000000	99.847172
3302.000000	99.850821
3301.000000	99.852806
3300.000000	99.853191
3299.000000	99.852990
3298.000000	99.853157
3297.000000	99.853796
3296.000000	99.854296
3295.000000	99.854178
3294.000000	99.853754
3293.000000	99.853853
3292.000000	99.854873
3291.000000	99.856291
3290.000000	99.857249
3289.000000	99.857491
3288.000000	99.857509
3287.000000	99.857957
3286.000000	99.859140
3285.000000	99.860927
3284.000000	99.862789
3283.000000	99.863926
3282.000000	99.863789
3281.000000	99.862767
3280.000000	99.862163
3279.000000	99.863177
3278.000000	99.865987
3277.000000	99.869869
3276.000000	99.873906
3275.000000	99.877547
3274.000000	99.880566
3273.000000	99.882805
3272.000000	99.884110
3271.000000	99.884419
3270.000000	99.883918
3269.000000	99.883205
3268.000000	99.883133
3267.000000	99.884248
3266.000000	99.886401
3265.000000	99.888958
3264.000000	99.891337
3263.000000	99.893347
3262.000000	99.895029
3261.000000	99.896441
3260.000000	99.897658
3259.000000	99.898817
3258.000000	99.900038
3257.000000	99.901355
3256.000000	99.902752
3255.000000	99.904237
3254.000000	99.905812
3253.000000	99.907423
3252.000000	99.908973
3251.000000	99.910402
3250.000000	99.911745
3249.000000	99.913095
3248.000000	99.914529
3247.000000	99.916048
3246.000000	99.917613
3245.000000	99.919171
3244.000000	99.920675
3243.000000	99.922106
3242.000000	99.923481
3241.000000	99.924838
3240.000000	99.926186
3239.000000	99.927527
3238.000000	99.928893
3237.000000	99.930329
3236.000000	99.931819
3235.000000	99.933241
3234.000000	99.934448
3233.000000	99.935394
3232.000000	99.936228
3231.000000	99.937233
3230.000000	99.938588
3229.000000	99.940256
3228.000000	99.942013
3227.000000	99.943645
3226.000000	99.945119
3225.000000	99.946525
3224.000000	99.947921
3223.000000	99.949263
3222.000000	99.950508
3221.000000	99.951713
3220.000000	99.953035
3219.000000	99.954611
3218.000000	99.956434
3217.000000	99.958289
3216.000000	99.959833
3215.000000	99.960854
3214.000000	99.961514
3213.000000	99.962327
3212.000000	99.963762
3211.000000	99.965814
3210.000000	99.967952
3209.000000	99.969488
3208.000000	99.970024
3207.000000	99.969651
3206.000000	99.968930
3205.000000	99.968684
3204.000000	99.969624
3203.000000	99.971992
3202.000000	99.975463
3201.000000	99.979371
3200.000000	99.983049
3199.000000	99.986154
3198.000000	99.988715
3197.000000	99.990864
3196.000000	99.992520
3195.000000	99.993446
3194.000000	99.993734
3193.000000	99.994110
3192.000000	99.995452
3191.000000	99.997930
3190.000000	100.000763
3189.000000	100.002960
3188.000000	100.004243
3187.000000	100.005171
3186.000000	100.006584
3185.000000	100.009028
3184.000000	100.012550
3183.000000	100.016640
3182.000000	100.020367
3181.000000	100.022963
3180.000000	100.024393
3179.000000	100.025313
3178.000000	100.026393
3177.000000	100.027746
3176.000000	100.029183
3175.000000	100.030736
3174.000000	100.032686
3173.000000	100.035158
3172.000000	100.037889
3171.000000	100.040393
3170.000000	100.042249
3169.000000	100.043348
3168.000000	100.044037
3167.000000	100.044953
3166.000000	100.046427
3165.000000	100.048055
3164.000000	100.049116
3163.000000	100.049514
3162.000000	100.050075
3161.000000	100.051714
3160.000000	100.054464
3159.000000	100.057433
3158.000000	100.059678
3157.000000	100.061066
3156.000000	100.062221
3155.000000	100.063830
3154.000000	100.066100
3153.000000	100.068798
3152.000000	100.071546
3151.000000	100.074051
3150.000000	100.076170
3149.000000	100.077970
3148.000000	100.079798
3147.000000	100.082116
3146.000000	100.084984
3145.000000	100.087698
3144.000000	100.089227
3143.000000	100.089154
3142.000000	100.088136
3141.000000	100.087407
3140.000000	100.087651
3139.000000	100.088659
3138.000000	100.089995
3137.000000	100.091601
3136.000000	100.093643
3135.000000	100.095998
3134.000000	100.098185
3133.000000	100.099896
3132.000000	100.101333
3131.000000	100.102883
3130.000000	100.104610
3129.000000	100.106215
3128.000000	100.107459
3127.000000	100.108485
3126.000000	100.109669
3125.000000	100.111220
3124.000000	100.112994
3123.000000	100.114665
3122.000000	100.116021
3121.000000	100.117080
3120.000000	100.117998
3119.000000	100.118940
3118.000000	100.120044
3117.000000	100.121391
3116.000000	100.122950
3115.000000	100.124572
3114.000000	100.126073
3113.000000	100.127395
3112.000000	100.128608
3111.000000	100.129786
3110.000000	100.130925
3109.000000	100.131983
3108.000000	100.132986
3107.000000	100.134021
3106.000000	100.135150
3105.000000	100.136360
3104.000000	100.137597
3103.000000	100.138825
3102.000000	100.140038
3101.000000	100.141255
3100.000000	100.142501
3099.000000	100.143800
3098.000000	100.145152
3097.000000	100.146523
3096.000000	100.147847
3095.000000	100.149090
3094.000000	100.150257
3093.000000	100.151399
3092.000000	100.152593
3091.000000	100.153879
3090.000000	100.155241
3089.000000	100.156617
3088.000000	100.157950
3087.000000	100.159222
3086.000000	100.160459
3085.000000	100.161706
3084.000000	100.162976
3083.000000	100.164223
3082.000000	100.165388
3081.000000	100.166461
3080.000000	100.167481
3079.000000	100.168493
3078.000000	100.169535
3077.000000	100.170658
3076.000000	100.171896
3075.000000	100.173221
3074.000000	100.174575
3073.000000	100.175945
3072.000000	100.177360
3071.000000	100.178803
3070.000000	100.180196
3069.000000	100.181482
3068.000000	100.182679
3067.000000	100.183846
3066.000000	100.185043
3065.000000	100.186299
3064.000000	100.187615
3063.000000	100.188970
3062.000000	100.190325
3061.000000	100.191648
3060.000000	100.192937
3059.000000	100.194214
3058.000000	100.195494
3057.000000	100.196777
3056.000000	100.198064
3055.000000	100.199380
3054.000000	100.200755
3053.000000	100.202193
3052.000000	100.203645
3051.000000	100.205011
3050.000000	100.206185
3049.000000	100.207147
3048.000000	100.208098
3047.000000	100.209296
3046.000000	100.210773
3045.000000	100.212234
3044.000000	100.213430
3043.000000	100.214571
3042.000000	100.216082
3041.000000	100.217962
3040.000000	100.219720
3039.000000	100.221059
3038.000000	100.222320
3037.000000	100.224045
3036.000000	100.226289
3035.000000	100.228554
3034.000000	100.230287
3033.000000	100.231393
3032.000000	100.232356
3031.000000	100.233876
3030.000000	100.236126
3029.000000	100.238345
3028.000000	100.239495
3027.000000	100.239444
3026.000000	100.239264
3025.000000	100.240153
3024.000000	100.242351
3023.000000	100.245315
3022.000000	100.248564
3021.000000	100.252009
3020.000000	100.255569
3019.000000	100.258799
3018.000000	100.261009
3017.000000	100.261796
3016.000000	100.261645
3015.000000	100.261890
3014.000000	100.263539
3013.000000	100.266021
3012.000000	100.267760
3011.000000	100.268409
3010.000000	100.269828
3009.000000	100.274013
3008.000000	100.280444
3007.000000	100.286210
3006.000000	100.288965
3005.000000	100.289290
3004.000000	100.290029
3003.000000	100.293576
3002.000000	100.299936
3001.000000	100.307004
3000.000000	100.312595
2999.000000	100.316229
2998.000000	100.318921
2997.000000	100.321353
2996.000000	100.322866
2995.000000	100.322782
2994.000000	100.322406
2993.000000	100.324724
2992.000000	100.331647
2991.000000	100.341886
2990.000000	100.351907
2989.000000	100.359130
2988.000000	100.364080
2987.000000	100.369429
2986.000000	100.377043
2985.000000	100.386048
2984.000000	100.394022
2983.000000	100.399992
2982.000000	100.405680
2981.000000	100.413392
2980.000000	100.422997
2979.000000	100.431832
2978.000000	100.437591
2977.000000	100.440401
2976.000000	100.441746
2975.000000	100.442148
2974.000000	100.440598
2973.000000	100.435942
2972.000000	100.428232
2971.000000	100.419054
2970.000000	100.411031
2969.000000	100.406417
2968.000000	100.405123
2967.000000	100.404058
2966.000000	100.399492
2965.000000	100.390575
2964.000000	100.380190
2963.000000	100.372154
2962.000000	100.368033
2961.000000	100.366810
2960.000000	100.366757
2959.000000	100.366933
2958.000000	100.367173
2957.000000	100.367322
2956.000000	100.366859
2955.000000	100.365308
2954.000000	100.363030
2953.000000	100.361237
2952.000000	100.360807
2951.000000	100.361351
2950.000000	100.362102
2949.000000	100.363414
2948.000000	100.366260
2947.000000	100.370316
2946.000000	100.373919
2945.000000	100.376483
2944.000000	100.379518
2943.000000	100.384227
2942.000000	100.389358
2941.000000	100.393005
2940.000000	100.395685
2939.000000	100.399891
2938.000000	100.406810
2937.000000	100.415091
2936.000000	100.422793
2935.000000	100.428981
2934.000000	100.433165
2933.000000	100.434816
2932.000000	100.434253
2931.000000	100.433041
2930.000000	100.432818
2929.000000	100.434260
2928.000000	100.437404
2927.000000	100.442017
2926.000000	100.447129
2925.000000	100.450979
2924.000000	100.452066
2923.000000	100.449927
2922.000000	100.445024
2921.000000	100.438704
2920.000000	100.433241
2919.000000	100.430782
2918.000000	100.431602
2917.000000	100.434052
2916.000000	100.436418
2915.000000	100.438131
2914.000000	100.439122
2913.000000	100.439215
2912.000000	100.438713
2911.000000	100.438507
2910.000000	100.438753
2909.000000	100.438242
2908.000000	100.435953
2907.000000	100.432598
2906.000000	100.429873
2905.000000	100.428639
2904.000000	100.428641
2903.000000	100.429569
2902.000000	100.431387
2901.000000	100.433688
2900.000000	100.435541
2899.000000	100.436265
2898.000000	100.435864
2897.000000	100.434679
2896.000000	100.433000
2895.000000	100.431114
2894.000000	100.429432
2893.000000	100.428400
2892.000000	100.428320
2891.000000	100.429183
2890.000000	100.430560
2889.000000	100.431777
2888.000000	100.432403
2887.000000	100.432504
2886.000000	100.432339
2885.000000	100.431945
2884.000000	100.431151
2883.000000	100.429869
2882.000000	100.428254
2881.000000	100.426684
2880.000000	100.425650
2879.000000	100.425462
2878.000000	100.425925
2877.000000	100.426342
2876.000000	100.426165
2875.000000	100.425598
2874.000000	100.425233
2873.000000	100.425181
2872.000000	100.424921
2871.000000	100.424097
2870.000000	100.423118
2869.000000	100.422709
2868.000000	100.423001
2867.000000	100.423312
2866.000000	100.422853
2865.000000	100.421593
2864.000000	100.420390
2863.000000	100.420208
2862.000000	100.421243
2861.000000	100.422767
2860.000000	100.423835
2859.000000	100.424194
2858.000000	100.424302
2857.000000	100.424596
2856.000000	100.424916
2855.000000	100.424750
2854.000000	100.423818
2853.000000	100.422352
2852.000000	100.420963
2851.000000	100.420212
2850.000000	100.420162
2849.000000	100.420304
2848.000000	100.419998
2847.000000	100.418953
2846.000000	100.417228
2845.000000	100.415056
2844.000000	100.412946
2843.000000	100.411675
2842.000000	100.411638
2841.000000	100.412240
2840.000000	100.412316
2839.000000	100.411395
2838.000000	100.410108
2837.000000	100.409247
2836.000000	100.408887
2835.000000	100.408677
2834.000000	100.408525
2833.000000	100.408538
2832.000000	100.408604
2831.000000	100.408479
2830.000000	100.408127
2829.000000	100.407662
2828.000000	100.407157
2827.000000	100.406779
2826.000000	100.406913
2825.000000	100.407704
2824.000000	100.408609
2823.000000	100.408759
2822.000000	100.407820
2821.000000	100.406221
2820.000000	100.404706
2819.000000	100.403756
2818.000000	100.403415
2817.000000	100.403469
2816.000000	100.403649
2815.000000	100.403859
2814.000000	100.404241
2813.000000	100.404931
2812.000000	100.405801
2811.000000	100.406504
2810.000000	100.406795
2809.000000	100.406721
2808.000000	100.406531
2807.000000	100.406471
2806.000000	100.406632
2805.000000	100.406961
2804.000000	100.407355
2803.000000	100.407756
2802.000000	100.408131
2801.000000	100.408372
2800.000000	100.408339
2799.000000	100.408078
2798.000000	100.407902
2797.000000	100.408116
2796.000000	100.408709
2795.000000	100.409424
2794.000000	100.410061
2793.000000	100.410594
2792.000000	100.411004
2791.000000	100.411216
2790.000000	100.411262
2789.000000	100.411379
2788.000000	100.411781
2787.000000	100.412439
2786.000000	100.413161
2785.000000	100.413801
2784.000000	100.414288
2783.000000	100.414525
2782.000000	100.414451
2781.000000	100.414223
2780.000000	100.414184
2779.000000	100.414520
2778.000000	100.415120
2777.000000	100.415823
2776.000000	100.416649
2775.000000	100.417632
2774.000000	100.418612
2773.000000	100.419340
2772.000000	100.419732
2771.000000	100.419950
2770.000000	100.420244
2769.000000	100.420733
2768.000000	100.421366
2767.000000	100.422030
2766.000000	100.422654
2765.000000	100.423266
2764.000000	100.423969
2763.000000	100.424829
2762.000000	100.425737
2761.000000	100.426434
2760.000000	100.426748
2759.000000	100.426748
2758.000000	100.426705
2757.000000	100.426860
2756.000000	100.427266
2755.000000	100.427839
2754.000000	100.428495
2753.000000	100.429206
2752.000000	100.429953
2751.000000	100.430647
2750.000000	100.431136
2749.000000	100.431344
2748.000000	100.431394
2747.000000	100.431563
2746.000000	100.432045
2745.000000	100.432789
2744.000000	100.433548
2743.000000	100.434108
2742.000000	100.434412
2741.000000	100.434565
2740.000000	100.434793
2739.000000	100.435330
2738.000000	100.436222
2737.000000	100.437256
2736.000000	100.438165
2735.000000	100.438899
2734.000000	100.439570
2733.000000	100.440115
2732.000000	100.440271
2731.000000	100.439986
2730.000000	100.439702
2729.000000	100.439951
2728.000000	100.440743
2727.000000	100.441633
2726.000000	100.442249
2725.000000	100.442625
2724.000000	100.442973
2723.000000	100.443416
2722.000000	100.443991
2721.000000	100.444719
2720.000000	100.445537
2719.000000	100.446262
2718.000000	100.446698
2717.000000	100.446721
2716.000000	100.446296
2715.000000	100.445496
2714.000000	100.444544
2713.000000	100.443705
2712.000000	100.443092
2711.000000	100.442719
2710.000000	100.442736
2709.000000	100.443341
2708.000000	100.444448
2707.000000	100.445619
2706.000000	100.446411
2705.000000	100.446700
2704.000000	100.446572
2703.000000	100.446107
2702.000000	100.445456
2701.000000	100.444919
2700.000000	100.444733
2699.000000	100.444842
2698.000000	100.445023
2697.000000	100.445220
2696.000000	100.445570
2695.000000	100.446059
2694.000000	100.446361
2693.000000	100.446178
2692.000000	100.445652
2691.000000	100.445257
2690.000000	100.445243
2689.000000	100.445333
2688.000000	100.445053
2687.000000	100.444298
2686.000000	100.443486
2685.000000	100.443153
2684.000000	100.443426
2683.000000	100.443966
2682.000000	100.444307
2681.000000	100.444266
2680.000000	100.444016
2679.000000	100.443894
2678.000000	100.444132
2677.000000	100.444726
2676.000000	100.445483
2675.000000	100.446149
2674.000000	100.446553
2673.000000	100.446687
2672.000000	100.446716
2671.000000	100.446881
2670.000000	100.447300
2669.000000	100.447838
2668.000000	100.448206
2667.000000	100.448224
2666.000000	100.447956
2665.000000	100.447681
2664.000000	100.447674
2663.000000	100.448021
2662.000000	100.448604
2661.000000	100.449197
2660.000000	100.449638
2659.000000	100.449908
2658.000000	100.450083
2657.000000	100.450228
2656.000000	100.450356
2655.000000	100.450467
2654.000000	100.450575
2653.000000	100.450659
2652.000000	100.450650
2651.000000	100.450531
2650.000000	100.450436
2649.000000	100.450539
2648.000000	100.450856
2647.000000	100.451196
2646.000000	100.451361
2645.000000	100.451325
2644.000000	100.451218
2643.000000	100.451196
2642.000000	100.451311
2641.000000	100.451491
2640.000000	100.451601
2639.000000	100.451549
2638.000000	100.451355
2637.000000	100.451113
2636.000000	100.450879
2635.000000	100.450637
2634.000000	100.450381
2633.000000	100.450194
2632.000000	100.450196
2631.000000	100.450412
2630.000000	100.450719
2629.000000	100.450931
2628.000000	100.450951
2627.000000	100.450812
2626.000000	100.450635
2625.000000	100.450553
2624.000000	100.450622
2623.000000	100.450811
2622.000000	100.451046
2621.000000	100.451272
2620.000000	100.451472
2619.000000	100.451648
2618.000000	100.451797
2617.000000	100.451902
2616.000000	100.451952
2615.000000	100.451965
2614.000000	100.451974
2613.000000	100.451987
2612.000000	100.451973
2611.000000	100.451896
2610.000000	100.451780
2609.000000	100.451731
2608.000000	100.451845
2607.000000	100.452131
2606.000000	100.452475
2605.000000	100.452718
2604.000000	100.452782
2603.000000	100.452699
2602.000000	100.452628
2601.000000	100.452707
2600.000000	100.452934
2599.000000	100.453206
2598.000000	100.453467
2597.000000	100.453764
2596.000000	100.454095
2595.000000	100.454313
2594.000000	100.454305
2593.000000	100.454208
2592.000000	100.454293
2591.000000	100.454622
2590.000000	100.455005
2589.000000	100.455330
2588.000000	100.455723
2587.000000	100.456269
2586.000000	100.456843
2585.000000	100.457422
2584.000000	100.458286
2583.000000	100.459563
2582.000000	100.460735
2581.000000	100.461033
2580.000000	100.460261
2579.000000	100.458883
2578.000000	100.457383
2577.000000	100.455899
2576.000000	100.454607
2575.000000	100.454021
2574.000000	100.454508
2573.000000	100.455650
2572.000000	100.456453
2571.000000	100.456403
2570.000000	100.456041
2569.000000	100.456348
2568.000000	100.457684
2567.000000	100.459540
2566.000000	100.461202
2565.000000	100.462344
2564.000000	100.462919
2563.000000	100.462866
2562.000000	100.462356
2561.000000	100.462148
2560.000000	100.463094
2559.000000	100.465206
2558.000000	100.467482
2557.000000	100.468844
2556.000000	100.469043
2555.000000	100.468534
2554.000000	100.467949
2553.000000	100.467833
2552.000000	100.468507
2551.000000	100.469732
2550.000000	100.470657
2549.000000	100.470538
2548.000000	100.469507
2547.000000	100.468403
2546.000000	100.467890
2545.000000	100.467932
2544.000000	100.468039
2543.000000	100.467753
2542.000000	100.466953
2541.000000	100.465959
2540.000000	100.465361
2539.000000	100.465545
2538.000000	100.466381
2537.000000	100.467420
2536.000000	100.468304
2535.000000	100.468787
2534.000000	100.468565
2533.000000	100.467509
2532.000000	100.466088
2531.000000	100.465157
2530.000000	100.465106
2529.000000	100.465545
2528.000000	100.465881
2527.000000	100.465971
2526.000000	100.465995
2525.000000	100.466000
2524.000000	100.465921
2523.000000	100.465834
2522.000000	100.465865
2521.000000	100.465973
2520.000000	100.466095
2519.000000	100.466352
2518.000000	100.466847
2517.000000	100.467420
2516.000000	100.467899
2515.000000	100.468433
2514.000000	100.469197
2513.000000	100.469892
2512.000000	100.469881
2511.000000	100.468810
2510.000000	100.466857
2509.000000	100.464551
2508.000000	100.462589
2507.000000	100.461704
2506.000000	100.462282
2505.000000	100.463933
2504.000000	100.465723
2503.000000	100.467068
2502.000000	100.468146
2501.000000	100.469328
2500.000000	100.470526
2499.000000	100.471328
2498.000000	100.471570
2497.000000	100.471593
2496.000000	100.471905
2495.000000	100.472648
2494.000000	100.473365
2493.000000	100.473402
2492.000000	100.472591
2491.000000	100.471519
2490.000000	100.470965
2489.000000	100.471125
2488.000000	100.471642
2487.000000	100.472201
2486.000000	100.472753
2485.000000	100.473151
2484.000000	100.473062
2483.000000	100.472476
2482.000000	100.472014
2481.000000	100.472376
2480.000000	100.473601
2479.000000	100.475019
2478.000000	100.475895
2477.000000	100.476060
2476.000000	100.475939
2475.000000	100.476111
2474.000000	100.476775
2473.000000	100.477585
2472.000000	100.478096
2471.000000	100.478322
2470.000000	100.478636
2469.000000	100.479083
2468.000000	100.479208
2467.000000	100.478741
2466.000000	100.478073
2465.000000	100.477725
2464.000000	100.477609
2463.000000	100.477300
2462.000000	100.476841
2461.000000	100.476806
2460.000000	100.477475
2459.000000	100.478423
2458.000000	100.479057
2457.000000	100.479367
2456.000000	100.479830
2455.000000	100.480748
2454.000000	100.481947
2453.000000	100.482989
2452.000000	100.483597
2451.000000	100.483862
2450.000000	100.484126
2449.000000	100.484669
2448.000000	100.485453
2447.000000	100.486192
2446.000000	100.486651
2445.000000	100.486850
2444.000000	100.486974
2443.000000	100.487199
2442.000000	100.487589
2441.000000	100.488114
2440.000000	100.488709
2439.000000	100.489312
2438.000000	100.489892
2437.000000	100.490439
2436.000000	100.490961
2435.000000	100.491481
2434.000000	100.492026
2433.000000	100.492606
2432.000000	100.493215
2431.000000	100.493848
2430.000000	100.494498
2429.000000	100.495153
2428.000000	100.495792
2427.000000	100.496401
2426.000000	100.496985
2425.000000	100.497559
2424.000000	100.498142
2423.000000	100.498741
2422.000000	100.499353
2421.000000	100.499962
2420.000000	100.500547
2419.000000	100.501084
2418.000000	100.501561
2417.000000	100.501975
2416.000000	100.502343
2415.000000	100.502704
2414.000000	100.503115
2413.000000	100.503610
2412.000000	100.504142
2411.000000	100.504602
2410.000000	100.504926
2409.000000	100.505204
2408.000000	100.505545
2407.000000	100.505852
2406.000000	100.505961
2405.000000	100.505972
2404.000000	100.506184
2403.000000	100.506712
2402.000000	100.507354
2401.000000	100.507875
2400.000000	100.508208
2399.000000	100.508327
2398.000000	100.508170
2397.000000	100.507754
2396.000000	100.507239
2395.000000	100.506806
2394.000000	100.506578
2393.000000	100.506644
2392.000000	100.506994
2391.000000	100.507366
2390.000000	100.507410
2389.000000	100.507044
2388.000000	100.506461
2387.000000	100.505843
2386.000000	100.505175
2385.000000	100.504432
2384.000000	100.503695
2383.000000	100.502965
2382.000000	100.502068
2381.000000	100.500885
2380.000000	100.499548
2379.000000	100.498306
2378.000000	100.497283
2377.000000	100.496426
2376.000000	100.495611
2375.000000	100.494722
2374.000000	100.493712
2373.000000	100.492669
2372.000000	100.491767
2371.000000	100.491089
2370.000000	100.490494
2369.000000	100.489666
2368.000000	100.488344
2367.000000	100.486553
2366.000000	100.484642
2365.000000	100.483018
2364.000000	100.481797
2363.000000	100.480849
2362.000000	100.479903
2361.000000	100.478738
2360.000000	100.477320
2359.000000	100.475696
2358.000000	100.474084
2357.000000	100.472721
2356.000000	100.471640
2355.000000	100.470728
2354.000000	100.469853
2353.000000	100.468892
2352.000000	100.467611
2351.000000	100.465947
2350.000000	100.464297
2349.000000	100.463163
2348.000000	100.462755
2347.000000	100.462804
2346.000000	100.462727
2345.000000	100.462178
2344.000000	100.461227
2343.000000	100.460309
2342.000000	100.459597
2341.000000	100.459026
2340.000000	100.458471
2339.000000	100.457931
2338.000000	100.457555
2337.000000	100.457415
2336.000000	100.457440
2335.000000	100.457520
2334.000000	100.457739
2333.000000	100.458170
2332.000000	100.458707
2331.000000	100.459129
2330.000000	100.459545
2329.000000	100.459927
2328.000000	100.460308
2327.000000	100.460452
2326.000000	100.460322
2325.000000	100.460028
2324.000000	100.459882
2323.000000	100.460290
2322.000000	100.461168
2321.000000	100.462032
2320.000000	100.462409
2319.000000	100.462510
2318.000000	100.462954
2317.000000	100.463973
2316.000000	100.465358
2315.000000	100.466691
2314.000000	100.467943
2313.000000	100.469001
2312.000000	100.469772
2311.000000	100.470005
2310.000000	100.469895
2309.000000	100.469751
2308.000000	100.470065
2307.000000	100.471002
2306.000000	100.472555
2305.000000	100.474180
2304.000000	100.475294
2303.000000	100.475740
2302.000000	100.476192
2301.000000	100.477399
2300.000000	100.479509
2299.000000	100.481689
2298.000000	100.482999
2297.000000	100.483146
2296.000000	100.482802
2295.000000	100.482775
2294.000000	100.483231
2293.000000	100.483650
2292.000000	100.483667
2291.000000	100.483435
2290.000000	100.483293
2289.000000	100.483310
2288.000000	100.483408
2287.000000	100.483655
2286.000000	100.484097
2285.000000	100.484484
2284.000000	100.484512
2283.000000	100.484316
2282.000000	100.484335
2281.000000	100.484707
2280.000000	100.485088
2279.000000	100.485166
2278.000000	100.485037
2277.000000	100.484976
2276.000000	100.485074
2275.000000	100.485249
2274.000000	100.485445
2273.000000	100.485573
2272.000000	100.485448
2271.000000	100.484986
2270.000000	100.484395
2269.000000	100.484000
2268.000000	100.483869
2267.000000	100.483791
2266.000000	100.483587
2265.000000	100.483290
2264.000000	100.483029
2263.000000	100.482825
2262.000000	100.482604
2261.000000	100.482324
2260.000000	100.482021
2259.000000	100.481759
2258.000000	100.481561
2257.000000	100.481391
2256.000000	100.481210
2255.000000	100.481001
2254.000000	100.480767
2253.000000	100.480504
2252.000000	100.480208
2251.000000	100.479898
2250.000000	100.479614
2249.000000	100.479393
2248.000000	100.479251
2247.000000	100.479182
2246.000000	100.479134
2245.000000	100.479017
2244.000000	100.478730
2243.000000	100.478244
2242.000000	100.477675
2241.000000	100.477247
2240.000000	100.477131
2239.000000	100.477305
2238.000000	100.477550
2237.000000	100.477648
2236.000000	100.477562
2235.000000	100.477409
2234.000000	100.477292
2233.000000	100.477234
2232.000000	100.477303
2231.000000	100.477646
2230.000000	100.478229
2229.000000	100.478646
2228.000000	100.478443
2227.000000	100.477632
2226.000000	100.476689
2225.000000	100.475994
2224.000000	100.475524
2223.000000	100.475195
2222.000000	100.475184
2221.000000	100.475646
2220.000000	100.476322
2219.000000	100.476648
2218.000000	100.476156
2217.000000	100.474645
2216.000000	100.472283
2215.000000	100.469883
2214.000000	100.468733
2213.000000	100.469642
2212.000000	100.472198
2211.000000	100.475094
2210.000000	100.477322
2209.000000	100.478806
2208.000000	100.479894
2207.000000	100.480757
2206.000000	100.481428
2205.000000	100.482054
2204.000000	100.482816
2203.000000	100.483691
2202.000000	100.484415
2201.000000	100.484672
2200.000000	100.484328
2199.000000	100.483588
2198.000000	100.482867
2197.000000	100.482333
2196.000000	100.481601
2195.000000	100.480159
2194.000000	100.478106
2193.000000	100.476251
2192.000000	100.475470
2191.000000	100.476089
2190.000000	100.477832
2189.000000	100.480054
2188.000000	100.481990
2187.000000	100.483091
2186.000000	100.483290
2185.000000	100.482879
2184.000000	100.482122
2183.000000	100.481141
2182.000000	100.480219
2181.000000	100.479843
2180.000000	100.480196
2179.000000	100.480729
2178.000000	100.480577
2177.000000	100.479430
2176.000000	100.477873
2175.000000	100.476828
2174.000000	100.476662
2173.000000	100.476944
2172.000000	100.476977
2171.000000	100.476550
2170.000000	100.476156
2169.000000	100.476414
2168.000000	100.477378
2167.000000	100.478465
2166.000000	100.479093
2165.000000	100.479318
2164.000000	100.479649
2163.000000	100.480366
2162.000000	100.481204
2161.000000	100.481696
2160.000000	100.481665
2159.000000	100.481275
2158.000000	100.480797
2157.000000	100.480481
2156.000000	100.480533
2155.000000	100.481009
2154.000000	100.481637
2153.000000	100.481932
2152.000000	100.481657
2151.000000	100.481094
2150.000000	100.480769
2149.000000	100.480907
2148.000000	100.481331
2147.000000	100.481820
2146.000000	100.482373
2145.000000	100.482993
2144.000000	100.483503
2143.000000	100.483760
2142.000000	100.483933
2141.000000	100.484369
2140.000000	100.485202
2139.000000	100.486184
2138.000000	100.486904
2137.000000	100.487188
2136.000000	100.487186
2135.000000	100.487222
2134.000000	100.487508
2133.000000	100.488022
2132.000000	100.488597
2131.000000	100.489085
2130.000000	100.489452
2129.000000	100.489758
2128.000000	100.490067
2127.000000	100.490387
2126.000000	100.490687
2125.000000	100.490929
2124.000000	100.491075
2123.000000	100.491120
2122.000000	100.491136
2121.000000	100.491234
2120.000000	100.491484
2119.000000	100.491872
2118.000000	100.492356
2117.000000	100.492890
2116.000000	100.493392
2115.000000	100.493743
2114.000000	100.493906
2113.000000	100.494015
2112.000000	100.494265
2111.000000	100.494680
2110.000000	100.495069
2109.000000	100.495238
2108.000000	100.495236
2107.000000	100.495334
2106.000000	100.495733
2105.000000	100.496361
2104.000000	100.496947
2103.000000	100.497305
2102.000000	100.497503
2101.000000	100.497743
2100.000000	100.498151
2099.000000	100.498700
2098.000000	100.499282
2097.000000	100.499791
2096.000000	100.500157
2095.000000	100.500416
2094.000000	100.500740
2093.000000	100.501337
2092.000000	100.502227
2091.000000	100.503149
2090.000000	100.503778
2089.000000	100.504010
2088.000000	100.503938
2087.000000	100.503669
2086.000000	100.503288
2085.000000	100.503005
2084.000000	100.503101
2083.000000	100.503651
2082.000000	100.504363
2081.000000	100.504810
2080.000000	100.504821
2079.000000	100.504565
2078.000000	100.504335
2077.000000	100.504360
2076.000000	100.504749
2075.000000	100.505429
2074.000000	100.506096
2073.000000	100.506429
2072.000000	100.506453
2071.000000	100.506559
2070.000000	100.507054
2069.000000	100.507814
2068.000000	100.508450
2067.000000	100.508681
2066.000000	100.508401
2065.000000	100.507600
2064.000000	100.506438
2063.000000	100.505339
2062.000000	100.504782
2061.000000	100.504979
2060.000000	100.505826
2059.000000	100.507019
2058.000000	100.508086
2057.000000	100.508473
2056.000000	100.507942
2055.000000	100.506918
2054.000000	100.506175
2053.000000	100.505997
2052.000000	100.505959
2051.000000	100.505614
2050.000000	100.505110
2049.000000	100.504920
2048.000000	100.505184
2047.000000	100.505502
2046.000000	100.505286
2045.000000	100.504197
2044.000000	100.502394
2043.000000	100.500499
2042.000000	100.499124
2041.000000	100.498221
2040.000000	100.497149
2039.000000	100.495596
2038.000000	100.494156
2037.000000	100.493614
2036.000000	100.493921
2035.000000	100.494304
2034.000000	100.494207
2033.000000	100.493748
2032.000000	100.493198
2031.000000	100.492546
2030.000000	100.491754
2029.000000	100.491044
2028.000000	100.490589
2027.000000	100.490161
2026.000000	100.489404
2025.000000	100.488341
2024.000000	100.487395
2023.000000	100.486888
2022.000000	100.486759
2021.000000	100.486741
2020.000000	100.486639
2019.000000	100.486382
2018.000000	100.485934
2017.000000	100.485309
2016.000000	100.484615
2015.000000	100.483996
2014.000000	100.483497
2013.000000	100.483032
2012.000000	100.482479
2011.000000	100.481819
2010.000000	100.481172
2009.000000	100.480676
2008.000000	100.480328
2007.000000	100.479967
2006.000000	100.479435
2005.000000	100.478745
2004.000000	100.478078
2003.000000	100.477590
2002.000000	100.477266
2001.000000	100.476923
2000.000000	100.476407
1999.000000	100.475766
1998.000000	100.475215
1997.000000	100.474907
1996.000000	100.474842
1995.000000	100.474943
1994.000000	100.475117
1993.000000	100.475200
1992.000000	100.474968
1991.000000	100.474322
1990.000000	100.473437
1989.000000	100.472625
1988.000000	100.472052
1987.000000	100.471684
1986.000000	100.471427
1985.000000	100.471203
1984.000000	100.470900
1983.000000	100.470394
1982.000000	100.469678
1981.000000	100.468909
1980.000000	100.468225
1979.000000	100.467612
1978.000000	100.467025
1977.000000	100.466561
1976.000000	100.466332
1975.000000	100.466232
1974.000000	100.466005
1973.000000	100.465578
1972.000000	100.465152
1971.000000	100.464920
1970.000000	100.464848
1969.000000	100.464807
1968.000000	100.464808
1967.000000	100.464913
1966.000000	100.464975
1965.000000	100.464685
1964.000000	100.463999
1963.000000	100.463335
1962.000000	100.463168
1961.000000	100.463449
1960.000000	100.463640
1959.000000	100.463334
1958.000000	100.462607
1957.000000	100.461761
1956.000000	100.460906
1955.000000	100.459950
1954.000000	100.458978
1953.000000	100.458407
1952.000000	100.458600
1951.000000	100.459336
1950.000000	100.459949
1949.000000	100.460047
1948.000000	100.459857
1947.000000	100.459750
1946.000000	100.459630
1945.000000	100.459034
1944.000000	100.457799
1943.000000	100.456406
1942.000000	100.455601
1941.000000	100.455656
1940.000000	100.456102
1939.000000	100.456046
1938.000000	100.454826
1937.000000	100.452606
1936.000000	100.450415
1935.000000	100.449279
1934.000000	100.449331
1933.000000	100.450037
1932.000000	100.451087
1931.000000	100.452533
1930.000000	100.454140
1929.000000	100.454963
1928.000000	100.454105
1927.000000	100.451959
1926.000000	100.449988
1925.000000	100.449229
1924.000000	100.449058
1923.000000	100.447887
1922.000000	100.444973
1921.000000	100.441044
1920.000000	100.437298
1919.000000	100.434531
1918.000000	100.433011
1917.000000	100.432408
1916.000000	100.431800
1915.000000	100.430397
1914.000000	100.428186
1913.000000	100.425843
1912.000000	100.424046
1911.000000	100.422927
1910.000000	100.422227
1909.000000	100.421484
1908.000000	100.420104
1907.000000	100.417697
1906.000000	100.414300
1905.000000	100.410338
1904.000000	100.406069
1903.000000	100.401743
1902.000000	100.398291
1901.000000	100.396835
1900.000000	100.397359
1899.000000	100.398483
1898.000000	100.398643
1897.000000	100.397329
1896.000000	100.394748
1895.000000	100.391056
1894.000000	100.386565
1893.000000	100.382076
1892.000000	100.378328
1891.000000	100.375531
1890.000000	100.373859
1889.000000	100.373981
1888.000000	100.376314
1887.000000	100.379853
1886.000000	100.382325
1885.000000	100.381864
1884.000000	100.378666
1883.000000	100.374832
1882.000000	100.372277
1881.000000	100.370826
1880.000000	100.368925
1879.000000	100.366049
1878.000000	100.363468
1877.000000	100.362514
1876.000000	100.362832
1875.000000	100.362958
1874.000000	100.362500
1873.000000	100.362753
1872.000000	100.364912
1871.000000	100.368601
1870.000000	100.372341
1869.000000	100.374874
1868.000000	100.375731
1867.000000	100.375040
1866.000000	100.373440
1865.000000	100.372047
1864.000000	100.372159
1863.000000	100.374453
1862.000000	100.378306
1861.000000	100.382032
1860.000000	100.384069
1859.000000	100.384149
1858.000000	100.383388
1857.000000	100.383362
1856.000000	100.385108
1855.000000	100.388766
1854.000000	100.393615
1853.000000	100.398251
1852.000000	100.401347
1851.000000	100.402840
1850.000000	100.403651
1849.000000	100.404759
1848.000000	100.406677
1847.000000	100.409454
1846.000000	100.412407
1845.000000	100.413884
1844.000000	100.412641
1843.000000	100.409819
1842.000000	100.407956
1841.000000	100.407977
1840.000000	100.409108
1839.000000	100.410580
1838.000000	100.412303
1837.000000	100.414248
1836.000000	100.415743
1835.000000	100.416196
1834.000000	100.416010
1833.000000	100.416142
1832.000000	100.417071
1831.000000	100.418412
1830.000000	100.419206
1829.000000	100.419012
1828.000000	100.418450
1827.000000	100.418227
1826.000000	100.418317
1825.000000	100.418211
1824.000000	100.417665
1823.000000	100.417139
1822.000000	100.417362
1821.000000	100.418451
1820.000000	100.419531
1819.000000	100.419376
1818.000000	100.417741
1817.000000	100.415902
1816.000000	100.415280
1815.000000	100.415973
1814.000000	100.417108
1813.000000	100.417903
1812.000000	100.418085
1811.000000	100.417454
1810.000000	100.416137
1809.000000	100.414973
1808.000000	100.414730
1807.000000	100.415532
1806.000000	100.417304
1805.000000	100.419862
1804.000000	100.422296
1803.000000	100.423201
1802.000000	100.422111
1801.000000	100.420144
1800.000000	100.418620
1799.000000	100.417193
1798.000000	100.415104
1797.000000	100.412910
1796.000000	100.411639
1795.000000	100.411291
1794.000000	100.411305
1793.000000	100.412117
1792.000000	100.414940
1791.000000	100.419191
1790.000000	100.422843
1789.000000	100.424859
1788.000000	100.425412
1787.000000	100.424955
1786.000000	100.424177
1785.000000	100.424294
1784.000000	100.426096
1783.000000	100.428917
1782.000000	100.431249
1781.000000	100.432190
1780.000000	100.432631
1779.000000	100.433921
1778.000000	100.436151
1777.000000	100.438262
1776.000000	100.439495
1775.000000	100.440176
1774.000000	100.440920
1773.000000	100.442079
1772.000000	100.444275
1771.000000	100.447949
1770.000000	100.452313
1769.000000	100.455892
1768.000000	100.457730
1767.000000	100.458037
1766.000000	100.457730
1765.000000	100.457399
1764.000000	100.457284
1763.000000	100.457778
1762.000000	100.459208
1761.000000	100.461059
1760.000000	100.462641
1759.000000	100.463912
1758.000000	100.465523
1757.000000	100.467642
1756.000000	100.469506
1755.000000	100.470305
1754.000000	100.469799
1753.000000	100.468147
1752.000000	100.465969
1751.000000	100.464531
1750.000000	100.464695
1749.000000	100.466362
1748.000000	100.468898
1747.000000	100.471532
1746.000000	100.473282
1745.000000	100.473491
1744.000000	100.472749
1743.000000	100.472231
1742.000000	100.472311
1741.000000	100.472511
1740.000000	100.472642
1739.000000	100.473104
1738.000000	100.474329
1737.000000	100.476211
1736.000000	100.477932
1735.000000	100.478243
1734.000000	100.477312
1733.000000	100.477010
1732.000000	100.478223
1731.000000	100.479925
1730.000000	100.480642
1729.000000	100.479623
1728.000000	100.477313
1727.000000	100.474474
1726.000000	100.471130
1725.000000	100.467552
1724.000000	100.465286
1723.000000	100.465029
1722.000000	100.465285
1721.000000	100.464260
1720.000000	100.462068
1719.000000	100.460342
1718.000000	100.459981
1717.000000	100.460056
1716.000000	100.458898
1715.000000	100.456364
1714.000000	100.453958
1713.000000	100.452755
1712.000000	100.452176
1711.000000	100.451202
1710.000000	100.449567
1709.000000	100.447622
1708.000000	100.445788
1707.000000	100.444174
1706.000000	100.442520
1705.000000	100.440877
1704.000000	100.439398
1703.000000	100.437855
1702.000000	100.435359
1701.000000	100.431130
1700.000000	100.426284
1699.000000	100.421913
1698.000000	100.418576
1697.000000	100.416570
1696.000000	100.415190
1695.000000	100.413201
1694.000000	100.410553
1693.000000	100.407675
1692.000000	100.404079
1691.000000	100.398923
1690.000000	100.392560
1689.000000	100.386560
1688.000000	100.382032
1687.000000	100.378840
1686.000000	100.376155
1685.000000	100.374467
1684.000000	100.374656
1683.000000	100.374923
1682.000000	100.374335
1681.000000	100.373084
1680.000000	100.371479
1679.000000	100.369942
1678.000000	100.368676
1677.000000	100.367099
1676.000000	100.364438
1675.000000	100.361021
1674.000000	100.357966
1673.000000	100.355626
1672.000000	100.353647
1671.000000	100.351097
1670.000000	100.347277
1669.000000	100.342509
1668.000000	100.338341
1667.000000	100.335886
1666.000000	100.334468
1665.000000	100.332771
1664.000000	100.330216
1663.000000	100.327269
1662.000000	100.324694
1661.000000	100.322110
1660.000000	100.318957
1659.000000	100.315743
1658.000000	100.313278
1657.000000	100.311626
1656.000000	100.310304
1655.000000	100.309121
1654.000000	100.308403
1653.000000	100.308427
1652.000000	100.307099
1651.000000	100.304346
1650.000000	100.300689
1649.000000	100.296650
1648.000000	100.292068
1647.000000	100.287896
1646.000000	100.285863
1645.000000	100.286158
1644.000000	100.287038
1643.000000	100.286989
1642.000000	100.286097
1641.000000	100.285386
1640.000000	100.286259
1639.000000	100.289428
1638.000000	100.293521
1637.000000	100.294934
1636.000000	100.290522
1635.000000	100.283623
1634.000000	100.280313
1633.000000	100.280785
1632.000000	100.281392
1631.000000	100.280003
1630.000000	100.277605
1629.000000	100.276813
1628.000000	100.278653
1627.000000	100.281508
1626.000000	100.283281
1625.000000	100.283154
1624.000000	100.281954
1623.000000	100.281554
1622.000000	100.283339
1621.000000	100.286695
1620.000000	100.290363
1619.000000	100.293726
1618.000000	100.296732
1617.000000	100.299997
1616.000000	100.304256
1615.000000	100.309774
1614.000000	100.315837
1613.000000	100.320986
1612.000000	100.324153
1611.000000	100.325669
1610.000000	100.326898
1609.000000	100.328382
1608.000000	100.330022
1607.000000	100.332622
1606.000000	100.337161
1605.000000	100.342688
1604.000000	100.347324
1603.000000	100.350447
1602.000000	100.352884
1601.000000	100.355685
1600.000000	100.359480
1599.000000	100.364457
1598.000000	100.369822
1597.000000	100.373896
1596.000000	100.375639
1595.000000	100.375714
1594.000000	100.375691
1593.000000	100.376319
1592.000000	100.377515
1591.000000	100.379506
1590.000000	100.382742
1589.000000	100.386928
1588.000000	100.391462
1587.000000	100.396433
1586.000000	100.402059
1585.000000	100.407386
1584.000000	100.410923
1583.000000	100.412745
1582.000000	100.414115
1581.000000	100.415510
1580.000000	100.416362
1579.000000	100.416789
1578.000000	100.417918
1577.000000	100.420729
1576.000000	100.424516
1575.000000	100.427387
1574.000000	100.428909
1573.000000	100.429755
1572.000000	100.430515
1571.000000	100.431595
1570.000000	100.433797
1569.000000	100.437263
1568.000000	100.440977
1567.000000	100.444155
1566.000000	100.446027
1565.000000	100.446344
1564.000000	100.446102
1563.000000	100.447132
1562.000000	100.449765
1561.000000	100.452157
1560.000000	100.452535
1559.000000	100.452563
1558.000000	100.453191
1557.000000	100.453139
1556.000000	100.452174
1555.000000	100.451119
1554.000000	100.451057
1553.000000	100.452321
1552.000000	100.454835
1551.000000	100.458063
1550.000000	100.460775
1549.000000	100.461971
1548.000000	100.461983
1547.000000	100.462076
1546.000000	100.462857
1545.000000	100.463879
1544.000000	100.464231
1543.000000	100.463574
1542.000000	100.462207
1541.000000	100.460761
1540.000000	100.459424
1539.000000	100.458278
1538.000000	100.457721
1537.000000	100.457580
1536.000000	100.457516
1535.000000	100.457340
1534.000000	100.456987
1533.000000	100.456363
1532.000000	100.455452
1531.000000	100.454366
1530.000000	100.453330
1529.000000	100.452654
1528.000000	100.452477
1527.000000	100.452734
1526.000000	100.453379
1525.000000	100.454383
1524.000000	100.455517
1523.000000	100.456287
1522.000000	100.456255
1521.000000	100.455627
1520.000000	100.455153
1519.000000	100.455194
1518.000000	100.455472
1517.000000	100.455535
1516.000000	100.455223
1515.000000	100.454775
1514.000000	100.454456
1513.000000	100.454269
1512.000000	100.454124
1511.000000	100.453993
1510.000000	100.453936
1509.000000	100.454004
1508.000000	100.454168
1507.000000	100.454276
1506.000000	100.454206
1505.000000	100.454071
1504.000000	100.453988
1503.000000	100.453961
1502.000000	100.453961
1501.000000	100.453958
1500.000000	100.453941
1499.000000	100.453947
1498.000000	100.454035
1497.000000	100.454266
1496.000000	100.454671
1495.000000	100.455182
1494.000000	100.455664
1493.000000	100.455977
1492.000000	100.455996
1491.000000	100.455718
1490.000000	100.455441
1489.000000	100.455534
1488.000000	100.455953
1487.000000	100.456294
1486.000000	100.456468
1485.000000	100.456746
1484.000000	100.457189
1483.000000	100.457555
1482.000000	100.457560
1481.000000	100.457412
1480.000000	100.457736
1479.000000	100.458927
1478.000000	100.460758
1477.000000	100.462547
1476.000000	100.463496
1475.000000	100.463011
1474.000000	100.461064
1473.000000	100.458287
1472.000000	100.455955
1471.000000	100.454801
1470.000000	100.454668
1469.000000	100.454980
1468.000000	100.455113
1467.000000	100.454623
1466.000000	100.453918
1465.000000	100.454065
1464.000000	100.455373
1463.000000	100.456930
1462.000000	100.457988
1461.000000	100.458878
1460.000000	100.460024
1459.000000	100.461082
1458.000000	100.461114
1457.000000	100.460829
1456.000000	100.461968
1455.000000	100.463308
1454.000000	100.462362
1453.000000	100.458843
1452.000000	100.454499
1451.000000	100.450980
1450.000000	100.448085
1449.000000	100.445032
1448.000000	100.442616
1447.000000	100.441975
1446.000000	100.442194
1445.000000	100.440807
1444.000000	100.437018
1443.000000	100.432422
1442.000000	100.429149
1441.000000	100.427886
1440.000000	100.427966
1439.000000	100.428338
1438.000000	100.427674
1437.000000	100.425660
1436.000000	100.424176
1435.000000	100.425137
1434.000000	100.427852
1433.000000	100.430363
1432.000000	100.430809
1431.000000	100.428512
1430.000000	100.424472
1429.000000	100.421128
1428.000000	100.420834
1427.000000	100.423946
1426.000000	100.428633
1425.000000	100.431813
1424.000000	100.432099
1423.000000	100.431281
1422.000000	100.431475
1421.000000	100.432398
1420.000000	100.432341
1419.000000	100.430952
1418.000000	100.429517
1417.000000	100.429616
1416.000000	100.431868
1415.000000	100.435609
1414.000000	100.439537
1413.000000	100.442531
1412.000000	100.444512
1411.000000	100.446497
1410.000000	100.449460
1409.000000	100.453618
1408.000000	100.458307
1407.000000	100.462123
1406.000000	100.464084
1405.000000	100.464358
1404.000000	100.464322
1403.000000	100.464988
1402.000000	100.465862
1401.000000	100.466192
1400.000000	100.466220
1399.000000	100.467182
1398.000000	100.469882
1397.000000	100.474468
1396.000000	100.481075
1395.000000	100.489158
1394.000000	100.496410
1393.000000	100.500394
1392.000000	100.501451
1391.000000	100.501638
1390.000000	100.502392
1389.000000	100.503649
1388.000000	100.504635
1387.000000	100.505153
1386.000000	100.505825
1385.000000	100.507091
1384.000000	100.508776
1383.000000	100.510398
1382.000000	100.511186
1381.000000	100.510313
1380.000000	100.507521
1379.000000	100.504089
1378.000000	100.502393
1377.000000	100.503698
1376.000000	100.506924
1375.000000	100.509771
1374.000000	100.510643
1373.000000	100.509536
1372.000000	100.507532
1371.000000	100.505655
1370.000000	100.504390
1369.000000	100.503295
1368.000000	100.501773
1367.000000	100.500250
1366.000000	100.499842
1365.000000	100.500701
1364.000000	100.501244
1363.000000	100.499619
1362.000000	100.496236
1361.000000	100.493610
1360.000000	100.493424
1359.000000	100.495498
1358.000000	100.499034
1357.000000	100.503314
1356.000000	100.507474
1355.000000	100.510481
1354.000000	100.511766
1353.000000	100.511610
1352.000000	100.510687
1351.000000	100.509514
1350.000000	100.508553
1349.000000	100.507648
1348.000000	100.505929
1347.000000	100.502811
1346.000000	100.499299
1345.000000	100.497559
1344.000000	100.498903
1343.000000	100.502598
1342.000000	100.506645
1341.000000	100.509420
1340.000000	100.510435
1339.000000	100.509961
1338.000000	100.508470
1337.000000	100.506535
1336.000000	100.504830
1335.000000	100.503830
1334.000000	100.503678
1333.000000	100.504365
1332.000000	100.505798
1331.000000	100.507496
1330.000000	100.508547
1329.000000	100.508337
1328.000000	100.507423
1327.000000	100.507210
1326.000000	100.508453
1325.000000	100.510196
1324.000000	100.510979
1323.000000	100.510586
1322.000000	100.509934
1321.000000	100.509525
1320.000000	100.508946
1319.000000	100.507987
1318.000000	100.507283
1317.000000	100.507305
1316.000000	100.507339
1315.000000	100.506223
1314.000000	100.503758
1313.000000	100.500924
1312.000000	100.498883
1311.000000	100.498330
1310.000000	100.499660
1309.000000	100.502859
1308.000000	100.506805
1307.000000	100.509399
1306.000000	100.509426
1305.000000	100.507886
1304.000000	100.507046
1303.000000	100.507907
1302.000000	100.509204
1301.000000	100.509227
1300.000000	100.508113
1299.000000	100.507739
1298.000000	100.509547
1297.000000	100.512803
1296.000000	100.514972
1295.000000	100.513804
1294.000000	100.509157
1293.000000	100.503124
1292.000000	100.498272
1291.000000	100.495535
1290.000000	100.493975
1289.000000	100.492501
1288.000000	100.491184
1287.000000	100.490627
1286.000000	100.490821
1285.000000	100.491442
1284.000000	100.492647
1283.000000	100.494467
1282.000000	100.495882
1281.000000	100.495975
1280.000000	100.495989
1279.000000	100.498739
1278.000000	100.505123
1277.000000	100.512266
1276.000000	100.515937
1275.000000	100.514344
1274.000000	100.509167
1273.000000	100.503735
1272.000000	100.500771
1271.000000	100.500920
1270.000000	100.502268
1269.000000	100.501717
1268.000000	100.497882
1267.000000	100.492551
1266.000000	100.488679
1265.000000	100.487424
1264.000000	100.488071
1263.000000	100.490402
1262.000000	100.495500
1261.000000	100.503484
1260.000000	100.511320
1259.000000	100.514446
1258.000000	100.510959
1257.000000	100.503615
1256.000000	100.497100
1255.000000	100.493545
1254.000000	100.491105
1253.000000	100.486689
1252.000000	100.479076
1251.000000	100.469172
1250.000000	100.458438
1249.000000	100.448042
1248.000000	100.438911
1247.000000	100.431532
1246.000000	100.425745
1245.000000	100.421219
1244.000000	100.417387
1243.000000	100.412452
1242.000000	100.404078
1241.000000	100.392468
1240.000000	100.381355
1239.000000	100.373925
1238.000000	100.368656
1237.000000	100.361336
1236.000000	100.350239
1235.000000	100.336869
1234.000000	100.322525
1233.000000	100.307358
1232.000000	100.292636
1231.000000	100.280259
1230.000000	100.269176
1229.000000	100.255512
1228.000000	100.237366
1227.000000	100.216473
1226.000000	100.193892
1225.000000	100.167137
1224.000000	100.133598
1223.000000	100.094161
1222.000000	100.051162
1221.000000	100.005016
1220.000000	99.955587
1219.000000	99.905174
1218.000000	99.856938
1217.000000	99.810926
1216.000000	99.763947
1215.000000	99.712802
1214.000000	99.656132
1213.000000	99.594304
1212.000000	99.529447
1211.000000	99.464879
1210.000000	99.402920
1209.000000	99.343714
1208.000000	99.286615
1207.000000	99.231135
1206.000000	99.176003
1205.000000	99.119510
1204.000000	99.061762
1203.000000	99.004546
1202.000000	98.948179
1201.000000	98.890813
1200.000000	98.831916
1199.000000	98.774146
1198.000000	98.720496
1197.000000	98.671433
1196.000000	98.625345
1195.000000	98.579232
1194.000000	98.528740
1193.000000	98.470836
1192.000000	98.407448
1191.000000	98.343579
1190.000000	98.280916
1189.000000	98.216512
1188.000000	98.148680
1187.000000	98.080316
1186.000000	98.014652
1185.000000	97.951276
1184.000000	97.888278
1183.000000	97.824906
1182.000000	97.760165
1181.000000	97.692177
1180.000000	97.620939
1179.000000	97.548441
1178.000000	97.474157
1177.000000	97.394207
1176.000000	97.307498
1175.000000	97.219090
1174.000000	97.134244
1173.000000	97.051863
1172.000000	96.966910
1171.000000	96.876984
1170.000000	96.784016
1169.000000	96.691803
1168.000000	96.604308
1167.000000	96.524713
1166.000000	96.454869
1165.000000	96.397789
1164.000000	96.360615
1163.000000	96.350897
1162.000000	96.368584
1161.000000	96.404556
1160.000000	96.446803
1159.000000	96.484132
1158.000000	96.505260
1157.000000	96.501873
1156.000000	96.475361
1155.000000	96.436007
1154.000000	96.392457
1153.000000	96.344490
1152.000000	96.287606
1151.000000	96.220713
1150.000000	96.147223
1149.000000	96.072160
1148.000000	96.000269
1147.000000	95.933933
1146.000000	95.871281
1145.000000	95.808894
1144.000000	95.746511
1143.000000	95.685633
1142.000000	95.624439
1141.000000	95.559303
1140.000000	95.490906
1139.000000	95.422629
1138.000000	95.352859
1137.000000	95.276215
1136.000000	95.193815
1135.000000	95.114926
1134.000000	95.045539
1133.000000	94.981444
1132.000000	94.915082
1131.000000	94.843017
1130.000000	94.764768
1129.000000	94.681283
1128.000000	94.597412
1127.000000	94.519249
1126.000000	94.445790
1125.000000	94.369217
1124.000000	94.285843
1123.000000	94.200030
1122.000000	94.114973
1121.000000	94.027689
1120.000000	93.937333
1119.000000	93.850728
1118.000000	93.773981
1117.000000	93.704699
1116.000000	93.637235
1115.000000	93.569985
1114.000000	93.503010
1113.000000	93.433735
1112.000000	93.359596
1111.000000	93.281013
1110.000000	93.199209
1109.000000	93.115803
1108.000000	93.036195
1107.000000	92.966840
1106.000000	92.906746
1105.000000	92.847534
1104.000000	92.783912
1103.000000	92.718115
1102.000000	92.653133
1101.000000	92.588939
1100.000000	92.526579
1099.000000	92.467408
1098.000000	92.407501
1097.000000	92.340887
1096.000000	92.269948
1095.000000	92.203934
1094.000000	92.145953
1093.000000	92.090587
1092.000000	92.035256
1091.000000	91.983473
1090.000000	91.935382
1089.000000	91.886337
1088.000000	91.837285
1087.000000	91.795076
1086.000000	91.759148
1085.000000	91.719051
1084.000000	91.669033
1083.000000	91.614487
1082.000000	91.560774
1081.000000	91.506934
1080.000000	91.454523
1079.000000	91.410697
1078.000000	91.376501
1077.000000	91.342433
1076.000000	91.301143
1075.000000	91.254502
1074.000000	91.203217
1073.000000	91.140091
1072.000000	91.060011
1071.000000	90.967580
1070.000000	90.868675
1069.000000	90.761783
1068.000000	90.642997
1067.000000	90.512566
1066.000000	90.372530
1065.000000	90.225468
1064.000000	90.079157
1063.000000	89.944260
1062.000000	89.823490
1061.000000	89.710855
1060.000000	89.603474
1059.000000	89.504334
1058.000000	89.411675
1057.000000	89.317052
1056.000000	89.216886
1055.000000	89.114608
1054.000000	89.007944
1053.000000	88.886066
1052.000000	88.744774
1051.000000	88.593288
1050.000000	88.439605
1049.000000	88.280554
1048.000000	88.112654
1047.000000	87.940135
1046.000000	87.766278
1045.000000	87.588652
1044.000000	87.407717
1043.000000	87.229571
1042.000000	87.056490
1041.000000	86.884554
1040.000000	86.713104
1039.000000	86.546187
1038.000000	86.383279
1037.000000	86.220888
1036.000000	86.064884
1035.000000	85.927498
1034.000000	85.809696
1033.000000	85.700340
1032.000000	85.595337
1031.000000	85.503105
1030.000000	85.427664
1029.000000	85.361090
1028.000000	85.296912
1027.000000	85.237378
1026.000000	85.183548
1025.000000	85.131609
1024.000000	85.082021
1023.000000	85.038581
1022.000000	84.995949
1021.000000	84.942757
1020.000000	84.880123
1019.000000	84.822240
1018.000000	84.775463
1017.000000	84.731572
1016.000000	84.684716
1015.000000	84.639738
1014.000000	84.599728
1013.000000	84.560115
1012.000000	84.519311
1011.000000	84.481325
1010.000000	84.444495
1009.000000	84.401796
1008.000000	84.355689
1007.000000	84.318513
1006.000000	84.294782
1005.000000	84.276700
1004.000000	84.259383
1003.000000	84.246123
1002.000000	84.236448
1001.000000	84.224372
1000.000000	84.211578
999.000000	84.207417
998.000000	84.212796
997.000000	84.218593
996.000000	84.222395
995.000000	84.231613
994.000000	84.247517
993.000000	84.262061
992.000000	84.273648
991.000000	84.290280
990.000000	84.313894
989.000000	84.337649
988.000000	84.362218
987.000000	84.398462
986.000000	84.449884
985.000000	84.508548
984.000000	84.572413
983.000000	84.650247
982.000000	84.744134
981.000000	84.843335
980.000000	84.941760
979.000000	85.046683
978.000000	85.163854
977.000000	85.288481
976.000000	85.417369
975.000000	85.556334
974.000000	85.708616
973.000000	85.867845
972.000000	86.028382
971.000000	86.191714
970.000000	86.357818
969.000000	86.521580
968.000000	86.682712
967.000000	86.848541
966.000000	87.022123
965.000000	87.197114
964.000000	87.367907
963.000000	87.535102
962.000000	87.698064
961.000000	87.852347
960.000000	87.997850
959.000000	88.140115
958.000000	88.280900
957.000000	88.416956
956.000000	88.550158
955.000000	88.688156
954.000000	88.831536
953.000000	88.970055
952.000000	89.095178
951.000000	89.207800
950.000000	89.311755
949.000000	89.409015
948.000000	89.503461
947.000000	89.599559
946.000000	89.693828
945.000000	89.776131
944.000000	89.842267
943.000000	89.897862
942.000000	89.949024
941.000000	89.998186
940.000000	90.050305
939.000000	90.112248
938.000000	90.182524
937.000000	90.251052
936.000000	90.312515
935.000000	90.371614
934.000000	90.432967
933.000000	90.494867
932.000000	90.555749
931.000000	90.617922
930.000000	90.681981
929.000000	90.745602
928.000000	90.809808
927.000000	90.878070
926.000000	90.947996
925.000000	91.013266
924.000000	91.075129
923.000000	91.141703
922.000000	91.213586
921.000000	91.280582
920.000000	91.335887
919.000000	91.383831
918.000000	91.430364
917.000000	91.475821
916.000000	91.521187
915.000000	91.571896
914.000000	91.630235
913.000000	91.691802
912.000000	91.754056
911.000000	91.821617
910.000000	91.900167
909.000000	91.992258
908.000000	92.100825
907.000000	92.227784
906.000000	92.366395
905.000000	92.504119
904.000000	92.636760
903.000000	92.771971
902.000000	92.916666
901.000000	93.069982
900.000000	93.231010
899.000000	93.403200
898.000000	93.585838
897.000000	93.768899
896.000000	93.941955
895.000000	94.103139
894.000000	94.256103
893.000000	94.403580
892.000000	94.546964
891.000000	94.687273
890.000000	94.823577
889.000000	94.954196
888.000000	95.080710
887.000000	95.206500
886.000000	95.330764
885.000000	95.448923
884.000000	95.559398
883.000000	95.664793
882.000000	95.766656
881.000000	95.865480
880.000000	95.965890
879.000000	96.073861
878.000000	96.186954
877.000000	96.295127
876.000000	96.393839
875.000000	96.489310
874.000000	96.588589
873.000000	96.691522
872.000000	96.795459
871.000000	96.900975
870.000000	97.009443
869.000000	97.120408
868.000000	97.234195
867.000000	97.352026
866.000000	97.471002
865.000000	97.584154
864.000000	97.688444
863.000000	97.787926
862.000000	97.886038
861.000000	97.979469
860.000000	98.063677
859.000000	98.141012
858.000000	98.218963
857.000000	98.301953
856.000000	98.388394
855.000000	98.474315
854.000000	98.556127
853.000000	98.630145
852.000000	98.692703
851.000000	98.742309
850.000000	98.781174
849.000000	98.814242
848.000000	98.846639
847.000000	98.881146
846.000000	98.916719
845.000000	98.948723
844.000000	98.970525
843.000000	98.975869
842.000000	98.962174
841.000000	98.933358
840.000000	98.898505
839.000000	98.865382
838.000000	98.834120
837.000000	98.797695
836.000000	98.748489
835.000000	98.684434
834.000000	98.611203
833.000000	98.541324
832.000000	98.489788
831.000000	98.464754
830.000000	98.458831
829.000000	98.452476
828.000000	98.431228
827.000000	98.401564
826.000000	98.387919
825.000000	98.410508
824.000000	98.464477
823.000000	98.522668
822.000000	98.561176
821.000000	98.579604
820.000000	98.592711
819.000000	98.606941
818.000000	98.612395
817.000000	98.596907
816.000000	98.560043
815.000000	98.509396
814.000000	98.447113
813.000000	98.363912
812.000000	98.244384
811.000000	98.075549
810.000000	97.853052
809.000000	97.582516
808.000000	97.273745
807.000000	96.931974
806.000000	96.557499
805.000000	96.156893
804.000000	95.751363
803.000000	95.368619
802.000000	95.027701
801.000000	94.736798
800.000000	94.502472
799.000000	94.332064
798.000000	94.227963
797.000000	94.187473
796.000000	94.206070
795.000000	94.272097
794.000000	94.362378
793.000000	94.454766
792.000000	94.542850
791.000000	94.628144
790.000000	94.701934
789.000000	94.747213
788.000000	94.756286
787.000000	94.733831
786.000000	94.683242
785.000000	94.602016
784.000000	94.491745
783.000000	94.362483
782.000000	94.226639
781.000000	94.098461
780.000000	93.998569
779.000000	93.945663
778.000000	93.941304
777.000000	93.974402
776.000000	94.041639
775.000000	94.150025
774.000000	94.297080
773.000000	94.462713
772.000000	94.625591
771.000000	94.775972
770.000000	94.908521
769.000000	95.015245
768.000000	95.093076
767.000000	95.149737
766.000000	95.194793
765.000000	95.230764
764.000000	95.258410
763.000000	95.284164
762.000000	95.315787
761.000000	95.355041
760.000000	95.399873
759.000000	95.449972
758.000000	95.505670
757.000000	95.564450
756.000000	95.622431
755.000000	95.677661
754.000000	95.730299
753.000000	95.781704
752.000000	95.834080
751.000000	95.888808
750.000000	95.945534
749.000000	96.005375
748.000000	96.072884
747.000000	96.150130
746.000000	96.230724
745.000000	96.306064
744.000000	96.377652
743.000000	96.457947
742.000000	96.558578
741.000000	96.681280
740.000000	96.818900
739.000000	96.960058
738.000000	97.093635
737.000000	97.213865
736.000000	97.320990
735.000000	97.415098
734.000000	97.493112
733.000000	97.555196
732.000000	97.608935
731.000000	97.660837
730.000000	97.707444
729.000000	97.741741
728.000000	97.766014
727.000000	97.790007
726.000000	97.817898
725.000000	97.847400
724.000000	97.880681
723.000000	97.925340
722.000000	97.983354
721.000000	98.048562
720.000000	98.117055
719.000000	98.190619
718.000000	98.266969
717.000000	98.336923
716.000000	98.396190
715.000000	98.452230
714.000000	98.513464
713.000000	98.576006
712.000000	98.626850
711.000000	98.657452
710.000000	98.671237
709.000000	98.679555
708.000000	98.692455
707.000000	98.710497
706.000000	98.720818
705.000000	98.705243
704.000000	98.655926
703.000000	98.579781
702.000000	98.486499
701.000000	98.374860
700.000000	98.232468
699.000000	98.050374
698.000000	97.838283
697.000000	97.628680
696.000000	97.464382
695.000000	97.374878
694.000000	97.364095
693.000000	97.417505
692.000000	97.514548
691.000000	97.634353
690.000000	97.756417
689.000000	97.867431
688.000000	97.967544
687.000000	98.062099
686.000000	98.149079
685.000000	98.219757
684.000000	98.270432
683.000000	98.309650
682.000000	98.352461
681.000000	98.408737
680.000000	98.475515
679.000000	98.540763
678.000000	98.595709
677.000000	98.638832
676.000000	98.668967
675.000000	98.687235
674.000000	98.697773
673.000000	98.711024
672.000000	98.745161
671.000000	98.814517
670.000000	98.915073
669.000000	99.014567
668.000000	99.064149
667.000000	99.068413
666.000000	99.081084
665.000000	99.115312
664.000000	99.159054
663.000000	99.197960
662.000000	99.219465
661.000000	99.220202
660.000000	99.213469
659.000000	99.221337
658.000000	99.252470
657.000000	99.289775
656.000000	99.306799
655.000000	99.293589
654.000000	99.253658
653.000000	99.195903
652.000000	99.139652
651.000000	99.106691
650.000000	99.098618
649.000000	99.100439
648.000000	99.114562
647.000000	99.164019
646.000000	99.251737
645.000000	99.346072
644.000000	99.418107
643.000000	99.468775
642.000000	99.511492
641.000000	99.551453
640.000000	99.594492
639.000000	99.652160
638.000000	99.720022
637.000000	99.772898
636.000000	99.797258
635.000000	99.807206
634.000000	99.820161
633.000000	99.838712
632.000000	99.865414
631.000000	99.909669
630.000000	99.968000
629.000000	100.021513
628.000000	100.065620
627.000000	100.119367
626.000000	100.193686
625.000000	100.275076
624.000000	100.350651
623.000000	100.422330
622.000000	100.485666
621.000000	100.524263
620.000000	100.536641
619.000000	100.541356
618.000000	100.546509
617.000000	100.541486
616.000000	100.529009
615.000000	100.529823
614.000000	100.542739
613.000000	100.540327
612.000000	100.518790
611.000000	100.509772
610.000000	100.529683
609.000000	100.551353
608.000000	100.543826
607.000000	100.509965
606.000000	100.469923
605.000000	100.436940
604.000000	100.423435
603.000000	100.439250
602.000000	100.465423
601.000000	100.458903
600.000000	100.400522
599.000000	100.318594
598.000000	100.253966
597.000000	100.220630
596.000000	100.213319
595.000000	100.225146
594.000000	100.244143
593.000000	100.260550
592.000000	100.288260
591.000000	100.348469
590.000000	100.421795
589.000000	100.456468
588.000000	100.438361
587.000000	100.413011
586.000000	100.423253
585.000000	100.455443
584.000000	100.473865
583.000000	100.473771
582.000000	100.470513
581.000000	100.468952
580.000000	100.475729
579.000000	100.511862
578.000000	100.577924
577.000000	100.635294
576.000000	100.650581
575.000000	100.629196
574.000000	100.586059
573.000000	100.518867
572.000000	100.446486
571.000000	100.429765
570.000000	100.498754
569.000000	100.588429
568.000000	100.606468
567.000000	100.540663
566.000000	100.460004
565.000000	100.426634
564.000000	100.448112
563.000000	100.503745
562.000000	100.566455
561.000000	100.607933
560.000000	100.611620
559.000000	100.578993
558.000000	100.519823
557.000000	100.451043
556.000000	100.403854
555.000000	100.399323
554.000000	100.406934
553.000000	100.373297
552.000000	100.309073
551.000000	100.294238
550.000000	100.365007
