PE IR       SUBTECH     SPECTRUM    ASCII       PEDS        4.00        
   -1
BH1 8-1 2 30_1.asc
24/05/17
14:32:11.00
24/05/17
14:32:20.00
Administrator
?品 007 用? Administrator 日期 Friday, May 17 2024
550.000000
#HDR
-1
-1
#GR
cm-1
%T
1.0
0.0
4000.000000
-1.000000
3451
8
100.223689
85.800800
#DATA
4000.000000	99.997387
3999.000000	99.994653
3998.000000	99.992342
3997.000000	99.990857
3996.000000	99.989888
3995.000000	99.989058
3994.000000	99.988410
3993.000000	99.988197
3992.000000	99.988556
3991.000000	99.989525
3990.000000	99.991073
3989.000000	99.992859
3988.000000	99.994067
3987.000000	99.993875
3986.000000	99.992107
3985.000000	99.989511
3984.000000	99.987342
3983.000000	99.986223
3982.000000	99.985754
3981.000000	99.985113
3980.000000	99.983983
3979.000000	99.982819
3978.000000	99.982153
3977.000000	99.981863
3976.000000	99.981279
3975.000000	99.979997
3974.000000	99.978378
3973.000000	99.977227
3972.000000	99.977050
3971.000000	99.977724
3970.000000	99.978624
3969.000000	99.979075
3968.000000	99.978742
3967.000000	99.977703
3966.000000	99.976307
3965.000000	99.974910
3964.000000	99.973714
3963.000000	99.972737
3962.000000	99.971845
3961.000000	99.970898
3960.000000	99.969944
3959.000000	99.969263
3958.000000	99.969124
3957.000000	99.969520
3956.000000	99.970168
3955.000000	99.970767
3954.000000	99.971189
3953.000000	99.971435
3952.000000	99.971527
3951.000000	99.971453
3950.000000	99.971206
3949.000000	99.970848
3948.000000	99.970571
3947.000000	99.970585
3946.000000	99.970934
3945.000000	99.971468
3944.000000	99.971969
3943.000000	99.972273
3942.000000	99.972300
3941.000000	99.972036
3940.000000	99.971600
3939.000000	99.971304
3938.000000	99.971541
3937.000000	99.972518
3936.000000	99.974056
3935.000000	99.975615
3934.000000	99.976620
3933.000000	99.976792
3932.000000	99.976272
3931.000000	99.975558
3930.000000	99.975148
3929.000000	99.975199
3928.000000	99.975492
3927.000000	99.975737
3926.000000	99.975981
3925.000000	99.976604
3924.000000	99.977857
3923.000000	99.979456
3922.000000	99.980690
3921.000000	99.981031
3920.000000	99.980606
3919.000000	99.980132
3918.000000	99.980300
3917.000000	99.981224
3916.000000	99.982543
3915.000000	99.983876
3914.000000	99.985038
3913.000000	99.985875
3912.000000	99.986142
3911.000000	99.985642
3910.000000	99.984446
3909.000000	99.982899
3908.000000	99.981462
3907.000000	99.980630
3906.000000	99.980849
3905.000000	99.982279
3904.000000	99.984437
3903.000000	99.986247
3902.000000	99.986783
3901.000000	99.985914
3900.000000	99.984291
3899.000000	99.982735
3898.000000	99.981637
3897.000000	99.980887
3896.000000	99.980240
3895.000000	99.979517
3894.000000	99.978538
3893.000000	99.976949
3892.000000	99.974459
3891.000000	99.971587
3890.000000	99.969572
3889.000000	99.969199
3888.000000	99.970157
3887.000000	99.971283
3886.000000	99.971460
3885.000000	99.970466
3884.000000	99.968906
3883.000000	99.967441
3882.000000	99.966215
3881.000000	99.964964
3880.000000	99.963748
3879.000000	99.963327
3878.000000	99.964200
3877.000000	99.965557
3876.000000	99.965704
3875.000000	99.963673
3874.000000	99.960335
3873.000000	99.957598
3872.000000	99.956409
3871.000000	99.955994
3870.000000	99.955391
3869.000000	99.955128
3868.000000	99.956318
3867.000000	99.958774
3866.000000	99.961010
3865.000000	99.961579
3864.000000	99.960262
3863.000000	99.958301
3862.000000	99.957033
3861.000000	99.956161
3860.000000	99.953963
3859.000000	99.949340
3858.000000	99.943413
3857.000000	99.938919
3856.000000	99.937136
3855.000000	99.936255
3854.000000	99.933616
3853.000000	99.930384
3852.000000	99.931101
3851.000000	99.937026
3850.000000	99.945362
3849.000000	99.952969
3848.000000	99.958410
3847.000000	99.961555
3846.000000	99.962581
3845.000000	99.961321
3844.000000	99.957568
3843.000000	99.952017
3842.000000	99.946557
3841.000000	99.943246
3840.000000	99.943050
3839.000000	99.945164
3838.000000	99.947728
3837.000000	99.949646
3836.000000	99.951151
3835.000000	99.952753
3834.000000	99.954267
3833.000000	99.954868
3832.000000	99.954124
3831.000000	99.952775
3830.000000	99.952173
3829.000000	99.952955
3828.000000	99.954474
3827.000000	99.955584
3826.000000	99.955775
3825.000000	99.955297
3824.000000	99.954430
3823.000000	99.953416
3822.000000	99.953010
3821.000000	99.953838
3820.000000	99.955492
3819.000000	99.956830
3818.000000	99.956649
3817.000000	99.954664
3816.000000	99.952643
3815.000000	99.953101
3814.000000	99.956256
3813.000000	99.959901
3812.000000	99.962081
3811.000000	99.962798
3810.000000	99.963326
3809.000000	99.964260
3808.000000	99.964523
3807.000000	99.962733
3806.000000	99.959097
3805.000000	99.955019
3804.000000	99.951447
3803.000000	99.948462
3802.000000	99.946421
3801.000000	99.947322
3800.000000	99.953245
3799.000000	99.963502
3798.000000	99.974526
3797.000000	99.982460
3796.000000	99.986000
3795.000000	99.986585
3794.000000	99.986032
3793.000000	99.984712
3792.000000	99.982380
3791.000000	99.979739
3790.000000	99.978315
3789.000000	99.978820
3788.000000	99.980146
3787.000000	99.980260
3786.000000	99.978046
3785.000000	99.974345
3784.000000	99.971343
3783.000000	99.970841
3782.000000	99.973089
3781.000000	99.976979
3780.000000	99.980823
3779.000000	99.983219
3778.000000	99.983624
3777.000000	99.981961
3776.000000	99.978300
3775.000000	99.973500
3774.000000	99.969342
3773.000000	99.967135
3772.000000	99.966594
3771.000000	99.966684
3770.000000	99.967208
3769.000000	99.968756
3768.000000	99.970990
3767.000000	99.972058
3766.000000	99.970604
3765.000000	99.967754
3764.000000	99.966026
3763.000000	99.966411
3762.000000	99.967775
3761.000000	99.968810
3760.000000	99.968971
3759.000000	99.967410
3758.000000	99.962994
3757.000000	99.955768
3756.000000	99.947251
3755.000000	99.939282
3754.000000	99.933320
3753.000000	99.930681
3752.000000	99.931385
3751.000000	99.932177
3750.000000	99.930114
3749.000000	99.927087
3748.000000	99.927432
3747.000000	99.933441
3746.000000	99.942245
3745.000000	99.947838
3744.000000	99.949001
3743.000000	99.949405
3742.000000	99.950798
3741.000000	99.952546
3740.000000	99.954780
3739.000000	99.958241
3738.000000	99.962370
3737.000000	99.965508
3736.000000	99.966274
3735.000000	99.963684
3734.000000	99.957614
3733.000000	99.949947
3732.000000	99.944371
3731.000000	99.943996
3730.000000	99.948686
3729.000000	99.954903
3728.000000	99.958270
3727.000000	99.956959
3726.000000	99.952875
3725.000000	99.949259
3724.000000	99.947672
3723.000000	99.947592
3722.000000	99.948070
3721.000000	99.948808
3720.000000	99.949428
3719.000000	99.948525
3718.000000	99.944497
3717.000000	99.937139
3716.000000	99.927780
3715.000000	99.918135
3714.000000	99.909509
3713.000000	99.902874
3712.000000	99.898231
3711.000000	99.894352
3710.000000	99.890400
3709.000000	99.886397
3708.000000	99.882308
3707.000000	99.878061
3706.000000	99.874025
3705.000000	99.870966
3704.000000	99.869383
3703.000000	99.868725
3702.000000	99.867497
3701.000000	99.865148
3700.000000	99.863191
3699.000000	99.863007
3698.000000	99.863662
3697.000000	99.862831
3696.000000	99.858975
3695.000000	99.851911
3694.000000	99.842033
3693.000000	99.830273
3692.000000	99.819235
3691.000000	99.812871
3690.000000	99.812601
3689.000000	99.815107
3688.000000	99.816219
3687.000000	99.814467
3686.000000	99.810358
3685.000000	99.805141
3684.000000	99.799808
3683.000000	99.793986
3682.000000	99.785781
3681.000000	99.773775
3680.000000	99.759248
3679.000000	99.745484
3678.000000	99.734317
3677.000000	99.724743
3676.000000	99.714713
3675.000000	99.704375
3674.000000	99.696318
3673.000000	99.691870
3672.000000	99.689968
3671.000000	99.688720
3670.000000	99.686062
3669.000000	99.680878
3668.000000	99.673969
3667.000000	99.666430
3666.000000	99.658024
3665.000000	99.647795
3664.000000	99.635605
3663.000000	99.623091
3662.000000	99.612727
3661.000000	99.605656
3660.000000	99.600448
3659.000000	99.593890
3658.000000	99.583035
3657.000000	99.567667
3656.000000	99.551475
3655.000000	99.538904
3654.000000	99.530395
3653.000000	99.521772
3652.000000	99.508116
3651.000000	99.489297
3650.000000	99.470961
3649.000000	99.459092
3648.000000	99.455037
3647.000000	99.455272
3646.000000	99.455559
3645.000000	99.454631
3644.000000	99.453415
3643.000000	99.452314
3642.000000	99.449644
3641.000000	99.442642
3640.000000	99.430463
3639.000000	99.416565
3638.000000	99.407097
3637.000000	99.405694
3636.000000	99.409666
3635.000000	99.411706
3634.000000	99.406305
3633.000000	99.393963
3632.000000	99.379127
3631.000000	99.365459
3630.000000	99.354497
3629.000000	99.345731
3628.000000	99.338205
3627.000000	99.332177
3626.000000	99.327465
3625.000000	99.323304
3624.000000	99.319799
3623.000000	99.317680
3622.000000	99.317408
3621.000000	99.319449
3620.000000	99.324241
3619.000000	99.330604
3618.000000	99.336015
3617.000000	99.339052
3616.000000	99.340585
3615.000000	99.343185
3614.000000	99.349275
3613.000000	99.358984
3612.000000	99.369971
3611.000000	99.379320
3610.000000	99.385808
3609.000000	99.390980
3608.000000	99.397517
3607.000000	99.406238
3606.000000	99.414916
3605.000000	99.419943
3604.000000	99.419480
3603.000000	99.415658
3602.000000	99.413618
3601.000000	99.417655
3600.000000	99.427561
3599.000000	99.439057
3598.000000	99.447777
3597.000000	99.452381
3596.000000	99.454391
3595.000000	99.456120
3594.000000	99.459028
3593.000000	99.463348
3592.000000	99.468084
3591.000000	99.471132
3590.000000	99.470746
3589.000000	99.467996
3588.000000	99.466186
3587.000000	99.467007
3586.000000	99.469279
3585.000000	99.471000
3584.000000	99.471149
3583.000000	99.470101
3582.000000	99.468994
3581.000000	99.468809
3580.000000	99.469844
3579.000000	99.471728
3578.000000	99.473768
3577.000000	99.475232
3576.000000	99.475494
3575.000000	99.474215
3574.000000	99.471613
3573.000000	99.468526
3572.000000	99.465948
3571.000000	99.464194
3570.000000	99.462657
3569.000000	99.460844
3568.000000	99.459066
3567.000000	99.457496
3566.000000	99.456069
3565.000000	99.455071
3564.000000	99.454550
3563.000000	99.453919
3562.000000	99.452553
3561.000000	99.450544
3560.000000	99.448822
3559.000000	99.448365
3558.000000	99.449227
3557.000000	99.450400
3556.000000	99.450621
3555.000000	99.449393
3554.000000	99.447271
3553.000000	99.445332
3552.000000	99.444348
3551.000000	99.444224
3550.000000	99.444093
3549.000000	99.443034
3548.000000	99.440940
3547.000000	99.438744
3546.000000	99.437666
3545.000000	99.438061
3544.000000	99.439161
3543.000000	99.439803
3542.000000	99.439460
3541.000000	99.438447
3540.000000	99.437458
3539.000000	99.437001
3538.000000	99.437144
3537.000000	99.437627
3536.000000	99.438093
3535.000000	99.438306
3534.000000	99.438194
3533.000000	99.437789
3532.000000	99.437160
3531.000000	99.436399
3530.000000	99.435638
3529.000000	99.435041
3528.000000	99.434730
3527.000000	99.434724
3526.000000	99.434933
3525.000000	99.435214
3524.000000	99.435457
3523.000000	99.435686
3522.000000	99.436123
3521.000000	99.437034
3520.000000	99.438393
3519.000000	99.439692
3518.000000	99.440242
3517.000000	99.439797
3516.000000	99.438749
3515.000000	99.437867
3514.000000	99.437656
3513.000000	99.438096
3512.000000	99.438785
3511.000000	99.439184
3510.000000	99.438967
3509.000000	99.438214
3508.000000	99.437350
3507.000000	99.436766
3506.000000	99.436515
3505.000000	99.436385
3504.000000	99.436202
3503.000000	99.436035
3502.000000	99.436090
3501.000000	99.436463
3500.000000	99.437058
3499.000000	99.437631
3498.000000	99.437871
3497.000000	99.437550
3496.000000	99.436748
3495.000000	99.435860
3494.000000	99.435259
3493.000000	99.434981
3492.000000	99.434797
3491.000000	99.434464
3490.000000	99.433803
3489.000000	99.432707
3488.000000	99.431295
3487.000000	99.429997
3486.000000	99.429188
3485.000000	99.428740
3484.000000	99.428198
3483.000000	99.427436
3482.000000	99.426868
3481.000000	99.426833
3480.000000	99.426982
3479.000000	99.426584
3478.000000	99.425332
3477.000000	99.423606
3476.000000	99.421959
3475.000000	99.420536
3474.000000	99.419105
3473.000000	99.417525
3472.000000	99.416068
3471.000000	99.415197
3470.000000	99.415087
3469.000000	99.415560
3468.000000	99.416567
3467.000000	99.418435
3466.000000	99.421290
3465.000000	99.424159
3464.000000	99.425177
3463.000000	99.423117
3462.000000	99.418439
3461.000000	99.412950
3460.000000	99.408437
3459.000000	99.405673
3458.000000	99.404542
3457.000000	99.404394
3456.000000	99.404220
3455.000000	99.403042
3454.000000	99.400569
3453.000000	99.397538
3452.000000	99.395263
3451.000000	99.394682
3450.000000	99.395732
3449.000000	99.397468
3448.000000	99.398742
3447.000000	99.398995
3446.000000	99.398495
3445.000000	99.397786
3444.000000	99.396958
3443.000000	99.395539
3442.000000	99.393104
3441.000000	99.389905
3440.000000	99.386938
3439.000000	99.385403
3438.000000	99.385959
3437.000000	99.388267
3436.000000	99.391105
3435.000000	99.393120
3434.000000	99.393673
3433.000000	99.393076
3432.000000	99.392186
3431.000000	99.391773
3430.000000	99.392043
3429.000000	99.392577
3428.000000	99.392771
3427.000000	99.392477
3426.000000	99.392122
3425.000000	99.392058
3424.000000	99.391937
3423.000000	99.390972
3422.000000	99.388657
3421.000000	99.384974
3420.000000	99.380210
3419.000000	99.375029
3418.000000	99.370698
3417.000000	99.368588
3416.000000	99.369038
3415.000000	99.371002
3414.000000	99.373012
3413.000000	99.374266
3412.000000	99.374677
3411.000000	99.374447
3410.000000	99.374064
3409.000000	99.374246
3408.000000	99.375242
3407.000000	99.376274
3406.000000	99.376273
3405.000000	99.375224
3404.000000	99.374288
3403.000000	99.374460
3402.000000	99.375400
3401.000000	99.375782
3400.000000	99.374640
3399.000000	99.372163
3398.000000	99.369315
3397.000000	99.366857
3396.000000	99.364906
3395.000000	99.363388
3394.000000	99.362670
3393.000000	99.363427
3392.000000	99.365855
3391.000000	99.369287
3390.000000	99.372720
3389.000000	99.375544
3388.000000	99.377648
3387.000000	99.379166
3386.000000	99.380368
3385.000000	99.381572
3384.000000	99.382817
3383.000000	99.383645
3382.000000	99.383496
3381.000000	99.382423
3380.000000	99.381340
3379.000000	99.381430
3378.000000	99.383162
3377.000000	99.385823
3376.000000	99.388004
3375.000000	99.388758
3374.000000	99.388298
3373.000000	99.387554
3372.000000	99.387161
3371.000000	99.387117
3370.000000	99.387401
3369.000000	99.388445
3368.000000	99.390714
3367.000000	99.394063
3366.000000	99.397712
3365.000000	99.400738
3364.000000	99.402458
3363.000000	99.402596
3362.000000	99.401559
3361.000000	99.400480
3360.000000	99.400423
3359.000000	99.401456
3358.000000	99.402798
3357.000000	99.403842
3356.000000	99.404748
3355.000000	99.405921
3354.000000	99.407353
3353.000000	99.408754
3352.000000	99.410026
3351.000000	99.411298
3350.000000	99.412676
3349.000000	99.414264
3348.000000	99.416359
3347.000000	99.419268
3346.000000	99.422808
3345.000000	99.426131
3344.000000	99.428203
3343.000000	99.428479
3342.000000	99.427198
3341.000000	99.425193
3340.000000	99.423359
3339.000000	99.422212
3338.000000	99.421983
3337.000000	99.422920
3336.000000	99.425156
3335.000000	99.428188
3334.000000	99.430865
3333.000000	99.432255
3332.000000	99.432375
3331.000000	99.431913
3330.000000	99.431444
3329.000000	99.431193
3328.000000	99.431419
3327.000000	99.432464
3326.000000	99.434274
3325.000000	99.436209
3324.000000	99.437572
3323.000000	99.438194
3322.000000	99.438350
3321.000000	99.438293
3320.000000	99.437983
3319.000000	99.437190
3318.000000	99.435848
3317.000000	99.434391
3316.000000	99.433597
3315.000000	99.433969
3314.000000	99.435324
3313.000000	99.437093
3312.000000	99.438939
3311.000000	99.440815
3310.000000	99.442539
3309.000000	99.443802
3308.000000	99.444645
3307.000000	99.445503
3306.000000	99.446553
3305.000000	99.447380
3304.000000	99.447574
3303.000000	99.447373
3302.000000	99.447375
3301.000000	99.447814
3300.000000	99.448409
3299.000000	99.448831
3298.000000	99.449044
3297.000000	99.449192
3296.000000	99.449398
3295.000000	99.449762
3294.000000	99.450430
3293.000000	99.451454
3292.000000	99.452636
3291.000000	99.453698
3290.000000	99.454610
3289.000000	99.455605
3288.000000	99.456768
3287.000000	99.457762
3286.000000	99.458125
3285.000000	99.457782
3284.000000	99.457223
3283.000000	99.457153
3282.000000	99.457952
3281.000000	99.459442
3280.000000	99.460985
3279.000000	99.461919
3278.000000	99.462040
3277.000000	99.461808
3276.000000	99.462090
3275.000000	99.463476
3274.000000	99.465796
3273.000000	99.468204
3272.000000	99.469881
3271.000000	99.470622
3270.000000	99.470763
3269.000000	99.470649
3268.000000	99.470343
3267.000000	99.469982
3266.000000	99.470193
3265.000000	99.471764
3264.000000	99.474782
3263.000000	99.478229
3262.000000	99.480683
3261.000000	99.481333
3260.000000	99.480199
3259.000000	99.477673
3258.000000	99.474247
3257.000000	99.470722
3256.000000	99.468224
3255.000000	99.467650
3254.000000	99.469072
3253.000000	99.471694
3252.000000	99.474350
3251.000000	99.476249
3250.000000	99.477472
3249.000000	99.478811
3248.000000	99.480928
3247.000000	99.483648
3246.000000	99.486299
3245.000000	99.488690
3244.000000	99.491223
3243.000000	99.493841
3242.000000	99.495570
3241.000000	99.495770
3240.000000	99.495447
3239.000000	99.496474
3238.000000	99.499350
3237.000000	99.502502
3236.000000	99.504192
3235.000000	99.504490
3234.000000	99.504722
3233.000000	99.505382
3232.000000	99.505404
3231.000000	99.503670
3230.000000	99.500588
3229.000000	99.497961
3228.000000	99.497427
3227.000000	99.499170
3226.000000	99.501909
3225.000000	99.503888
3224.000000	99.504250
3223.000000	99.503633
3222.000000	99.503498
3221.000000	99.504773
3220.000000	99.507189
3219.000000	99.509816
3218.000000	99.511994
3217.000000	99.513683
3216.000000	99.515166
3215.000000	99.516731
3214.000000	99.518543
3213.000000	99.520494
3212.000000	99.522112
3211.000000	99.522842
3210.000000	99.522551
3209.000000	99.521783
3208.000000	99.521485
3207.000000	99.522322
3206.000000	99.524246
3205.000000	99.526582
3204.000000	99.528552
3203.000000	99.529890
3202.000000	99.530944
3201.000000	99.532193
3200.000000	99.533744
3199.000000	99.535425
3198.000000	99.537231
3197.000000	99.539393
3196.000000	99.541903
3195.000000	99.544246
3194.000000	99.545870
3193.000000	99.546739
3192.000000	99.547294
3191.000000	99.547958
3190.000000	99.548840
3189.000000	99.549862
3188.000000	99.550915
3187.000000	99.551885
3186.000000	99.552797
3185.000000	99.553962
3184.000000	99.555694
3183.000000	99.557790
3182.000000	99.559566
3181.000000	99.560542
3180.000000	99.560936
3179.000000	99.561307
3178.000000	99.561963
3177.000000	99.562905
3176.000000	99.564178
3175.000000	99.565948
3174.000000	99.568252
3173.000000	99.570910
3172.000000	99.573660
3171.000000	99.576193
3170.000000	99.578144
3169.000000	99.579300
3168.000000	99.579937
3167.000000	99.580696
3166.000000	99.581894
3165.000000	99.583145
3164.000000	99.583946
3163.000000	99.584468
3162.000000	99.585389
3161.000000	99.586918
3160.000000	99.588325
3159.000000	99.588762
3158.000000	99.588257
3157.000000	99.587664
3156.000000	99.587692
3155.000000	99.588258
3154.000000	99.588958
3153.000000	99.589776
3152.000000	99.591029
3151.000000	99.592726
3150.000000	99.594371
3149.000000	99.595535
3148.000000	99.596345
3147.000000	99.597237
3146.000000	99.598387
3145.000000	99.599581
3144.000000	99.600614
3143.000000	99.601600
3142.000000	99.602765
3141.000000	99.604069
3140.000000	99.605202
3139.000000	99.605980
3138.000000	99.606544
3137.000000	99.607199
3136.000000	99.608092
3135.000000	99.609130
3134.000000	99.610166
3133.000000	99.611138
3132.000000	99.612082
3131.000000	99.613030
3130.000000	99.613980
3129.000000	99.614921
3128.000000	99.615861
3127.000000	99.616809
3126.000000	99.617770
3125.000000	99.618745
3124.000000	99.619735
3123.000000	99.620739
3122.000000	99.621757
3121.000000	99.622790
3120.000000	99.623835
3119.000000	99.624891
3118.000000	99.625959
3117.000000	99.627035
3116.000000	99.628119
3115.000000	99.629209
3114.000000	99.630303
3113.000000	99.631398
3112.000000	99.632490
3111.000000	99.633575
3110.000000	99.634655
3109.000000	99.635735
3108.000000	99.636822
3107.000000	99.637920
3106.000000	99.639026
3105.000000	99.640134
3104.000000	99.641238
3103.000000	99.642337
3102.000000	99.643431
3101.000000	99.644522
3100.000000	99.645605
3099.000000	99.646675
3098.000000	99.647730
3097.000000	99.648773
3096.000000	99.649807
3095.000000	99.650832
3094.000000	99.651845
3093.000000	99.652843
3092.000000	99.653826
3091.000000	99.654798
3090.000000	99.655760
3089.000000	99.656713
3088.000000	99.657656
3087.000000	99.658592
3086.000000	99.659521
3085.000000	99.660446
3084.000000	99.661367
3083.000000	99.662298
3082.000000	99.663245
3081.000000	99.664188
3080.000000	99.665104
3079.000000	99.665998
3078.000000	99.666883
3077.000000	99.667736
3076.000000	99.668547
3075.000000	99.669388
3074.000000	99.670362
3073.000000	99.671485
3072.000000	99.672611
3071.000000	99.673554
3070.000000	99.674240
3069.000000	99.674766
3068.000000	99.675341
3067.000000	99.676146
3066.000000	99.677249
3065.000000	99.678555
3064.000000	99.679855
3063.000000	99.680965
3062.000000	99.681834
3061.000000	99.682556
3060.000000	99.683281
3059.000000	99.684025
3058.000000	99.684599
3057.000000	99.684822
3056.000000	99.684879
3055.000000	99.685304
3054.000000	99.686432
3053.000000	99.688026
3052.000000	99.689509
3051.000000	99.690524
3050.000000	99.691105
3049.000000	99.691534
3048.000000	99.692281
3047.000000	99.693915
3046.000000	99.696620
3045.000000	99.699770
3044.000000	99.702341
3043.000000	99.703969
3042.000000	99.705233
3041.000000	99.706744
3040.000000	99.708301
3039.000000	99.709361
3038.000000	99.710079
3037.000000	99.711306
3036.000000	99.713517
3035.000000	99.716230
3034.000000	99.718668
3033.000000	99.720655
3032.000000	99.722527
3031.000000	99.724404
3030.000000	99.726062
3029.000000	99.727581
3028.000000	99.729685
3027.000000	99.733089
3026.000000	99.737509
3025.000000	99.741503
3024.000000	99.743569
3023.000000	99.743389
3022.000000	99.742008
3021.000000	99.740929
3020.000000	99.740991
3019.000000	99.742154
3018.000000	99.744141
3017.000000	99.746967
3016.000000	99.750758
3015.000000	99.755203
3014.000000	99.759434
3013.000000	99.762622
3012.000000	99.764768
3011.000000	99.766869
3010.000000	99.770135
3009.000000	99.774944
3008.000000	99.780564
3007.000000	99.785768
3006.000000	99.789581
3005.000000	99.791618
3004.000000	99.792320
3003.000000	99.793078
3002.000000	99.795419
3001.000000	99.799459
3000.000000	99.803496
2999.000000	99.805849
2998.000000	99.806906
2997.000000	99.808595
2996.000000	99.812018
2995.000000	99.816490
2994.000000	99.820940
2993.000000	99.825280
2992.000000	99.830101
2991.000000	99.835829
2990.000000	99.842597
2989.000000	99.850174
2988.000000	99.857398
2987.000000	99.862282
2986.000000	99.863577
2985.000000	99.862244
2984.000000	99.861030
2983.000000	99.862491
2982.000000	99.867335
2981.000000	99.874223
2980.000000	99.880962
2979.000000	99.886293
2978.000000	99.890686
2977.000000	99.895148
2976.000000	99.899496
2975.000000	99.902585
2974.000000	99.904178
2973.000000	99.905291
2972.000000	99.906255
2971.000000	99.905710
2970.000000	99.902571
2969.000000	99.897995
2968.000000	99.894099
2967.000000	99.891216
2966.000000	99.887787
2965.000000	99.882758
2964.000000	99.876849
2963.000000	99.871475
2962.000000	99.867604
2961.000000	99.865961
2960.000000	99.867279
2959.000000	99.871733
2958.000000	99.878450
2957.000000	99.885673
2956.000000	99.891088
2955.000000	99.892490
2954.000000	99.889426
2953.000000	99.884528
2952.000000	99.882161
2951.000000	99.884938
2950.000000	99.891728
2949.000000	99.898983
2948.000000	99.903535
2947.000000	99.904221
2946.000000	99.901892
2945.000000	99.898756
2944.000000	99.897365
2943.000000	99.899349
2942.000000	99.904638
2941.000000	99.911762
2940.000000	99.918883
2939.000000	99.925020
2938.000000	99.930850
2937.000000	99.938192
2936.000000	99.948111
2935.000000	99.959512
2934.000000	99.970123
2933.000000	99.978628
2932.000000	99.985091
2931.000000	99.989512
2930.000000	99.991270
2929.000000	99.990520
2928.000000	99.989089
2927.000000	99.989076
2926.000000	99.991039
2925.000000	99.994150
2924.000000	99.997469
2923.000000	100.000231
2922.000000	100.001389
2921.000000	99.999994
2920.000000	99.996138
2919.000000	99.990789
2918.000000	99.984471
2917.000000	99.976589
2916.000000	99.966493
2915.000000	99.955098
2914.000000	99.945126
2913.000000	99.939412
2912.000000	99.938703
2911.000000	99.941198
2910.000000	99.944421
2909.000000	99.947494
2908.000000	99.951169
2907.000000	99.955688
2906.000000	99.959397
2905.000000	99.960045
2904.000000	99.957116
2903.000000	99.952100
2902.000000	99.946469
2901.000000	99.940021
2900.000000	99.931714
2899.000000	99.922001
2898.000000	99.913662
2897.000000	99.909864
2896.000000	99.911452
2895.000000	99.916228
2894.000000	99.920805
2893.000000	99.923181
2892.000000	99.923407
2891.000000	99.922206
2890.000000	99.919751
2889.000000	99.916175
2888.000000	99.912746
2887.000000	99.911577
2886.000000	99.913717
2885.000000	99.917782
2884.000000	99.920966
2883.000000	99.921635
2882.000000	99.920586
2881.000000	99.919669
2880.000000	99.919657
2879.000000	99.919820
2878.000000	99.919238
2877.000000	99.917832
2876.000000	99.916024
2875.000000	99.914076
2874.000000	99.912157
2873.000000	99.910676
2872.000000	99.910003
2871.000000	99.910023
2870.000000	99.910300
2869.000000	99.910508
2868.000000	99.910384
2867.000000	99.909560
2866.000000	99.908057
2865.000000	99.906934
2864.000000	99.907818
2863.000000	99.911477
2862.000000	99.916978
2861.000000	99.922336
2860.000000	99.926003
2859.000000	99.927779
2858.000000	99.928574
2857.000000	99.929364
2856.000000	99.930328
2855.000000	99.931067
2854.000000	99.931443
2853.000000	99.931698
2852.000000	99.931625
2851.000000	99.930346
2850.000000	99.927440
2849.000000	99.923713
2848.000000	99.920135
2847.000000	99.916363
2846.000000	99.911126
2845.000000	99.904061
2844.000000	99.896480
2843.000000	99.890110
2842.000000	99.885418
2841.000000	99.881554
2840.000000	99.877730
2839.000000	99.874343
2838.000000	99.872569
2837.000000	99.872813
2836.000000	99.873926
2835.000000	99.874349
2834.000000	99.873822
2833.000000	99.873279
2832.000000	99.873118
2831.000000	99.872603
2830.000000	99.871398
2829.000000	99.870688
2828.000000	99.871818
2827.000000	99.874364
2826.000000	99.876467
2825.000000	99.876863
2824.000000	99.875785
2823.000000	99.874096
2822.000000	99.872450
2821.000000	99.871362
2820.000000	99.871246
2819.000000	99.871899
2818.000000	99.872362
2817.000000	99.871649
2816.000000	99.869611
2815.000000	99.867137
2814.000000	99.865671
2813.000000	99.866343
2812.000000	99.869191
2811.000000	99.873035
2810.000000	99.876261
2809.000000	99.877975
2808.000000	99.878362
2807.000000	99.878113
2806.000000	99.877678
2805.000000	99.877010
2804.000000	99.875869
2803.000000	99.874359
2802.000000	99.873127
2801.000000	99.872883
2800.000000	99.873673
2799.000000	99.874800
2798.000000	99.875558
2797.000000	99.875910
2796.000000	99.876303
2795.000000	99.877000
2794.000000	99.877787
2793.000000	99.878252
2792.000000	99.878207
2791.000000	99.877868
2790.000000	99.877733
2789.000000	99.878196
2788.000000	99.879235
2787.000000	99.880426
2786.000000	99.881325
2785.000000	99.881859
2784.000000	99.882251
2783.000000	99.882693
2782.000000	99.883185
2781.000000	99.883660
2780.000000	99.884133
2779.000000	99.884692
2778.000000	99.885421
2777.000000	99.886335
2776.000000	99.887347
2775.000000	99.888309
2774.000000	99.889121
2773.000000	99.889813
2772.000000	99.890487
2771.000000	99.891187
2770.000000	99.891862
2769.000000	99.892455
2768.000000	99.893002
2767.000000	99.893638
2766.000000	99.894492
2765.000000	99.895541
2764.000000	99.896582
2763.000000	99.897405
2762.000000	99.898026
2761.000000	99.898658
2760.000000	99.899381
2759.000000	99.899963
2758.000000	99.900189
2757.000000	99.900255
2756.000000	99.900640
2755.000000	99.901563
2754.000000	99.902844
2753.000000	99.904252
2752.000000	99.905782
2751.000000	99.907429
2750.000000	99.908889
2749.000000	99.909736
2748.000000	99.909839
2747.000000	99.909464
2746.000000	99.909091
2745.000000	99.909112
2744.000000	99.909615
2743.000000	99.910420
2742.000000	99.911248
2741.000000	99.911976
2740.000000	99.912628
2739.000000	99.913160
2738.000000	99.913423
2737.000000	99.913408
2736.000000	99.913416
2735.000000	99.913800
2734.000000	99.914596
2733.000000	99.915487
2732.000000	99.916142
2731.000000	99.916552
2730.000000	99.916934
2729.000000	99.917357
2728.000000	99.917620
2727.000000	99.917557
2726.000000	99.917298
2725.000000	99.917139
2724.000000	99.917208
2723.000000	99.917381
2722.000000	99.917500
2721.000000	99.917567
2720.000000	99.917679
2719.000000	99.917862
2718.000000	99.918040
2717.000000	99.918151
2716.000000	99.918216
2715.000000	99.918298
2714.000000	99.918432
2713.000000	99.918604
2712.000000	99.918776
2711.000000	99.918916
2710.000000	99.919003
2709.000000	99.919038
2708.000000	99.919037
2707.000000	99.919024
2706.000000	99.919021
2705.000000	99.919042
2704.000000	99.919099
2703.000000	99.919188
2702.000000	99.919289
2701.000000	99.919357
2700.000000	99.919352
2699.000000	99.919271
2698.000000	99.919148
2697.000000	99.919040
2696.000000	99.918963
2695.000000	99.918880
2694.000000	99.918746
2693.000000	99.918581
2692.000000	99.918457
2691.000000	99.918406
2690.000000	99.918374
2689.000000	99.918282
2688.000000	99.918113
2687.000000	99.917928
2686.000000	99.917812
2685.000000	99.917809
2684.000000	99.917889
2683.000000	99.917966
2682.000000	99.917983
2681.000000	99.917988
2680.000000	99.918070
2679.000000	99.918225
2678.000000	99.918332
2677.000000	99.918298
2676.000000	99.918139
2675.000000	99.917905
2674.000000	99.917596
2673.000000	99.917223
2672.000000	99.916868
2671.000000	99.916622
2670.000000	99.916496
2669.000000	99.916430
2668.000000	99.916384
2667.000000	99.916380
2666.000000	99.916466
2665.000000	99.916636
2664.000000	99.916768
2663.000000	99.916677
2662.000000	99.916247
2661.000000	99.915552
2660.000000	99.914836
2659.000000	99.914343
2658.000000	99.914199
2657.000000	99.914381
2656.000000	99.914694
2655.000000	99.914876
2654.000000	99.914832
2653.000000	99.914737
2652.000000	99.914797
2651.000000	99.914963
2650.000000	99.914993
2649.000000	99.914824
2648.000000	99.914710
2647.000000	99.914913
2646.000000	99.915375
2645.000000	99.915773
2644.000000	99.915888
2643.000000	99.915749
2642.000000	99.915501
2641.000000	99.915249
2640.000000	99.915068
2639.000000	99.915059
2638.000000	99.915307
2637.000000	99.915781
2636.000000	99.916310
2635.000000	99.916691
2634.000000	99.916831
2633.000000	99.916764
2632.000000	99.916543
2631.000000	99.916176
2630.000000	99.915732
2629.000000	99.915440
2628.000000	99.915513
2627.000000	99.915890
2626.000000	99.916284
2625.000000	99.916517
2624.000000	99.916579
2623.000000	99.916376
2622.000000	99.915737
2621.000000	99.914816
2620.000000	99.914242
2619.000000	99.914590
2618.000000	99.915855
2617.000000	99.917513
2616.000000	99.918975
2615.000000	99.919890
2614.000000	99.920182
2613.000000	99.919943
2612.000000	99.919217
2611.000000	99.917920
2610.000000	99.916218
2609.000000	99.914861
2608.000000	99.914627
2607.000000	99.915456
2606.000000	99.916738
2605.000000	99.918550
2604.000000	99.921690
2603.000000	99.926007
2602.000000	99.929566
2601.000000	99.930541
2600.000000	99.929242
2599.000000	99.927562
2598.000000	99.926564
2597.000000	99.925635
2596.000000	99.924162
2595.000000	99.922657
2594.000000	99.921770
2593.000000	99.921147
2592.000000	99.920010
2591.000000	99.918437
2590.000000	99.917412
2589.000000	99.917745
2588.000000	99.919376
2587.000000	99.921560
2586.000000	99.923410
2585.000000	99.924463
2584.000000	99.925018
2583.000000	99.925850
2582.000000	99.927441
2581.000000	99.929503
2580.000000	99.931356
2579.000000	99.932659
2578.000000	99.933549
2577.000000	99.934113
2576.000000	99.934014
2575.000000	99.932844
2574.000000	99.930742
2573.000000	99.928450
2572.000000	99.926691
2571.000000	99.925634
2570.000000	99.925154
2569.000000	99.925363
2568.000000	99.926486
2567.000000	99.928267
2566.000000	99.929964
2565.000000	99.931145
2564.000000	99.932117
2563.000000	99.933297
2562.000000	99.934490
2561.000000	99.935163
2560.000000	99.935172
2559.000000	99.934740
2558.000000	99.933970
2557.000000	99.932843
2556.000000	99.931648
2555.000000	99.931004
2554.000000	99.931216
2553.000000	99.931909
2552.000000	99.932391
2551.000000	99.932332
2550.000000	99.931946
2549.000000	99.931690
2548.000000	99.931875
2547.000000	99.932501
2546.000000	99.933314
2545.000000	99.933952
2544.000000	99.934193
2543.000000	99.934087
2542.000000	99.933870
2541.000000	99.933757
2540.000000	99.933786
2539.000000	99.933875
2538.000000	99.933953
2537.000000	99.934004
2536.000000	99.934037
2535.000000	99.934062
2534.000000	99.934079
2533.000000	99.934095
2532.000000	99.934115
2531.000000	99.934145
2530.000000	99.934188
2529.000000	99.934243
2528.000000	99.934306
2527.000000	99.934377
2526.000000	99.934460
2525.000000	99.934554
2524.000000	99.934655
2523.000000	99.934759
2522.000000	99.934864
2521.000000	99.934983
2520.000000	99.935143
2519.000000	99.935360
2518.000000	99.935623
2517.000000	99.935892
2516.000000	99.936134
2515.000000	99.936358
2514.000000	99.936617
2513.000000	99.936957
2512.000000	99.937350
2511.000000	99.937700
2510.000000	99.937926
2509.000000	99.938020
2508.000000	99.938062
2507.000000	99.938163
2506.000000	99.938391
2505.000000	99.938742
2504.000000	99.939145
2503.000000	99.939555
2502.000000	99.940019
2501.000000	99.940615
2500.000000	99.941315
2499.000000	99.941956
2498.000000	99.942377
2497.000000	99.942567
2496.000000	99.942675
2495.000000	99.942903
2494.000000	99.943363
2493.000000	99.944027
2492.000000	99.944734
2491.000000	99.945292
2490.000000	99.945646
2489.000000	99.945947
2488.000000	99.946417
2487.000000	99.947148
2486.000000	99.948066
2485.000000	99.949019
2484.000000	99.949843
2483.000000	99.950403
2482.000000	99.950704
2481.000000	99.950944
2480.000000	99.951303
2479.000000	99.951675
2478.000000	99.951773
2477.000000	99.951511
2476.000000	99.951180
2475.000000	99.951175
2474.000000	99.951640
2473.000000	99.952368
2472.000000	99.952934
2471.000000	99.953034
2470.000000	99.952721
2469.000000	99.952377
2468.000000	99.952367
2467.000000	99.952733
2466.000000	99.953299
2465.000000	99.953948
2464.000000	99.954669
2463.000000	99.955381
2462.000000	99.955920
2461.000000	99.956235
2460.000000	99.956451
2459.000000	99.956664
2458.000000	99.956797
2457.000000	99.956749
2456.000000	99.956592
2455.000000	99.956511
2454.000000	99.956620
2453.000000	99.956934
2452.000000	99.957417
2451.000000	99.957951
2450.000000	99.958368
2449.000000	99.958592
2448.000000	99.958664
2447.000000	99.958569
2446.000000	99.958188
2445.000000	99.957561
2444.000000	99.957065
2443.000000	99.957123
2442.000000	99.957838
2441.000000	99.959051
2440.000000	99.960539
2439.000000	99.962011
2438.000000	99.963008
2437.000000	99.963152
2436.000000	99.962590
2435.000000	99.962054
2434.000000	99.962227
2433.000000	99.963110
2432.000000	99.964068
2431.000000	99.964465
2430.000000	99.964252
2429.000000	99.964022
2428.000000	99.964469
2427.000000	99.965711
2426.000000	99.967203
2425.000000	99.968391
2424.000000	99.969341
2423.000000	99.970514
2422.000000	99.971955
2421.000000	99.972989
2420.000000	99.972841
2419.000000	99.971393
2418.000000	99.969276
2417.000000	99.967338
2416.000000	99.966072
2415.000000	99.965480
2414.000000	99.965234
2413.000000	99.964878
2412.000000	99.964157
2411.000000	99.963403
2410.000000	99.963498
2409.000000	99.965047
2408.000000	99.967484
2407.000000	99.969385
2406.000000	99.970018
2405.000000	99.970181
2404.000000	99.971187
2403.000000	99.973291
2402.000000	99.975597
2401.000000	99.977314
2400.000000	99.978534
2399.000000	99.979703
2398.000000	99.980761
2397.000000	99.981047
2396.000000	99.979964
2395.000000	99.977665
2394.000000	99.975103
2393.000000	99.973325
2392.000000	99.972610
2391.000000	99.972488
2390.000000	99.972520
2389.000000	99.972752
2388.000000	99.973298
2387.000000	99.973886
2386.000000	99.974094
2385.000000	99.973827
2384.000000	99.973308
2383.000000	99.972768
2382.000000	99.972365
2381.000000	99.972205
2380.000000	99.972243
2379.000000	99.972292
2378.000000	99.972221
2377.000000	99.972048
2376.000000	99.971831
2375.000000	99.971604
2374.000000	99.971404
2373.000000	99.971235
2372.000000	99.971058
2371.000000	99.970871
2370.000000	99.970674
2369.000000	99.970464
2368.000000	99.970241
2367.000000	99.970003
2366.000000	99.969749
2365.000000	99.969481
2364.000000	99.969208
2363.000000	99.968938
2362.000000	99.968667
2361.000000	99.968390
2360.000000	99.968104
2359.000000	99.967816
2358.000000	99.967536
2357.000000	99.967270
2356.000000	99.967020
2355.000000	99.966783
2354.000000	99.966554
2353.000000	99.966332
2352.000000	99.966120
2351.000000	99.965920
2350.000000	99.965726
2349.000000	99.965534
2348.000000	99.965337
2347.000000	99.965132
2346.000000	99.964923
2345.000000	99.964714
2344.000000	99.964515
2343.000000	99.964330
2342.000000	99.964160
2341.000000	99.963996
2340.000000	99.963825
2339.000000	99.963644
2338.000000	99.963453
2337.000000	99.963263
2336.000000	99.963083
2335.000000	99.962919
2334.000000	99.962771
2333.000000	99.962639
2332.000000	99.962521
2331.000000	99.962416
2330.000000	99.962320
2329.000000	99.962236
2328.000000	99.962165
2327.000000	99.962105
2326.000000	99.962048
2325.000000	99.961984
2324.000000	99.961910
2323.000000	99.961832
2322.000000	99.961754
2321.000000	99.961678
2320.000000	99.961604
2319.000000	99.961535
2318.000000	99.961476
2317.000000	99.961429
2316.000000	99.961391
2315.000000	99.961353
2314.000000	99.961312
2313.000000	99.961270
2312.000000	99.961232
2311.000000	99.961199
2310.000000	99.961170
2309.000000	99.961141
2308.000000	99.961104
2307.000000	99.961057
2306.000000	99.961001
2305.000000	99.960937
2304.000000	99.960883
2303.000000	99.960864
2302.000000	99.960870
2301.000000	99.960877
2300.000000	99.960894
2299.000000	99.960955
2298.000000	99.961058
2297.000000	99.961144
2296.000000	99.961151
2295.000000	99.961084
2294.000000	99.960999
2293.000000	99.960952
2292.000000	99.960953
2291.000000	99.960968
2290.000000	99.960958
2289.000000	99.960909
2288.000000	99.960827
2287.000000	99.960713
2286.000000	99.960559
2285.000000	99.960383
2284.000000	99.960226
2283.000000	99.960116
2282.000000	99.960050
2281.000000	99.960009
2280.000000	99.959972
2279.000000	99.959926
2278.000000	99.959870
2277.000000	99.959808
2276.000000	99.959742
2275.000000	99.959662
2274.000000	99.959557
2273.000000	99.959437
2272.000000	99.959327
2271.000000	99.959241
2270.000000	99.959172
2269.000000	99.959101
2268.000000	99.959016
2267.000000	99.958911
2266.000000	99.958784
2265.000000	99.958642
2264.000000	99.958509
2263.000000	99.958406
2262.000000	99.958340
2261.000000	99.958289
2260.000000	99.958231
2259.000000	99.958158
2258.000000	99.958076
2257.000000	99.957996
2256.000000	99.957920
2255.000000	99.957826
2254.000000	99.957688
2253.000000	99.957512
2252.000000	99.957348
2251.000000	99.957243
2250.000000	99.957194
2249.000000	99.957152
2248.000000	99.957089
2247.000000	99.957000
2246.000000	99.956866
2245.000000	99.956702
2244.000000	99.956607
2243.000000	99.956677
2242.000000	99.956869
2241.000000	99.957044
2240.000000	99.957169
2239.000000	99.957334
2238.000000	99.957557
2237.000000	99.957700
2236.000000	99.957627
2235.000000	99.957331
2234.000000	99.956901
2233.000000	99.956475
2232.000000	99.956252
2231.000000	99.956381
2230.000000	99.956774
2229.000000	99.957073
2228.000000	99.956906
2227.000000	99.956144
2226.000000	99.955001
2225.000000	99.954006
2224.000000	99.953699
2223.000000	99.954263
2222.000000	99.955429
2221.000000	99.956725
2220.000000	99.957819
2219.000000	99.958535
2218.000000	99.958705
2217.000000	99.958255
2216.000000	99.957417
2215.000000	99.956599
2214.000000	99.956030
2213.000000	99.955674
2212.000000	99.955434
2211.000000	99.955267
2210.000000	99.955142
2209.000000	99.955108
2208.000000	99.955366
2207.000000	99.956065
2206.000000	99.957030
2205.000000	99.957872
2204.000000	99.958374
2203.000000	99.958632
2202.000000	99.958847
2201.000000	99.959096
2200.000000	99.959265
2199.000000	99.959125
2198.000000	99.958571
2197.000000	99.957905
2196.000000	99.957694
2195.000000	99.958173
2194.000000	99.958941
2193.000000	99.959407
2192.000000	99.959418
2191.000000	99.959235
2190.000000	99.959072
2189.000000	99.959019
2188.000000	99.959256
2187.000000	99.959881
2186.000000	99.960541
2185.000000	99.960668
2184.000000	99.960144
2183.000000	99.959367
2182.000000	99.958671
2181.000000	99.958101
2180.000000	99.957711
2179.000000	99.957608
2178.000000	99.957614
2177.000000	99.957320
2176.000000	99.956684
2175.000000	99.956271
2174.000000	99.956643
2173.000000	99.957786
2172.000000	99.959225
2171.000000	99.960414
2170.000000	99.961013
2169.000000	99.960958
2168.000000	99.960459
2167.000000	99.959863
2166.000000	99.959428
2165.000000	99.959254
2164.000000	99.959420
2163.000000	99.959979
2162.000000	99.960760
2161.000000	99.961376
2160.000000	99.961573
2159.000000	99.961469
2158.000000	99.961399
2157.000000	99.961607
2156.000000	99.962105
2155.000000	99.962772
2154.000000	99.963491
2153.000000	99.964227
2152.000000	99.964993
2151.000000	99.965706
2150.000000	99.966141
2149.000000	99.966168
2148.000000	99.965965
2147.000000	99.965858
2146.000000	99.965963
2145.000000	99.966128
2144.000000	99.966218
2143.000000	99.966298
2142.000000	99.966528
2141.000000	99.966995
2140.000000	99.967681
2139.000000	99.968499
2138.000000	99.969272
2137.000000	99.969816
2136.000000	99.970097
2135.000000	99.970238
2134.000000	99.970412
2133.000000	99.970715
2132.000000	99.971153
2131.000000	99.971703
2130.000000	99.972308
2129.000000	99.972890
2128.000000	99.973389
2127.000000	99.973800
2126.000000	99.974169
2125.000000	99.974567
2124.000000	99.975043
2123.000000	99.975586
2122.000000	99.976146
2121.000000	99.976685
2120.000000	99.977201
2119.000000	99.977708
2118.000000	99.978212
2117.000000	99.978713
2116.000000	99.979214
2115.000000	99.979716
2114.000000	99.980217
2113.000000	99.980710
2112.000000	99.981190
2111.000000	99.981650
2110.000000	99.982088
2109.000000	99.982510
2108.000000	99.982928
2107.000000	99.983352
2106.000000	99.983790
2105.000000	99.984243
2104.000000	99.984708
2103.000000	99.985180
2102.000000	99.985657
2101.000000	99.986141
2100.000000	99.986633
2099.000000	99.987132
2098.000000	99.987632
2097.000000	99.988124
2096.000000	99.988599
2095.000000	99.989055
2094.000000	99.989499
2093.000000	99.989941
2092.000000	99.990386
2091.000000	99.990831
2090.000000	99.991264
2089.000000	99.991675
2088.000000	99.992057
2087.000000	99.992411
2086.000000	99.992744
2085.000000	99.993063
2084.000000	99.993370
2083.000000	99.993661
2082.000000	99.993932
2081.000000	99.994176
2080.000000	99.994386
2079.000000	99.994560
2078.000000	99.994713
2077.000000	99.994872
2076.000000	99.995060
2075.000000	99.995256
2074.000000	99.995413
2073.000000	99.995496
2072.000000	99.995494
2071.000000	99.995378
2070.000000	99.995117
2069.000000	99.994756
2068.000000	99.994444
2067.000000	99.994310
2066.000000	99.994364
2065.000000	99.994572
2064.000000	99.994949
2063.000000	99.995424
2062.000000	99.995694
2061.000000	99.995462
2060.000000	99.994839
2059.000000	99.994307
2058.000000	99.994135
2057.000000	99.994090
2056.000000	99.993855
2055.000000	99.993525
2054.000000	99.993410
2053.000000	99.993421
2052.000000	99.993009
2051.000000	99.991853
2050.000000	99.990357
2049.000000	99.989375
2048.000000	99.989299
2047.000000	99.989552
2046.000000	99.989126
2045.000000	99.987584
2044.000000	99.985380
2043.000000	99.983261
2042.000000	99.981677
2041.000000	99.980719
2040.000000	99.980191
2039.000000	99.979613
2038.000000	99.978526
2037.000000	99.977067
2036.000000	99.975959
2035.000000	99.975658
2034.000000	99.975790
2033.000000	99.975633
2032.000000	99.974876
2031.000000	99.973611
2030.000000	99.971964
2029.000000	99.970155
2028.000000	99.968659
2027.000000	99.967787
2026.000000	99.967338
2025.000000	99.966960
2024.000000	99.966663
2023.000000	99.966633
2022.000000	99.966734
2021.000000	99.966625
2020.000000	99.966264
2019.000000	99.965917
2018.000000	99.965776
2017.000000	99.965888
2016.000000	99.966294
2015.000000	99.966809
2014.000000	99.966775
2013.000000	99.965518
2012.000000	99.963114
2011.000000	99.960417
2010.000000	99.958220
2009.000000	99.956621
2008.000000	99.955307
2007.000000	99.954063
2006.000000	99.952876
2005.000000	99.951744
2004.000000	99.950676
2003.000000	99.949819
2002.000000	99.949413
2001.000000	99.949551
2000.000000	99.949947
1999.000000	99.950008
1998.000000	99.949348
1997.000000	99.948267
1996.000000	99.947566
1995.000000	99.947774
1994.000000	99.948685
1993.000000	99.949627
1992.000000	99.950045
1991.000000	99.949690
1990.000000	99.948436
1989.000000	99.946317
1988.000000	99.943808
1987.000000	99.941747
1986.000000	99.940687
1985.000000	99.940519
1984.000000	99.940749
1983.000000	99.940972
1982.000000	99.941039
1981.000000	99.940879
1980.000000	99.940425
1979.000000	99.939753
1978.000000	99.939107
1977.000000	99.938681
1976.000000	99.938429
1975.000000	99.938167
1974.000000	99.937838
1973.000000	99.937577
1972.000000	99.937488
1971.000000	99.937452
1970.000000	99.937229
1969.000000	99.936718
1968.000000	99.936036
1967.000000	99.935353
1966.000000	99.934748
1965.000000	99.934324
1964.000000	99.934286
1963.000000	99.934713
1962.000000	99.935322
1961.000000	99.935633
1960.000000	99.935471
1959.000000	99.935141
1958.000000	99.935077
1957.000000	99.935312
1956.000000	99.935421
1955.000000	99.934966
1954.000000	99.933901
1953.000000	99.932596
1952.000000	99.931550
1951.000000	99.931004
1950.000000	99.930836
1949.000000	99.930826
1948.000000	99.930946
1947.000000	99.931334
1946.000000	99.931963
1945.000000	99.932460
1944.000000	99.932368
1943.000000	99.931548
1942.000000	99.930308
1941.000000	99.929110
1940.000000	99.928222
1939.000000	99.927667
1938.000000	99.927371
1937.000000	99.927234
1936.000000	99.927101
1935.000000	99.926790
1934.000000	99.926230
1933.000000	99.925573
1932.000000	99.925131
1931.000000	99.925102
1930.000000	99.925307
1929.000000	99.925206
1928.000000	99.924212
1927.000000	99.922092
1926.000000	99.919186
1925.000000	99.916344
1924.000000	99.914499
1923.000000	99.914059
1922.000000	99.914601
1921.000000	99.915172
1920.000000	99.914887
1919.000000	99.913325
1918.000000	99.910829
1917.000000	99.908514
1916.000000	99.907222
1915.000000	99.906454
1914.000000	99.904870
1913.000000	99.901738
1912.000000	99.897758
1911.000000	99.894483
1910.000000	99.892999
1909.000000	99.893240
1908.000000	99.894129
1907.000000	99.894256
1906.000000	99.892637
1905.000000	99.889349
1904.000000	99.885528
1903.000000	99.882334
1902.000000	99.879894
1901.000000	99.877494
1900.000000	99.874579
1899.000000	99.871391
1898.000000	99.868669
1897.000000	99.866964
1896.000000	99.866103
1895.000000	99.865075
1894.000000	99.862694
1893.000000	99.858685
1892.000000	99.854038
1891.000000	99.850382
1890.000000	99.848990
1889.000000	99.849842
1888.000000	99.851494
1887.000000	99.852150
1886.000000	99.850940
1885.000000	99.848401
1884.000000	99.845922
1883.000000	99.844535
1882.000000	99.844422
1881.000000	99.845422
1880.000000	99.847320
1879.000000	99.849557
1878.000000	99.851207
1877.000000	99.851555
1876.000000	99.850524
1875.000000	99.848420
1874.000000	99.845715
1873.000000	99.843311
1872.000000	99.842406
1871.000000	99.843767
1870.000000	99.847201
1869.000000	99.851487
1868.000000	99.854844
1867.000000	99.855956
1866.000000	99.854749
1865.000000	99.852602
1864.000000	99.851550
1863.000000	99.852439
1862.000000	99.854081
1861.000000	99.854866
1860.000000	99.854828
1859.000000	99.855176
1858.000000	99.856225
1857.000000	99.857042
1856.000000	99.857194
1855.000000	99.857779
1854.000000	99.860301
1853.000000	99.865113
1852.000000	99.870983
1851.000000	99.876200
1850.000000	99.879995
1849.000000	99.882942
1848.000000	99.886083
1847.000000	99.889595
1846.000000	99.892481
1845.000000	99.893529
1844.000000	99.892617
1843.000000	99.891157
1842.000000	99.890668
1841.000000	99.891682
1840.000000	99.894170
1839.000000	99.897419
1838.000000	99.899622
1837.000000	99.899255
1836.000000	99.896885
1835.000000	99.894570
1834.000000	99.893508
1833.000000	99.893177
1832.000000	99.892763
1831.000000	99.892570
1830.000000	99.893393
1829.000000	99.894997
1828.000000	99.896510
1827.000000	99.897398
1826.000000	99.897357
1825.000000	99.896100
1824.000000	99.893966
1823.000000	99.892266
1822.000000	99.892199
1821.000000	99.893790
1820.000000	99.895896
1819.000000	99.897162
1818.000000	99.897110
1817.000000	99.896385
1816.000000	99.895955
1815.000000	99.896042
1814.000000	99.896044
1813.000000	99.895376
1812.000000	99.894203
1811.000000	99.893239
1810.000000	99.892887
1809.000000	99.893033
1808.000000	99.893424
1807.000000	99.893825
1806.000000	99.894009
1805.000000	99.893878
1804.000000	99.893575
1803.000000	99.893397
1802.000000	99.893659
1801.000000	99.894455
1800.000000	99.895449
1799.000000	99.896089
1798.000000	99.896177
1797.000000	99.896121
1796.000000	99.896506
1795.000000	99.897488
1794.000000	99.898729
1793.000000	99.899752
1792.000000	99.900409
1791.000000	99.900918
1790.000000	99.901465
1789.000000	99.902087
1788.000000	99.902882
1787.000000	99.903999
1786.000000	99.905388
1785.000000	99.906724
1784.000000	99.907718
1783.000000	99.908419
1782.000000	99.909161
1781.000000	99.910246
1780.000000	99.911665
1779.000000	99.913116
1778.000000	99.914289
1777.000000	99.915088
1776.000000	99.915578
1775.000000	99.915890
1774.000000	99.916329
1773.000000	99.917530
1772.000000	99.919986
1771.000000	99.923309
1770.000000	99.926356
1769.000000	99.928218
1768.000000	99.928879
1767.000000	99.929211
1766.000000	99.930180
1765.000000	99.932073
1764.000000	99.934716
1763.000000	99.937700
1762.000000	99.940247
1761.000000	99.941624
1760.000000	99.942014
1759.000000	99.942145
1758.000000	99.942392
1757.000000	99.942784
1756.000000	99.943554
1755.000000	99.945257
1754.000000	99.947998
1753.000000	99.951147
1752.000000	99.953888
1751.000000	99.956173
1750.000000	99.958907
1749.000000	99.962570
1748.000000	99.966184
1747.000000	99.968286
1746.000000	99.968499
1745.000000	99.967691
1744.000000	99.967245
1743.000000	99.967953
1742.000000	99.969256
1741.000000	99.969970
1740.000000	99.969851
1739.000000	99.969844
1738.000000	99.970727
1737.000000	99.972144
1736.000000	99.973784
1735.000000	99.975643
1734.000000	99.976091
1733.000000	99.973899
1732.000000	99.971036
1731.000000	99.968725
1730.000000	99.966482
1729.000000	99.963811
1728.000000	99.960845
1727.000000	99.958311
1726.000000	99.956980
1725.000000	99.957140
1724.000000	99.958704
1723.000000	99.961259
1722.000000	99.963905
1721.000000	99.965752
1720.000000	99.966810
1719.000000	99.968038
1718.000000	99.969179
1717.000000	99.967533
1716.000000	99.962226
1715.000000	99.955357
1714.000000	99.949181
1713.000000	99.945269
1712.000000	99.943997
1711.000000	99.943939
1710.000000	99.942845
1709.000000	99.939764
1708.000000	99.935969
1707.000000	99.933470
1706.000000	99.932432
1705.000000	99.930806
1704.000000	99.927258
1703.000000	99.922411
1702.000000	99.917613
1701.000000	99.914181
1700.000000	99.912274
1699.000000	99.910853
1698.000000	99.908665
1697.000000	99.905051
1696.000000	99.900878
1695.000000	99.897620
1694.000000	99.895542
1693.000000	99.893414
1692.000000	99.890583
1691.000000	99.887772
1690.000000	99.885632
1689.000000	99.883635
1688.000000	99.880766
1687.000000	99.876791
1686.000000	99.872198
1685.000000	99.867544
1684.000000	99.863217
1683.000000	99.860098
1682.000000	99.858603
1681.000000	99.857604
1680.000000	99.856236
1679.000000	99.854515
1678.000000	99.852617
1677.000000	99.850619
1676.000000	99.848793
1675.000000	99.847372
1674.000000	99.845957
1673.000000	99.843543
1672.000000	99.839504
1671.000000	99.834555
1670.000000	99.830312
1669.000000	99.827159
1668.000000	99.824089
1667.000000	99.820646
1666.000000	99.817001
1665.000000	99.813084
1664.000000	99.808903
1663.000000	99.805195
1662.000000	99.803057
1661.000000	99.802603
1660.000000	99.802636
1659.000000	99.802160
1658.000000	99.801136
1657.000000	99.799651
1656.000000	99.797316
1655.000000	99.794326
1654.000000	99.791978
1653.000000	99.788714
1652.000000	99.784368
1651.000000	99.782765
1650.000000	99.782124
1649.000000	99.779675
1648.000000	99.776804
1647.000000	99.776724
1646.000000	99.779434
1645.000000	99.782023
1644.000000	99.782938
1643.000000	99.782305
1642.000000	99.780747
1641.000000	99.778411
1640.000000	99.774872
1639.000000	99.770410
1638.000000	99.766696
1637.000000	99.765904
1636.000000	99.767321
1635.000000	99.766799
1634.000000	99.764204
1633.000000	99.762378
1632.000000	99.761920
1631.000000	99.762211
1630.000000	99.763021
1629.000000	99.764652
1628.000000	99.767279
1627.000000	99.770344
1626.000000	99.773072
1625.000000	99.774781
1624.000000	99.774552
1623.000000	99.771629
1622.000000	99.767402
1621.000000	99.764803
1620.000000	99.764856
1619.000000	99.766685
1618.000000	99.769175
1617.000000	99.771408
1616.000000	99.773100
1615.000000	99.775241
1614.000000	99.778286
1613.000000	99.781953
1612.000000	99.786504
1611.000000	99.791905
1610.000000	99.797043
1609.000000	99.800808
1608.000000	99.803227
1607.000000	99.804864
1606.000000	99.806067
1605.000000	99.807211
1604.000000	99.809162
1603.000000	99.812908
1602.000000	99.818445
1601.000000	99.824556
1600.000000	99.829844
1599.000000	99.833549
1598.000000	99.835446
1597.000000	99.835704
1596.000000	99.835234
1595.000000	99.835667
1594.000000	99.838298
1593.000000	99.843012
1592.000000	99.848472
1591.000000	99.853263
1590.000000	99.856921
1589.000000	99.860049
1588.000000	99.863440
1587.000000	99.867064
1586.000000	99.870054
1585.000000	99.871887
1584.000000	99.873108
1583.000000	99.874843
1582.000000	99.877678
1581.000000	99.881048
1580.000000	99.883924
1579.000000	99.885988
1578.000000	99.887943
1577.000000	99.890610
1576.000000	99.893455
1575.000000	99.895393
1574.000000	99.896740
1573.000000	99.898349
1572.000000	99.900721
1571.000000	99.903972
1570.000000	99.907299
1569.000000	99.909557
1568.000000	99.910991
1567.000000	99.912823
1566.000000	99.915464
1565.000000	99.918209
1564.000000	99.920030
1563.000000	99.920712
1562.000000	99.920788
1561.000000	99.920984
1560.000000	99.921667
1559.000000	99.922701
1558.000000	99.923542
1557.000000	99.925416
1556.000000	99.928103
1555.000000	99.930294
1554.000000	99.931691
1553.000000	99.932688
1552.000000	99.933669
1551.000000	99.934477
1550.000000	99.934795
1549.000000	99.934690
1548.000000	99.934818
1547.000000	99.935936
1546.000000	99.938305
1545.000000	99.941196
1544.000000	99.942940
1543.000000	99.942398
1542.000000	99.940058
1541.000000	99.937938
1540.000000	99.937367
1539.000000	99.937277
1538.000000	99.936993
1537.000000	99.936736
1536.000000	99.936473
1535.000000	99.936245
1534.000000	99.936088
1533.000000	99.935731
1532.000000	99.935206
1531.000000	99.934934
1530.000000	99.935021
1529.000000	99.935313
1528.000000	99.935661
1527.000000	99.935857
1526.000000	99.935585
1525.000000	99.934826
1524.000000	99.934116
1523.000000	99.934163
1522.000000	99.934879
1521.000000	99.934958
1520.000000	99.933922
1519.000000	99.932741
1518.000000	99.931987
1517.000000	99.931358
1516.000000	99.930410
1515.000000	99.929320
1514.000000	99.928558
1513.000000	99.928143
1512.000000	99.927841
1511.000000	99.927514
1510.000000	99.927121
1509.000000	99.926688
1508.000000	99.926579
1507.000000	99.927138
1506.000000	99.927444
1505.000000	99.927273
1504.000000	99.927209
1503.000000	99.927297
1502.000000	99.927558
1501.000000	99.928088
1500.000000	99.928728
1499.000000	99.929117
1498.000000	99.929100
1497.000000	99.928824
1496.000000	99.928672
1495.000000	99.929081
1494.000000	99.930116
1493.000000	99.931323
1492.000000	99.932001
1491.000000	99.931558
1490.000000	99.930092
1489.000000	99.928648
1488.000000	99.928282
1487.000000	99.929113
1486.000000	99.930488
1485.000000	99.931759
1484.000000	99.932668
1483.000000	99.933390
1482.000000	99.934374
1481.000000	99.935900
1480.000000	99.937639
1479.000000	99.938802
1478.000000	99.938751
1477.000000	99.937520
1476.000000	99.936054
1475.000000	99.935533
1474.000000	99.936541
1473.000000	99.938457
1472.000000	99.939520
1471.000000	99.939032
1470.000000	99.938284
1469.000000	99.938851
1468.000000	99.941414
1467.000000	99.945214
1466.000000	99.948177
1465.000000	99.948647
1464.000000	99.947381
1463.000000	99.946664
1462.000000	99.947094
1461.000000	99.947403
1460.000000	99.946348
1459.000000	99.943812
1458.000000	99.940780
1457.000000	99.938667
1456.000000	99.938962
1455.000000	99.941798
1454.000000	99.944574
1453.000000	99.944615
1452.000000	99.941841
1451.000000	99.938566
1450.000000	99.937030
1449.000000	99.937135
1448.000000	99.937184
1447.000000	99.935920
1446.000000	99.933445
1445.000000	99.930137
1444.000000	99.925922
1443.000000	99.920899
1442.000000	99.915751
1441.000000	99.911546
1440.000000	99.909211
1439.000000	99.908984
1438.000000	99.909614
1437.000000	99.908350
1436.000000	99.904481
1435.000000	99.901614
1434.000000	99.902301
1433.000000	99.904889
1432.000000	99.906094
1431.000000	99.904116
1430.000000	99.900642
1429.000000	99.899211
1428.000000	99.901466
1427.000000	99.905967
1426.000000	99.910400
1425.000000	99.913605
1424.000000	99.915369
1423.000000	99.915706
1422.000000	99.914836
1421.000000	99.913634
1420.000000	99.913563
1419.000000	99.915469
1418.000000	99.918111
1417.000000	99.919582
1416.000000	99.919635
1415.000000	99.919539
1414.000000	99.920609
1413.000000	99.923019
1412.000000	99.925868
1411.000000	99.928117
1410.000000	99.929363
1409.000000	99.929959
1408.000000	99.930665
1407.000000	99.931882
1406.000000	99.933419
1405.000000	99.935044
1404.000000	99.936735
1403.000000	99.938478
1402.000000	99.940179
1401.000000	99.942227
1400.000000	99.945824
1399.000000	99.951814
1398.000000	99.959301
1397.000000	99.966557
1396.000000	99.972581
1395.000000	99.976842
1394.000000	99.979048
1393.000000	99.979925
1392.000000	99.980915
1391.000000	99.982894
1390.000000	99.985808
1389.000000	99.989275
1388.000000	99.993168
1387.000000	99.997094
1386.000000	99.999729
1385.000000	99.999854
1384.000000	99.997701
1383.000000	99.995006
1382.000000	99.993755
1381.000000	99.994571
1380.000000	99.996285
1379.000000	99.997077
1378.000000	99.996130
1377.000000	99.994369
1376.000000	99.993501
1375.000000	99.994202
1374.000000	99.995370
1373.000000	99.995742
1372.000000	99.995746
1371.000000	99.996407
1370.000000	99.997233
1369.000000	99.996415
1368.000000	99.993189
1367.000000	99.989320
1366.000000	99.987514
1365.000000	99.988928
1364.000000	99.992539
1363.000000	99.995809
1362.000000	99.996378
1361.000000	99.994086
1360.000000	99.990994
1359.000000	99.989418
1358.000000	99.990201
1357.000000	99.992545
1356.000000	99.994951
1355.000000	99.996391
1354.000000	99.996715
1353.000000	99.996311
1352.000000	99.995688
1351.000000	99.995175
1350.000000	99.994765
1349.000000	99.994320
1348.000000	99.993955
1347.000000	99.994013
1346.000000	99.994567
1345.000000	99.995262
1344.000000	99.995835
1343.000000	99.996444
1342.000000	99.997168
1341.000000	99.997464
1340.000000	99.996729
1339.000000	99.995459
1338.000000	99.995035
1337.000000	99.995946
1336.000000	99.997013
1335.000000	99.996702
1334.000000	99.994695
1333.000000	99.992071
1332.000000	99.990198
1331.000000	99.989719
1330.000000	99.990549
1329.000000	99.992427
1328.000000	99.995041
1327.000000	99.997659
1326.000000	99.999190
1325.000000	99.999010
1324.000000	99.997540
1323.000000	99.995683
1322.000000	99.993925
1321.000000	99.992388
1320.000000	99.991585
1319.000000	99.992288
1318.000000	99.994279
1317.000000	99.996063
1316.000000	99.996416
1315.000000	99.995733
1314.000000	99.995468
1313.000000	99.996454
1312.000000	99.998136
1311.000000	99.999257
1310.000000	99.998959
1309.000000	99.997331
1308.000000	99.995298
1307.000000	99.993938
1306.000000	99.993753
1305.000000	99.994633
1304.000000	99.996243
1303.000000	99.997985
1302.000000	99.998771
1301.000000	99.997616
1300.000000	99.994803
1299.000000	99.992041
1298.000000	99.990963
1297.000000	99.991665
1296.000000	99.992979
1295.000000	99.993843
1294.000000	99.994150
1293.000000	99.994616
1292.000000	99.996037
1291.000000	99.998276
1290.000000	99.999757
1289.000000	99.998522
1288.000000	99.994194
1287.000000	99.988503
1286.000000	99.983508
1285.000000	99.979937
1284.000000	99.977694
1283.000000	99.977001
1282.000000	99.977977
1281.000000	99.979488
1280.000000	99.979530
1279.000000	99.977112
1278.000000	99.973468
1277.000000	99.971231
1276.000000	99.972336
1275.000000	99.976315
1274.000000	99.980462
1273.000000	99.982078
1272.000000	99.980657
1271.000000	99.977513
1270.000000	99.973622
1269.000000	99.969066
1268.000000	99.964771
1267.000000	99.963166
1266.000000	99.965998
1265.000000	99.972269
1264.000000	99.979203
1263.000000	99.984562
1262.000000	99.987515
1261.000000	99.988179
1260.000000	99.987015
1259.000000	99.983881
1258.000000	99.977321
1257.000000	99.966082
1256.000000	99.952178
1255.000000	99.941024
1254.000000	99.936764
1253.000000	99.938100
1252.000000	99.940049
1251.000000	99.938903
1250.000000	99.933976
1249.000000	99.925659
1248.000000	99.914516
1247.000000	99.902762
1246.000000	99.894195
1245.000000	99.890877
1244.000000	99.890666
1243.000000	99.889250
1242.000000	99.884304
1241.000000	99.876685
1240.000000	99.867816
1239.000000	99.857325
1238.000000	99.844047
1237.000000	99.828521
1236.000000	99.813180
1235.000000	99.799959
1234.000000	99.788670
1233.000000	99.777936
1232.000000	99.766407
1231.000000	99.752410
1230.000000	99.734145
1229.000000	99.711923
1228.000000	99.689032
1227.000000	99.668143
1226.000000	99.647335
1225.000000	99.622118
1224.000000	99.591342
1223.000000	99.558519
1222.000000	99.526619
1221.000000	99.493932
1220.000000	99.456396
1219.000000	99.412127
1218.000000	99.362397
1217.000000	99.309849
1216.000000	99.257348
1215.000000	99.207363
1214.000000	99.160568
1213.000000	99.115161
1212.000000	99.068303
1211.000000	99.018108
1210.000000	98.964473
1209.000000	98.908688
1208.000000	98.851977
1207.000000	98.793675
1206.000000	98.732092
1205.000000	98.668766
1204.000000	98.609616
1203.000000	98.558592
1202.000000	98.511886
1201.000000	98.462717
1200.000000	98.410672
1199.000000	98.361185
1198.000000	98.316121
1197.000000	98.270874
1196.000000	98.221882
1195.000000	98.171111
1194.000000	98.120918
1193.000000	98.069716
1192.000000	98.015977
1191.000000	97.962356
1190.000000	97.912130
1189.000000	97.864347
1188.000000	97.815425
1187.000000	97.763028
1186.000000	97.705890
1185.000000	97.642585
1184.000000	97.573581
1183.000000	97.502740
1182.000000	97.434246
1181.000000	97.369142
1180.000000	97.306065
1179.000000	97.243261
1178.000000	97.178610
1177.000000	97.110083
1176.000000	97.037638
1175.000000	96.962954
1174.000000	96.887065
1173.000000	96.810835
1172.000000	96.737247
1171.000000	96.668619
1170.000000	96.600908
1169.000000	96.526123
1168.000000	96.442772
1167.000000	96.359881
1166.000000	96.288818
1165.000000	96.235630
1164.000000	96.203073
1163.000000	96.194172
1162.000000	96.209325
1161.000000	96.242594
1160.000000	96.283198
1159.000000	96.318562
1158.000000	96.336242
1157.000000	96.328144
1156.000000	96.295819
1155.000000	96.249465
1154.000000	96.199528
1153.000000	96.149972
1152.000000	96.099386
1151.000000	96.045237
1150.000000	95.986618
1149.000000	95.926323
1148.000000	95.870219
1147.000000	95.820401
1146.000000	95.769454
1145.000000	95.707365
1144.000000	95.634813
1143.000000	95.563809
1142.000000	95.503641
1141.000000	95.451753
1140.000000	95.400316
1139.000000	95.345351
1138.000000	95.286568
1137.000000	95.224053
1136.000000	95.158940
1135.000000	95.093545
1134.000000	95.028310
1133.000000	94.962085
1132.000000	94.896271
1131.000000	94.833756
1130.000000	94.772886
1129.000000	94.708248
1128.000000	94.638687
1127.000000	94.568629
1126.000000	94.500305
1125.000000	94.431398
1124.000000	94.362070
1123.000000	94.296849
1122.000000	94.236630
1121.000000	94.175663
1120.000000	94.109763
1119.000000	94.041082
1118.000000	93.971972
1117.000000	93.901288
1116.000000	93.829967
1115.000000	93.762875
1114.000000	93.701040
1113.000000	93.638981
1112.000000	93.573576
1111.000000	93.508585
1110.000000	93.447061
1109.000000	93.386645
1108.000000	93.325600
1107.000000	93.266071
1106.000000	93.208040
1105.000000	93.147722
1104.000000	93.085542
1103.000000	93.028197
1102.000000	92.979195
1101.000000	92.934276
1100.000000	92.889031
1099.000000	92.843649
1098.000000	92.797861
1097.000000	92.749338
1096.000000	92.699339
1095.000000	92.651730
1094.000000	92.604615
1093.000000	92.552235
1092.000000	92.497210
1091.000000	92.450322
1090.000000	92.414508
1089.000000	92.379552
1088.000000	92.337338
1087.000000	92.292694
1086.000000	92.254054
1085.000000	92.222326
1084.000000	92.194257
1083.000000	92.168590
1082.000000	92.143754
1081.000000	92.116396
1080.000000	92.086040
1079.000000	92.054739
1078.000000	92.020291
1077.000000	91.977840
1076.000000	91.929768
1075.000000	91.884283
1074.000000	91.841442
1073.000000	91.790599
1072.000000	91.724842
1071.000000	91.647802
1070.000000	91.562836
1069.000000	91.465786
1068.000000	91.353829
1067.000000	91.232535
1066.000000	91.108378
1065.000000	90.981464
1064.000000	90.850665
1063.000000	90.719267
1062.000000	90.591793
1061.000000	90.471696
1060.000000	90.363876
1059.000000	90.271118
1058.000000	90.186373
1057.000000	90.097758
1056.000000	90.002467
1055.000000	89.906020
1054.000000	89.807413
1053.000000	89.697463
1052.000000	89.575003
1051.000000	89.451408
1050.000000	89.332872
1049.000000	89.210664
1048.000000	89.075130
1047.000000	88.926989
1046.000000	88.770622
1045.000000	88.608816
1044.000000	88.447578
1043.000000	88.294154
1042.000000	88.146891
1041.000000	87.998057
1040.000000	87.848894
1039.000000	87.709947
1038.000000	87.584566
1037.000000	87.465126
1036.000000	87.347714
1035.000000	87.236881
1034.000000	87.133570
1033.000000	87.033134
1032.000000	86.938326
1031.000000	86.859198
1030.000000	86.796415
1029.000000	86.739062
1028.000000	86.682251
1027.000000	86.632047
1026.000000	86.589722
1025.000000	86.547359
1024.000000	86.503357
1023.000000	86.465979
1022.000000	86.436329
1021.000000	86.403728
1020.000000	86.363593
1019.000000	86.324338
1018.000000	86.290262
1017.000000	86.252999
1016.000000	86.207020
1015.000000	86.159324
1014.000000	86.116231
1013.000000	86.073677
1012.000000	86.027866
1011.000000	85.983689
1010.000000	85.946046
1009.000000	85.913715
1008.000000	85.886807
1007.000000	85.868965
1006.000000	85.857719
1005.000000	85.844175
1004.000000	85.826499
1003.000000	85.812636
1002.000000	85.806537
1001.000000	85.803370
1000.000000	85.800800
999.000000	85.802550
998.000000	85.808218
997.000000	85.812540
996.000000	85.817500
995.000000	85.831899
994.000000	85.855971
993.000000	85.879547
992.000000	85.898475
991.000000	85.919730
990.000000	85.947399
989.000000	85.977272
988.000000	86.008300
987.000000	86.046041
986.000000	86.092068
985.000000	86.143552
984.000000	86.205135
983.000000	86.285913
982.000000	86.381787
981.000000	86.476746
980.000000	86.566460
979.000000	86.664990
978.000000	86.782499
977.000000	86.911844
976.000000	87.043488
975.000000	87.179115
974.000000	87.322133
973.000000	87.467324
972.000000	87.609018
971.000000	87.750205
970.000000	87.895918
969.000000	88.045498
968.000000	88.197080
967.000000	88.352092
966.000000	88.510501
965.000000	88.668576
964.000000	88.824621
963.000000	88.979711
962.000000	89.130743
961.000000	89.271185
960.000000	89.401130
959.000000	89.528374
958.000000	89.656997
957.000000	89.782604
956.000000	89.900815
955.000000	90.012323
954.000000	90.117906
953.000000	90.216900
952.000000	90.312525
951.000000	90.410121
950.000000	90.507724
949.000000	90.596812
948.000000	90.674576
947.000000	90.747300
946.000000	90.819635
945.000000	90.888570
944.000000	90.950370
943.000000	91.005602
942.000000	91.055357
941.000000	91.100060
940.000000	91.143952
939.000000	91.193454
938.000000	91.249407
937.000000	91.307802
936.000000	91.367952
935.000000	91.431403
934.000000	91.493096
933.000000	91.544041
932.000000	91.584566
931.000000	91.625570
930.000000	91.674601
929.000000	91.729398
928.000000	91.786432
927.000000	91.845688
926.000000	91.904684
925.000000	91.957871
924.000000	92.005568
923.000000	92.054959
922.000000	92.108984
921.000000	92.161865
920.000000	92.207911
919.000000	92.247360
918.000000	92.282363
917.000000	92.315508
916.000000	92.353476
915.000000	92.402936
914.000000	92.461004
913.000000	92.518479
912.000000	92.573805
911.000000	92.634578
910.000000	92.704625
909.000000	92.780723
908.000000	92.863429
907.000000	92.958968
906.000000	93.067591
905.000000	93.182001
904.000000	93.301195
903.000000	93.433933
902.000000	93.583054
901.000000	93.736978
900.000000	93.882875
899.000000	94.019945
898.000000	94.154365
897.000000	94.289377
896.000000	94.425497
895.000000	94.562688
894.000000	94.696944
893.000000	94.821456
892.000000	94.935771
891.000000	95.047561
890.000000	95.161160
889.000000	95.270820
888.000000	95.369859
887.000000	95.460388
886.000000	95.549590
885.000000	95.641784
884.000000	95.738001
883.000000	95.837039
882.000000	95.932486
881.000000	96.015713
880.000000	96.088014
879.000000	96.164016
878.000000	96.255502
877.000000	96.355893
876.000000	96.448545
875.000000	96.527534
874.000000	96.602714
873.000000	96.685049
872.000000	96.773928
871.000000	96.861489
870.000000	96.945274
869.000000	97.032293
868.000000	97.129633
867.000000	97.233311
866.000000	97.330330
865.000000	97.412643
864.000000	97.484845
863.000000	97.555594
862.000000	97.626242
861.000000	97.693485
860.000000	97.759658
859.000000	97.832203
858.000000	97.912540
857.000000	97.991864
856.000000	98.059476
855.000000	98.111099
854.000000	98.149662
853.000000	98.183227
852.000000	98.221697
851.000000	98.269480
850.000000	98.320299
849.000000	98.363731
848.000000	98.396400
847.000000	98.422061
846.000000	98.442760
845.000000	98.457346
844.000000	98.468203
843.000000	98.480350
842.000000	98.491343
841.000000	98.489965
840.000000	98.468703
839.000000	98.431445
838.000000	98.386217
837.000000	98.336966
836.000000	98.286198
835.000000	98.239010
834.000000	98.198862
833.000000	98.163917
832.000000	98.132366
831.000000	98.107117
830.000000	98.090785
829.000000	98.080904
828.000000	98.075710
827.000000	98.080483
826.000000	98.101160
825.000000	98.133344
824.000000	98.163570
823.000000	98.181313
822.000000	98.186740
821.000000	98.187988
820.000000	98.193224
819.000000	98.203780
818.000000	98.212917
817.000000	98.211384
816.000000	98.192599
815.000000	98.150388
814.000000	98.075462
813.000000	97.961039
812.000000	97.811553
811.000000	97.638204
810.000000	97.442816
809.000000	97.211941
808.000000	96.930875
807.000000	96.599802
806.000000	96.235049
805.000000	95.860565
804.000000	95.500299
803.000000	95.170204
802.000000	94.871856
801.000000	94.600934
800.000000	94.366477
799.000000	94.193286
798.000000	94.099994
797.000000	94.082378
796.000000	94.121408
795.000000	94.198057
794.000000	94.296338
793.000000	94.402073
792.000000	94.505381
791.000000	94.599329
790.000000	94.674213
789.000000	94.720013
788.000000	94.735288
787.000000	94.724865
786.000000	94.686575
785.000000	94.609732
784.000000	94.491172
783.000000	94.345301
782.000000	94.194589
781.000000	94.058040
780.000000	93.952285
779.000000	93.892740
778.000000	93.885316
777.000000	93.923368
776.000000	93.997900
775.000000	94.103984
774.000000	94.234279
773.000000	94.375703
772.000000	94.517386
771.000000	94.653861
770.000000	94.776663
769.000000	94.872655
768.000000	94.937393
767.000000	94.982651
766.000000	95.023345
765.000000	95.062465
764.000000	95.095556
763.000000	95.124184
762.000000	95.156293
761.000000	95.195915
760.000000	95.239857
759.000000	95.283695
758.000000	95.326105
757.000000	95.368218
756.000000	95.412359
755.000000	95.460704
754.000000	95.513345
753.000000	95.569140
752.000000	95.628715
751.000000	95.693432
750.000000	95.760933
749.000000	95.825775
748.000000	95.885590
747.000000	95.942906
746.000000	96.000792
745.000000	96.061954
744.000000	96.132524
743.000000	96.219782
742.000000	96.323302
741.000000	96.434039
740.000000	96.544934
739.000000	96.656527
738.000000	96.768643
737.000000	96.872735
736.000000	96.958737
735.000000	97.026927
734.000000	97.088091
733.000000	97.152224
732.000000	97.219367
731.000000	97.280998
730.000000	97.328330
729.000000	97.358783
728.000000	97.375505
727.000000	97.383112
726.000000	97.386895
725.000000	97.395704
724.000000	97.419809
723.000000	97.461803
722.000000	97.513375
721.000000	97.565677
720.000000	97.619736
719.000000	97.681371
718.000000	97.749489
717.000000	97.816652
716.000000	97.878188
715.000000	97.932733
714.000000	97.976335
713.000000	98.005606
712.000000	98.026770
711.000000	98.052001
710.000000	98.083803
709.000000	98.110357
708.000000	98.119713
707.000000	98.112393
706.000000	98.096730
705.000000	98.077206
704.000000	98.050512
703.000000	98.007823
702.000000	97.937108
701.000000	97.827274
700.000000	97.674354
699.000000	97.484345
698.000000	97.273188
697.000000	97.068943
696.000000	96.910160
695.000000	96.829719
694.000000	96.834562
693.000000	96.903912
692.000000	97.006916
691.000000	97.119571
690.000000	97.229329
689.000000	97.333434
688.000000	97.434324
687.000000	97.529424
686.000000	97.606554
685.000000	97.658332
684.000000	97.698129
683.000000	97.749096
682.000000	97.816647
681.000000	97.882860
680.000000	97.930678
679.000000	97.962774
678.000000	97.992260
677.000000	98.026492
676.000000	98.066659
675.000000	98.112771
674.000000	98.159706
673.000000	98.195499
672.000000	98.212650
671.000000	98.218078
670.000000	98.228020
669.000000	98.261537
668.000000	98.330885
667.000000	98.417310
666.000000	98.487513
665.000000	98.533125
664.000000	98.564683
663.000000	98.594482
662.000000	98.625274
661.000000	98.650212
660.000000	98.666563
659.000000	98.681745
658.000000	98.700504
657.000000	98.713873
656.000000	98.710653
655.000000	98.694283
654.000000	98.677715
653.000000	98.664789
652.000000	98.648416
651.000000	98.626425
650.000000	98.608440
649.000000	98.606079
648.000000	98.624517
647.000000	98.663555
646.000000	98.718670
645.000000	98.780652
644.000000	98.839277
643.000000	98.888406
642.000000	98.928822
641.000000	98.968670
640.000000	99.018966
639.000000	99.082283
638.000000	99.145329
637.000000	99.191059
636.000000	99.218676
635.000000	99.243278
634.000000	99.275459
633.000000	99.311819
632.000000	99.350004
631.000000	99.400274
630.000000	99.471250
629.000000	99.551202
628.000000	99.615568
627.000000	99.654327
626.000000	99.687416
625.000000	99.744894
624.000000	99.827397
623.000000	99.893117
622.000000	99.898078
621.000000	99.852158
620.000000	99.821469
619.000000	99.863991
618.000000	99.967663
617.000000	100.068151
616.000000	100.120958
615.000000	100.129652
614.000000	100.112382
613.000000	100.072161
612.000000	100.006873
611.000000	99.927224
610.000000	99.849214
609.000000	99.781062
608.000000	99.730852
607.000000	99.712623
606.000000	99.728576
605.000000	99.757623
604.000000	99.776183
603.000000	99.778588
602.000000	99.768985
601.000000	99.749400
600.000000	99.727167
599.000000	99.719743
598.000000	99.734851
597.000000	99.752878
596.000000	99.743421
595.000000	99.696840
594.000000	99.635176
593.000000	99.595590
592.000000	99.604153
591.000000	99.654596
590.000000	99.707952
589.000000	99.731182
588.000000	99.737055
587.000000	99.766411
586.000000	99.828326
585.000000	99.880327
584.000000	99.882844
583.000000	99.851054
582.000000	99.832547
581.000000	99.847723
580.000000	99.880422
579.000000	99.919428
578.000000	99.979266
577.000000	100.072613
576.000000	100.174446
575.000000	100.223689
574.000000	100.171896
573.000000	100.028714
572.000000	99.851455
571.000000	99.697360
570.000000	99.583794
569.000000	99.494313
568.000000	99.419181
567.000000	99.361697
566.000000	99.310180
565.000000	99.247833
564.000000	99.192067
563.000000	99.176841
562.000000	99.180269
561.000000	99.118918
560.000000	98.939231
559.000000	98.682054
558.000000	98.449528
557.000000	98.311221
556.000000	98.267087
555.000000	98.269916
554.000000	98.248589
553.000000	98.156420
552.000000	98.016943
551.000000	97.902819
550.000000	97.854043
