PE IR       SUBTECH     SPECTRUM    ASCII       PEDS        4.00        
   -1
BH1 8-1 4 0_1.asc
24/05/15
16:24:35.00
24/05/15
16:26:22.00
Administrator
?品 116 用? Administrator 日期 Wednesday, May 15 2024
550.000000
#HDR
-1
-1
#GR
cm-1
%T
1.0
0.0
4000.000000
-1.000000
3451
8
100.439182
78.768833
#DATA
4000.000000	100.150066
3999.000000	100.150235
3998.000000	100.151963
3997.000000	100.154122
3996.000000	100.155363
3995.000000	100.155135
3994.000000	100.153826
3993.000000	100.152591
3992.000000	100.152130
3991.000000	100.152311
3990.000000	100.152655
3989.000000	100.152828
3988.000000	100.152833
3987.000000	100.152856
3986.000000	100.152983
3985.000000	100.153100
3984.000000	100.153047
3983.000000	100.152786
3982.000000	100.152410
3981.000000	100.152062
3980.000000	100.151861
3979.000000	100.151864
3978.000000	100.151991
3977.000000	100.152023
3976.000000	100.151768
3975.000000	100.151277
3974.000000	100.150853
3973.000000	100.150824
3972.000000	100.151309
3971.000000	100.152193
3970.000000	100.153207
3969.000000	100.153994
3968.000000	100.154213
3967.000000	100.153713
3966.000000	100.152660
3965.000000	100.151533
3964.000000	100.150855
3963.000000	100.150838
3962.000000	100.151229
3961.000000	100.151469
3960.000000	100.151129
3959.000000	100.150180
3958.000000	100.148941
3957.000000	100.147860
3956.000000	100.147334
3955.000000	100.147578
3954.000000	100.148531
3953.000000	100.149789
3952.000000	100.150689
3951.000000	100.150733
3950.000000	100.149878
3949.000000	100.148558
3948.000000	100.147310
3947.000000	100.146289
3946.000000	100.145324
3945.000000	100.144318
3944.000000	100.143519
3943.000000	100.143307
3942.000000	100.143734
3941.000000	100.144406
3940.000000	100.144856
3939.000000	100.144972
3938.000000	100.144983
3937.000000	100.145159
3936.000000	100.145553
3935.000000	100.145941
3934.000000	100.145940
3933.000000	100.145215
3932.000000	100.143799
3931.000000	100.142210
3930.000000	100.141073
3929.000000	100.140610
3928.000000	100.140605
3927.000000	100.140850
3926.000000	100.141444
3925.000000	100.142391
3924.000000	100.143029
3923.000000	100.142359
3922.000000	100.140087
3921.000000	100.137067
3920.000000	100.134609
3919.000000	100.133475
3918.000000	100.133646
3917.000000	100.134787
3916.000000	100.136638
3915.000000	100.138973
3914.000000	100.141325
3913.000000	100.142976
3912.000000	100.143400
3911.000000	100.142927
3910.000000	100.142622
3909.000000	100.143031
3908.000000	100.143397
3907.000000	100.142591
3906.000000	100.140641
3905.000000	100.138874
3904.000000	100.138424
3903.000000	100.138630
3902.000000	100.137808
3901.000000	100.135312
3900.000000	100.132152
3899.000000	100.129802
3898.000000	100.128953
3897.000000	100.129568
3896.000000	100.131375
3895.000000	100.133805
3894.000000	100.135939
3893.000000	100.137188
3892.000000	100.137873
3891.000000	100.138737
3890.000000	100.139713
3889.000000	100.140034
3888.000000	100.139498
3887.000000	100.138757
3886.000000	100.138709
3885.000000	100.139505
3884.000000	100.140212
3883.000000	100.140080
3882.000000	100.139455
3881.000000	100.139087
3880.000000	100.139344
3879.000000	100.139932
3878.000000	100.140364
3877.000000	100.140671
3876.000000	100.141194
3875.000000	100.142111
3874.000000	100.143327
3873.000000	100.144555
3872.000000	100.145730
3871.000000	100.147071
3870.000000	100.148450
3869.000000	100.149123
3868.000000	100.148563
3867.000000	100.147239
3866.000000	100.146329
3865.000000	100.146453
3864.000000	100.147375
3863.000000	100.148458
3862.000000	100.149305
3861.000000	100.149983
3860.000000	100.150676
3859.000000	100.151521
3858.000000	100.152554
3857.000000	100.153541
3856.000000	100.153977
3855.000000	100.153455
3854.000000	100.152453
3853.000000	100.152107
3852.000000	100.152285
3851.000000	100.152115
3850.000000	100.151761
3849.000000	100.151647
3848.000000	100.151661
3847.000000	100.151576
3846.000000	100.151429
3845.000000	100.151472
3844.000000	100.151864
3843.000000	100.152486
3842.000000	100.152967
3841.000000	100.153027
3840.000000	100.152728
3839.000000	100.152379
3838.000000	100.152180
3837.000000	100.152040
3836.000000	100.151771
3835.000000	100.151353
3834.000000	100.150932
3833.000000	100.150643
3832.000000	100.150526
3831.000000	100.150505
3830.000000	100.150434
3829.000000	100.150229
3828.000000	100.149937
3827.000000	100.149673
3826.000000	100.149465
3825.000000	100.149166
3824.000000	100.148632
3823.000000	100.147984
3822.000000	100.147630
3821.000000	100.147845
3820.000000	100.148408
3819.000000	100.148871
3818.000000	100.149192
3817.000000	100.149513
3816.000000	100.149787
3815.000000	100.149858
3814.000000	100.149706
3813.000000	100.149507
3812.000000	100.149461
3811.000000	100.149560
3810.000000	100.149676
3809.000000	100.149711
3808.000000	100.149672
3807.000000	100.149618
3806.000000	100.149568
3805.000000	100.149502
3804.000000	100.149448
3803.000000	100.149468
3802.000000	100.149571
3801.000000	100.149691
3800.000000	100.149741
3799.000000	100.149716
3798.000000	100.149709
3797.000000	100.149808
3796.000000	100.150023
3795.000000	100.150268
3794.000000	100.150443
3793.000000	100.150522
3792.000000	100.150555
3791.000000	100.150582
3790.000000	100.150600
3789.000000	100.150619
3788.000000	100.150688
3787.000000	100.150837
3786.000000	100.151038
3785.000000	100.151232
3784.000000	100.151392
3783.000000	100.151542
3782.000000	100.151752
3781.000000	100.152055
3780.000000	100.152300
3779.000000	100.152180
3778.000000	100.151467
3777.000000	100.150314
3776.000000	100.149274
3775.000000	100.148830
3774.000000	100.148911
3773.000000	100.148935
3772.000000	100.148429
3771.000000	100.147588
3770.000000	100.147012
3769.000000	100.146737
3768.000000	100.146113
3767.000000	100.144865
3766.000000	100.143479
3765.000000	100.142390
3764.000000	100.141388
3763.000000	100.140152
3762.000000	100.139120
3761.000000	100.139173
3760.000000	100.140517
3759.000000	100.142359
3758.000000	100.143713
3757.000000	100.144261
3756.000000	100.144176
3755.000000	100.143726
3754.000000	100.143245
3753.000000	100.142902
3752.000000	100.142340
3751.000000	100.141027
3750.000000	100.139015
3749.000000	100.136781
3748.000000	100.134692
3747.000000	100.133139
3746.000000	100.132443
3745.000000	100.132297
3744.000000	100.131791
3743.000000	100.129554
3742.000000	100.125761
3741.000000	100.123246
3740.000000	100.123427
3739.000000	100.124597
3738.000000	100.124540
3737.000000	100.123097
3736.000000	100.121967
3735.000000	100.122328
3734.000000	100.123825
3733.000000	100.125759
3732.000000	100.127657
3731.000000	100.128272
3730.000000	100.126012
3729.000000	100.120637
3728.000000	100.113649
3727.000000	100.107365
3726.000000	100.103839
3725.000000	100.104093
3724.000000	100.107653
3723.000000	100.112192
3722.000000	100.114419
3721.000000	100.112829
3720.000000	100.109052
3719.000000	100.105839
3718.000000	100.104089
3717.000000	100.102656
3716.000000	100.100465
3715.000000	100.098052
3714.000000	100.096619
3713.000000	100.095617
3712.000000	100.092767
3711.000000	100.086589
3710.000000	100.077598
3709.000000	100.067784
3708.000000	100.059812
3707.000000	100.055417
3706.000000	100.054006
3705.000000	100.053070
3704.000000	100.050098
3703.000000	100.044302
3702.000000	100.036770
3701.000000	100.028765
3700.000000	100.020288
3699.000000	100.011525
3698.000000	100.004327
3697.000000	100.000685
3696.000000	100.000347
3695.000000	100.001101
3694.000000	100.001442
3693.000000	100.001468
3692.000000	100.001135
3691.000000	99.999234
3690.000000	99.994260
3689.000000	99.985441
3688.000000	99.972593
3687.000000	99.956395
3686.000000	99.940086
3685.000000	99.928498
3684.000000	99.923613
3683.000000	99.922302
3682.000000	99.919051
3681.000000	99.910866
3680.000000	99.898945
3679.000000	99.885724
3678.000000	99.872719
3677.000000	99.861097
3676.000000	99.851805
3675.000000	99.843198
3674.000000	99.830065
3673.000000	99.811966
3672.000000	99.796053
3671.000000	99.785524
3670.000000	99.775460
3669.000000	99.759504
3668.000000	99.736533
3667.000000	99.713243
3666.000000	99.696848
3665.000000	99.687423
3664.000000	99.680062
3663.000000	99.670332
3662.000000	99.656920
3661.000000	99.640616
3660.000000	99.622306
3659.000000	99.602602
3658.000000	99.582988
3657.000000	99.565438
3656.000000	99.550266
3655.000000	99.534774
3654.000000	99.516789
3653.000000	99.498358
3652.000000	99.482418
3651.000000	99.468567
3650.000000	99.454367
3649.000000	99.438907
3648.000000	99.423002
3647.000000	99.407824
3646.000000	99.393907
3645.000000	99.380622
3644.000000	99.366763
3643.000000	99.351559
3642.000000	99.335332
3641.000000	99.319397
3640.000000	99.305249
3639.000000	99.293381
3638.000000	99.282347
3637.000000	99.269153
3636.000000	99.251951
3635.000000	99.231970
3634.000000	99.212061
3633.000000	99.193857
3632.000000	99.178159
3631.000000	99.167633
3630.000000	99.165616
3629.000000	99.171032
3628.000000	99.175096
3627.000000	99.169182
3626.000000	99.156975
3625.000000	99.148793
3624.000000	99.148837
3623.000000	99.154583
3622.000000	99.161755
3621.000000	99.168129
3620.000000	99.174192
3619.000000	99.180753
3618.000000	99.186481
3617.000000	99.189237
3616.000000	99.189698
3615.000000	99.191741
3614.000000	99.199514
3613.000000	99.213931
3612.000000	99.231613
3611.000000	99.247966
3610.000000	99.260393
3609.000000	99.267997
3608.000000	99.270436
3607.000000	99.268323
3606.000000	99.264194
3605.000000	99.261909
3604.000000	99.264149
3603.000000	99.270867
3602.000000	99.280356
3601.000000	99.290907
3600.000000	99.301076
3599.000000	99.309238
3598.000000	99.314391
3597.000000	99.316960
3596.000000	99.318453
3595.000000	99.320212
3594.000000	99.321946
3593.000000	99.321751
3592.000000	99.318293
3591.000000	99.312060
3590.000000	99.304532
3589.000000	99.297296
3588.000000	99.291908
3587.000000	99.289473
3586.000000	99.289756
3585.000000	99.292000
3584.000000	99.295990
3583.000000	99.301320
3582.000000	99.306686
3581.000000	99.310088
3580.000000	99.309819
3579.000000	99.306107
3578.000000	99.301931
3577.000000	99.301211
3576.000000	99.305521
3575.000000	99.312693
3574.000000	99.318442
3573.000000	99.319225
3572.000000	99.313732
3571.000000	99.302857
3570.000000	99.289216
3569.000000	99.276456
3568.000000	99.267347
3567.000000	99.261486
3566.000000	99.255860
3565.000000	99.248723
3564.000000	99.241456
3563.000000	99.236037
3562.000000	99.232543
3561.000000	99.229683
3560.000000	99.226555
3559.000000	99.223489
3558.000000	99.221484
3557.000000	99.221154
3556.000000	99.221958
3555.000000	99.222237
3554.000000	99.220221
3553.000000	99.215388
3552.000000	99.208891
3551.000000	99.202440
3550.000000	99.196787
3549.000000	99.191476
3548.000000	99.185964
3547.000000	99.181026
3546.000000	99.178834
3545.000000	99.180918
3544.000000	99.186173
3543.000000	99.191377
3542.000000	99.193691
3541.000000	99.192397
3540.000000	99.188545
3539.000000	99.183746
3538.000000	99.179464
3537.000000	99.176740
3536.000000	99.175742
3535.000000	99.175508
3534.000000	99.174733
3533.000000	99.173004
3532.000000	99.170970
3531.000000	99.169290
3530.000000	99.167862
3529.000000	99.166216
3528.000000	99.164207
3527.000000	99.161943
3526.000000	99.159311
3525.000000	99.156184
3524.000000	99.153018
3523.000000	99.150713
3522.000000	99.149694
3521.000000	99.149552
3520.000000	99.149728
3519.000000	99.150092
3518.000000	99.150586
3517.000000	99.150695
3516.000000	99.149811
3515.000000	99.148069
3514.000000	99.146344
3513.000000	99.145257
3512.000000	99.144548
3511.000000	99.143633
3510.000000	99.142510
3509.000000	99.141696
3508.000000	99.141317
3507.000000	99.140719
3506.000000	99.139200
3505.000000	99.136836
3504.000000	99.134484
3503.000000	99.133014
3502.000000	99.132550
3501.000000	99.132451
3500.000000	99.131921
3499.000000	99.130651
3498.000000	99.129002
3497.000000	99.127656
3496.000000	99.126923
3495.000000	99.126303
3494.000000	99.124821
3493.000000	99.121966
3492.000000	99.118212
3491.000000	99.114697
3490.000000	99.112200
3489.000000	99.110507
3488.000000	99.108822
3487.000000	99.106650
3486.000000	99.104287
3485.000000	99.102395
3484.000000	99.101239
3483.000000	99.100386
3482.000000	99.099062
3481.000000	99.096837
3480.000000	99.093854
3479.000000	99.090570
3478.000000	99.087370
3477.000000	99.084422
3476.000000	99.081793
3475.000000	99.079509
3474.000000	99.077432
3473.000000	99.075235
3472.000000	99.072586
3471.000000	99.069429
3470.000000	99.066062
3469.000000	99.062953
3468.000000	99.060410
3467.000000	99.058352
3466.000000	99.056333
3465.000000	99.053872
3464.000000	99.050861
3463.000000	99.047647
3462.000000	99.044623
3461.000000	99.041733
3460.000000	99.038571
3459.000000	99.034989
3458.000000	99.031409
3457.000000	99.028423
3456.000000	99.026198
3455.000000	99.024330
3454.000000	99.022186
3453.000000	99.019355
3452.000000	99.015775
3451.000000	99.011619
3450.000000	99.007230
3449.000000	99.003028
3448.000000	98.999255
3447.000000	98.995832
3446.000000	98.992494
3445.000000	98.989083
3444.000000	98.985639
3443.000000	98.982253
3442.000000	98.978896
3441.000000	98.975393
3440.000000	98.971537
3439.000000	98.967287
3438.000000	98.962980
3437.000000	98.959280
3436.000000	98.956710
3435.000000	98.955087
3434.000000	98.953413
3433.000000	98.950574
3432.000000	98.946299
3431.000000	98.941441
3430.000000	98.937282
3429.000000	98.934398
3428.000000	98.932235
3427.000000	98.929738
3426.000000	98.926350
3425.000000	98.922313
3424.000000	98.918315
3423.000000	98.915113
3422.000000	98.913286
3421.000000	98.912782
3420.000000	98.912519
3419.000000	98.910954
3418.000000	98.907532
3417.000000	98.903346
3416.000000	98.900087
3415.000000	98.898352
3414.000000	98.897337
3413.000000	98.896097
3412.000000	98.894679
3411.000000	98.893753
3410.000000	98.893555
3409.000000	98.893529
3408.000000	98.892805
3407.000000	98.890782
3406.000000	98.887400
3405.000000	98.883256
3404.000000	98.879521
3403.000000	98.877403
3402.000000	98.877391
3401.000000	98.878878
3400.000000	98.880500
3399.000000	98.881097
3398.000000	98.880512
3397.000000	98.879464
3396.000000	98.878683
3395.000000	98.878187
3394.000000	98.877555
3393.000000	98.876778
3392.000000	98.876480
3391.000000	98.877107
3390.000000	98.878206
3389.000000	98.878872
3388.000000	98.878864
3387.000000	98.878851
3386.000000	98.879494
3385.000000	98.880574
3384.000000	98.881255
3383.000000	98.881010
3382.000000	98.880004
3381.000000	98.878641
3380.000000	98.877148
3379.000000	98.875754
3378.000000	98.875030
3377.000000	98.875704
3376.000000	98.878044
3375.000000	98.881451
3374.000000	98.884799
3373.000000	98.887195
3372.000000	98.888338
3371.000000	98.888325
3370.000000	98.887387
3369.000000	98.885999
3368.000000	98.885026
3367.000000	98.885315
3366.000000	98.886930
3365.000000	98.889000
3364.000000	98.890584
3363.000000	98.891638
3362.000000	98.892902
3361.000000	98.894930
3360.000000	98.897569
3359.000000	98.900317
3358.000000	98.902835
3357.000000	98.904928
3356.000000	98.906325
3355.000000	98.906809
3354.000000	98.906466
3353.000000	98.905598
3352.000000	98.904506
3351.000000	98.903586
3350.000000	98.903547
3349.000000	98.905051
3348.000000	98.907967
3347.000000	98.911291
3346.000000	98.914063
3345.000000	98.916373
3344.000000	98.919164
3343.000000	98.923059
3342.000000	98.927585
3341.000000	98.931529
3340.000000	98.933939
3339.000000	98.934799
3338.000000	98.934949
3337.000000	98.935476
3336.000000	98.937058
3335.000000	98.939774
3334.000000	98.943331
3333.000000	98.947271
3332.000000	98.950952
3331.000000	98.953704
3330.000000	98.955377
3329.000000	98.956741
3328.000000	98.958926
3327.000000	98.962187
3326.000000	98.965496
3325.000000	98.967646
3324.000000	98.968651
3323.000000	98.969781
3322.000000	98.972214
3321.000000	98.975891
3320.000000	98.979683
3319.000000	98.982416
3318.000000	98.983683
3317.000000	98.983920
3316.000000	98.984007
3315.000000	98.984646
3314.000000	98.985863
3313.000000	98.987128
3312.000000	98.988119
3311.000000	98.989344
3310.000000	98.991655
3309.000000	98.995063
3308.000000	98.998324
3307.000000	99.000111
3306.000000	99.000627
3305.000000	99.001707
3304.000000	99.005008
3303.000000	99.010388
3302.000000	99.016035
3301.000000	99.020284
3300.000000	99.023148
3299.000000	99.025759
3298.000000	99.028735
3297.000000	99.031567
3296.000000	99.033648
3295.000000	99.035369
3294.000000	99.037766
3293.000000	99.041293
3292.000000	99.045290
3291.000000	99.048665
3290.000000	99.050786
3289.000000	99.051688
3288.000000	99.051852
3287.000000	99.052009
3286.000000	99.052844
3285.000000	99.054546
3284.000000	99.056606
3283.000000	99.058240
3282.000000	99.059098
3281.000000	99.059547
3280.000000	99.060326
3279.000000	99.061964
3278.000000	99.064506
3277.000000	99.067650
3276.000000	99.071034
3275.000000	99.074381
3274.000000	99.077449
3273.000000	99.079960
3272.000000	99.081721
3271.000000	99.082848
3270.000000	99.083793
3269.000000	99.085076
3268.000000	99.086972
3267.000000	99.089453
3266.000000	99.092291
3265.000000	99.095117
3264.000000	99.097471
3263.000000	99.099025
3262.000000	99.099853
3261.000000	99.100533
3260.000000	99.101865
3259.000000	99.104324
3258.000000	99.107793
3257.000000	99.111602
3256.000000	99.114957
3255.000000	99.117472
3254.000000	99.119280
3253.000000	99.120744
3252.000000	99.122079
3251.000000	99.123330
3250.000000	99.124665
3249.000000	99.126412
3248.000000	99.128678
3247.000000	99.131093
3246.000000	99.133107
3245.000000	99.134564
3244.000000	99.135827
3243.000000	99.137341
3242.000000	99.139243
3241.000000	99.141489
3240.000000	99.144130
3239.000000	99.147265
3238.000000	99.150830
3237.000000	99.154513
3236.000000	99.157931
3235.000000	99.160917
3234.000000	99.163659
3233.000000	99.166523
3232.000000	99.169712
3231.000000	99.173085
3230.000000	99.176340
3229.000000	99.179292
3228.000000	99.181901
3227.000000	99.184128
3226.000000	99.185952
3225.000000	99.187539
3224.000000	99.189238
3223.000000	99.191380
3222.000000	99.194121
3221.000000	99.197447
3220.000000	99.201130
3219.000000	99.204704
3218.000000	99.207708
3217.000000	99.210048
3216.000000	99.212039
3215.000000	99.214072
3214.000000	99.216289
3213.000000	99.218696
3212.000000	99.221402
3211.000000	99.224532
3210.000000	99.227974
3209.000000	99.231401
3208.000000	99.234581
3207.000000	99.237559
3206.000000	99.240490
3205.000000	99.243430
3204.000000	99.246339
3203.000000	99.249227
3202.000000	99.252199
3201.000000	99.255345
3200.000000	99.258604
3199.000000	99.261746
3198.000000	99.264543
3197.000000	99.266965
3196.000000	99.269245
3195.000000	99.271744
3194.000000	99.274676
3193.000000	99.277994
3192.000000	99.281443
3191.000000	99.284733
3190.000000	99.287663
3189.000000	99.290126
3188.000000	99.292132
3187.000000	99.293896
3186.000000	99.295820
3185.000000	99.298257
3184.000000	99.301290
3183.000000	99.304721
3182.000000	99.308234
3181.000000	99.311581
3180.000000	99.314575
3179.000000	99.317078
3178.000000	99.319102
3177.000000	99.320933
3176.000000	99.323000
3175.000000	99.325565
3174.000000	99.328576
3173.000000	99.331821
3172.000000	99.335165
3171.000000	99.338556
3170.000000	99.341897
3169.000000	99.345057
3168.000000	99.348010
3167.000000	99.350866
3166.000000	99.353792
3165.000000	99.356985
3164.000000	99.360653
3163.000000	99.364794
3162.000000	99.368908
3161.000000	99.372188
3160.000000	99.374231
3159.000000	99.375432
3158.000000	99.376646
3157.000000	99.378420
3156.000000	99.380650
3155.000000	99.382892
3154.000000	99.384836
3153.000000	99.386586
3152.000000	99.388628
3151.000000	99.391465
3150.000000	99.395159
3149.000000	99.399267
3148.000000	99.403224
3147.000000	99.406733
3146.000000	99.409777
3145.000000	99.412413
3144.000000	99.414702
3143.000000	99.416772
3142.000000	99.418748
3141.000000	99.420647
3140.000000	99.422516
3139.000000	99.424640
3138.000000	99.427371
3137.000000	99.430671
3136.000000	99.434058
3135.000000	99.437058
3134.000000	99.439615
3133.000000	99.442001
3132.000000	99.444511
3131.000000	99.447291
3130.000000	99.450288
3129.000000	99.453212
3128.000000	99.455675
3127.000000	99.457547
3126.000000	99.459170
3125.000000	99.461123
3124.000000	99.463657
3123.000000	99.466540
3122.000000	99.469381
3121.000000	99.472021
3120.000000	99.474511
3119.000000	99.476864
3118.000000	99.479043
3117.000000	99.481136
3116.000000	99.483371
3115.000000	99.485888
3114.000000	99.488607
3113.000000	99.491411
3112.000000	99.494367
3111.000000	99.497614
3110.000000	99.501062
3109.000000	99.504309
3108.000000	99.506964
3107.000000	99.509020
3106.000000	99.510868
3105.000000	99.512935
3104.000000	99.515322
3103.000000	99.517844
3102.000000	99.520279
3101.000000	99.522514
3100.000000	99.524487
3099.000000	99.526162
3098.000000	99.527667
3097.000000	99.529406
3096.000000	99.531810
3095.000000	99.534948
3094.000000	99.538390
3093.000000	99.541493
3092.000000	99.543971
3091.000000	99.546080
3090.000000	99.548306
3089.000000	99.550826
3088.000000	99.553374
3087.000000	99.555612
3086.000000	99.557476
3085.000000	99.559108
3084.000000	99.560659
3083.000000	99.562277
3082.000000	99.564210
3081.000000	99.566660
3080.000000	99.569470
3079.000000	99.572116
3078.000000	99.574156
3077.000000	99.575605
3076.000000	99.576826
3075.000000	99.578149
3074.000000	99.579696
3073.000000	99.581476
3072.000000	99.583449
3071.000000	99.585506
3070.000000	99.587573
3069.000000	99.589784
3068.000000	99.592357
3067.000000	99.595224
3066.000000	99.597921
3065.000000	99.600017
3064.000000	99.601564
3063.000000	99.603015
3062.000000	99.604786
3061.000000	99.606980
3060.000000	99.609397
3059.000000	99.611591
3058.000000	99.613013
3057.000000	99.613375
3056.000000	99.613091
3055.000000	99.613184
3054.000000	99.614424
3053.000000	99.616705
3052.000000	99.619263
3051.000000	99.621560
3050.000000	99.623785
3049.000000	99.626439
3048.000000	99.629705
3047.000000	99.633234
3046.000000	99.636356
3045.000000	99.638533
3044.000000	99.639732
3043.000000	99.640460
3042.000000	99.641380
3041.000000	99.642786
3040.000000	99.644548
3039.000000	99.646438
3038.000000	99.648299
3037.000000	99.649935
3036.000000	99.651125
3035.000000	99.651947
3034.000000	99.652906
3033.000000	99.654553
3032.000000	99.657049
3031.000000	99.660188
3030.000000	99.663651
3029.000000	99.667081
3028.000000	99.670033
3027.000000	99.672133
3026.000000	99.673356
3025.000000	99.674121
3024.000000	99.675116
3023.000000	99.676937
3022.000000	99.679688
3021.000000	99.682755
3020.000000	99.685159
3019.000000	99.686523
3018.000000	99.687617
3017.000000	99.689612
3016.000000	99.692859
3015.000000	99.696737
3014.000000	99.700491
3013.000000	99.703929
3012.000000	99.707200
3011.000000	99.710391
3010.000000	99.713608
3009.000000	99.717001
3008.000000	99.720383
3007.000000	99.723150
3006.000000	99.724954
3005.000000	99.726274
3004.000000	99.728020
3003.000000	99.730662
3002.000000	99.734010
3001.000000	99.737605
3000.000000	99.741037
2999.000000	99.744010
2998.000000	99.746490
2997.000000	99.748819
2996.000000	99.751428
2995.000000	99.754452
2994.000000	99.757798
2993.000000	99.761425
2992.000000	99.765236
2991.000000	99.768824
2990.000000	99.771707
2989.000000	99.773873
2988.000000	99.775841
2987.000000	99.778173
2986.000000	99.781191
2985.000000	99.785124
2984.000000	99.789960
2983.000000	99.794898
2982.000000	99.798609
2981.000000	99.800586
2980.000000	99.801934
2979.000000	99.804354
2978.000000	99.808491
2977.000000	99.813516
2976.000000	99.817934
2975.000000	99.820685
2974.000000	99.821951
2973.000000	99.823349
2972.000000	99.826926
2971.000000	99.833417
2970.000000	99.841504
2969.000000	99.849355
2968.000000	99.856856
2967.000000	99.865308
2966.000000	99.874719
2965.000000	99.882623
2964.000000	99.886383
2963.000000	99.886002
2962.000000	99.884145
2961.000000	99.883988
2960.000000	99.887473
2959.000000	99.894746
2958.000000	99.904064
2957.000000	99.912394
2956.000000	99.917314
2955.000000	99.919030
2954.000000	99.920232
2953.000000	99.923360
2952.000000	99.928022
2951.000000	99.931487
2950.000000	99.931802
2949.000000	99.929890
2948.000000	99.928259
2947.000000	99.928453
2946.000000	99.930750
2945.000000	99.935916
2944.000000	99.945543
2943.000000	99.959956
2942.000000	99.976872
2941.000000	99.993144
2940.000000	100.007272
2939.000000	100.019413
2938.000000	100.029654
2937.000000	100.037555
2936.000000	100.043282
2935.000000	100.048216
2934.000000	100.054463
2933.000000	100.064346
2932.000000	100.079751
2931.000000	100.100520
2930.000000	100.123219
2929.000000	100.142700
2928.000000	100.155641
2927.000000	100.162272
2926.000000	100.164792
2925.000000	100.164899
2924.000000	100.162823
2923.000000	100.157732
2922.000000	100.148636
2921.000000	100.135675
2920.000000	100.120986
2919.000000	100.107505
2918.000000	100.096140
2917.000000	100.084608
2916.000000	100.069869
2915.000000	100.051644
2914.000000	100.033093
2913.000000	100.017998
2912.000000	100.007638
2911.000000	100.000467
2910.000000	99.994368
2909.000000	99.988695
2908.000000	99.984044
2907.000000	99.980558
2906.000000	99.977285
2905.000000	99.973554
2904.000000	99.970300
2903.000000	99.969134
2902.000000	99.970212
2901.000000	99.971772
2900.000000	99.971766
2899.000000	99.969199
2898.000000	99.963910
2897.000000	99.956528
2896.000000	99.949394
2895.000000	99.946140
2894.000000	99.948518
2893.000000	99.953641
2892.000000	99.955824
2891.000000	99.951839
2890.000000	99.943571
2889.000000	99.935402
2888.000000	99.930187
2887.000000	99.928292
2886.000000	99.929086
2885.000000	99.931615
2884.000000	99.934156
2883.000000	99.934883
2882.000000	99.933581
2881.000000	99.931879
2880.000000	99.931300
2879.000000	99.931655
2878.000000	99.931784
2877.000000	99.931323
2876.000000	99.931204
2875.000000	99.932721
2874.000000	99.936556
2873.000000	99.942417
2872.000000	99.949191
2871.000000	99.955693
2870.000000	99.961586
2869.000000	99.967362
2868.000000	99.973223
2867.000000	99.978353
2866.000000	99.981627
2865.000000	99.982670
2864.000000	99.982014
2863.000000	99.981126
2862.000000	99.982889
2861.000000	99.990892
2860.000000	100.006330
2859.000000	100.025527
2858.000000	100.042047
2857.000000	100.051883
2856.000000	100.055818
2855.000000	100.056925
2854.000000	100.057068
2853.000000	100.055959
2852.000000	100.052166
2851.000000	100.044187
2850.000000	100.031713
2849.000000	100.016965
2848.000000	100.003806
2847.000000	99.994127
2846.000000	99.985710
2845.000000	99.975065
2844.000000	99.962048
2843.000000	99.950359
2842.000000	99.943436
2841.000000	99.941129
2840.000000	99.940737
2839.000000	99.940175
2838.000000	99.939348
2837.000000	99.938959
2836.000000	99.938863
2835.000000	99.937794
2834.000000	99.934569
2833.000000	99.929591
2832.000000	99.925111
2831.000000	99.923501
2830.000000	99.924946
2829.000000	99.927051
2828.000000	99.927051
2827.000000	99.924484
2826.000000	99.921559
2825.000000	99.920908
2824.000000	99.923047
2823.000000	99.925875
2822.000000	99.926609
2821.000000	99.924322
2820.000000	99.920652
2819.000000	99.918055
2818.000000	99.917534
2817.000000	99.918142
2816.000000	99.918421
2815.000000	99.917918
2814.000000	99.917379
2813.000000	99.917982
2812.000000	99.920554
2811.000000	99.925036
2810.000000	99.930303
2809.000000	99.934702
2808.000000	99.937180
2807.000000	99.937900
2806.000000	99.937605
2805.000000	99.936533
2804.000000	99.934331
2803.000000	99.931135
2802.000000	99.928329
2801.000000	99.927710
2800.000000	99.929904
2799.000000	99.933925
2798.000000	99.938142
2797.000000	99.941446
2796.000000	99.943402
2795.000000	99.943815
2794.000000	99.942800
2793.000000	99.941153
2792.000000	99.940091
2791.000000	99.940296
2790.000000	99.941444
2789.000000	99.942769
2788.000000	99.943827
2787.000000	99.944645
2786.000000	99.945397
2785.000000	99.946233
2784.000000	99.947291
2783.000000	99.948613
2782.000000	99.950024
2781.000000	99.951228
2780.000000	99.952106
2779.000000	99.952834
2778.000000	99.953686
2777.000000	99.954747
2776.000000	99.955888
2775.000000	99.956944
2774.000000	99.957863
2773.000000	99.958697
2772.000000	99.959518
2771.000000	99.960376
2770.000000	99.961291
2769.000000	99.962261
2768.000000	99.963259
2767.000000	99.964229
2766.000000	99.965119
2765.000000	99.965922
2764.000000	99.966685
2763.000000	99.967462
2762.000000	99.968281
2761.000000	99.969143
2760.000000	99.970032
2759.000000	99.970915
2758.000000	99.971757
2757.000000	99.972558
2756.000000	99.973364
2755.000000	99.974210
2754.000000	99.975077
2753.000000	99.975930
2752.000000	99.976742
2751.000000	99.977437
2750.000000	99.977848
2749.000000	99.977877
2748.000000	99.977703
2747.000000	99.977723
2746.000000	99.978209
2745.000000	99.979150
2744.000000	99.980380
2743.000000	99.981723
2742.000000	99.982949
2741.000000	99.983811
2740.000000	99.984365
2739.000000	99.985100
2738.000000	99.986424
2737.000000	99.988009
2736.000000	99.989016
2735.000000	99.989122
2734.000000	99.989056
2733.000000	99.989858
2732.000000	99.991640
2731.000000	99.993373
2730.000000	99.993970
2729.000000	99.993290
2728.000000	99.992086
2727.000000	99.991238
2726.000000	99.991033
2725.000000	99.991192
2724.000000	99.991325
2723.000000	99.991290
2722.000000	99.991231
2721.000000	99.991443
2720.000000	99.992217
2719.000000	99.993600
2718.000000	99.995181
2717.000000	99.996188
2716.000000	99.996095
2715.000000	99.995203
2714.000000	99.994472
2713.000000	99.994631
2712.000000	99.995619
2711.000000	99.996980
2710.000000	99.998552
2709.000000	100.000454
2708.000000	100.002569
2707.000000	100.004472
2706.000000	100.005888
2705.000000	100.006852
2704.000000	100.007377
2703.000000	100.007360
2702.000000	100.006978
2701.000000	100.006774
2700.000000	100.007036
2699.000000	100.007390
2698.000000	100.007380
2697.000000	100.007262
2696.000000	100.007765
2695.000000	100.009095
2694.000000	100.010499
2693.000000	100.010936
2692.000000	100.010039
2691.000000	100.008366
2690.000000	100.007013
2689.000000	100.006809
2688.000000	100.007796
2687.000000	100.009374
2686.000000	100.010895
2685.000000	100.012152
2684.000000	100.013191
2683.000000	100.013917
2682.000000	100.014212
2681.000000	100.014268
2680.000000	100.014362
2679.000000	100.014295
2678.000000	100.013544
2677.000000	100.012048
2676.000000	100.010448
2675.000000	100.009434
2674.000000	100.009137
2673.000000	100.009299
2672.000000	100.009690
2671.000000	100.010162
2670.000000	100.010513
2669.000000	100.010615
2668.000000	100.010610
2667.000000	100.010767
2666.000000	100.011183
2665.000000	100.011727
2664.000000	100.012184
2663.000000	100.012345
2662.000000	100.012047
2661.000000	100.011320
2660.000000	100.010516
2659.000000	100.010119
2658.000000	100.010339
2657.000000	100.011010
2656.000000	100.011758
2655.000000	100.012276
2654.000000	100.012422
2653.000000	100.012218
2652.000000	100.011856
2651.000000	100.011610
2650.000000	100.011603
2649.000000	100.011705
2648.000000	100.011729
2647.000000	100.011702
2646.000000	100.011800
2645.000000	100.012067
2644.000000	100.012385
2643.000000	100.012698
2642.000000	100.013100
2641.000000	100.013625
2640.000000	100.014082
2639.000000	100.014206
2638.000000	100.013975
2637.000000	100.013678
2636.000000	100.013681
2635.000000	100.014124
2634.000000	100.014844
2633.000000	100.015552
2632.000000	100.016047
2631.000000	100.016271
2630.000000	100.016229
2629.000000	100.015946
2628.000000	100.015510
2627.000000	100.015075
2626.000000	100.014802
2625.000000	100.014789
2624.000000	100.015031
2623.000000	100.015404
2622.000000	100.015708
2621.000000	100.015852
2620.000000	100.015967
2619.000000	100.016286
2618.000000	100.016865
2617.000000	100.017515
2616.000000	100.017969
2615.000000	100.018065
2614.000000	100.017776
2613.000000	100.017169
2612.000000	100.016430
2611.000000	100.015848
2610.000000	100.015684
2609.000000	100.016057
2608.000000	100.016940
2607.000000	100.018125
2606.000000	100.019230
2605.000000	100.019918
2604.000000	100.020190
2603.000000	100.020377
2602.000000	100.020782
2601.000000	100.021341
2600.000000	100.021750
2599.000000	100.021894
2598.000000	100.022006
2597.000000	100.022375
2596.000000	100.023018
2595.000000	100.023698
2594.000000	100.024187
2593.000000	100.024465
2592.000000	100.024658
2591.000000	100.024875
2590.000000	100.025149
2589.000000	100.025479
2588.000000	100.025866
2587.000000	100.026290
2586.000000	100.026715
2585.000000	100.027102
2584.000000	100.027441
2583.000000	100.027761
2582.000000	100.028101
2581.000000	100.028489
2580.000000	100.028928
2579.000000	100.029403
2578.000000	100.029890
2577.000000	100.030362
2576.000000	100.030804
2575.000000	100.031219
2574.000000	100.031639
2573.000000	100.032101
2572.000000	100.032602
2571.000000	100.033095
2570.000000	100.033542
2569.000000	100.033971
2568.000000	100.034442
2567.000000	100.034986
2566.000000	100.035587
2565.000000	100.036198
2564.000000	100.036768
2563.000000	100.037223
2562.000000	100.037471
2561.000000	100.037537
2560.000000	100.037627
2559.000000	100.037922
2558.000000	100.038331
2557.000000	100.038611
2556.000000	100.038742
2555.000000	100.039014
2554.000000	100.039662
2553.000000	100.040507
2552.000000	100.041086
2551.000000	100.041062
2550.000000	100.040504
2549.000000	100.039886
2548.000000	100.039783
2547.000000	100.040417
2546.000000	100.041450
2545.000000	100.042270
2544.000000	100.042593
2543.000000	100.042698
2542.000000	100.043125
2541.000000	100.044179
2540.000000	100.045674
2539.000000	100.047045
2538.000000	100.047780
2537.000000	100.047855
2536.000000	100.047629
2535.000000	100.047239
2534.000000	100.046410
2533.000000	100.045022
2532.000000	100.043575
2531.000000	100.042708
2530.000000	100.042389
2529.000000	100.041915
2528.000000	100.040702
2527.000000	100.038882
2526.000000	100.037229
2525.000000	100.036664
2524.000000	100.037676
2523.000000	100.039872
2522.000000	100.042060
2521.000000	100.043197
2520.000000	100.043336
2519.000000	100.043351
2518.000000	100.043816
2517.000000	100.044439
2516.000000	100.044642
2515.000000	100.044286
2514.000000	100.043651
2513.000000	100.043009
2512.000000	100.042462
2511.000000	100.041984
2510.000000	100.041445
2509.000000	100.040784
2508.000000	100.040308
2507.000000	100.040636
2506.000000	100.042118
2505.000000	100.044345
2504.000000	100.046362
2503.000000	100.047523
2502.000000	100.047964
2501.000000	100.048233
2500.000000	100.048589
2499.000000	100.048754
2498.000000	100.048411
2497.000000	100.047753
2496.000000	100.047379
2495.000000	100.047629
2494.000000	100.048197
2493.000000	100.048475
2492.000000	100.048241
2491.000000	100.047888
2490.000000	100.047967
2489.000000	100.048575
2488.000000	100.049295
2487.000000	100.049682
2486.000000	100.049741
2485.000000	100.049833
2484.000000	100.050220
2483.000000	100.050827
2482.000000	100.051436
2481.000000	100.051950
2480.000000	100.052380
2479.000000	100.052673
2478.000000	100.052766
2477.000000	100.052798
2476.000000	100.053098
2475.000000	100.053854
2474.000000	100.054953
2473.000000	100.056146
2472.000000	100.057275
2471.000000	100.058199
2470.000000	100.058684
2469.000000	100.058629
2468.000000	100.058270
2467.000000	100.058065
2466.000000	100.058246
2465.000000	100.058684
2464.000000	100.059161
2463.000000	100.059642
2462.000000	100.060227
2461.000000	100.060943
2460.000000	100.061681
2459.000000	100.062322
2458.000000	100.062833
2457.000000	100.063247
2456.000000	100.063632
2455.000000	100.064059
2454.000000	100.064552
2453.000000	100.065070
2452.000000	100.065558
2451.000000	100.066017
2450.000000	100.066497
2449.000000	100.067033
2448.000000	100.067616
2447.000000	100.068239
2446.000000	100.068911
2445.000000	100.069624
2444.000000	100.070315
2443.000000	100.070907
2442.000000	100.071369
2441.000000	100.071728
2440.000000	100.072060
2439.000000	100.072456
2438.000000	100.072968
2437.000000	100.073585
2436.000000	100.074236
2435.000000	100.074853
2434.000000	100.075423
2433.000000	100.075953
2432.000000	100.076413
2431.000000	100.076768
2430.000000	100.077049
2429.000000	100.077373
2428.000000	100.077832
2427.000000	100.078422
2426.000000	100.079058
2425.000000	100.079645
2424.000000	100.080158
2423.000000	100.080607
2422.000000	100.081004
2421.000000	100.081378
2420.000000	100.081802
2419.000000	100.082333
2418.000000	100.082913
2417.000000	100.083404
2416.000000	100.083733
2415.000000	100.083920
2414.000000	100.083981
2413.000000	100.083891
2412.000000	100.083711
2411.000000	100.083657
2410.000000	100.083932
2409.000000	100.084526
2408.000000	100.085247
2407.000000	100.085964
2406.000000	100.086726
2405.000000	100.087589
2404.000000	100.088393
2403.000000	100.088840
2402.000000	100.088843
2401.000000	100.088678
2400.000000	100.088690
2399.000000	100.088882
2398.000000	100.088973
2397.000000	100.088809
2396.000000	100.088551
2395.000000	100.088414
2394.000000	100.088445
2393.000000	100.088605
2392.000000	100.088858
2391.000000	100.089100
2390.000000	100.089146
2389.000000	100.088913
2388.000000	100.088587
2387.000000	100.088475
2386.000000	100.088720
2385.000000	100.089200
2384.000000	100.089654
2383.000000	100.089885
2382.000000	100.089864
2381.000000	100.089673
2380.000000	100.089375
2379.000000	100.088971
2378.000000	100.088482
2377.000000	100.088039
2376.000000	100.087810
2375.000000	100.087822
2374.000000	100.087940
2373.000000	100.088005
2372.000000	100.087983
2371.000000	100.087928
2370.000000	100.087865
2369.000000	100.087782
2368.000000	100.087675
2367.000000	100.087560
2366.000000	100.087445
2365.000000	100.087331
2364.000000	100.087224
2363.000000	100.087131
2362.000000	100.087053
2361.000000	100.086982
2360.000000	100.086913
2359.000000	100.086845
2358.000000	100.086780
2357.000000	100.086727
2356.000000	100.086699
2355.000000	100.086707
2354.000000	100.086748
2353.000000	100.086810
2352.000000	100.086868
2351.000000	100.086900
2350.000000	100.086895
2349.000000	100.086858
2348.000000	100.086805
2347.000000	100.086755
2346.000000	100.086727
2345.000000	100.086725
2344.000000	100.086744
2343.000000	100.086773
2342.000000	100.086803
2341.000000	100.086819
2340.000000	100.086814
2339.000000	100.086796
2338.000000	100.086789
2337.000000	100.086815
2336.000000	100.086868
2335.000000	100.086924
2334.000000	100.086981
2333.000000	100.087051
2332.000000	100.087136
2331.000000	100.087213
2330.000000	100.087288
2329.000000	100.087404
2328.000000	100.087561
2327.000000	100.087726
2326.000000	100.087859
2325.000000	100.088003
2324.000000	100.088191
2323.000000	100.088345
2322.000000	100.088309
2321.000000	100.088017
2320.000000	100.087613
2319.000000	100.087326
2318.000000	100.087279
2317.000000	100.087439
2316.000000	100.087695
2315.000000	100.087936
2314.000000	100.088069
2313.000000	100.087986
2312.000000	100.087590
2311.000000	100.086885
2310.000000	100.085986
2309.000000	100.085125
2308.000000	100.084545
2307.000000	100.084381
2306.000000	100.084541
2305.000000	100.084781
2304.000000	100.084881
2303.000000	100.084762
2302.000000	100.084455
2301.000000	100.084067
2300.000000	100.083725
2299.000000	100.083479
2298.000000	100.083198
2297.000000	100.082733
2296.000000	100.082117
2295.000000	100.081570
2294.000000	100.081209
2293.000000	100.080958
2292.000000	100.080682
2291.000000	100.080309
2290.000000	100.079721
2289.000000	100.078787
2288.000000	100.077614
2287.000000	100.076620
2286.000000	100.076135
2285.000000	100.076017
2284.000000	100.075832
2283.000000	100.075373
2282.000000	100.074748
2281.000000	100.073958
2280.000000	100.072782
2279.000000	100.071212
2278.000000	100.069744
2277.000000	100.068877
2276.000000	100.068458
2275.000000	100.067779
2274.000000	100.066378
2273.000000	100.064564
2272.000000	100.063081
2271.000000	100.062355
2270.000000	100.062200
2269.000000	100.062156
2268.000000	100.062003
2267.000000	100.061878
2266.000000	100.061934
2265.000000	100.062073
2264.000000	100.062046
2263.000000	100.061726
2262.000000	100.061191
2261.000000	100.060583
2260.000000	100.059934
2259.000000	100.059110
2258.000000	100.057967
2257.000000	100.056602
2256.000000	100.055433
2255.000000	100.054885
2254.000000	100.054963
2253.000000	100.055166
2252.000000	100.054901
2251.000000	100.053934
2250.000000	100.052415
2249.000000	100.050699
2248.000000	100.049256
2247.000000	100.048593
2246.000000	100.048975
2245.000000	100.050130
2244.000000	100.051328
2243.000000	100.051983
2242.000000	100.052099
2241.000000	100.052026
2240.000000	100.051925
2239.000000	100.051626
2238.000000	100.051013
2237.000000	100.050350
2236.000000	100.050064
2235.000000	100.050271
2234.000000	100.050714
2233.000000	100.051148
2232.000000	100.051551
2231.000000	100.051855
2230.000000	100.051779
2229.000000	100.051195
2228.000000	100.050497
2227.000000	100.050258
2226.000000	100.050518
2225.000000	100.050739
2224.000000	100.050519
2223.000000	100.050087
2222.000000	100.049896
2221.000000	100.050027
2220.000000	100.050287
2219.000000	100.050624
2218.000000	100.051084
2217.000000	100.051531
2216.000000	100.051839
2215.000000	100.052261
2214.000000	100.053174
2213.000000	100.054407
2212.000000	100.055233
2211.000000	100.055173
2210.000000	100.054449
2209.000000	100.053593
2208.000000	100.052925
2207.000000	100.052580
2206.000000	100.052682
2205.000000	100.053166
2204.000000	100.053649
2203.000000	100.053860
2202.000000	100.054099
2201.000000	100.054957
2200.000000	100.056614
2199.000000	100.058615
2198.000000	100.060301
2197.000000	100.061258
2196.000000	100.061421
2195.000000	100.061062
2194.000000	100.060653
2193.000000	100.060504
2192.000000	100.060494
2191.000000	100.060325
2190.000000	100.060023
2189.000000	100.059960
2188.000000	100.060290
2187.000000	100.060611
2186.000000	100.060392
2185.000000	100.059605
2184.000000	100.058735
2183.000000	100.058226
2182.000000	100.058135
2181.000000	100.058385
2180.000000	100.059066
2179.000000	100.060290
2178.000000	100.061825
2177.000000	100.063077
2176.000000	100.063619
2175.000000	100.063593
2174.000000	100.063501
2173.000000	100.063555
2172.000000	100.063411
2171.000000	100.062681
2170.000000	100.061525
2169.000000	100.060603
2168.000000	100.060418
2167.000000	100.060909
2166.000000	100.061725
2165.000000	100.062663
2164.000000	100.063658
2163.000000	100.064472
2162.000000	100.064697
2161.000000	100.064158
2160.000000	100.063165
2159.000000	100.062325
2158.000000	100.062104
2157.000000	100.062591
2156.000000	100.063556
2155.000000	100.064626
2154.000000	100.065522
2153.000000	100.066164
2152.000000	100.066548
2151.000000	100.066633
2150.000000	100.066479
2149.000000	100.066395
2148.000000	100.066646
2147.000000	100.067004
2146.000000	100.066951
2145.000000	100.066426
2144.000000	100.065998
2143.000000	100.066060
2142.000000	100.066254
2141.000000	100.066044
2140.000000	100.065543
2139.000000	100.065248
2138.000000	100.065289
2137.000000	100.065561
2136.000000	100.066349
2135.000000	100.068078
2134.000000	100.070467
2133.000000	100.072493
2132.000000	100.073496
2131.000000	100.073831
2130.000000	100.074301
2129.000000	100.075243
2128.000000	100.076325
2127.000000	100.077056
2126.000000	100.077267
2125.000000	100.077204
2124.000000	100.077266
2123.000000	100.077568
2122.000000	100.077820
2121.000000	100.077755
2120.000000	100.077581
2119.000000	100.077785
2118.000000	100.078550
2117.000000	100.079677
2116.000000	100.080967
2115.000000	100.082286
2114.000000	100.083322
2113.000000	100.083745
2112.000000	100.083671
2111.000000	100.083679
2110.000000	100.084202
2109.000000	100.085175
2108.000000	100.086346
2107.000000	100.087612
2106.000000	100.088907
2105.000000	100.090024
2104.000000	100.090818
2103.000000	100.091401
2102.000000	100.091968
2101.000000	100.092529
2100.000000	100.093001
2099.000000	100.093461
2098.000000	100.094111
2097.000000	100.095030
2096.000000	100.096071
2095.000000	100.096980
2094.000000	100.097608
2093.000000	100.097976
2092.000000	100.098210
2091.000000	100.098444
2090.000000	100.098733
2089.000000	100.099096
2088.000000	100.099565
2087.000000	100.100167
2086.000000	100.100836
2085.000000	100.101428
2084.000000	100.101893
2083.000000	100.102362
2082.000000	100.102976
2081.000000	100.103656
2080.000000	100.104148
2079.000000	100.104315
2078.000000	100.104273
2077.000000	100.104280
2076.000000	100.104527
2075.000000	100.105040
2074.000000	100.105647
2073.000000	100.106014
2072.000000	100.105890
2071.000000	100.105378
2070.000000	100.104905
2069.000000	100.104818
2068.000000	100.105148
2067.000000	100.105739
2066.000000	100.106397
2065.000000	100.106870
2064.000000	100.106902
2063.000000	100.106472
2062.000000	100.105857
2061.000000	100.105417
2060.000000	100.105427
2059.000000	100.106064
2058.000000	100.107172
2057.000000	100.108004
2056.000000	100.107659
2055.000000	100.106001
2054.000000	100.103971
2053.000000	100.102682
2052.000000	100.102324
2051.000000	100.102300
2050.000000	100.102149
2049.000000	100.101991
2048.000000	100.102039
2047.000000	100.102042
2046.000000	100.101401
2045.000000	100.099801
2044.000000	100.097657
2043.000000	100.095851
2042.000000	100.094910
2041.000000	100.094560
2040.000000	100.094231
2039.000000	100.093813
2038.000000	100.093547
2037.000000	100.093306
2036.000000	100.092541
2035.000000	100.090974
2034.000000	100.088809
2033.000000	100.086237
2032.000000	100.083266
2031.000000	100.080244
2030.000000	100.077887
2029.000000	100.076397
2028.000000	100.075013
2027.000000	100.072882
2026.000000	100.070030
2025.000000	100.067115
2024.000000	100.064693
2023.000000	100.063153
2022.000000	100.062869
2021.000000	100.063637
2020.000000	100.064186
2019.000000	100.063093
2018.000000	100.060193
2017.000000	100.056562
2016.000000	100.053074
2015.000000	100.049546
2014.000000	100.045626
2013.000000	100.041821
2012.000000	100.039121
2011.000000	100.037996
2010.000000	100.038068
2009.000000	100.038464
2008.000000	100.038320
2007.000000	100.037252
2006.000000	100.035671
2005.000000	100.034507
2004.000000	100.034271
2003.000000	100.034450
2002.000000	100.034135
2001.000000	100.033177
2000.000000	100.032359
1999.000000	100.032381
1998.000000	100.033009
1997.000000	100.033425
1996.000000	100.033151
1995.000000	100.032365
1994.000000	100.031493
1993.000000	100.030858
1992.000000	100.030674
1991.000000	100.030998
1990.000000	100.031550
1989.000000	100.031797
1988.000000	100.031410
1987.000000	100.030590
1986.000000	100.029823
1985.000000	100.029374
1984.000000	100.029139
1983.000000	100.028943
1982.000000	100.028807
1981.000000	100.028861
1980.000000	100.029065
1979.000000	100.029064
1978.000000	100.028373
1977.000000	100.026783
1976.000000	100.024711
1975.000000	100.023092
1974.000000	100.022640
1973.000000	100.023310
1972.000000	100.024430
1971.000000	100.025291
1970.000000	100.025673
1969.000000	100.025734
1968.000000	100.025638
1967.000000	100.025374
1966.000000	100.024842
1965.000000	100.024018
1964.000000	100.023054
1963.000000	100.022324
1962.000000	100.022300
1961.000000	100.023175
1960.000000	100.024516
1959.000000	100.025458
1958.000000	100.025426
1957.000000	100.024498
1956.000000	100.023119
1955.000000	100.021633
1954.000000	100.020173
1953.000000	100.018807
1952.000000	100.017538
1951.000000	100.016302
1950.000000	100.015132
1949.000000	100.014161
1948.000000	100.013327
1947.000000	100.012336
1946.000000	100.011192
1945.000000	100.010464
1944.000000	100.010599
1943.000000	100.011163
1942.000000	100.011368
1941.000000	100.011397
1940.000000	100.012210
1939.000000	100.013881
1938.000000	100.014986
1937.000000	100.014125
1936.000000	100.011563
1935.000000	100.008939
1934.000000	100.007519
1933.000000	100.007318
1932.000000	100.007760
1931.000000	100.008468
1930.000000	100.009224
1929.000000	100.009609
1928.000000	100.008950
1927.000000	100.006587
1926.000000	100.002378
1925.000000	99.997252
1924.000000	99.993135
1923.000000	99.991649
1922.000000	99.992518
1921.000000	99.993874
1920.000000	99.994228
1919.000000	99.993435
1918.000000	99.991926
1917.000000	99.989736
1916.000000	99.986633
1915.000000	99.982881
1914.000000	99.979230
1913.000000	99.976247
1912.000000	99.973854
1911.000000	99.971482
1910.000000	99.968630
1909.000000	99.965383
1908.000000	99.962461
1907.000000	99.960505
1906.000000	99.959260
1905.000000	99.957618
1904.000000	99.954594
1903.000000	99.950224
1902.000000	99.945458
1901.000000	99.941376
1900.000000	99.938513
1899.000000	99.936586
1898.000000	99.934654
1897.000000	99.931801
1896.000000	99.927993
1895.000000	99.924133
1894.000000	99.920995
1893.000000	99.918395
1892.000000	99.915715
1891.000000	99.912841
1890.000000	99.910284
1889.000000	99.908689
1888.000000	99.908626
1887.000000	99.910457
1886.000000	99.913413
1885.000000	99.914969
1884.000000	99.912550
1883.000000	99.906432
1882.000000	99.900006
1881.000000	99.896445
1880.000000	99.895717
1879.000000	99.895358
1878.000000	99.893531
1877.000000	99.890493
1876.000000	99.887407
1875.000000	99.885006
1874.000000	99.883672
1873.000000	99.883838
1872.000000	99.885652
1871.000000	99.888599
1870.000000	99.891818
1869.000000	99.894902
1868.000000	99.898186
1867.000000	99.902066
1866.000000	99.906236
1865.000000	99.909487
1864.000000	99.910412
1863.000000	99.908829
1862.000000	99.906440
1861.000000	99.905700
1860.000000	99.907823
1859.000000	99.911987
1858.000000	99.916331
1857.000000	99.919409
1856.000000	99.920869
1855.000000	99.921336
1854.000000	99.922017
1853.000000	99.924083
1852.000000	99.927880
1851.000000	99.932720
1850.000000	99.937729
1849.000000	99.942950
1848.000000	99.949283
1847.000000	99.957137
1846.000000	99.965225
1845.000000	99.971003
1844.000000	99.973180
1843.000000	99.973158
1842.000000	99.972862
1841.000000	99.972667
1840.000000	99.971987
1839.000000	99.970433
1838.000000	99.968455
1837.000000	99.967109
1836.000000	99.966987
1835.000000	99.967436
1834.000000	99.966962
1833.000000	99.964666
1832.000000	99.961377
1831.000000	99.959299
1830.000000	99.959951
1829.000000	99.962080
1828.000000	99.963386
1827.000000	99.963705
1826.000000	99.964355
1825.000000	99.965618
1824.000000	99.966263
1823.000000	99.965487
1822.000000	99.964065
1821.000000	99.963078
1820.000000	99.962583
1819.000000	99.961968
1818.000000	99.961203
1817.000000	99.960977
1816.000000	99.961398
1815.000000	99.961381
1814.000000	99.959838
1813.000000	99.957134
1812.000000	99.954832
1811.000000	99.953769
1810.000000	99.952941
1809.000000	99.950824
1808.000000	99.947425
1807.000000	99.944412
1806.000000	99.943538
1805.000000	99.945231
1804.000000	99.948351
1803.000000	99.951096
1802.000000	99.952374
1801.000000	99.952591
1800.000000	99.952838
1799.000000	99.953190
1798.000000	99.952674
1797.000000	99.951124
1796.000000	99.950167
1795.000000	99.951657
1794.000000	99.955341
1793.000000	99.958569
1792.000000	99.959194
1791.000000	99.958219
1790.000000	99.958073
1789.000000	99.959616
1788.000000	99.961936
1787.000000	99.963774
1786.000000	99.964648
1785.000000	99.964999
1784.000000	99.965604
1783.000000	99.966924
1782.000000	99.968931
1781.000000	99.971572
1780.000000	99.975129
1779.000000	99.979815
1778.000000	99.984893
1777.000000	99.988678
1776.000000	99.990191
1775.000000	99.990689
1774.000000	99.992863
1773.000000	99.998660
1772.000000	100.006942
1771.000000	100.013328
1770.000000	100.015109
1769.000000	100.014138
1768.000000	100.014276
1767.000000	100.018137
1766.000000	100.024762
1765.000000	100.030657
1764.000000	100.033328
1763.000000	100.033395
1762.000000	100.033900
1761.000000	100.036604
1760.000000	100.040377
1759.000000	100.044631
1758.000000	100.051147
1757.000000	100.061409
1756.000000	100.073976
1755.000000	100.086140
1754.000000	100.096811
1753.000000	100.105311
1752.000000	100.109454
1751.000000	100.108893
1750.000000	100.109307
1749.000000	100.117316
1748.000000	100.132175
1747.000000	100.146835
1746.000000	100.155637
1745.000000	100.158527
1744.000000	100.158816
1743.000000	100.159039
1742.000000	100.159106
1741.000000	100.157386
1740.000000	100.152794
1739.000000	100.145971
1738.000000	100.138535
1737.000000	100.131675
1736.000000	100.125357
1735.000000	100.117734
1734.000000	100.107760
1733.000000	100.095935
1732.000000	100.082257
1731.000000	100.068359
1730.000000	100.057758
1729.000000	100.052382
1728.000000	100.051047
1727.000000	100.050655
1726.000000	100.047940
1725.000000	100.040865
1724.000000	100.030517
1723.000000	100.021226
1722.000000	100.016846
1721.000000	100.017497
1720.000000	100.020651
1719.000000	100.023418
1718.000000	100.024037
1717.000000	100.021750
1716.000000	100.015824
1715.000000	100.007036
1714.000000	99.998124
1713.000000	99.991087
1712.000000	99.985739
1711.000000	99.981010
1710.000000	99.976522
1709.000000	99.972419
1708.000000	99.968257
1707.000000	99.962918
1706.000000	99.955803
1705.000000	99.947914
1704.000000	99.940992
1703.000000	99.936104
1702.000000	99.933024
1701.000000	99.930573
1700.000000	99.928795
1699.000000	99.927199
1698.000000	99.923893
1697.000000	99.918534
1696.000000	99.911960
1695.000000	99.905248
1694.000000	99.898912
1693.000000	99.892617
1692.000000	99.886283
1691.000000	99.879895
1690.000000	99.873257
1689.000000	99.866767
1688.000000	99.861396
1687.000000	99.857884
1686.000000	99.855668
1685.000000	99.853320
1684.000000	99.850680
1683.000000	99.846545
1682.000000	99.839608
1681.000000	99.831353
1680.000000	99.823206
1679.000000	99.815611
1678.000000	99.808579
1677.000000	99.801694
1676.000000	99.794794
1675.000000	99.789002
1674.000000	99.785405
1673.000000	99.783266
1672.000000	99.781584
1671.000000	99.780006
1670.000000	99.778221
1669.000000	99.776006
1668.000000	99.773500
1667.000000	99.771364
1666.000000	99.770399
1665.000000	99.770921
1664.000000	99.772180
1663.000000	99.772199
1662.000000	99.769176
1661.000000	99.763680
1660.000000	99.758555
1659.000000	99.755985
1658.000000	99.755520
1657.000000	99.755396
1656.000000	99.754822
1655.000000	99.753445
1654.000000	99.748974
1653.000000	99.743273
1652.000000	99.739995
1651.000000	99.736709
1650.000000	99.731771
1649.000000	99.726188
1648.000000	99.719875
1647.000000	99.714965
1646.000000	99.715698
1645.000000	99.720666
1644.000000	99.724425
1643.000000	99.725540
1642.000000	99.726420
1641.000000	99.728591
1640.000000	99.730481
1639.000000	99.730149
1638.000000	99.728126
1637.000000	99.726139
1636.000000	99.725204
1635.000000	99.724812
1634.000000	99.724254
1633.000000	99.724214
1632.000000	99.725206
1631.000000	99.726168
1630.000000	99.725377
1629.000000	99.722722
1628.000000	99.720286
1627.000000	99.719697
1626.000000	99.720372
1625.000000	99.720898
1624.000000	99.720984
1623.000000	99.721848
1622.000000	99.724190
1621.000000	99.727280
1620.000000	99.731165
1619.000000	99.737593
1618.000000	99.748286
1617.000000	99.762329
1616.000000	99.774437
1615.000000	99.779934
1614.000000	99.780709
1613.000000	99.781766
1612.000000	99.785401
1611.000000	99.790188
1610.000000	99.793638
1609.000000	99.795325
1608.000000	99.797156
1607.000000	99.801083
1606.000000	99.807064
1605.000000	99.813423
1604.000000	99.819060
1603.000000	99.824760
1602.000000	99.831818
1601.000000	99.839776
1600.000000	99.846809
1599.000000	99.852257
1598.000000	99.857463
1597.000000	99.863750
1596.000000	99.870563
1595.000000	99.876448
1594.000000	99.881242
1593.000000	99.886074
1592.000000	99.891429
1591.000000	99.896510
1590.000000	99.900706
1589.000000	99.904642
1588.000000	99.909197
1587.000000	99.914109
1586.000000	99.918276
1585.000000	99.921230
1584.000000	99.923780
1583.000000	99.927234
1582.000000	99.932127
1581.000000	99.937789
1580.000000	99.943190
1579.000000	99.947890
1578.000000	99.951965
1577.000000	99.955938
1576.000000	99.961243
1575.000000	99.968091
1574.000000	99.974458
1573.000000	99.979099
1572.000000	99.982284
1571.000000	99.984752
1570.000000	99.987987
1569.000000	99.992759
1568.000000	99.997569
1567.000000	100.000946
1566.000000	100.003179
1565.000000	100.005158
1564.000000	100.007197
1563.000000	100.009070
1562.000000	100.010411
1561.000000	100.010922
1560.000000	100.010672
1559.000000	100.013214
1558.000000	100.018613
1557.000000	100.021786
1556.000000	100.021906
1555.000000	100.020800
1554.000000	100.020247
1553.000000	100.021164
1552.000000	100.022967
1551.000000	100.024790
1550.000000	100.026299
1549.000000	100.027710
1548.000000	100.029186
1547.000000	100.030611
1546.000000	100.031879
1545.000000	100.033092
1544.000000	100.034303
1543.000000	100.035270
1542.000000	100.035812
1541.000000	100.036356
1540.000000	100.037737
1539.000000	100.039643
1538.000000	100.040902
1537.000000	100.041309
1536.000000	100.041450
1535.000000	100.041945
1534.000000	100.043080
1533.000000	100.044489
1532.000000	100.045389
1531.000000	100.045498
1530.000000	100.045128
1529.000000	100.044728
1528.000000	100.044591
1527.000000	100.044766
1526.000000	100.045224
1525.000000	100.046014
1524.000000	100.047142
1523.000000	100.048381
1522.000000	100.049391
1521.000000	100.050096
1520.000000	100.050721
1519.000000	100.051383
1518.000000	100.052036
1517.000000	100.052661
1516.000000	100.053280
1515.000000	100.053861
1514.000000	100.054250
1513.000000	100.054279
1512.000000	100.054044
1511.000000	100.054120
1510.000000	100.055328
1509.000000	100.058339
1508.000000	100.063114
1507.000000	100.068135
1506.000000	100.071171
1505.000000	100.071934
1504.000000	100.071328
1503.000000	100.069692
1502.000000	100.067437
1501.000000	100.065044
1500.000000	100.062903
1499.000000	100.061134
1498.000000	100.059673
1497.000000	100.059338
1496.000000	100.061556
1495.000000	100.065902
1494.000000	100.069978
1493.000000	100.072104
1492.000000	100.072226
1491.000000	100.071528
1490.000000	100.072016
1489.000000	100.074437
1488.000000	100.077076
1487.000000	100.078153
1486.000000	100.078003
1485.000000	100.078335
1484.000000	100.080120
1483.000000	100.082638
1482.000000	100.084615
1481.000000	100.085617
1480.000000	100.085871
1479.000000	100.085396
1478.000000	100.084508
1477.000000	100.085045
1476.000000	100.089095
1475.000000	100.096036
1474.000000	100.102694
1473.000000	100.107621
1472.000000	100.112741
1471.000000	100.118827
1470.000000	100.123729
1469.000000	100.125751
1468.000000	100.124990
1467.000000	100.122372
1466.000000	100.119024
1465.000000	100.116609
1464.000000	100.116415
1463.000000	100.117211
1462.000000	100.116333
1461.000000	100.112559
1460.000000	100.107147
1459.000000	100.102516
1458.000000	100.100185
1457.000000	100.100143
1456.000000	100.100783
1455.000000	100.100094
1454.000000	100.097469
1453.000000	100.093748
1452.000000	100.089686
1451.000000	100.084883
1450.000000	100.078423
1449.000000	100.070287
1448.000000	100.062246
1447.000000	100.056399
1446.000000	100.052969
1445.000000	100.051171
1444.000000	100.050878
1443.000000	100.051747
1442.000000	100.051886
1441.000000	100.049373
1440.000000	100.044799
1439.000000	100.040524
1438.000000	100.037763
1437.000000	100.035888
1436.000000	100.034195
1435.000000	100.032309
1434.000000	100.029677
1433.000000	100.026376
1432.000000	100.023418
1431.000000	100.021842
1430.000000	100.021442
1429.000000	100.020840
1428.000000	100.019433
1427.000000	100.017981
1426.000000	100.016950
1425.000000	100.015784
1424.000000	100.014384
1423.000000	100.014330
1422.000000	100.017415
1421.000000	100.023296
1420.000000	100.028726
1419.000000	100.030031
1418.000000	100.027407
1417.000000	100.024584
1416.000000	100.024265
1415.000000	100.026254
1414.000000	100.029179
1413.000000	100.032777
1412.000000	100.037787
1411.000000	100.043626
1410.000000	100.047848
1409.000000	100.048784
1408.000000	100.047567
1407.000000	100.047165
1406.000000	100.050199
1405.000000	100.057391
1404.000000	100.066923
1403.000000	100.075499
1402.000000	100.080962
1401.000000	100.083553
1400.000000	100.085048
1399.000000	100.086843
1398.000000	100.088531
1397.000000	100.089177
1396.000000	100.089347
1395.000000	100.090882
1394.000000	100.094967
1393.000000	100.101167
1392.000000	100.108460
1391.000000	100.116080
1390.000000	100.123316
1389.000000	100.129415
1388.000000	100.133959
1387.000000	100.137004
1386.000000	100.138831
1385.000000	100.140024
1384.000000	100.141550
1383.000000	100.144101
1382.000000	100.147365
1381.000000	100.150197
1380.000000	100.151551
1379.000000	100.151177
1378.000000	100.149693
1377.000000	100.148256
1376.000000	100.148061
1375.000000	100.149723
1374.000000	100.152639
1373.000000	100.155245
1372.000000	100.156322
1371.000000	100.155647
1370.000000	100.153850
1369.000000	100.152234
1368.000000	100.151695
1367.000000	100.151359
1366.000000	100.149362
1365.000000	100.145304
1364.000000	100.141349
1363.000000	100.140263
1362.000000	100.142211
1361.000000	100.145042
1360.000000	100.147559
1359.000000	100.150179
1358.000000	100.153002
1357.000000	100.155250
1356.000000	100.156488
1355.000000	100.157084
1354.000000	100.157074
1353.000000	100.155776
1352.000000	100.153120
1351.000000	100.150390
1350.000000	100.148934
1349.000000	100.148879
1348.000000	100.149719
1347.000000	100.151372
1346.000000	100.153761
1345.000000	100.155916
1344.000000	100.156561
1343.000000	100.155453
1342.000000	100.153420
1341.000000	100.151257
1340.000000	100.149274
1339.000000	100.148030
1338.000000	100.148620
1337.000000	100.151471
1336.000000	100.155238
1335.000000	100.157528
1334.000000	100.156884
1333.000000	100.153994
1332.000000	100.150950
1331.000000	100.149388
1330.000000	100.149424
1329.000000	100.150257
1328.000000	100.151174
1327.000000	100.151644
1326.000000	100.151158
1325.000000	100.149893
1324.000000	100.149294
1323.000000	100.150968
1322.000000	100.154782
1321.000000	100.158646
1320.000000	100.160354
1319.000000	100.159180
1318.000000	100.155868
1317.000000	100.151944
1316.000000	100.149192
1315.000000	100.148781
1314.000000	100.150164
1313.000000	100.151379
1312.000000	100.151232
1311.000000	100.150734
1310.000000	100.151697
1309.000000	100.154347
1308.000000	100.156975
1307.000000	100.157750
1306.000000	100.156343
1305.000000	100.153852
1304.000000	100.151589
1303.000000	100.150097
1302.000000	100.149243
1301.000000	100.149115
1300.000000	100.150460
1299.000000	100.153695
1298.000000	100.157657
1297.000000	100.160101
1296.000000	100.159570
1295.000000	100.156258
1294.000000	100.151343
1293.000000	100.146530
1292.000000	100.144105
1291.000000	100.145587
1290.000000	100.149280
1289.000000	100.150651
1288.000000	100.146751
1287.000000	100.139598
1286.000000	100.133904
1285.000000	100.131986
1284.000000	100.132397
1283.000000	100.132758
1282.000000	100.132061
1281.000000	100.130469
1280.000000	100.128632
1279.000000	100.127538
1278.000000	100.127693
1277.000000	100.127997
1276.000000	100.126427
1275.000000	100.122235
1274.000000	100.116913
1273.000000	100.113050
1272.000000	100.112846
1271.000000	100.117228
1270.000000	100.125006
1269.000000	100.132824
1268.000000	100.137230
1267.000000	100.137474
1266.000000	100.135819
1265.000000	100.134645
1264.000000	100.133811
1263.000000	100.131496
1262.000000	100.127136
1261.000000	100.122415
1260.000000	100.118984
1259.000000	100.116092
1258.000000	100.111697
1257.000000	100.105642
1256.000000	100.100019
1255.000000	100.095756
1254.000000	100.090536
1253.000000	100.081778
1252.000000	100.070633
1251.000000	100.060834
1250.000000	100.054051
1249.000000	100.048620
1248.000000	100.042665
1247.000000	100.035789
1246.000000	100.027312
1245.000000	100.015730
1244.000000	100.001292
1243.000000	99.986841
1242.000000	99.974473
1241.000000	99.962974
1240.000000	99.949891
1239.000000	99.934576
1238.000000	99.918065
1237.000000	99.901676
1236.000000	99.886930
1235.000000	99.875039
1234.000000	99.864901
1233.000000	99.852983
1232.000000	99.836313
1231.000000	99.814241
1230.000000	99.786852
1229.000000	99.754232
1228.000000	99.718495
1227.000000	99.683470
1226.000000	99.649727
1225.000000	99.612328
1224.000000	99.566543
1223.000000	99.513902
1222.000000	99.459593
1221.000000	99.405268
1220.000000	99.347801
1219.000000	99.284434
1218.000000	99.215982
1217.000000	99.145046
1216.000000	99.073384
1215.000000	99.000878
1214.000000	98.925503
1213.000000	98.845198
1212.000000	98.761069
1211.000000	98.677227
1210.000000	98.595979
1209.000000	98.515331
1208.000000	98.433111
1207.000000	98.350386
1206.000000	98.268006
1205.000000	98.183237
1204.000000	98.094272
1203.000000	98.005916
1202.000000	97.926029
1201.000000	97.856744
1200.000000	97.792562
1199.000000	97.726678
1198.000000	97.656264
1197.000000	97.581858
1196.000000	97.504558
1195.000000	97.424767
1194.000000	97.342395
1193.000000	97.257786
1192.000000	97.172457
1191.000000	97.088107
1190.000000	97.004718
1189.000000	96.920943
1188.000000	96.836357
1187.000000	96.751491
1186.000000	96.665610
1185.000000	96.576899
1184.000000	96.485309
1183.000000	96.392834
1182.000000	96.300443
1181.000000	96.206974
1180.000000	96.111296
1179.000000	96.013189
1178.000000	95.912118
1177.000000	95.807591
1176.000000	95.700029
1175.000000	95.588605
1174.000000	95.470181
1173.000000	95.345042
1172.000000	95.221675
1171.000000	95.109086
1170.000000	95.004642
1169.000000	94.896865
1168.000000	94.781607
1167.000000	94.668441
1166.000000	94.569642
1165.000000	94.491191
1164.000000	94.437728
1163.000000	94.417595
1162.000000	94.435900
1161.000000	94.485624
1160.000000	94.548730
1159.000000	94.603926
1158.000000	94.633932
1157.000000	94.630942
1156.000000	94.598161
1155.000000	94.544183
1154.000000	94.475163
1153.000000	94.394189
1152.000000	94.306064
1151.000000	94.216627
1150.000000	94.127043
1149.000000	94.034641
1148.000000	93.940171
1147.000000	93.848767
1146.000000	93.763218
1145.000000	93.681792
1144.000000	93.602416
1143.000000	93.522547
1142.000000	93.435906
1141.000000	93.337658
1140.000000	93.233120
1139.000000	93.132939
1138.000000	93.038738
1137.000000	92.942387
1136.000000	92.840472
1135.000000	92.739351
1134.000000	92.643353
1133.000000	92.548071
1132.000000	92.449240
1131.000000	92.348873
1130.000000	92.248436
1129.000000	92.144890
1128.000000	92.038219
1127.000000	91.934532
1126.000000	91.836719
1125.000000	91.739697
1124.000000	91.639489
1123.000000	91.539554
1122.000000	91.443560
1121.000000	91.348879
1120.000000	91.251386
1119.000000	91.150016
1118.000000	91.043653
1117.000000	90.931379
1116.000000	90.818754
1115.000000	90.714924
1114.000000	90.619678
1113.000000	90.522253
1112.000000	90.416895
1111.000000	90.310807
1110.000000	90.213119
1109.000000	90.124816
1108.000000	90.042481
1107.000000	89.962659
1106.000000	89.879488
1105.000000	89.787335
1104.000000	89.689127
1103.000000	89.594061
1102.000000	89.505501
1101.000000	89.419621
1100.000000	89.335789
1099.000000	89.257451
1098.000000	89.182490
1097.000000	89.104541
1096.000000	89.024546
1095.000000	88.949038
1094.000000	88.877003
1093.000000	88.801809
1092.000000	88.726369
1091.000000	88.661485
1090.000000	88.607839
1089.000000	88.554901
1088.000000	88.499488
1087.000000	88.449277
1086.000000	88.405318
1085.000000	88.358028
1084.000000	88.304928
1083.000000	88.255934
1082.000000	88.215598
1081.000000	88.175515
1080.000000	88.130204
1079.000000	88.085501
1078.000000	88.045020
1077.000000	88.002283
1076.000000	87.952255
1075.000000	87.896966
1074.000000	87.834140
1073.000000	87.753864
1072.000000	87.652220
1071.000000	87.535902
1070.000000	87.408793
1069.000000	87.266440
1068.000000	87.107926
1067.000000	86.939407
1066.000000	86.761273
1065.000000	86.566020
1064.000000	86.354807
1063.000000	86.143247
1062.000000	85.945475
1061.000000	85.764665
1060.000000	85.602105
1059.000000	85.459809
1058.000000	85.329602
1057.000000	85.195487
1056.000000	85.052159
1055.000000	84.907086
1054.000000	84.761384
1053.000000	84.605267
1052.000000	84.437053
1051.000000	84.268011
1050.000000	84.101049
1049.000000	83.924323
1048.000000	83.733701
1047.000000	83.540742
1046.000000	83.351727
1045.000000	83.159221
1044.000000	82.959795
1043.000000	82.760355
1042.000000	82.561455
1041.000000	82.354002
1040.000000	82.139745
1039.000000	81.936064
1038.000000	81.752352
1037.000000	81.579978
1036.000000	81.412989
1035.000000	81.259785
1034.000000	81.125629
1033.000000	81.002159
1032.000000	80.883050
1031.000000	80.772634
1030.000000	80.670834
1029.000000	80.567427
1028.000000	80.460007
1027.000000	80.361179
1026.000000	80.279802
1025.000000	80.210385
1024.000000	80.146279
1023.000000	80.086649
1022.000000	80.025890
1021.000000	79.954796
1020.000000	79.877749
1019.000000	79.809938
1018.000000	79.752301
1017.000000	79.688594
1016.000000	79.612672
1015.000000	79.538223
1014.000000	79.474701
1013.000000	79.413972
1012.000000	79.348483
1011.000000	79.283200
1010.000000	79.221431
1009.000000	79.157776
1008.000000	79.093651
1007.000000	79.041906
1006.000000	79.007323
1005.000000	78.978641
1004.000000	78.946945
1003.000000	78.916230
1002.000000	78.890043
1001.000000	78.864524
1000.000000	78.840296
999.000000	78.824317
998.000000	78.814516
997.000000	78.799639
996.000000	78.779613
995.000000	78.768833
994.000000	78.774389
993.000000	78.788563
992.000000	78.806980
991.000000	78.835143
990.000000	78.871407
989.000000	78.902949
988.000000	78.926320
987.000000	78.954904
986.000000	78.998985
985.000000	79.054642
984.000000	79.118045
983.000000	79.194251
982.000000	79.285977
981.000000	79.389950
980.000000	79.509521
979.000000	79.654515
978.000000	79.823430
977.000000	80.001605
976.000000	80.181815
975.000000	80.371132
974.000000	80.573343
973.000000	80.781064
972.000000	80.990010
971.000000	81.205318
970.000000	81.428524
969.000000	81.652991
968.000000	81.876805
967.000000	82.106239
966.000000	82.342544
965.000000	82.578892
964.000000	82.813237
963.000000	83.050049
962.000000	83.286627
961.000000	83.512230
960.000000	83.723885
959.000000	83.929039
958.000000	84.129920
957.000000	84.319840
956.000000	84.498371
955.000000	84.675648
954.000000	84.857113
953.000000	85.036952
952.000000	85.210065
951.000000	85.377135
950.000000	85.534778
949.000000	85.674645
948.000000	85.796349
947.000000	85.908536
946.000000	86.014201
945.000000	86.108887
944.000000	86.196642
943.000000	86.291787
942.000000	86.398129
941.000000	86.500770
940.000000	86.586755
939.000000	86.661673
938.000000	86.738632
937.000000	86.821626
936.000000	86.907446
935.000000	86.994358
934.000000	87.081624
933.000000	87.168343
932.000000	87.257723
931.000000	87.354600
930.000000	87.455622
929.000000	87.551131
928.000000	87.639483
927.000000	87.729269
926.000000	87.824545
925.000000	87.919054
924.000000	88.008832
923.000000	88.099021
922.000000	88.193165
921.000000	88.286154
920.000000	88.372906
919.000000	88.454608
918.000000	88.531878
917.000000	88.601400
916.000000	88.664110
915.000000	88.727785
914.000000	88.797329
913.000000	88.871604
912.000000	88.953635
911.000000	89.053563
910.000000	89.176053
909.000000	89.313633
908.000000	89.457440
907.000000	89.607166
906.000000	89.767223
905.000000	89.941643
904.000000	90.135427
903.000000	90.350992
902.000000	90.579280
901.000000	90.803536
900.000000	91.016427
899.000000	91.226067
898.000000	91.442500
897.000000	91.665790
896.000000	91.889024
895.000000	92.104227
894.000000	92.303046
893.000000	92.481309
892.000000	92.647568
891.000000	92.819374
890.000000	93.005208
889.000000	93.194894
888.000000	93.371807
887.000000	93.529484
886.000000	93.673120
885.000000	93.809988
884.000000	93.942883
883.000000	94.070821
882.000000	94.193678
881.000000	94.317030
880.000000	94.450826
879.000000	94.599236
878.000000	94.753794
877.000000	94.902430
876.000000	95.043280
875.000000	95.182775
874.000000	95.322866
873.000000	95.459549
872.000000	95.593038
871.000000	95.729223
870.000000	95.869661
869.000000	96.008982
868.000000	96.144352
867.000000	96.279732
866.000000	96.418137
865.000000	96.556286
864.000000	96.689705
863.000000	96.817561
862.000000	96.939844
861.000000	97.054979
860.000000	97.163499
859.000000	97.270319
858.000000	97.380094
857.000000	97.492223
856.000000	97.601800
855.000000	97.703448
854.000000	97.793935
853.000000	97.873908
852.000000	97.947702
851.000000	98.019177
850.000000	98.087548
849.000000	98.149368
848.000000	98.203312
847.000000	98.249353
846.000000	98.284251
845.000000	98.302603
844.000000	98.303285
843.000000	98.291573
842.000000	98.273867
841.000000	98.252056
840.000000	98.222193
839.000000	98.176077
838.000000	98.106228
837.000000	98.014549
836.000000	97.916435
835.000000	97.832152
834.000000	97.772422
833.000000	97.733981
832.000000	97.707434
831.000000	97.685334
830.000000	97.664857
829.000000	97.649197
828.000000	97.646197
827.000000	97.659439
826.000000	97.680692
825.000000	97.697593
824.000000	97.708094
823.000000	97.719738
822.000000	97.735946
821.000000	97.751583
820.000000	97.760694
819.000000	97.760024
818.000000	97.745651
817.000000	97.713163
816.000000	97.660363
815.000000	97.584250
814.000000	97.476960
813.000000	97.329861
812.000000	97.138324
811.000000	96.895250
810.000000	96.584149
809.000000	96.190625
808.000000	95.721705
807.000000	95.203360
806.000000	94.656668
805.000000	94.087812
804.000000	93.505737
803.000000	92.936706
802.000000	92.413635
801.000000	91.961530
800.000000	91.599256
799.000000	91.341629
798.000000	91.189908
797.000000	91.130111
796.000000	91.147054
795.000000	91.229907
794.000000	91.361089
793.000000	91.513911
792.000000	91.667412
791.000000	91.812341
790.000000	91.937939
789.000000	92.024780
788.000000	92.057140
787.000000	92.033340
786.000000	91.958389
785.000000	91.834527
784.000000	91.664875
783.000000	91.460274
782.000000	91.238568
781.000000	91.023477
780.000000	90.845966
779.000000	90.736187
778.000000	90.708087
777.000000	90.757888
776.000000	90.877227
775.000000	91.056534
774.000000	91.275542
773.000000	91.506072
772.000000	91.730318
771.000000	91.946263
770.000000	92.151712
769.000000	92.334127
768.000000	92.481603
767.000000	92.595042
766.000000	92.684152
765.000000	92.757868
764.000000	92.822364
763.000000	92.881936
762.000000	92.938290
761.000000	92.994153
760.000000	93.058567
759.000000	93.141138
758.000000	93.239609
757.000000	93.340989
756.000000	93.436250
755.000000	93.525936
754.000000	93.611009
753.000000	93.688442
752.000000	93.758869
751.000000	93.829689
750.000000	93.906761
749.000000	93.989695
748.000000	94.077365
747.000000	94.170709
746.000000	94.268396
745.000000	94.368111
744.000000	94.474939
743.000000	94.600479
742.000000	94.750178
741.000000	94.917803
740.000000	95.093497
739.000000	95.269475
738.000000	95.436762
737.000000	95.585947
736.000000	95.715245
735.000000	95.831215
734.000000	95.939066
733.000000	96.037853
732.000000	96.125920
731.000000	96.204074
730.000000	96.271682
729.000000	96.326518
728.000000	96.370890
727.000000	96.411802
726.000000	96.452908
725.000000	96.492380
724.000000	96.530858
723.000000	96.575890
722.000000	96.636203
721.000000	96.715251
720.000000	96.809932
719.000000	96.910772
718.000000	97.005053
717.000000	97.086211
716.000000	97.159508
715.000000	97.232948
714.000000	97.304534
713.000000	97.365829
712.000000	97.415801
711.000000	97.460588
710.000000	97.499696
709.000000	97.524134
708.000000	97.531085
707.000000	97.529752
706.000000	97.527160
705.000000	97.516069
704.000000	97.481540
703.000000	97.411408
702.000000	97.295204
701.000000	97.120366
700.000000	96.877662
699.000000	96.571404
698.000000	96.226768
697.000000	95.892512
696.000000	95.631139
695.000000	95.490582
694.000000	95.478695
693.000000	95.567212
692.000000	95.717424
691.000000	95.897105
690.000000	96.079514
689.000000	96.243801
688.000000	96.383657
687.000000	96.505901
686.000000	96.615912
685.000000	96.713452
684.000000	96.803063
683.000000	96.893971
682.000000	96.984814
681.000000	97.060812
680.000000	97.113337
679.000000	97.153404
678.000000	97.198730
677.000000	97.255401
676.000000	97.317990
675.000000	97.379381
674.000000	97.435192
673.000000	97.485241
672.000000	97.534877
671.000000	97.591495
670.000000	97.659932
669.000000	97.742751
668.000000	97.832261
667.000000	97.910409
666.000000	97.973179
665.000000	98.020854
664.000000	98.054183
663.000000	98.080091
662.000000	98.102238
661.000000	98.118511
660.000000	98.134100
659.000000	98.163382
658.000000	98.206827
657.000000	98.239017
656.000000	98.234955
655.000000	98.198384
654.000000	98.154161
653.000000	98.121638
652.000000	98.108467
651.000000	98.119639
650.000000	98.153975
649.000000	98.198540
648.000000	98.240258
647.000000	98.278698
646.000000	98.321911
645.000000	98.378522
644.000000	98.458813
643.000000	98.569573
642.000000	98.698553
641.000000	98.817919
640.000000	98.912218
639.000000	98.990520
638.000000	99.064876
637.000000	99.130437
636.000000	99.177786
635.000000	99.213141
634.000000	99.253322
633.000000	99.306479
632.000000	99.367405
631.000000	99.425718
630.000000	99.472513
629.000000	99.507376
628.000000	99.543664
627.000000	99.599339
626.000000	99.678625
625.000000	99.771471
624.000000	99.872672
623.000000	99.983993
622.000000	100.094248
621.000000	100.179405
620.000000	100.227580
619.000000	100.247786
618.000000	100.249532
617.000000	100.228277
616.000000	100.184639
615.000000	100.139382
614.000000	100.113048
613.000000	100.108332
612.000000	100.120149
611.000000	100.141781
610.000000	100.154343
609.000000	100.132144
608.000000	100.068486
607.000000	99.980988
606.000000	99.885883
605.000000	99.784829
604.000000	99.685035
603.000000	99.607667
602.000000	99.562419
601.000000	99.537525
600.000000	99.527888
599.000000	99.548369
598.000000	99.605081
597.000000	99.677829
596.000000	99.743152
595.000000	99.791027
594.000000	99.812122
593.000000	99.796059
592.000000	99.755442
591.000000	99.725696
590.000000	99.723171
589.000000	99.731311
588.000000	99.743687
587.000000	99.780426
586.000000	99.839644
585.000000	99.875868
584.000000	99.864065
583.000000	99.851720
582.000000	99.907995
581.000000	100.042029
580.000000	100.207695
579.000000	100.355176
578.000000	100.439182
577.000000	100.413031
576.000000	100.270509
575.000000	100.097116
574.000000	100.017969
573.000000	100.071410
572.000000	100.191014
571.000000	100.291261
570.000000	100.333791
569.000000	100.329334
568.000000	100.307863
567.000000	100.292736
566.000000	100.282553
565.000000	100.259283
564.000000	100.224133
563.000000	100.200641
562.000000	100.184909
561.000000	100.130992
560.000000	100.018358
559.000000	99.893811
558.000000	99.806878
557.000000	99.740389
556.000000	99.661960
555.000000	99.607674
554.000000	99.646514
553.000000	99.783258
552.000000	99.949935
551.000000	100.066049
550.000000	100.096315
