PE IR       SUBTECH     SPECTRUM    ASCII       PEDS        4.00        
   -1
BH1 8-7 27 0_1.asc
24/05/14
12:20:12.00
24/05/14
12:20:42.00
Administrator
?品 029 用? Administrator 日期 Tuesday, May 14 2024
550.000000
#HDR
-1
-1
#GR
cm-1
%T
1.0
0.0
4000.000000
-1.000000
3451
8
101.354446
93.530864
#DATA
4000.000000	101.303199
3999.000000	101.302329
3998.000000	101.301959
3997.000000	101.301896
3996.000000	101.301621
3995.000000	101.300695
3994.000000	101.298908
3993.000000	101.296336
3992.000000	101.293356
3991.000000	101.290567
3990.000000	101.288540
3989.000000	101.287591
3988.000000	101.287699
3987.000000	101.288488
3986.000000	101.289372
3985.000000	101.289969
3984.000000	101.290333
3983.000000	101.290705
3982.000000	101.291140
3981.000000	101.291458
3980.000000	101.291402
3979.000000	101.290734
3978.000000	101.289245
3977.000000	101.286955
3976.000000	101.284421
3975.000000	101.282612
3974.000000	101.282236
3973.000000	101.283232
3972.000000	101.284811
3971.000000	101.286029
3970.000000	101.286429
3969.000000	101.286189
3968.000000	101.285794
3967.000000	101.285482
3966.000000	101.284997
3965.000000	101.283941
3964.000000	101.282291
3963.000000	101.280514
3962.000000	101.279234
3961.000000	101.278774
3960.000000	101.278979
3959.000000	101.279322
3958.000000	101.279250
3957.000000	101.278612
3956.000000	101.277788
3955.000000	101.277349
3954.000000	101.277456
3953.000000	101.277671
3952.000000	101.277389
3951.000000	101.276470
3950.000000	101.275405
3949.000000	101.274900
3948.000000	101.275313
3947.000000	101.276537
3946.000000	101.278156
3945.000000	101.279624
3944.000000	101.280420
3943.000000	101.280247
3942.000000	101.279207
3941.000000	101.277814
3940.000000	101.276667
3939.000000	101.276037
3938.000000	101.275774
3937.000000	101.275552
3936.000000	101.275182
3935.000000	101.274666
3934.000000	101.274018
3933.000000	101.273249
3932.000000	101.272620
3931.000000	101.272695
3930.000000	101.273834
3929.000000	101.275683
3928.000000	101.277249
3927.000000	101.277550
3926.000000	101.276242
3925.000000	101.273812
3924.000000	101.271233
3923.000000	101.269308
3922.000000	101.268286
3921.000000	101.268001
3920.000000	101.268300
3919.000000	101.269275
3918.000000	101.271006
3917.000000	101.273121
3916.000000	101.274891
3915.000000	101.275818
3914.000000	101.275924
3913.000000	101.275392
3912.000000	101.274155
3911.000000	101.271963
3910.000000	101.268852
3909.000000	101.265411
3908.000000	101.262541
3907.000000	101.260749
3906.000000	101.259636
3905.000000	101.258180
3904.000000	101.255799
3903.000000	101.253197
3902.000000	101.251687
3901.000000	101.251595
3900.000000	101.252008
3899.000000	101.252242
3898.000000	101.252841
3897.000000	101.254838
3896.000000	101.258297
3895.000000	101.262015
3894.000000	101.264605
3893.000000	101.265519
3892.000000	101.265091
3891.000000	101.263645
3890.000000	101.261374
3889.000000	101.258804
3888.000000	101.256588
3887.000000	101.255277
3886.000000	101.255020
3885.000000	101.255347
3884.000000	101.255858
3883.000000	101.256723
3882.000000	101.258331
3881.000000	101.260913
3880.000000	101.264158
3879.000000	101.267194
3878.000000	101.269371
3877.000000	101.270342
3876.000000	101.269857
3875.000000	101.267972
3874.000000	101.264985
3873.000000	101.261251
3872.000000	101.257457
3871.000000	101.254810
3870.000000	101.254332
3869.000000	101.255930
3868.000000	101.258577
3867.000000	101.261085
3866.000000	101.262769
3865.000000	101.263884
3864.000000	101.265138
3863.000000	101.266763
3862.000000	101.268270
3861.000000	101.269151
3860.000000	101.269534
3859.000000	101.269996
3858.000000	101.270869
3857.000000	101.271945
3856.000000	101.272774
3855.000000	101.272909
3854.000000	101.271975
3853.000000	101.270234
3852.000000	101.269082
3851.000000	101.269625
3850.000000	101.271514
3849.000000	101.273645
3848.000000	101.275345
3847.000000	101.276609
3846.000000	101.277632
3845.000000	101.278469
3844.000000	101.279094
3843.000000	101.279583
3842.000000	101.280021
3841.000000	101.280295
3840.000000	101.280244
3839.000000	101.280045
3838.000000	101.280258
3837.000000	101.281321
3836.000000	101.283116
3835.000000	101.285016
3834.000000	101.286296
3833.000000	101.286580
3832.000000	101.285997
3831.000000	101.285068
3830.000000	101.284390
3829.000000	101.284300
3828.000000	101.284729
3827.000000	101.285377
3826.000000	101.286082
3825.000000	101.287037
3824.000000	101.288579
3823.000000	101.290768
3822.000000	101.292950
3821.000000	101.293941
3820.000000	101.293159
3819.000000	101.291209
3818.000000	101.289123
3817.000000	101.287567
3816.000000	101.286791
3815.000000	101.286748
3814.000000	101.287233
3813.000000	101.287845
3812.000000	101.288009
3811.000000	101.287379
3810.000000	101.286112
3809.000000	101.284796
3808.000000	101.284102
3807.000000	101.284263
3806.000000	101.285002
3805.000000	101.286041
3804.000000	101.287272
3803.000000	101.288591
3802.000000	101.289631
3801.000000	101.289645
3800.000000	101.288332
3799.000000	101.286320
3798.000000	101.284360
3797.000000	101.282886
3796.000000	101.282114
3795.000000	101.282009
3794.000000	101.282325
3793.000000	101.282739
3792.000000	101.282930
3791.000000	101.282642
3790.000000	101.281707
3789.000000	101.280219
3788.000000	101.278810
3787.000000	101.278491
3786.000000	101.279890
3785.000000	101.282572
3784.000000	101.285181
3783.000000	101.286507
3782.000000	101.286324
3781.000000	101.285278
3780.000000	101.284234
3779.000000	101.283570
3778.000000	101.283049
3777.000000	101.282240
3776.000000	101.280881
3775.000000	101.279069
3774.000000	101.277314
3773.000000	101.276270
3772.000000	101.276265
3771.000000	101.277017
3770.000000	101.277844
3769.000000	101.278314
3768.000000	101.278638
3767.000000	101.279139
3766.000000	101.279619
3765.000000	101.279584
3764.000000	101.278899
3763.000000	101.277907
3762.000000	101.276927
3761.000000	101.275872
3760.000000	101.274518
3759.000000	101.273020
3758.000000	101.271924
3757.000000	101.271570
3756.000000	101.271716
3755.000000	101.271774
3754.000000	101.271299
3753.000000	101.270248
3752.000000	101.268895
3751.000000	101.267555
3750.000000	101.266350
3749.000000	101.265292
3748.000000	101.264409
3747.000000	101.263658
3746.000000	101.263014
3745.000000	101.262475
3744.000000	101.261824
3743.000000	101.260967
3742.000000	101.260099
3741.000000	101.259107
3740.000000	101.257670
3739.000000	101.255755
3738.000000	101.253721
3737.000000	101.252109
3736.000000	101.251221
3735.000000	101.250919
3734.000000	101.250610
3733.000000	101.249738
3732.000000	101.248185
3731.000000	101.246226
3730.000000	101.244288
3729.000000	101.242645
3728.000000	101.241418
3727.000000	101.240703
3726.000000	101.240463
3725.000000	101.240346
3724.000000	101.239733
3723.000000	101.238115
3722.000000	101.235519
3721.000000	101.232645
3720.000000	101.230330
3719.000000	101.228676
3718.000000	101.226990
3717.000000	101.224637
3716.000000	101.221721
3715.000000	101.218846
3714.000000	101.216415
3713.000000	101.214402
3712.000000	101.212755
3711.000000	101.211665
3710.000000	101.211023
3709.000000	101.209951
3708.000000	101.207564
3707.000000	101.203881
3706.000000	101.199709
3705.000000	101.195928
3704.000000	101.193073
3703.000000	101.191423
3702.000000	101.190840
3701.000000	101.190493
3700.000000	101.189346
3699.000000	101.187062
3698.000000	101.184019
3697.000000	101.180633
3696.000000	101.176875
3695.000000	101.172580
3694.000000	101.168291
3693.000000	101.165457
3692.000000	101.165665
3691.000000	101.169569
3690.000000	101.175816
3689.000000	101.180851
3688.000000	101.181889
3687.000000	101.179720
3686.000000	101.176824
3685.000000	101.174219
3684.000000	101.171461
3683.000000	101.168400
3682.000000	101.165712
3681.000000	101.164039
3680.000000	101.162898
3679.000000	101.160790
3678.000000	101.156490
3677.000000	101.150407
3676.000000	101.144381
3675.000000	101.139279
3674.000000	101.134892
3673.000000	101.131702
3672.000000	101.130158
3671.000000	101.130039
3670.000000	101.130275
3669.000000	101.129260
3668.000000	101.126599
3667.000000	101.123234
3666.000000	101.119863
3665.000000	101.116534
3664.000000	101.113098
3663.000000	101.109454
3662.000000	101.105722
3661.000000	101.102330
3660.000000	101.099930
3659.000000	101.099106
3658.000000	101.099789
3657.000000	101.100804
3656.000000	101.100477
3655.000000	101.098629
3654.000000	101.096884
3653.000000	101.096428
3652.000000	101.096697
3651.000000	101.096320
3650.000000	101.094588
3649.000000	101.092124
3648.000000	101.089720
3647.000000	101.087274
3646.000000	101.084453
3645.000000	101.081330
3644.000000	101.078078
3643.000000	101.074493
3642.000000	101.070496
3641.000000	101.066701
3640.000000	101.064080
3639.000000	101.062922
3638.000000	101.062552
3637.000000	101.062335
3636.000000	101.062465
3635.000000	101.063304
3634.000000	101.064187
3633.000000	101.063626
3632.000000	101.060794
3631.000000	101.056507
3630.000000	101.052851
3629.000000	101.050816
3628.000000	101.049055
3627.000000	101.046433
3626.000000	101.043501
3625.000000	101.040879
3624.000000	101.038674
3623.000000	101.036896
3622.000000	101.035478
3621.000000	101.034288
3620.000000	101.033293
3619.000000	101.032565
3618.000000	101.032044
3617.000000	101.031537
3616.000000	101.030870
3615.000000	101.030196
3614.000000	101.029992
3613.000000	101.030359
3612.000000	101.030464
3611.000000	101.029229
3610.000000	101.026610
3609.000000	101.023940
3608.000000	101.022651
3607.000000	101.022787
3606.000000	101.023252
3605.000000	101.023204
3604.000000	101.022697
3603.000000	101.022141
3602.000000	101.021532
3601.000000	101.020482
3600.000000	101.018859
3599.000000	101.017098
3598.000000	101.015805
3597.000000	101.015178
3596.000000	101.014827
3595.000000	101.014092
3594.000000	101.012475
3593.000000	101.009883
3592.000000	101.006591
3591.000000	101.003100
3590.000000	101.000128
3589.000000	100.998479
3588.000000	100.998536
3587.000000	100.999773
3586.000000	101.000985
3585.000000	101.001322
3584.000000	101.000705
3583.000000	100.999400
3582.000000	100.997704
3581.000000	100.995894
3580.000000	100.994243
3579.000000	100.992950
3578.000000	100.992036
3577.000000	100.991362
3576.000000	100.990769
3575.000000	100.990152
3574.000000	100.989405
3573.000000	100.988345
3572.000000	100.986791
3571.000000	100.984706
3570.000000	100.982266
3569.000000	100.979859
3568.000000	100.977951
3567.000000	100.976745
3566.000000	100.975993
3565.000000	100.975191
3564.000000	100.974020
3563.000000	100.972493
3562.000000	100.970806
3561.000000	100.969175
3560.000000	100.967712
3559.000000	100.966379
3558.000000	100.965042
3557.000000	100.963599
3556.000000	100.962073
3555.000000	100.960607
3554.000000	100.959341
3553.000000	100.958260
3552.000000	100.957156
3551.000000	100.955800
3550.000000	100.954166
3549.000000	100.952484
3548.000000	100.951087
3547.000000	100.950175
3546.000000	100.949618
3545.000000	100.948941
3544.000000	100.947684
3543.000000	100.945764
3542.000000	100.943442
3541.000000	100.940949
3540.000000	100.938328
3539.000000	100.935783
3538.000000	100.933904
3537.000000	100.933225
3536.000000	100.933483
3535.000000	100.933610
3534.000000	100.932592
3533.000000	100.930129
3532.000000	100.926497
3531.000000	100.922241
3530.000000	100.918161
3529.000000	100.915214
3528.000000	100.913922
3527.000000	100.913906
3526.000000	100.914335
3525.000000	100.914741
3524.000000	100.915126
3523.000000	100.915427
3522.000000	100.915335
3521.000000	100.914721
3520.000000	100.913955
3519.000000	100.913597
3518.000000	100.913935
3517.000000	100.914935
3516.000000	100.916363
3515.000000	100.917735
3514.000000	100.918286
3513.000000	100.917372
3512.000000	100.914989
3511.000000	100.911781
3510.000000	100.908430
3509.000000	100.905099
3508.000000	100.901564
3507.000000	100.897728
3506.000000	100.893902
3505.000000	100.890761
3504.000000	100.889079
3503.000000	100.889231
3502.000000	100.890664
3501.000000	100.891834
3500.000000	100.891115
3499.000000	100.888048
3498.000000	100.883835
3497.000000	100.880532
3496.000000	100.879166
3495.000000	100.878778
3494.000000	100.877408
3493.000000	100.874164
3492.000000	100.870141
3491.000000	100.867323
3490.000000	100.866703
3489.000000	100.867616
3488.000000	100.868558
3487.000000	100.868399
3486.000000	100.866934
3485.000000	100.864637
3484.000000	100.862272
3483.000000	100.860559
3482.000000	100.859831
3481.000000	100.859820
3480.000000	100.859820
3479.000000	100.859261
3478.000000	100.858156
3477.000000	100.856987
3476.000000	100.856141
3475.000000	100.855482
3474.000000	100.854547
3473.000000	100.853126
3472.000000	100.851502
3471.000000	100.850030
3470.000000	100.848603
3469.000000	100.846746
3468.000000	100.844310
3467.000000	100.841921
3466.000000	100.840491
3465.000000	100.840233
3464.000000	100.840350
3463.000000	100.839846
3462.000000	100.838471
3461.000000	100.836585
3460.000000	100.834237
3459.000000	100.830928
3458.000000	100.826548
3457.000000	100.822076
3456.000000	100.818801
3455.000000	100.816947
3454.000000	100.815594
3453.000000	100.813958
3452.000000	100.812305
3451.000000	100.811352
3450.000000	100.811068
3449.000000	100.810461
3448.000000	100.808543
3447.000000	100.805302
3446.000000	100.801787
3445.000000	100.799287
3444.000000	100.798314
3443.000000	100.798201
3442.000000	100.797594
3441.000000	100.795667
3440.000000	100.792906
3439.000000	100.790639
3438.000000	100.789725
3437.000000	100.789767
3436.000000	100.789524
3435.000000	100.788058
3434.000000	100.785413
3433.000000	100.782419
3432.000000	100.779923
3431.000000	100.778152
3430.000000	100.776714
3429.000000	100.775231
3428.000000	100.773921
3427.000000	100.773355
3426.000000	100.773636
3425.000000	100.774075
3424.000000	100.773900
3423.000000	100.773201
3422.000000	100.772805
3421.000000	100.773103
3420.000000	100.773369
3419.000000	100.772582
3418.000000	100.770767
3417.000000	100.769133
3416.000000	100.768740
3415.000000	100.769326
3414.000000	100.769719
3413.000000	100.769274
3412.000000	100.768370
3411.000000	100.767445
3410.000000	100.766215
3409.000000	100.764369
3408.000000	100.762532
3407.000000	100.761760
3406.000000	100.762153
3405.000000	100.762711
3404.000000	100.762811
3403.000000	100.763165
3402.000000	100.764701
3401.000000	100.766881
3400.000000	100.767906
3399.000000	100.766602
3398.000000	100.763454
3397.000000	100.759777
3396.000000	100.756236
3395.000000	100.752671
3394.000000	100.749128
3393.000000	100.746463
3392.000000	100.745686
3391.000000	100.746882
3390.000000	100.748944
3389.000000	100.750331
3388.000000	100.750214
3387.000000	100.749046
3386.000000	100.748214
3385.000000	100.748906
3384.000000	100.751020
3383.000000	100.753074
3382.000000	100.753436
3381.000000	100.751785
3380.000000	100.749322
3379.000000	100.747550
3378.000000	100.746872
3377.000000	100.746575
3376.000000	100.746020
3375.000000	100.745507
3374.000000	100.745859
3373.000000	100.747457
3372.000000	100.749803
3371.000000	100.751885
3370.000000	100.752916
3369.000000	100.752910
3368.000000	100.752777
3367.000000	100.753680
3366.000000	100.756008
3365.000000	100.758898
3364.000000	100.760914
3363.000000	100.761322
3362.000000	100.760637
3361.000000	100.760027
3360.000000	100.760202
3359.000000	100.760872
3358.000000	100.761181
3357.000000	100.760604
3356.000000	100.759496
3355.000000	100.758841
3354.000000	100.759403
3353.000000	100.761138
3352.000000	100.763344
3351.000000	100.765368
3350.000000	100.767115
3349.000000	100.768803
3348.000000	100.770347
3347.000000	100.771171
3346.000000	100.770800
3345.000000	100.769629
3344.000000	100.768774
3343.000000	100.768914
3342.000000	100.769479
3341.000000	100.769308
3340.000000	100.768157
3339.000000	100.767157
3338.000000	100.767446
3337.000000	100.768756
3336.000000	100.769858
3335.000000	100.770221
3334.000000	100.770757
3333.000000	100.772757
3332.000000	100.776420
3331.000000	100.780608
3330.000000	100.783897
3329.000000	100.785906
3328.000000	100.787568
3327.000000	100.790109
3326.000000	100.793691
3325.000000	100.797109
3324.000000	100.798936
3323.000000	100.798831
3322.000000	100.797600
3321.000000	100.796198
3320.000000	100.795019
3319.000000	100.794172
3318.000000	100.793920
3317.000000	100.794516
3316.000000	100.795822
3315.000000	100.797478
3314.000000	100.799360
3313.000000	100.801578
3312.000000	100.803964
3311.000000	100.805923
3310.000000	100.807010
3309.000000	100.807463
3308.000000	100.808004
3307.000000	100.809144
3306.000000	100.810808
3305.000000	100.812556
3304.000000	100.813967
3303.000000	100.814833
3302.000000	100.815256
3301.000000	100.815660
3300.000000	100.816600
3299.000000	100.818286
3298.000000	100.820404
3297.000000	100.822413
3296.000000	100.824004
3295.000000	100.825235
3294.000000	100.826321
3293.000000	100.827467
3292.000000	100.828817
3291.000000	100.830415
3290.000000	100.832169
3289.000000	100.833900
3288.000000	100.835481
3287.000000	100.836934
3286.000000	100.838352
3285.000000	100.839778
3284.000000	100.841193
3283.000000	100.842591
3282.000000	100.844001
3281.000000	100.845458
3280.000000	100.846970
3279.000000	100.848521
3278.000000	100.850090
3277.000000	100.851651
3276.000000	100.853188
3275.000000	100.854702
3274.000000	100.856197
3273.000000	100.857680
3272.000000	100.859159
3271.000000	100.860645
3270.000000	100.862147
3269.000000	100.863674
3268.000000	100.865223
3267.000000	100.866791
3266.000000	100.868371
3265.000000	100.869961
3264.000000	100.871560
3263.000000	100.873176
3262.000000	100.874817
3261.000000	100.876491
3260.000000	100.878199
3259.000000	100.879932
3258.000000	100.881674
3257.000000	100.883413
3256.000000	100.885148
3255.000000	100.886885
3254.000000	100.888631
3253.000000	100.890386
3252.000000	100.892145
3251.000000	100.893900
3250.000000	100.895650
3249.000000	100.897398
3248.000000	100.899150
3247.000000	100.900906
3246.000000	100.902666
3245.000000	100.904434
3244.000000	100.906218
3243.000000	100.908028
3242.000000	100.909876
3241.000000	100.911763
3240.000000	100.913674
3239.000000	100.915590
3238.000000	100.917495
3237.000000	100.919375
3236.000000	100.921218
3235.000000	100.923019
3234.000000	100.924804
3233.000000	100.926624
3232.000000	100.928518
3231.000000	100.930494
3230.000000	100.932536
3229.000000	100.934617
3228.000000	100.936717
3227.000000	100.938825
3226.000000	100.940956
3225.000000	100.943141
3224.000000	100.945371
3223.000000	100.947523
3222.000000	100.949431
3221.000000	100.951037
3220.000000	100.952454
3219.000000	100.953907
3218.000000	100.955589
3217.000000	100.957571
3216.000000	100.959764
3215.000000	100.961958
3214.000000	100.963962
3213.000000	100.965748
3212.000000	100.967405
3211.000000	100.969025
3210.000000	100.970651
3209.000000	100.972342
3208.000000	100.974206
3207.000000	100.976287
3206.000000	100.978444
3205.000000	100.980451
3204.000000	100.982251
3203.000000	100.984023
3202.000000	100.985934
3201.000000	100.987876
3200.000000	100.989558
3199.000000	100.990879
3198.000000	100.992073
3197.000000	100.993433
3196.000000	100.994972
3195.000000	100.996478
3194.000000	100.997890
3193.000000	100.999505
3192.000000	101.001735
3191.000000	101.004709
3190.000000	101.008063
3189.000000	101.011099
3188.000000	101.013268
3187.000000	101.014475
3186.000000	101.015081
3185.000000	101.015622
3184.000000	101.016489
3183.000000	101.017856
3182.000000	101.019724
3181.000000	101.021853
3180.000000	101.023743
3179.000000	101.024950
3178.000000	101.025551
3177.000000	101.026193
3176.000000	101.027482
3175.000000	101.029412
3174.000000	101.031429
3173.000000	101.033058
3172.000000	101.034357
3171.000000	101.035782
3170.000000	101.037719
3169.000000	101.040145
3168.000000	101.042655
3167.000000	101.044880
3166.000000	101.046916
3165.000000	101.049194
3164.000000	101.051881
3163.000000	101.054571
3162.000000	101.056725
3161.000000	101.058301
3160.000000	101.059702
3159.000000	101.061170
3158.000000	101.062531
3157.000000	101.063665
3156.000000	101.064948
3155.000000	101.066978
3154.000000	101.069904
3153.000000	101.073081
3152.000000	101.075496
3151.000000	101.076641
3150.000000	101.076911
3149.000000	101.077323
3148.000000	101.078589
3147.000000	101.080547
3146.000000	101.082556
3145.000000	101.084269
3144.000000	101.085880
3143.000000	101.087626
3142.000000	101.089324
3141.000000	101.090588
3140.000000	101.091358
3139.000000	101.092041
3138.000000	101.093130
3137.000000	101.094721
3136.000000	101.096347
3135.000000	101.097332
3134.000000	101.097464
3133.000000	101.097350
3132.000000	101.097918
3131.000000	101.099509
3130.000000	101.101689
3129.000000	101.103953
3128.000000	101.106319
3127.000000	101.109002
3126.000000	101.111859
3125.000000	101.114486
3124.000000	101.116670
3123.000000	101.118420
3122.000000	101.119662
3121.000000	101.120234
3120.000000	101.120136
3119.000000	101.119503
3118.000000	101.118428
3117.000000	101.117148
3116.000000	101.116353
3115.000000	101.116846
3114.000000	101.118739
3113.000000	101.121283
3112.000000	101.123651
3111.000000	101.125704
3110.000000	101.127779
3109.000000	101.130065
3108.000000	101.132461
3107.000000	101.134806
3106.000000	101.136870
3105.000000	101.138242
3104.000000	101.138682
3103.000000	101.138555
3102.000000	101.138631
3101.000000	101.139310
3100.000000	101.140315
3099.000000	101.141228
3098.000000	101.142037
3097.000000	101.142988
3096.000000	101.144187
3095.000000	101.145632
3094.000000	101.147505
3093.000000	101.150072
3092.000000	101.153272
3091.000000	101.156557
3090.000000	101.159170
3089.000000	101.160553
3088.000000	101.160593
3087.000000	101.159770
3086.000000	101.159106
3085.000000	101.159562
3084.000000	101.161382
3083.000000	101.164051
3082.000000	101.166826
3081.000000	101.169271
3080.000000	101.171223
3079.000000	101.172526
3078.000000	101.173129
3077.000000	101.173330
3076.000000	101.173608
3075.000000	101.174172
3074.000000	101.174896
3073.000000	101.175739
3072.000000	101.176953
3071.000000	101.178659
3070.000000	101.180366
3069.000000	101.181252
3068.000000	101.181044
3067.000000	101.180398
3066.000000	101.180209
3065.000000	101.180635
3064.000000	101.181031
3063.000000	101.180911
3062.000000	101.180657
3061.000000	101.181037
3060.000000	101.182206
3059.000000	101.183521
3058.000000	101.184330
3057.000000	101.184701
3056.000000	101.185222
3055.000000	101.186239
3054.000000	101.187508
3053.000000	101.188524
3052.000000	101.188998
3051.000000	101.189016
3050.000000	101.188906
3049.000000	101.189013
3048.000000	101.189533
3047.000000	101.190469
3046.000000	101.191607
3045.000000	101.192513
3044.000000	101.192759
3043.000000	101.192467
3042.000000	101.192534
3041.000000	101.193796
3040.000000	101.195871
3039.000000	101.197349
3038.000000	101.197438
3037.000000	101.197017
3036.000000	101.197600
3035.000000	101.199444
3034.000000	101.201045
3033.000000	101.200418
3032.000000	101.196709
3031.000000	101.190988
3030.000000	101.185914
3029.000000	101.183846
3028.000000	101.184478
3027.000000	101.184550
3026.000000	101.180916
3025.000000	101.174130
3024.000000	101.168280
3023.000000	101.167048
3022.000000	101.170576
3021.000000	101.176065
3020.000000	101.180587
3019.000000	101.182913
3018.000000	101.183154
3017.000000	101.181708
3016.000000	101.178896
3015.000000	101.175335
3014.000000	101.172363
3013.000000	101.171568
3012.000000	101.173352
3011.000000	101.176075
3010.000000	101.177354
3009.000000	101.176386
3008.000000	101.174417
3007.000000	101.172870
3006.000000	101.171646
3005.000000	101.169416
3004.000000	101.164863
3003.000000	101.157472
3002.000000	101.148117
3001.000000	101.139494
3000.000000	101.134984
2999.000000	101.135803
2998.000000	101.139344
2997.000000	101.141181
2996.000000	101.138789
2995.000000	101.132942
2994.000000	101.125768
2993.000000	101.118157
2992.000000	101.109059
2991.000000	101.096762
2990.000000	101.080877
2989.000000	101.063628
2988.000000	101.049027
2987.000000	101.039860
2986.000000	101.034821
2985.000000	101.028860
2984.000000	101.016850
2983.000000	100.997403
2982.000000	100.973633
2981.000000	100.951011
2980.000000	100.934343
2979.000000	100.925735
2978.000000	100.924123
2977.000000	100.926474
2976.000000	100.930107
2975.000000	100.934403
2974.000000	100.940140
2973.000000	100.947403
2972.000000	100.955054
2971.000000	100.962751
2970.000000	100.972580
2969.000000	100.987343
2968.000000	101.007262
2967.000000	101.029420
2966.000000	101.050822
2965.000000	101.070869
2964.000000	101.090075
2963.000000	101.107453
2962.000000	101.120682
2961.000000	101.128709
2960.000000	101.132877
2959.000000	101.135370
2958.000000	101.137499
2957.000000	101.139836
2956.000000	101.142825
2955.000000	101.146408
2954.000000	101.149623
2953.000000	101.151541
2952.000000	101.152446
2951.000000	101.153397
2950.000000	101.154575
2949.000000	101.154627
2948.000000	101.151971
2947.000000	101.146592
2946.000000	101.140421
2945.000000	101.135927
2944.000000	101.134396
2943.000000	101.135382
2942.000000	101.137342
2941.000000	101.138443
2940.000000	101.137101
2939.000000	101.132689
2938.000000	101.126278
2937.000000	101.120335
2936.000000	101.117092
2935.000000	101.117109
2934.000000	101.119459
2933.000000	101.122726
2932.000000	101.125622
2931.000000	101.127390
2930.000000	101.128391
2929.000000	101.129860
2928.000000	101.132209
2927.000000	101.133829
2926.000000	101.132503
2925.000000	101.128086
2924.000000	101.122983
2923.000000	101.119902
2922.000000	101.119917
2921.000000	101.122678
2920.000000	101.127205
2919.000000	101.131815
2918.000000	101.134410
2917.000000	101.134053
2916.000000	101.132024
2915.000000	101.130574
2914.000000	101.130594
2913.000000	101.131150
2912.000000	101.131147
2911.000000	101.130600
2910.000000	101.129888
2909.000000	101.128453
2908.000000	101.125113
2907.000000	101.119707
2906.000000	101.113913
2905.000000	101.110011
2904.000000	101.109027
2903.000000	101.110390
2902.000000	101.112941
2901.000000	101.115768
2900.000000	101.118077
2899.000000	101.119275
2898.000000	101.119537
2897.000000	101.119752
2896.000000	101.120278
2895.000000	101.120210
2894.000000	101.118517
2893.000000	101.115619
2892.000000	101.113070
2891.000000	101.111898
2890.000000	101.112085
2889.000000	101.113446
2888.000000	101.115940
2887.000000	101.119014
2886.000000	101.121579
2885.000000	101.123094
2884.000000	101.124093
2883.000000	101.125384
2882.000000	101.127278
2881.000000	101.129884
2880.000000	101.133434
2879.000000	101.137710
2878.000000	101.141622
2877.000000	101.144115
2876.000000	101.145376
2875.000000	101.146632
2874.000000	101.148707
2873.000000	101.151138
2872.000000	101.152922
2871.000000	101.153879
2870.000000	101.154949
2869.000000	101.157110
2868.000000	101.160247
2867.000000	101.163320
2866.000000	101.165547
2865.000000	101.167087
2864.000000	101.168541
2863.000000	101.170199
2862.000000	101.172084
2861.000000	101.174351
2860.000000	101.177130
2859.000000	101.180076
2858.000000	101.182496
2857.000000	101.183975
2856.000000	101.184628
2855.000000	101.184772
2854.000000	101.184694
2853.000000	101.184781
2852.000000	101.185586
2851.000000	101.187565
2850.000000	101.190783
2849.000000	101.194914
2848.000000	101.199337
2847.000000	101.203266
2846.000000	101.206077
2845.000000	101.207590
2844.000000	101.208089
2843.000000	101.208108
2842.000000	101.208198
2841.000000	101.208813
2840.000000	101.210194
2839.000000	101.212252
2838.000000	101.214581
2837.000000	101.216706
2836.000000	101.218373
2835.000000	101.219627
2834.000000	101.220680
2833.000000	101.221731
2832.000000	101.222829
2831.000000	101.223897
2830.000000	101.224930
2829.000000	101.226100
2828.000000	101.227545
2827.000000	101.229094
2826.000000	101.230397
2825.000000	101.231362
2824.000000	101.232304
2823.000000	101.233593
2822.000000	101.235224
2821.000000	101.236827
2820.000000	101.238060
2819.000000	101.238957
2818.000000	101.239878
2817.000000	101.241163
2816.000000	101.242796
2815.000000	101.244382
2814.000000	101.245508
2813.000000	101.246225
2812.000000	101.247086
2811.000000	101.248514
2810.000000	101.250184
2809.000000	101.251308
2808.000000	101.251515
2807.000000	101.251320
2806.000000	101.251613
2805.000000	101.252737
2804.000000	101.254186
2803.000000	101.255146
2802.000000	101.255304
2801.000000	101.255130
2800.000000	101.255345
2799.000000	101.256167
2798.000000	101.257208
2797.000000	101.257919
2796.000000	101.258009
2795.000000	101.257579
2794.000000	101.257155
2793.000000	101.257462
2792.000000	101.258761
2791.000000	101.260482
2790.000000	101.261822
2789.000000	101.262743
2788.000000	101.263984
2787.000000	101.266047
2786.000000	101.268603
2785.000000	101.270970
2784.000000	101.272839
2783.000000	101.274295
2782.000000	101.275445
2781.000000	101.276268
2780.000000	101.276594
2779.000000	101.276189
2778.000000	101.275032
2777.000000	101.273574
2776.000000	101.272564
2775.000000	101.272422
2774.000000	101.272975
2773.000000	101.273831
2772.000000	101.274726
2771.000000	101.275478
2770.000000	101.275882
2769.000000	101.275860
2768.000000	101.275596
2767.000000	101.275406
2766.000000	101.275475
2765.000000	101.275793
2764.000000	101.276249
2763.000000	101.276740
2762.000000	101.277206
2761.000000	101.277615
2760.000000	101.277940
2759.000000	101.278160
2758.000000	101.278299
2757.000000	101.278422
2756.000000	101.278600
2755.000000	101.278848
2754.000000	101.279130
2753.000000	101.279416
2752.000000	101.279692
2751.000000	101.279956
2750.000000	101.280204
2749.000000	101.280434
2748.000000	101.280652
2747.000000	101.280868
2746.000000	101.281092
2745.000000	101.281327
2744.000000	101.281568
2743.000000	101.281809
2742.000000	101.282052
2741.000000	101.282304
2740.000000	101.282578
2739.000000	101.282876
2738.000000	101.283196
2737.000000	101.283532
2736.000000	101.283883
2735.000000	101.284253
2734.000000	101.284638
2733.000000	101.285041
2732.000000	101.285477
2731.000000	101.285941
2730.000000	101.286387
2729.000000	101.286752
2728.000000	101.287025
2727.000000	101.287289
2726.000000	101.287635
2725.000000	101.288046
2724.000000	101.288418
2723.000000	101.288686
2722.000000	101.288906
2721.000000	101.289224
2720.000000	101.289787
2719.000000	101.290601
2718.000000	101.291467
2717.000000	101.292140
2716.000000	101.292580
2715.000000	101.292973
2714.000000	101.293519
2713.000000	101.294333
2712.000000	101.295518
2711.000000	101.297067
2710.000000	101.298621
2709.000000	101.299624
2708.000000	101.299895
2707.000000	101.299869
2706.000000	101.300056
2705.000000	101.300413
2704.000000	101.300445
2703.000000	101.299770
2702.000000	101.298493
2701.000000	101.297219
2700.000000	101.296703
2699.000000	101.297315
2698.000000	101.298775
2697.000000	101.300470
2696.000000	101.301915
2695.000000	101.302811
2694.000000	101.302829
2693.000000	101.301954
2692.000000	101.300903
2691.000000	101.300593
2690.000000	101.301082
2689.000000	101.301495
2688.000000	101.301224
2687.000000	101.300683
2686.000000	101.300609
2685.000000	101.301065
2684.000000	101.301567
2683.000000	101.301842
2682.000000	101.302031
2681.000000	101.302249
2680.000000	101.302346
2679.000000	101.302125
2678.000000	101.301575
2677.000000	101.300872
2676.000000	101.300281
2675.000000	101.300024
2674.000000	101.300129
2673.000000	101.300474
2672.000000	101.301034
2671.000000	101.301941
2670.000000	101.303149
2669.000000	101.304163
2668.000000	101.304363
2667.000000	101.303544
2666.000000	101.302014
2665.000000	101.300297
2664.000000	101.298807
2663.000000	101.297731
2662.000000	101.297100
2661.000000	101.296938
2660.000000	101.297334
2659.000000	101.298235
2658.000000	101.299187
2657.000000	101.299573
2656.000000	101.299284
2655.000000	101.298927
2654.000000	101.299144
2653.000000	101.299791
2652.000000	101.300054
2651.000000	101.299397
2650.000000	101.298064
2649.000000	101.296786
2648.000000	101.296085
2647.000000	101.295921
2646.000000	101.295864
2645.000000	101.295543
2644.000000	101.295037
2643.000000	101.294763
2642.000000	101.294900
2641.000000	101.295098
2640.000000	101.294983
2639.000000	101.294809
2638.000000	101.295188
2637.000000	101.296256
2636.000000	101.297408
2635.000000	101.297914
2634.000000	101.297634
2633.000000	101.296912
2632.000000	101.296119
2631.000000	101.295404
2630.000000	101.294885
2629.000000	101.294735
2628.000000	101.294979
2627.000000	101.295400
2626.000000	101.295756
2625.000000	101.295981
2624.000000	101.296124
2623.000000	101.296222
2622.000000	101.296291
2621.000000	101.296372
2620.000000	101.296475
2619.000000	101.296521
2618.000000	101.296406
2617.000000	101.296129
2616.000000	101.295814
2615.000000	101.295589
2614.000000	101.295478
2613.000000	101.295422
2612.000000	101.295378
2611.000000	101.295369
2610.000000	101.295436
2609.000000	101.295564
2608.000000	101.295665
2607.000000	101.295662
2606.000000	101.295579
2605.000000	101.295526
2604.000000	101.295592
2603.000000	101.295751
2602.000000	101.295878
2601.000000	101.295836
2600.000000	101.295551
2599.000000	101.295025
2598.000000	101.294318
2597.000000	101.293541
2596.000000	101.292874
2595.000000	101.292543
2594.000000	101.292671
2593.000000	101.293149
2592.000000	101.293680
2591.000000	101.293917
2590.000000	101.293725
2589.000000	101.293207
2588.000000	101.292678
2587.000000	101.292408
2586.000000	101.292396
2585.000000	101.292394
2584.000000	101.292194
2583.000000	101.291867
2582.000000	101.291699
2581.000000	101.291871
2580.000000	101.292274
2579.000000	101.292637
2578.000000	101.292771
2577.000000	101.292643
2576.000000	101.292340
2575.000000	101.292003
2574.000000	101.291721
2573.000000	101.291394
2572.000000	101.290774
2571.000000	101.289764
2570.000000	101.288643
2569.000000	101.287874
2568.000000	101.287660
2567.000000	101.287795
2566.000000	101.287966
2565.000000	101.288092
2564.000000	101.288323
2563.000000	101.288756
2562.000000	101.289212
2561.000000	101.289314
2560.000000	101.288829
2559.000000	101.287995
2558.000000	101.287416
2557.000000	101.287489
2556.000000	101.287991
2555.000000	101.288368
2554.000000	101.288444
2553.000000	101.288591
2552.000000	101.289137
2551.000000	101.289839
2550.000000	101.290112
2549.000000	101.289622
2548.000000	101.288427
2547.000000	101.286808
2546.000000	101.285141
2545.000000	101.283800
2544.000000	101.282974
2543.000000	101.282574
2542.000000	101.282505
2541.000000	101.282889
2540.000000	101.283759
2539.000000	101.284623
2538.000000	101.284733
2537.000000	101.283864
2536.000000	101.282615
2535.000000	101.281876
2534.000000	101.281953
2533.000000	101.282447
2532.000000	101.282783
2531.000000	101.282747
2530.000000	101.282505
2529.000000	101.282289
2528.000000	101.282168
2527.000000	101.281998
2526.000000	101.281538
2525.000000	101.280728
2524.000000	101.279892
2523.000000	101.279483
2522.000000	101.279533
2521.000000	101.279577
2520.000000	101.279301
2519.000000	101.279080
2518.000000	101.279519
2517.000000	101.280627
2516.000000	101.281757
2515.000000	101.282381
2514.000000	101.282619
2513.000000	101.282868
2512.000000	101.283200
2511.000000	101.283357
2510.000000	101.283209
2509.000000	101.282917
2508.000000	101.282696
2507.000000	101.282590
2506.000000	101.282539
2505.000000	101.282502
2504.000000	101.282466
2503.000000	101.282448
2502.000000	101.282561
2501.000000	101.282977
2500.000000	101.283741
2499.000000	101.284643
2498.000000	101.285344
2497.000000	101.285673
2496.000000	101.285753
2495.000000	101.285829
2494.000000	101.285974
2493.000000	101.286001
2492.000000	101.285738
2491.000000	101.285373
2490.000000	101.285408
2489.000000	101.286179
2488.000000	101.287533
2487.000000	101.288901
2486.000000	101.289798
2485.000000	101.290110
2484.000000	101.289901
2483.000000	101.289247
2482.000000	101.288364
2481.000000	101.287711
2480.000000	101.287643
2479.000000	101.288085
2478.000000	101.288665
2477.000000	101.289171
2476.000000	101.289704
2475.000000	101.290319
2474.000000	101.290804
2473.000000	101.290937
2472.000000	101.290809
2471.000000	101.290710
2470.000000	101.290791
2469.000000	101.290962
2468.000000	101.291087
2467.000000	101.291149
2466.000000	101.291259
2465.000000	101.291534
2464.000000	101.291990
2463.000000	101.292541
2462.000000	101.293137
2461.000000	101.293862
2460.000000	101.294790
2459.000000	101.295735
2458.000000	101.296321
2457.000000	101.296373
2456.000000	101.296081
2455.000000	101.295753
2454.000000	101.295526
2453.000000	101.295378
2452.000000	101.295274
2451.000000	101.295206
2450.000000	101.295203
2449.000000	101.295359
2448.000000	101.295738
2447.000000	101.296236
2446.000000	101.296631
2445.000000	101.296857
2444.000000	101.297062
2443.000000	101.297360
2442.000000	101.297685
2441.000000	101.297914
2440.000000	101.297995
2439.000000	101.297951
2438.000000	101.297848
2437.000000	101.297789
2436.000000	101.297865
2435.000000	101.298058
2434.000000	101.298280
2433.000000	101.298450
2432.000000	101.298567
2431.000000	101.298675
2430.000000	101.298795
2429.000000	101.298913
2428.000000	101.299014
2427.000000	101.299099
2426.000000	101.299177
2425.000000	101.299258
2424.000000	101.299346
2423.000000	101.299438
2422.000000	101.299531
2421.000000	101.299621
2420.000000	101.299705
2419.000000	101.299785
2418.000000	101.299868
2417.000000	101.299959
2416.000000	101.300063
2415.000000	101.300181
2414.000000	101.300312
2413.000000	101.300452
2412.000000	101.300602
2411.000000	101.300761
2410.000000	101.300929
2409.000000	101.301100
2408.000000	101.301267
2407.000000	101.301420
2406.000000	101.301559
2405.000000	101.301687
2404.000000	101.301818
2403.000000	101.301970
2402.000000	101.302156
2401.000000	101.302380
2400.000000	101.302638
2399.000000	101.302927
2398.000000	101.303243
2397.000000	101.303583
2396.000000	101.303942
2395.000000	101.304312
2394.000000	101.304688
2393.000000	101.305069
2392.000000	101.305457
2391.000000	101.305854
2390.000000	101.306264
2389.000000	101.306680
2388.000000	101.307100
2387.000000	101.307524
2386.000000	101.307956
2385.000000	101.308401
2384.000000	101.308860
2383.000000	101.309329
2382.000000	101.309801
2381.000000	101.310273
2380.000000	101.310748
2379.000000	101.311228
2378.000000	101.311716
2377.000000	101.312203
2376.000000	101.312678
2375.000000	101.313132
2374.000000	101.313561
2373.000000	101.313969
2372.000000	101.314364
2371.000000	101.314750
2370.000000	101.315129
2369.000000	101.315498
2368.000000	101.315854
2367.000000	101.316195
2366.000000	101.316523
2365.000000	101.316840
2364.000000	101.317154
2363.000000	101.317468
2362.000000	101.317782
2361.000000	101.318082
2360.000000	101.318353
2359.000000	101.318586
2358.000000	101.318782
2357.000000	101.318951
2356.000000	101.319100
2355.000000	101.319232
2354.000000	101.319346
2353.000000	101.319444
2352.000000	101.319524
2351.000000	101.319589
2350.000000	101.319636
2349.000000	101.319660
2348.000000	101.319660
2347.000000	101.319643
2346.000000	101.319626
2345.000000	101.319607
2344.000000	101.319568
2343.000000	101.319489
2342.000000	101.319390
2341.000000	101.319287
2340.000000	101.319167
2339.000000	101.319054
2338.000000	101.318979
2337.000000	101.318956
2336.000000	101.318847
2335.000000	101.318517
2334.000000	101.317851
2333.000000	101.316949
2332.000000	101.316005
2331.000000	101.315419
2330.000000	101.315274
2329.000000	101.315538
2328.000000	101.315764
2327.000000	101.315725
2326.000000	101.315400
2325.000000	101.314880
2324.000000	101.314291
2323.000000	101.313526
2322.000000	101.312470
2321.000000	101.311042
2320.000000	101.309328
2319.000000	101.307911
2318.000000	101.307145
2317.000000	101.307406
2316.000000	101.308274
2315.000000	101.309495
2314.000000	101.310307
2313.000000	101.310578
2312.000000	101.310048
2311.000000	101.309260
2310.000000	101.308406
2309.000000	101.307956
2308.000000	101.307910
2307.000000	101.308361
2306.000000	101.308602
2305.000000	101.308046
2304.000000	101.306630
2303.000000	101.305527
2302.000000	101.305297
2301.000000	101.305351
2300.000000	101.304311
2299.000000	101.302395
2298.000000	101.300756
2297.000000	101.300066
2296.000000	101.299135
2295.000000	101.296851
2294.000000	101.293559
2293.000000	101.290821
2292.000000	101.289435
2291.000000	101.288801
2290.000000	101.287879
2289.000000	101.286346
2288.000000	101.284836
2287.000000	101.284108
2286.000000	101.284318
2285.000000	101.284736
2284.000000	101.284482
2283.000000	101.283315
2282.000000	101.281873
2281.000000	101.280983
2280.000000	101.281171
2279.000000	101.282600
2278.000000	101.285003
2277.000000	101.287517
2276.000000	101.289128
2275.000000	101.289640
2274.000000	101.289723
2273.000000	101.290000
2272.000000	101.290275
2271.000000	101.290026
2270.000000	101.289234
2269.000000	101.288486
2268.000000	101.288411
2267.000000	101.289224
2266.000000	101.290537
2265.000000	101.291475
2264.000000	101.291242
2263.000000	101.289789
2262.000000	101.287792
2261.000000	101.285859
2260.000000	101.284094
2259.000000	101.282512
2258.000000	101.281509
2257.000000	101.281473
2256.000000	101.282237
2255.000000	101.283229
2254.000000	101.284034
2253.000000	101.284540
2252.000000	101.284606
2251.000000	101.284037
2250.000000	101.282892
2249.000000	101.281608
2248.000000	101.280647
2247.000000	101.280154
2246.000000	101.279943
2245.000000	101.279722
2244.000000	101.279324
2243.000000	101.278828
2242.000000	101.278471
2241.000000	101.278371
2240.000000	101.278355
2239.000000	101.278116
2238.000000	101.277560
2237.000000	101.276916
2236.000000	101.276532
2235.000000	101.276566
2234.000000	101.276929
2233.000000	101.277385
2232.000000	101.277675
2231.000000	101.277641
2230.000000	101.277288
2229.000000	101.276812
2228.000000	101.276495
2227.000000	101.276460
2226.000000	101.276586
2225.000000	101.276647
2224.000000	101.276544
2223.000000	101.276379
2222.000000	101.276339
2221.000000	101.276543
2220.000000	101.276997
2219.000000	101.277615
2218.000000	101.278230
2217.000000	101.278653
2216.000000	101.278808
2215.000000	101.278831
2214.000000	101.278966
2213.000000	101.279292
2212.000000	101.279659
2211.000000	101.279899
2210.000000	101.280042
2209.000000	101.280240
2208.000000	101.280565
2207.000000	101.280987
2206.000000	101.281454
2205.000000	101.281844
2204.000000	101.281922
2203.000000	101.281577
2202.000000	101.281170
2201.000000	101.281366
2200.000000	101.282476
2199.000000	101.284176
2198.000000	101.285886
2197.000000	101.287316
2196.000000	101.288484
2195.000000	101.289373
2194.000000	101.289824
2193.000000	101.289764
2192.000000	101.289384
2191.000000	101.289033
2190.000000	101.288941
2189.000000	101.289067
2188.000000	101.289258
2187.000000	101.289580
2186.000000	101.290372
2185.000000	101.291795
2184.000000	101.293380
2183.000000	101.294344
2182.000000	101.294412
2181.000000	101.294086
2180.000000	101.294024
2179.000000	101.294331
2178.000000	101.294640
2177.000000	101.294630
2176.000000	101.294230
2175.000000	101.293523
2174.000000	101.292750
2173.000000	101.292293
2172.000000	101.292399
2171.000000	101.292926
2170.000000	101.293456
2169.000000	101.293660
2168.000000	101.293511
2167.000000	101.293173
2166.000000	101.292793
2165.000000	101.292386
2164.000000	101.291879
2163.000000	101.291313
2162.000000	101.290966
2161.000000	101.291119
2160.000000	101.291683
2159.000000	101.292168
2158.000000	101.292153
2157.000000	101.291683
2156.000000	101.291086
2155.000000	101.290517
2154.000000	101.289879
2153.000000	101.289202
2152.000000	101.288784
2151.000000	101.288813
2150.000000	101.289098
2149.000000	101.289251
2148.000000	101.289151
2147.000000	101.289016
2146.000000	101.289069
2145.000000	101.289259
2144.000000	101.289347
2143.000000	101.289213
2142.000000	101.288978
2141.000000	101.288863
2140.000000	101.288937
2139.000000	101.289067
2138.000000	101.289105
2137.000000	101.289047
2136.000000	101.288994
2135.000000	101.288978
2134.000000	101.288934
2133.000000	101.288829
2132.000000	101.288742
2131.000000	101.288774
2130.000000	101.288934
2129.000000	101.289161
2128.000000	101.289399
2127.000000	101.289601
2126.000000	101.289728
2125.000000	101.289822
2124.000000	101.290012
2123.000000	101.290376
2122.000000	101.290844
2121.000000	101.291287
2120.000000	101.291664
2119.000000	101.292018
2118.000000	101.292383
2117.000000	101.292748
2116.000000	101.293094
2115.000000	101.293405
2114.000000	101.293674
2113.000000	101.293921
2112.000000	101.294211
2111.000000	101.294603
2110.000000	101.295101
2109.000000	101.295630
2108.000000	101.296080
2107.000000	101.296391
2106.000000	101.296564
2105.000000	101.296654
2104.000000	101.296754
2103.000000	101.296950
2102.000000	101.297286
2101.000000	101.297734
2100.000000	101.298228
2099.000000	101.298705
2098.000000	101.299116
2097.000000	101.299422
2096.000000	101.299627
2095.000000	101.299810
2094.000000	101.300064
2093.000000	101.300396
2092.000000	101.300713
2091.000000	101.300907
2090.000000	101.300943
2089.000000	101.300901
2088.000000	101.300950
2087.000000	101.301245
2086.000000	101.301789
2085.000000	101.302375
2084.000000	101.302711
2083.000000	101.302673
2082.000000	101.302369
2081.000000	101.302007
2080.000000	101.301721
2079.000000	101.301559
2078.000000	101.301566
2077.000000	101.301788
2076.000000	101.302184
2075.000000	101.302594
2074.000000	101.302846
2073.000000	101.302897
2072.000000	101.302828
2071.000000	101.302697
2070.000000	101.302424
2069.000000	101.301887
2068.000000	101.301113
2067.000000	101.300343
2066.000000	101.299848
2065.000000	101.299689
2064.000000	101.299660
2063.000000	101.299502
2062.000000	101.299168
2061.000000	101.298797
2060.000000	101.298459
2059.000000	101.298034
2058.000000	101.297410
2057.000000	101.296690
2056.000000	101.296070
2055.000000	101.295556
2054.000000	101.294942
2053.000000	101.294095
2052.000000	101.293138
2051.000000	101.292316
2050.000000	101.291751
2049.000000	101.291391
2048.000000	101.291134
2047.000000	101.290859
2046.000000	101.290422
2045.000000	101.289731
2044.000000	101.288826
2043.000000	101.287882
2042.000000	101.287069
2041.000000	101.286407
2040.000000	101.285818
2039.000000	101.285220
2038.000000	101.284582
2037.000000	101.283910
2036.000000	101.283218
2035.000000	101.282527
2034.000000	101.281849
2033.000000	101.281179
2032.000000	101.280494
2031.000000	101.279780
2030.000000	101.279044
2029.000000	101.278306
2028.000000	101.277585
2027.000000	101.276887
2026.000000	101.276211
2025.000000	101.275555
2024.000000	101.274914
2023.000000	101.274283
2022.000000	101.273651
2021.000000	101.273015
2020.000000	101.272379
2019.000000	101.271746
2018.000000	101.271118
2017.000000	101.270499
2016.000000	101.269897
2015.000000	101.269321
2014.000000	101.268767
2013.000000	101.268214
2012.000000	101.267645
2011.000000	101.267067
2010.000000	101.266497
2009.000000	101.265930
2008.000000	101.265341
2007.000000	101.264726
2006.000000	101.264121
2005.000000	101.263581
2004.000000	101.263124
2003.000000	101.262727
2002.000000	101.262342
2001.000000	101.261927
2000.000000	101.261466
1999.000000	101.260968
1998.000000	101.260479
1997.000000	101.260041
1996.000000	101.259666
1995.000000	101.259322
1994.000000	101.258964
1993.000000	101.258580
1992.000000	101.258207
1991.000000	101.257899
1990.000000	101.257679
1989.000000	101.257525
1988.000000	101.257368
1987.000000	101.257126
1986.000000	101.256755
1985.000000	101.256299
1984.000000	101.255861
1983.000000	101.255537
1982.000000	101.255384
1981.000000	101.255440
1980.000000	101.255699
1979.000000	101.256064
1978.000000	101.256347
1977.000000	101.256381
1976.000000	101.256128
1975.000000	101.255692
1974.000000	101.255215
1973.000000	101.254759
1972.000000	101.254303
1971.000000	101.253849
1970.000000	101.253559
1969.000000	101.253683
1968.000000	101.254260
1967.000000	101.254861
1966.000000	101.254906
1965.000000	101.254288
1964.000000	101.253477
1963.000000	101.252924
1962.000000	101.252547
1961.000000	101.252074
1960.000000	101.251636
1959.000000	101.251665
1958.000000	101.252277
1957.000000	101.253153
1956.000000	101.253974
1955.000000	101.254604
1954.000000	101.254850
1953.000000	101.254567
1952.000000	101.254008
1951.000000	101.253654
1950.000000	101.253646
1949.000000	101.253638
1948.000000	101.253201
1947.000000	101.252162
1946.000000	101.250595
1945.000000	101.248809
1944.000000	101.247369
1943.000000	101.246733
1942.000000	101.246766
1941.000000	101.246911
1940.000000	101.246892
1939.000000	101.246785
1938.000000	101.246454
1937.000000	101.245477
1936.000000	101.243778
1935.000000	101.241960
1934.000000	101.240705
1933.000000	101.240112
1932.000000	101.239853
1931.000000	101.239636
1930.000000	101.239409
1929.000000	101.239139
1928.000000	101.238739
1927.000000	101.238318
1926.000000	101.238198
1925.000000	101.238662
1924.000000	101.239507
1923.000000	101.239960
1922.000000	101.239296
1921.000000	101.237554
1920.000000	101.235522
1919.000000	101.234126
1918.000000	101.233612
1917.000000	101.233344
1916.000000	101.232634
1915.000000	101.231522
1914.000000	101.230417
1913.000000	101.229405
1912.000000	101.228170
1911.000000	101.226507
1910.000000	101.224716
1909.000000	101.223314
1908.000000	101.222579
1907.000000	101.222470
1906.000000	101.222563
1905.000000	101.222166
1904.000000	101.220668
1903.000000	101.218204
1902.000000	101.215692
1901.000000	101.213741
1900.000000	101.212088
1899.000000	101.210518
1898.000000	101.209579
1897.000000	101.209846
1896.000000	101.210655
1895.000000	101.210580
1894.000000	101.209305
1893.000000	101.207897
1892.000000	101.207086
1891.000000	101.206344
1890.000000	101.204908
1889.000000	101.202961
1888.000000	101.201150
1887.000000	101.199410
1886.000000	101.197112
1885.000000	101.194343
1884.000000	101.192397
1883.000000	101.192649
1882.000000	101.195255
1881.000000	101.198769
1880.000000	101.201297
1879.000000	101.202137
1878.000000	101.201868
1877.000000	101.201388
1876.000000	101.201099
1875.000000	101.200804
1874.000000	101.200171
1873.000000	101.199086
1872.000000	101.197621
1871.000000	101.196104
1870.000000	101.195202
1869.000000	101.195339
1868.000000	101.195870
1867.000000	101.196006
1866.000000	101.196155
1865.000000	101.197197
1864.000000	101.199241
1863.000000	101.201411
1862.000000	101.202660
1861.000000	101.202767
1860.000000	101.202516
1859.000000	101.202984
1858.000000	101.204744
1857.000000	101.207559
1856.000000	101.210699
1855.000000	101.213537
1854.000000	101.215655
1853.000000	101.216753
1852.000000	101.217071
1851.000000	101.217874
1850.000000	101.220198
1849.000000	101.223605
1848.000000	101.226657
1847.000000	101.228538
1846.000000	101.229470
1845.000000	101.229830
1844.000000	101.229936
1843.000000	101.230860
1842.000000	101.233833
1841.000000	101.238162
1840.000000	101.241593
1839.000000	101.242547
1838.000000	101.241245
1837.000000	101.239114
1836.000000	101.237188
1835.000000	101.235785
1834.000000	101.235236
1833.000000	101.236023
1832.000000	101.238385
1831.000000	101.241745
1830.000000	101.244276
1829.000000	101.244550
1828.000000	101.243487
1827.000000	101.242869
1826.000000	101.243047
1825.000000	101.243003
1824.000000	101.241798
1823.000000	101.239587
1822.000000	101.237054
1821.000000	101.234598
1820.000000	101.232550
1819.000000	101.231394
1818.000000	101.231553
1817.000000	101.232967
1816.000000	101.234615
1815.000000	101.235166
1814.000000	101.234238
1813.000000	101.232635
1812.000000	101.231615
1811.000000	101.231737
1810.000000	101.232999
1809.000000	101.235316
1808.000000	101.237791
1807.000000	101.238829
1806.000000	101.237715
1805.000000	101.235336
1804.000000	101.233080
1803.000000	101.231530
1802.000000	101.230587
1801.000000	101.230218
1800.000000	101.230673
1799.000000	101.231857
1798.000000	101.233449
1797.000000	101.234936
1796.000000	101.235406
1795.000000	101.234148
1794.000000	101.231555
1793.000000	101.229244
1792.000000	101.228938
1791.000000	101.230816
1790.000000	101.234155
1789.000000	101.238114
1788.000000	101.241574
1787.000000	101.243626
1786.000000	101.244589
1785.000000	101.246055
1784.000000	101.249215
1783.000000	101.253586
1782.000000	101.257474
1781.000000	101.259157
1780.000000	101.258625
1779.000000	101.257630
1778.000000	101.257990
1777.000000	101.259799
1776.000000	101.261878
1775.000000	101.263693
1774.000000	101.265887
1773.000000	101.268876
1772.000000	101.271542
1771.000000	101.272626
1770.000000	101.272877
1769.000000	101.274192
1768.000000	101.277740
1767.000000	101.282789
1766.000000	101.287268
1765.000000	101.289720
1764.000000	101.290319
1763.000000	101.290662
1762.000000	101.292504
1761.000000	101.295943
1760.000000	101.299694
1759.000000	101.302343
1758.000000	101.303165
1757.000000	101.301959
1756.000000	101.299396
1755.000000	101.297066
1754.000000	101.296151
1753.000000	101.296920
1752.000000	101.299218
1751.000000	101.302363
1750.000000	101.304841
1749.000000	101.305552
1748.000000	101.304631
1747.000000	101.303137
1746.000000	101.301971
1745.000000	101.301298
1744.000000	101.301069
1743.000000	101.301243
1742.000000	101.301773
1741.000000	101.302636
1740.000000	101.303661
1739.000000	101.304245
1738.000000	101.303872
1737.000000	101.302317
1736.000000	101.299407
1735.000000	101.295645
1734.000000	101.292975
1733.000000	101.292899
1732.000000	101.294928
1731.000000	101.297343
1730.000000	101.298796
1729.000000	101.299006
1728.000000	101.298382
1727.000000	101.297320
1726.000000	101.295895
1725.000000	101.294331
1724.000000	101.293167
1723.000000	101.292390
1722.000000	101.291393
1721.000000	101.289822
1720.000000	101.288010
1719.000000	101.286599
1718.000000	101.285721
1717.000000	101.284989
1716.000000	101.284191
1715.000000	101.283447
1714.000000	101.282909
1713.000000	101.282445
1712.000000	101.281448
1711.000000	101.279393
1710.000000	101.276459
1709.000000	101.273529
1708.000000	101.271503
1707.000000	101.270593
1706.000000	101.270385
1705.000000	101.270334
1704.000000	101.270018
1703.000000	101.269110
1702.000000	101.267399
1701.000000	101.265212
1700.000000	101.263204
1699.000000	101.261339
1698.000000	101.260019
1697.000000	101.259540
1696.000000	101.259622
1695.000000	101.259435
1694.000000	101.258928
1693.000000	101.258481
1692.000000	101.257905
1691.000000	101.257369
1690.000000	101.257540
1689.000000	101.258445
1688.000000	101.259193
1687.000000	101.258969
1686.000000	101.257696
1685.000000	101.256297
1684.000000	101.255684
1683.000000	101.255730
1682.000000	101.256404
1681.000000	101.257204
1680.000000	101.257626
1679.000000	101.257655
1678.000000	101.257486
1677.000000	101.257202
1676.000000	101.256888
1675.000000	101.256794
1674.000000	101.257102
1673.000000	101.257708
1672.000000	101.258345
1671.000000	101.258786
1670.000000	101.259023
1669.000000	101.259162
1668.000000	101.259365
1667.000000	101.259717
1666.000000	101.260139
1665.000000	101.260548
1664.000000	101.260906
1663.000000	101.261183
1662.000000	101.261395
1661.000000	101.261618
1660.000000	101.261906
1659.000000	101.262241
1658.000000	101.262587
1657.000000	101.262938
1656.000000	101.263284
1655.000000	101.263622
1654.000000	101.263948
1653.000000	101.264259
1652.000000	101.264554
1651.000000	101.264843
1650.000000	101.265132
1649.000000	101.265419
1648.000000	101.265699
1647.000000	101.265974
1646.000000	101.266246
1645.000000	101.266522
1644.000000	101.266804
1643.000000	101.267090
1642.000000	101.267375
1641.000000	101.267655
1640.000000	101.267936
1639.000000	101.268222
1638.000000	101.268518
1637.000000	101.268826
1636.000000	101.269145
1635.000000	101.269469
1634.000000	101.269795
1633.000000	101.270120
1632.000000	101.270445
1631.000000	101.270777
1630.000000	101.271122
1629.000000	101.271482
1628.000000	101.271854
1627.000000	101.272234
1626.000000	101.272625
1625.000000	101.273031
1624.000000	101.273455
1623.000000	101.273894
1622.000000	101.274351
1621.000000	101.274827
1620.000000	101.275327
1619.000000	101.275853
1618.000000	101.276401
1617.000000	101.276931
1616.000000	101.277337
1615.000000	101.277628
1614.000000	101.277993
1613.000000	101.278571
1612.000000	101.279364
1611.000000	101.280287
1610.000000	101.281216
1609.000000	101.281958
1608.000000	101.282381
1607.000000	101.282627
1606.000000	101.283010
1605.000000	101.283609
1604.000000	101.284290
1603.000000	101.285022
1602.000000	101.285927
1601.000000	101.286965
1600.000000	101.287926
1599.000000	101.288910
1598.000000	101.290300
1597.000000	101.292049
1596.000000	101.293396
1595.000000	101.293663
1594.000000	101.293177
1593.000000	101.292962
1592.000000	101.293707
1591.000000	101.295365
1590.000000	101.297317
1589.000000	101.298568
1588.000000	101.298333
1587.000000	101.296842
1586.000000	101.295435
1585.000000	101.295321
1584.000000	101.296559
1583.000000	101.298551
1582.000000	101.300654
1581.000000	101.302350
1580.000000	101.303338
1579.000000	101.303778
1578.000000	101.304038
1577.000000	101.304102
1576.000000	101.303123
1575.000000	101.301044
1574.000000	101.299285
1573.000000	101.298054
1572.000000	101.296817
1571.000000	101.295811
1570.000000	101.295673
1569.000000	101.295661
1568.000000	101.294890
1567.000000	101.294235
1566.000000	101.294648
1565.000000	101.296143
1564.000000	101.297789
1563.000000	101.298800
1562.000000	101.298915
1561.000000	101.298005
1560.000000	101.295604
1559.000000	101.291157
1558.000000	101.284908
1557.000000	101.280711
1556.000000	101.278944
1555.000000	101.277228
1554.000000	101.274862
1553.000000	101.272838
1552.000000	101.271881
1551.000000	101.271001
1550.000000	101.268875
1549.000000	101.265966
1548.000000	101.264030
1547.000000	101.263830
1546.000000	101.264275
1545.000000	101.263689
1544.000000	101.261396
1543.000000	101.258175
1542.000000	101.255329
1541.000000	101.253703
1540.000000	101.252039
1539.000000	101.248342
1538.000000	101.243874
1537.000000	101.240367
1536.000000	101.237737
1535.000000	101.235555
1534.000000	101.233700
1533.000000	101.231961
1532.000000	101.230294
1531.000000	101.228771
1530.000000	101.227154
1529.000000	101.225134
1528.000000	101.222458
1527.000000	101.219017
1526.000000	101.214996
1525.000000	101.211037
1524.000000	101.207918
1523.000000	101.206052
1522.000000	101.205375
1521.000000	101.205139
1520.000000	101.204670
1519.000000	101.204330
1518.000000	101.204249
1517.000000	101.203765
1516.000000	101.201948
1515.000000	101.198701
1514.000000	101.194708
1513.000000	101.190653
1512.000000	101.187292
1511.000000	101.184985
1510.000000	101.183315
1509.000000	101.181549
1508.000000	101.179662
1507.000000	101.178080
1506.000000	101.176419
1505.000000	101.174869
1504.000000	101.173595
1503.000000	101.171878
1502.000000	101.169583
1501.000000	101.167249
1500.000000	101.165308
1499.000000	101.163517
1498.000000	101.161341
1497.000000	101.159020
1496.000000	101.157075
1495.000000	101.154983
1494.000000	101.152135
1493.000000	101.148975
1492.000000	101.146702
1491.000000	101.146134
1490.000000	101.146512
1489.000000	101.145990
1488.000000	101.143891
1487.000000	101.140950
1486.000000	101.138489
1485.000000	101.137195
1484.000000	101.136577
1483.000000	101.135885
1482.000000	101.134827
1481.000000	101.133896
1480.000000	101.133625
1479.000000	101.133876
1478.000000	101.134031
1477.000000	101.133613
1476.000000	101.132467
1475.000000	101.130675
1474.000000	101.129053
1473.000000	101.128780
1472.000000	101.129841
1471.000000	101.130585
1470.000000	101.130058
1469.000000	101.128657
1468.000000	101.127320
1467.000000	101.126673
1466.000000	101.126729
1465.000000	101.126906
1464.000000	101.126492
1463.000000	101.125329
1462.000000	101.123603
1461.000000	101.121586
1460.000000	101.119598
1459.000000	101.118192
1458.000000	101.117850
1457.000000	101.118417
1456.000000	101.119137
1455.000000	101.119886
1454.000000	101.120376
1453.000000	101.120319
1452.000000	101.120186
1451.000000	101.120554
1450.000000	101.121561
1449.000000	101.123261
1448.000000	101.125613
1447.000000	101.127856
1446.000000	101.129124
1445.000000	101.129347
1444.000000	101.129277
1443.000000	101.129580
1442.000000	101.130322
1441.000000	101.131218
1440.000000	101.132176
1439.000000	101.133420
1438.000000	101.135135
1437.000000	101.137226
1436.000000	101.138905
1435.000000	101.139392
1434.000000	101.138694
1433.000000	101.137515
1432.000000	101.137042
1431.000000	101.138306
1430.000000	101.141059
1429.000000	101.143828
1428.000000	101.145614
1427.000000	101.146783
1426.000000	101.148277
1425.000000	101.150466
1424.000000	101.153010
1423.000000	101.155248
1422.000000	101.156845
1421.000000	101.158137
1420.000000	101.159817
1419.000000	101.161984
1418.000000	101.163610
1417.000000	101.164539
1416.000000	101.165895
1415.000000	101.168337
1414.000000	101.171384
1413.000000	101.173981
1412.000000	101.175683
1411.000000	101.177033
1410.000000	101.178658
1409.000000	101.180549
1408.000000	101.182358
1407.000000	101.184037
1406.000000	101.186207
1405.000000	101.189472
1404.000000	101.193612
1403.000000	101.197662
1402.000000	101.201060
1401.000000	101.204439
1400.000000	101.208752
1399.000000	101.213615
1398.000000	101.217239
1397.000000	101.218962
1396.000000	101.220108
1395.000000	101.222081
1394.000000	101.224368
1393.000000	101.225567
1392.000000	101.226133
1391.000000	101.227722
1390.000000	101.231264
1389.000000	101.236076
1388.000000	101.239993
1387.000000	101.240810
1386.000000	101.238650
1385.000000	101.236223
1384.000000	101.236090
1383.000000	101.238397
1382.000000	101.241037
1381.000000	101.242060
1380.000000	101.241729
1379.000000	101.242068
1378.000000	101.244630
1377.000000	101.249327
1376.000000	101.255326
1375.000000	101.262073
1374.000000	101.268864
1373.000000	101.274523
1372.000000	101.278762
1371.000000	101.282621
1370.000000	101.287376
1369.000000	101.292895
1368.000000	101.297878
1367.000000	101.301171
1366.000000	101.302372
1365.000000	101.301739
1364.000000	101.300398
1363.000000	101.300285
1362.000000	101.302415
1361.000000	101.305120
1360.000000	101.305689
1359.000000	101.303528
1358.000000	101.300684
1357.000000	101.299356
1356.000000	101.299769
1355.000000	101.300774
1354.000000	101.301620
1353.000000	101.302224
1352.000000	101.302269
1351.000000	101.301458
1350.000000	101.300710
1349.000000	101.300752
1348.000000	101.300698
1347.000000	101.299120
1346.000000	101.296457
1345.000000	101.294784
1344.000000	101.295211
1343.000000	101.296799
1342.000000	101.298388
1341.000000	101.300066
1340.000000	101.302230
1339.000000	101.304272
1338.000000	101.305278
1337.000000	101.305312
1336.000000	101.304875
1335.000000	101.303837
1334.000000	101.301974
1333.000000	101.299979
1332.000000	101.298940
1331.000000	101.298992
1330.000000	101.299285
1329.000000	101.299241
1328.000000	101.299237
1327.000000	101.299918
1326.000000	101.301424
1325.000000	101.303305
1324.000000	101.305027
1323.000000	101.306022
1322.000000	101.305541
1321.000000	101.303096
1320.000000	101.299247
1319.000000	101.295697
1318.000000	101.294176
1317.000000	101.295197
1316.000000	101.297864
1315.000000	101.300686
1314.000000	101.302667
1313.000000	101.303748
1312.000000	101.304249
1311.000000	101.304192
1310.000000	101.303551
1309.000000	101.302875
1308.000000	101.302878
1307.000000	101.303251
1306.000000	101.302801
1305.000000	101.301122
1304.000000	101.299688
1303.000000	101.300444
1302.000000	101.303528
1301.000000	101.306977
1300.000000	101.308569
1299.000000	101.307420
1298.000000	101.304060
1297.000000	101.299751
1296.000000	101.295698
1295.000000	101.292388
1294.000000	101.289500
1293.000000	101.286760
1292.000000	101.284797
1291.000000	101.284687
1290.000000	101.286806
1289.000000	101.290531
1288.000000	101.294761
1287.000000	101.298105
1286.000000	101.298888
1285.000000	101.296028
1284.000000	101.290219
1283.000000	101.283614
1282.000000	101.277988
1281.000000	101.273584
1280.000000	101.269801
1279.000000	101.266362
1278.000000	101.263407
1277.000000	101.261003
1276.000000	101.258965
1275.000000	101.257124
1274.000000	101.255737
1273.000000	101.255787
1272.000000	101.258442
1271.000000	101.263541
1270.000000	101.268915
1269.000000	101.272139
1268.000000	101.272819
1267.000000	101.272417
1266.000000	101.272112
1265.000000	101.271977
1264.000000	101.272012
1263.000000	101.272425
1262.000000	101.272479
1261.000000	101.270365
1260.000000	101.265074
1259.000000	101.258031
1258.000000	101.252343
1257.000000	101.250698
1256.000000	101.253498
1255.000000	101.257952
1254.000000	101.259225
1253.000000	101.254120
1252.000000	101.243901
1251.000000	101.232741
1250.000000	101.223417
1249.000000	101.215769
1248.000000	101.209102
1247.000000	101.203742
1246.000000	101.199314
1245.000000	101.193804
1244.000000	101.186069
1243.000000	101.177906
1242.000000	101.171916
1241.000000	101.168026
1240.000000	101.163567
1239.000000	101.156171
1238.000000	101.145453
1237.000000	101.132553
1236.000000	101.119408
1235.000000	101.108029
1234.000000	101.098973
1233.000000	101.090421
1232.000000	101.079719
1231.000000	101.065757
1230.000000	101.049268
1229.000000	101.031412
1228.000000	101.013119
1227.000000	100.995346
1226.000000	100.978366
1225.000000	100.960476
1224.000000	100.938689
1223.000000	100.911435
1222.000000	100.879972
1221.000000	100.846602
1220.000000	100.812040
1219.000000	100.775202
1218.000000	100.735175
1217.000000	100.692530
1216.000000	100.648402
1215.000000	100.602756
1214.000000	100.554230
1213.000000	100.501894
1212.000000	100.446713
1211.000000	100.391084
1210.000000	100.337547
1209.000000	100.288249
1208.000000	100.244336
1207.000000	100.204335
1206.000000	100.163769
1205.000000	100.118363
1204.000000	100.067780
1203.000000	100.015165
1202.000000	99.963704
1201.000000	99.915059
1200.000000	99.870090
1199.000000	99.828417
1198.000000	99.787220
1197.000000	99.743083
1196.000000	99.695724
1195.000000	99.647992
1194.000000	99.601649
1193.000000	99.554956
1192.000000	99.505055
1191.000000	99.451196
1190.000000	99.395107
1189.000000	99.339610
1188.000000	99.287155
1187.000000	99.238148
1186.000000	99.190153
1185.000000	99.139818
1184.000000	99.085407
1183.000000	99.026553
1182.000000	98.962879
1181.000000	98.894958
1180.000000	98.825616
1179.000000	98.757419
1178.000000	98.689178
1177.000000	98.617725
1176.000000	98.542905
1175.000000	98.467915
1174.000000	98.394886
1173.000000	98.323183
1172.000000	98.252087
1171.000000	98.182082
1170.000000	98.113709
1169.000000	98.048554
1168.000000	97.990931
1167.000000	97.944510
1166.000000	97.907563
1165.000000	97.876319
1164.000000	97.853501
1163.000000	97.848228
1162.000000	97.865559
1161.000000	97.899529
1160.000000	97.937082
1159.000000	97.965607
1158.000000	97.976648
1157.000000	97.967212
1156.000000	97.940147
1155.000000	97.901184
1154.000000	97.854040
1153.000000	97.799582
1152.000000	97.739146
1151.000000	97.675416
1150.000000	97.609827
1149.000000	97.542654
1148.000000	97.476236
1147.000000	97.414453
1146.000000	97.358083
1145.000000	97.304028
1144.000000	97.249920
1143.000000	97.196407
1142.000000	97.144683
1141.000000	97.095220
1140.000000	97.048872
1139.000000	97.005228
1138.000000	96.959795
1137.000000	96.907205
1136.000000	96.847870
1135.000000	96.787841
1134.000000	96.732114
1133.000000	96.681891
1132.000000	96.637439
1131.000000	96.597965
1130.000000	96.558765
1129.000000	96.514548
1128.000000	96.466186
1127.000000	96.418648
1126.000000	96.372279
1125.000000	96.322768
1124.000000	96.270179
1123.000000	96.220301
1122.000000	96.175139
1121.000000	96.129661
1120.000000	96.081053
1119.000000	96.034141
1118.000000	95.993711
1117.000000	95.957558
1116.000000	95.921040
1115.000000	95.883380
1114.000000	95.846105
1113.000000	95.809805
1112.000000	95.775222
1111.000000	95.742977
1110.000000	95.709982
1109.000000	95.670823
1108.000000	95.624901
1107.000000	95.577758
1106.000000	95.534050
1105.000000	95.493866
1104.000000	95.456583
1103.000000	95.422455
1102.000000	95.389103
1101.000000	95.352265
1100.000000	95.311989
1099.000000	95.272524
1098.000000	95.236084
1097.000000	95.201718
1096.000000	95.170734
1095.000000	95.146485
1094.000000	95.127964
1093.000000	95.110594
1092.000000	95.094939
1091.000000	95.087979
1090.000000	95.094003
1089.000000	95.110166
1088.000000	95.132055
1087.000000	95.157503
1086.000000	95.184340
1085.000000	95.210911
1084.000000	95.239646
1083.000000	95.273949
1082.000000	95.311175
1081.000000	95.345072
1080.000000	95.375078
1079.000000	95.406169
1078.000000	95.439296
1077.000000	95.469326
1076.000000	95.493208
1075.000000	95.512548
1074.000000	95.526545
1073.000000	95.529356
1072.000000	95.516351
1071.000000	95.486977
1070.000000	95.440160
1069.000000	95.372881
1068.000000	95.285285
1067.000000	95.182451
1066.000000	95.069983
1065.000000	94.952387
1064.000000	94.835315
1063.000000	94.722584
1062.000000	94.610421
1061.000000	94.491996
1060.000000	94.368869
1059.000000	94.251113
1058.000000	94.145353
1057.000000	94.050318
1056.000000	93.964863
1055.000000	93.891425
1054.000000	93.829406
1053.000000	93.773819
1052.000000	93.723954
1051.000000	93.685713
1050.000000	93.661986
1049.000000	93.648194
1048.000000	93.639299
1047.000000	93.633150
1046.000000	93.626247
1045.000000	93.614859
1044.000000	93.600863
1043.000000	93.588932
1042.000000	93.578398
1041.000000	93.565751
1040.000000	93.554120
1039.000000	93.550451
1038.000000	93.552931
1037.000000	93.551411
1036.000000	93.542253
1035.000000	93.533179
1034.000000	93.530864
1033.000000	93.532736
1032.000000	93.534126
1031.000000	93.535671
1030.000000	93.540492
1029.000000	93.550323
1028.000000	93.566059
1027.000000	93.585823
1026.000000	93.602213
1025.000000	93.609107
1024.000000	93.611649
1023.000000	93.621527
1022.000000	93.641782
1021.000000	93.664178
1020.000000	93.681678
1019.000000	93.694410
1018.000000	93.702493
1017.000000	93.703074
1016.000000	93.697426
1015.000000	93.692497
1014.000000	93.692260
1013.000000	93.694848
1012.000000	93.700067
1011.000000	93.711234
1010.000000	93.726939
1009.000000	93.739634
1008.000000	93.746532
1007.000000	93.755076
1006.000000	93.773575
1005.000000	93.801989
1004.000000	93.834802
1003.000000	93.867772
1002.000000	93.899425
1001.000000	93.930460
1000.000000	93.963463
999.000000	93.999290
998.000000	94.033643
997.000000	94.062266
996.000000	94.089157
995.000000	94.123591
994.000000	94.169142
993.000000	94.221525
992.000000	94.276526
991.000000	94.333105
990.000000	94.388845
989.000000	94.440276
988.000000	94.488984
987.000000	94.540493
986.000000	94.595899
985.000000	94.651203
984.000000	94.705720
983.000000	94.764099
982.000000	94.828603
981.000000	94.896192
980.000000	94.964934
979.000000	95.036758
978.000000	95.111859
977.000000	95.186312
976.000000	95.257487
975.000000	95.327440
974.000000	95.399900
973.000000	95.478180
972.000000	95.565407
971.000000	95.660648
970.000000	95.754610
969.000000	95.835939
968.000000	95.903398
967.000000	95.966926
966.000000	96.036236
965.000000	96.113254
964.000000	96.195236
963.000000	96.278272
962.000000	96.356745
961.000000	96.426402
960.000000	96.490312
959.000000	96.556361
958.000000	96.626730
957.000000	96.695077
956.000000	96.756188
955.000000	96.812946
954.000000	96.871444
953.000000	96.933772
952.000000	96.997771
951.000000	97.059664
950.000000	97.115082
949.000000	97.161862
948.000000	97.203935
947.000000	97.248552
946.000000	97.297694
945.000000	97.346042
944.000000	97.388971
943.000000	97.428466
942.000000	97.469500
941.000000	97.514250
940.000000	97.561618
939.000000	97.608990
938.000000	97.653000
937.000000	97.691898
936.000000	97.728388
935.000000	97.767115
934.000000	97.808650
933.000000	97.849274
932.000000	97.886882
931.000000	97.923003
930.000000	97.958754
929.000000	97.993427
928.000000	98.027898
927.000000	98.064668
926.000000	98.103255
925.000000	98.139996
924.000000	98.173523
923.000000	98.205942
922.000000	98.237767
921.000000	98.266868
920.000000	98.293745
919.000000	98.321996
918.000000	98.351096
917.000000	98.374816
916.000000	98.390986
915.000000	98.407845
914.000000	98.435362
913.000000	98.473734
912.000000	98.515579
911.000000	98.557035
910.000000	98.601178
909.000000	98.650854
908.000000	98.703487
907.000000	98.754484
906.000000	98.802567
905.000000	98.849793
904.000000	98.898198
903.000000	98.948471
902.000000	99.001093
901.000000	99.056321
900.000000	99.112033
899.000000	99.163277
898.000000	99.206606
897.000000	99.244862
896.000000	99.285264
895.000000	99.331509
894.000000	99.379651
893.000000	99.423295
892.000000	99.460622
891.000000	99.494130
890.000000	99.525225
889.000000	99.551823
888.000000	99.570760
887.000000	99.580586
886.000000	99.582880
885.000000	99.582904
884.000000	99.588116
883.000000	99.603650
882.000000	99.629505
881.000000	99.663398
880.000000	99.704727
879.000000	99.753386
878.000000	99.806953
877.000000	99.862611
876.000000	99.919885
875.000000	99.977936
874.000000	100.032425
873.000000	100.079546
872.000000	100.121561
871.000000	100.163830
870.000000	100.207465
869.000000	100.249122
868.000000	100.287026
867.000000	100.322848
866.000000	100.358276
865.000000	100.393801
864.000000	100.430158
863.000000	100.467083
862.000000	100.501638
861.000000	100.532061
860.000000	100.562284
859.000000	100.597772
858.000000	100.637175
857.000000	100.673133
856.000000	100.701729
855.000000	100.726455
854.000000	100.752203
853.000000	100.779800
852.000000	100.807568
851.000000	100.834228
850.000000	100.859114
849.000000	100.882808
848.000000	100.907847
847.000000	100.935253
846.000000	100.960431
845.000000	100.976669
844.000000	100.982944
843.000000	100.984538
842.000000	100.986517
841.000000	100.991201
840.000000	101.000911
839.000000	101.015970
838.000000	101.028780
837.000000	101.027596
836.000000	101.010398
835.000000	100.990280
834.000000	100.983290
833.000000	100.994054
832.000000	101.015157
831.000000	101.034753
830.000000	101.041089
829.000000	101.026421
828.000000	100.994905
827.000000	100.964992
826.000000	100.956146
825.000000	100.971279
824.000000	100.995666
823.000000	101.011799
822.000000	101.011452
821.000000	100.995918
820.000000	100.970621
819.000000	100.940049
818.000000	100.904400
817.000000	100.860558
816.000000	100.806803
815.000000	100.743681
814.000000	100.667851
813.000000	100.568382
812.000000	100.433584
811.000000	100.260030
810.000000	100.051067
809.000000	99.808355
808.000000	99.530294
807.000000	99.218616
806.000000	98.881937
805.000000	98.533044
804.000000	98.187072
803.000000	97.861323
802.000000	97.571304
801.000000	97.326385
800.000000	97.132041
799.000000	96.993964
798.000000	96.916232
797.000000	96.897245
796.000000	96.929644
795.000000	97.001503
794.000000	97.096141
793.000000	97.194498
792.000000	97.280926
791.000000	97.346891
790.000000	97.390123
789.000000	97.411489
788.000000	97.410456
787.000000	97.380582
786.000000	97.311801
785.000000	97.201889
784.000000	97.064764
783.000000	96.922514
782.000000	96.789620
781.000000	96.670732
780.000000	96.573145
779.000000	96.512069
778.000000	96.499662
777.000000	96.535111
776.000000	96.608717
775.000000	96.710248
774.000000	96.831002
773.000000	96.963460
772.000000	97.102135
771.000000	97.241613
770.000000	97.373746
769.000000	97.492071
768.000000	97.599330
767.000000	97.704295
766.000000	97.809400
765.000000	97.907530
764.000000	97.993223
763.000000	98.070596
762.000000	98.146687
761.000000	98.223121
760.000000	98.299232
759.000000	98.378111
758.000000	98.462860
757.000000	98.549589
756.000000	98.630133
755.000000	98.700468
754.000000	98.761921
753.000000	98.815968
752.000000	98.863759
751.000000	98.910251
750.000000	98.962292
749.000000	99.020297
748.000000	99.076332
747.000000	99.123479
746.000000	99.163986
745.000000	99.204836
744.000000	99.247802
743.000000	99.288856
742.000000	99.327061
741.000000	99.368471
740.000000	99.418361
739.000000	99.473096
738.000000	99.523845
737.000000	99.567172
736.000000	99.607612
735.000000	99.649263
734.000000	99.689064
733.000000	99.720666
732.000000	99.742107
731.000000	99.756943
730.000000	99.769404
729.000000	99.781038
728.000000	99.791918
727.000000	99.803170
726.000000	99.817876
725.000000	99.840043
724.000000	99.871292
723.000000	99.907399
722.000000	99.939909
721.000000	99.963458
720.000000	99.980744
719.000000	99.998617
718.000000	100.020599
717.000000	100.045668
716.000000	100.072515
715.000000	100.101327
714.000000	100.131901
713.000000	100.162802
712.000000	100.192365
711.000000	100.218650
710.000000	100.239435
709.000000	100.254546
708.000000	100.267094
707.000000	100.279374
706.000000	100.287409
705.000000	100.282423
704.000000	100.257079
703.000000	100.206509
702.000000	100.124248
701.000000	100.003166
700.000000	99.843365
699.000000	99.657019
698.000000	99.463554
697.000000	99.283129
696.000000	99.136288
695.000000	99.044012
694.000000	99.021437
693.000000	99.069154
692.000000	99.170130
691.000000	99.296200
690.000000	99.421044
689.000000	99.531468
688.000000	99.629458
687.000000	99.723715
686.000000	99.817778
685.000000	99.905156
684.000000	99.975752
683.000000	100.027267
682.000000	100.068813
681.000000	100.111627
680.000000	100.157313
679.000000	100.198931
678.000000	100.233838
677.000000	100.269156
676.000000	100.312980
675.000000	100.363715
674.000000	100.411474
673.000000	100.447406
672.000000	100.469041
671.000000	100.478375
670.000000	100.479967
669.000000	100.485130
668.000000	100.510038
667.000000	100.554529
666.000000	100.600255
665.000000	100.635178
664.000000	100.657360
663.000000	100.665227
662.000000	100.658885
661.000000	100.648548
660.000000	100.650616
659.000000	100.669355
658.000000	100.688194
657.000000	100.688812
656.000000	100.676768
655.000000	100.674723
654.000000	100.690029
653.000000	100.704382
652.000000	100.701493
651.000000	100.689680
650.000000	100.688367
649.000000	100.702922
648.000000	100.724001
647.000000	100.743068
646.000000	100.756915
645.000000	100.762193
644.000000	100.758119
643.000000	100.756970
642.000000	100.778428
641.000000	100.827639
640.000000	100.892690
639.000000	100.959330
638.000000	101.024185
637.000000	101.090969
636.000000	101.152905
635.000000	101.189888
634.000000	101.190651
633.000000	101.169751
632.000000	101.153357
631.000000	101.154680
630.000000	101.169732
629.000000	101.191200
628.000000	101.216714
627.000000	101.244226
626.000000	101.269927
625.000000	101.293917
624.000000	101.318148
623.000000	101.336774
622.000000	101.340050
621.000000	101.330691
620.000000	101.323966
619.000000	101.326109
618.000000	101.322731
617.000000	101.297542
616.000000	101.255616
615.000000	101.221124
614.000000	101.215056
613.000000	101.237421
612.000000	101.268273
611.000000	101.281760
610.000000	101.264780
609.000000	101.224951
608.000000	101.178689
607.000000	101.138232
606.000000	101.110101
605.000000	101.091980
604.000000	101.061465
603.000000	100.983500
602.000000	100.855085
601.000000	100.738259
600.000000	100.715441
599.000000	100.809835
598.000000	100.958017
597.000000	101.068496
596.000000	101.111016
595.000000	101.117813
594.000000	101.127080
593.000000	101.150722
592.000000	101.183211
591.000000	101.212152
590.000000	101.221641
589.000000	101.208668
588.000000	101.193808
587.000000	101.199552
586.000000	101.221274
585.000000	101.237821
584.000000	101.247019
583.000000	101.265848
582.000000	101.296863
581.000000	101.320964
580.000000	101.326346
579.000000	101.318467
578.000000	101.300102
577.000000	101.269540
576.000000	101.242818
575.000000	101.247508
574.000000	101.282117
573.000000	101.312805
572.000000	101.321515
571.000000	101.325283
570.000000	101.340351
569.000000	101.354446
568.000000	101.351259
567.000000	101.334642
566.000000	101.311453
565.000000	101.275068
564.000000	101.227507
563.000000	101.196284
562.000000	101.203974
561.000000	101.237306
560.000000	101.268010
559.000000	101.287719
558.000000	101.302320
557.000000	101.304613
556.000000	101.279756
555.000000	101.231737
554.000000	101.187655
553.000000	101.174651
552.000000	101.196145
551.000000	101.245400
550.000000	101.312090
