4000.000000	100.524396
3999.000000	100.524832
3998.000000	100.524844
3997.000000	100.524046
3996.000000	100.522549
3995.000000	100.520803
3994.000000	100.519139
3993.000000	100.517497
3992.000000	100.515589
3991.000000	100.513364
3990.000000	100.511310
3989.000000	100.510196
3988.000000	100.510411
3987.000000	100.511607
3986.000000	100.512939
3985.000000	100.513700
3984.000000	100.513761
3983.000000	100.513460
3982.000000	100.513142
3981.000000	100.512798
3980.000000	100.512222
3979.000000	100.511507
3978.000000	100.511174
3977.000000	100.511643
3976.000000	100.512608
3975.000000	100.513100
3974.000000	100.512396
3973.000000	100.510636
3972.000000	100.508689
3971.000000	100.507364
3970.000000	100.506794
3969.000000	100.506639
3968.000000	100.506553
3967.000000	100.506412
3966.000000	100.506177
3965.000000	100.505728
3964.000000	100.504957
3963.000000	100.503982
3962.000000	100.503184
3961.000000	100.502911
3960.000000	100.503198
3959.000000	100.503780
3958.000000	100.504332
3957.000000	100.504656
3956.000000	100.504687
3955.000000	100.504377
3954.000000	100.503686
3953.000000	100.502652
3952.000000	100.501484
3951.000000	100.500549
3950.000000	100.500219
3949.000000	100.500608
3948.000000	100.501436
3947.000000	100.502216
3946.000000	100.502594
3945.000000	100.502520
3944.000000	100.502173
3943.000000	100.501852
3942.000000	100.501863
3941.000000	100.502294
3940.000000	100.502831
3939.000000	100.502925
3938.000000	100.502353
3937.000000	100.501579
3936.000000	100.501367
3935.000000	100.501933
3934.000000	100.502642
3933.000000	100.502665
3932.000000	100.501941
3931.000000	100.501331
3930.000000	100.501731
3929.000000	100.503185
3928.000000	100.504849
3927.000000	100.505829
3926.000000	100.505761
3925.000000	100.504835
3924.000000	100.503534
3923.000000	100.502211
3922.000000	100.500884
3921.000000	100.499410
3920.000000	100.497971
3919.000000	100.497134
3918.000000	100.497183
3917.000000	100.497666
3916.000000	100.497856
3915.000000	100.497514
3914.000000	100.496972
3913.000000	100.496627
3912.000000	100.496576
3911.000000	100.496710
3910.000000	100.496905
3909.000000	100.497149
3908.000000	100.497642
3907.000000	100.498568
3906.000000	100.499787
3905.000000	100.500696
3904.000000	100.500692
3903.000000	100.499772
3902.000000	100.498569
3901.000000	100.497672
3900.000000	100.497141
3899.000000	100.496807
3898.000000	100.496670
3897.000000	100.496841
3896.000000	100.497240
3895.000000	100.497665
3894.000000	100.498103
3893.000000	100.498533
3892.000000	100.498866
3891.000000	100.499106
3890.000000	100.499344
3889.000000	100.499609
3888.000000	100.499851
3887.000000	100.500049
3886.000000	100.500237
3885.000000	100.500438
3884.000000	100.500674
3883.000000	100.500974
3882.000000	100.501351
3881.000000	100.501797
3880.000000	100.502299
3879.000000	100.502843
3878.000000	100.503419
3877.000000	100.504014
3876.000000	100.504612
3875.000000	100.505198
3874.000000	100.505763
3873.000000	100.506307
3872.000000	100.506828
3871.000000	100.507325
3870.000000	100.507799
3869.000000	100.508262
3868.000000	100.508733
3867.000000	100.509225
3866.000000	100.509736
3865.000000	100.510263
3864.000000	100.510809
3863.000000	100.511379
3862.000000	100.511969
3861.000000	100.512573
3860.000000	100.513196
3859.000000	100.513843
3858.000000	100.514517
3857.000000	100.515203
3856.000000	100.515874
3855.000000	100.516494
3854.000000	100.517031
3853.000000	100.517480
3852.000000	100.517876
3851.000000	100.518261
3850.000000	100.518650
3849.000000	100.519038
3848.000000	100.519428
3847.000000	100.519833
3846.000000	100.520265
3845.000000	100.520727
3844.000000	100.521208
3843.000000	100.521684
3842.000000	100.522131
3841.000000	100.522531
3840.000000	100.522880
3839.000000	100.523179
3838.000000	100.523430
3837.000000	100.523639
3836.000000	100.523810
3835.000000	100.523944
3834.000000	100.524038
3833.000000	100.524092
3832.000000	100.524115
3831.000000	100.524121
3830.000000	100.524129
3829.000000	100.524148
3828.000000	100.524184
3827.000000	100.524231
3826.000000	100.524282
3825.000000	100.524328
3824.000000	100.524360
3823.000000	100.524364
3822.000000	100.524322
3821.000000	100.524219
3820.000000	100.524069
3819.000000	100.523896
3818.000000	100.523716
3817.000000	100.523520
3816.000000	100.523297
3815.000000	100.523051
3814.000000	100.522800
3813.000000	100.522558
3812.000000	100.522331
3811.000000	100.522119
3810.000000	100.521919
3809.000000	100.521719
3808.000000	100.521503
3807.000000	100.521261
3806.000000	100.520996
3805.000000	100.520714
3804.000000	100.520414
3803.000000	100.520092
3802.000000	100.519747
3801.000000	100.519399
3800.000000	100.519077
3799.000000	100.518804
3798.000000	100.518572
3797.000000	100.518356
3796.000000	100.518146
3795.000000	100.517948
3794.000000	100.517769
3793.000000	100.517617
3792.000000	100.517495
3791.000000	100.517411
3790.000000	100.517372
3789.000000	100.517379
3788.000000	100.517427
3787.000000	100.517505
3786.000000	100.517602
3785.000000	100.517707
3784.000000	100.517816
3783.000000	100.517930
3782.000000	100.518042
3781.000000	100.518144
3780.000000	100.518245
3779.000000	100.518366
3778.000000	100.518524
3777.000000	100.518714
3776.000000	100.518915
3775.000000	100.519120
3774.000000	100.519283
3773.000000	100.519351
3772.000000	100.519411
3771.000000	100.519564
3770.000000	100.519689
3769.000000	100.519648
3768.000000	100.519639
3767.000000	100.519859
3766.000000	100.519994
3765.000000	100.519673
3764.000000	100.519320
3763.000000	100.519850
3762.000000	100.521523
3761.000000	100.523541
3760.000000	100.524947
3759.000000	100.525520
3758.000000	100.525579
3757.000000	100.525282
3756.000000	100.524538
3755.000000	100.523508
3754.000000	100.522514
3753.000000	100.521778
3752.000000	100.521649
3751.000000	100.522218
3750.000000	100.522959
3749.000000	100.523519
3748.000000	100.524497
3747.000000	100.526658
3746.000000	100.529130
3745.000000	100.528674
3744.000000	100.523034
3743.000000	100.515340
3742.000000	100.510852
3741.000000	100.507991
3740.000000	100.501758
3739.000000	100.494995
3738.000000	100.494061
3737.000000	100.498534
3736.000000	100.502233
3735.000000	100.500820
3734.000000	100.496431
3733.000000	100.493486
3732.000000	100.492485
3731.000000	100.491181
3730.000000	100.488606
3729.000000	100.484576
3728.000000	100.478693
3727.000000	100.472189
3726.000000	100.467728
3725.000000	100.466390
3724.000000	100.466215
3723.000000	100.463851
3722.000000	100.458310
3721.000000	100.452407
3720.000000	100.448762
3719.000000	100.446460
3718.000000	100.442676
3717.000000	100.436499
3716.000000	100.430006
3715.000000	100.425884
3714.000000	100.424709
3713.000000	100.424520
3712.000000	100.422384
3711.000000	100.416348
3710.000000	100.406995
3709.000000	100.395880
3708.000000	100.383209
3707.000000	100.369129
3706.000000	100.355107
3705.000000	100.341988
3704.000000	100.328353
3703.000000	100.312282
3702.000000	100.294718
3701.000000	100.279962
3700.000000	100.272004
3699.000000	100.270359
3698.000000	100.269453
3697.000000	100.263479
3696.000000	100.252655
3695.000000	100.243457
3694.000000	100.242067
3693.000000	100.248871
3692.000000	100.258992
3691.000000	100.266202
3690.000000	100.266567
3689.000000	100.261554
3688.000000	100.257268
3687.000000	100.258175
3686.000000	100.261856
3685.000000	100.260724
3684.000000	100.250491
3683.000000	100.235059
3682.000000	100.220828
3681.000000	100.209389
3680.000000	100.198482
3679.000000	100.187615
3678.000000	100.179830
3677.000000	100.175434
3676.000000	100.167083
3675.000000	100.148779
3674.000000	100.126948
3673.000000	100.111156
3672.000000	100.096423
3671.000000	100.072994
3670.000000	100.044370
3669.000000	100.020706
3668.000000	100.006467
3667.000000	99.996050
3666.000000	99.978706
3665.000000	99.952972
3664.000000	99.927524
3663.000000	99.908061
3662.000000	99.892708
3661.000000	99.877141
3660.000000	99.859856
3659.000000	99.842268
3658.000000	99.825115
3657.000000	99.806066
3656.000000	99.783116
3655.000000	99.759242
3654.000000	99.739806
3653.000000	99.724921
3652.000000	99.710003
3651.000000	99.693473
3650.000000	99.677593
3649.000000	99.665966
3648.000000	99.661241
3647.000000	99.659914
3646.000000	99.653631
3645.000000	99.638415
3644.000000	99.616590
3643.000000	99.592098
3642.000000	99.568386
3641.000000	99.548547
3640.000000	99.533973
3639.000000	99.522203
3638.000000	99.508151
3637.000000	99.488564
3636.000000	99.464401
3635.000000	99.438230
3634.000000	99.412227
3633.000000	99.389280
3632.000000	99.372803
3631.000000	99.363165
3630.000000	99.355427
3629.000000	99.342997
3628.000000	99.326505
3627.000000	99.314922
3626.000000	99.309598
3625.000000	99.298271
3624.000000	99.276152
3623.000000	99.254706
3622.000000	99.245577
3621.000000	99.252690
3620.000000	99.274113
3619.000000	99.302811
3618.000000	99.330284
3617.000000	99.352059
3616.000000	99.368247
3615.000000	99.381207
3614.000000	99.393801
3613.000000	99.406764
3612.000000	99.418841
3611.000000	99.430045
3610.000000	99.442495
3609.000000	99.457974
3608.000000	99.475626
3607.000000	99.492622
3606.000000	99.506684
3605.000000	99.517458
3604.000000	99.526830
3603.000000	99.538291
3602.000000	99.553510
3601.000000	99.569707
3600.000000	99.582571
3599.000000	99.590809
3598.000000	99.596973
3597.000000	99.604332
3596.000000	99.614324
3595.000000	99.625276
3594.000000	99.633568
3593.000000	99.637340
3592.000000	99.638470
3591.000000	99.640515
3590.000000	99.645903
3589.000000	99.654054
3588.000000	99.661150
3587.000000	99.664263
3586.000000	99.665215
3585.000000	99.667416
3584.000000	99.670572
3583.000000	99.672307
3582.000000	99.672369
3581.000000	99.672566
3580.000000	99.674719
3579.000000	99.679269
3578.000000	99.684714
3577.000000	99.688289
3576.000000	99.688021
3575.000000	99.684106
3574.000000	99.678330
3573.000000	99.672668
3572.000000	99.668497
3571.000000	99.666762
3570.000000	99.668113
3569.000000	99.672267
3568.000000	99.676861
3567.000000	99.678094
3566.000000	99.673762
3565.000000	99.664860
3564.000000	99.654112
3563.000000	99.644848
3562.000000	99.640554
3561.000000	99.642492
3560.000000	99.648006
3559.000000	99.652665
3558.000000	99.653613
3557.000000	99.650797
3556.000000	99.646034
3555.000000	99.641666
3554.000000	99.639256
3553.000000	99.638595
3552.000000	99.637918
3551.000000	99.635537
3550.000000	99.631347
3549.000000	99.626858
3548.000000	99.624061
3547.000000	99.623846
3546.000000	99.625017
3545.000000	99.625394
3544.000000	99.624186
3543.000000	99.622541
3542.000000	99.621678
3541.000000	99.621240
3540.000000	99.619902
3539.000000	99.617273
3538.000000	99.614576
3537.000000	99.613220
3536.000000	99.613144
3535.000000	99.613008
3534.000000	99.611867
3533.000000	99.610065
3532.000000	99.608487
3531.000000	99.607293
3530.000000	99.605666
3529.000000	99.602832
3528.000000	99.599114
3527.000000	99.595727
3526.000000	99.593593
3525.000000	99.592801
3524.000000	99.593132
3523.000000	99.594603
3522.000000	99.597123
3521.000000	99.599995
3520.000000	99.602250
3519.000000	99.603426
3518.000000	99.603672
3517.000000	99.602988
3516.000000	99.600967
3515.000000	99.597616
3514.000000	99.593953
3513.000000	99.591299
3512.000000	99.590065
3511.000000	99.589416
3510.000000	99.588107
3509.000000	99.585402
3508.000000	99.581271
3507.000000	99.576176
3506.000000	99.570943
3505.000000	99.566712
3504.000000	99.564516
3503.000000	99.564562
3502.000000	99.565979
3501.000000	99.567411
3500.000000	99.568060
3499.000000	99.568022
3498.000000	99.567657
3497.000000	99.566921
3496.000000	99.565520
3495.000000	99.563464
3494.000000	99.561044
3493.000000	99.558411
3492.000000	99.555620
3491.000000	99.553037
3490.000000	99.551264
3489.000000	99.550443
3488.000000	99.549915
3487.000000	99.548779
3486.000000	99.546682
3485.000000	99.543930
3484.000000	99.541097
3483.000000	99.538652
3482.000000	99.536709
3481.000000	99.534899
3480.000000	99.532658
3479.000000	99.529854
3478.000000	99.527044
3477.000000	99.524925
3476.000000	99.523578
3475.000000	99.522352
3474.000000	99.520485
3473.000000	99.517767
3472.000000	99.514521
3471.000000	99.511203
3470.000000	99.508033
3469.000000	99.505002
3468.000000	99.502083
3467.000000	99.499394
3466.000000	99.497139
3465.000000	99.495362
3464.000000	99.493728
3463.000000	99.491667
3462.000000	99.488897
3461.000000	99.485716
3460.000000	99.482745
3459.000000	99.480273
3458.000000	99.477975
3457.000000	99.475305
3456.000000	99.472074
3455.000000	99.468588
3454.000000	99.465317
3453.000000	99.462537
3452.000000	99.460282
3451.000000	99.458499
3450.000000	99.457114
3449.000000	99.455923
3448.000000	99.454524
3447.000000	99.452466
3446.000000	99.449567
3445.000000	99.446058
3444.000000	99.442384
3443.000000	99.438850
3442.000000	99.435402
3441.000000	99.431746
3440.000000	99.427772
3439.000000	99.423844
3438.000000	99.420538
3437.000000	99.418071
3436.000000	99.416082
3435.000000	99.414052
3434.000000	99.411796
3433.000000	99.409347
3432.000000	99.406596
3431.000000	99.403445
3430.000000	99.400310
3429.000000	99.398159
3428.000000	99.397794
3427.000000	99.399009
3426.000000	99.400463
3425.000000	99.400588
3424.000000	99.398721
3423.000000	99.395321
3422.000000	99.391257
3421.000000	99.387104
3420.000000	99.383314
3419.000000	99.380588
3418.000000	99.379452
3417.000000	99.379530
3416.000000	99.379707
3415.000000	99.379157
3414.000000	99.377822
3413.000000	99.375964
3412.000000	99.373881
3411.000000	99.372195
3410.000000	99.371606
3409.000000	99.371821
3408.000000	99.371295
3407.000000	99.368785
3406.000000	99.364896
3405.000000	99.361501
3404.000000	99.359712
3403.000000	99.359015
3402.000000	99.358257
3401.000000	99.356785
3400.000000	99.354560
3399.000000	99.351873
3398.000000	99.349294
3397.000000	99.347449
3396.000000	99.346532
3395.000000	99.346316
3394.000000	99.346878
3393.000000	99.348836
3392.000000	99.352452
3391.000000	99.356710
3390.000000	99.359783
3389.000000	99.360501
3388.000000	99.359186
3387.000000	99.357292
3386.000000	99.356347
3385.000000	99.357007
3384.000000	99.358869
3383.000000	99.360937
3382.000000	99.362276
3381.000000	99.362407
3380.000000	99.361516
3379.000000	99.360491
3378.000000	99.360456
3377.000000	99.361754
3376.000000	99.363407
3375.000000	99.364033
3374.000000	99.363440
3373.000000	99.362917
3372.000000	99.363760
3371.000000	99.365866
3370.000000	99.368039
3369.000000	99.369385
3368.000000	99.370073
3367.000000	99.370939
3366.000000	99.372688
3365.000000	99.375329
3364.000000	99.378052
3363.000000	99.379728
3362.000000	99.379832
3361.000000	99.378902
3360.000000	99.378041
3359.000000	99.378032
3358.000000	99.379047
3357.000000	99.380980
3356.000000	99.383656
3355.000000	99.386714
3354.000000	99.389688
3353.000000	99.392389
3352.000000	99.395038
3351.000000	99.397857
3350.000000	99.400629
3349.000000	99.402811
3348.000000	99.404115
3347.000000	99.404901
3346.000000	99.405924
3345.000000	99.407692
3344.000000	99.410148
3343.000000	99.412942
3342.000000	99.415777
3341.000000	99.418410
3340.000000	99.420563
3339.000000	99.422160
3338.000000	99.423645
3337.000000	99.425673
3336.000000	99.428330
3335.000000	99.431009
3334.000000	99.433295
3333.000000	99.435604
3332.000000	99.438520
3331.000000	99.441699
3330.000000	99.444006
3329.000000	99.444798
3328.000000	99.444619
3327.000000	99.444616
3326.000000	99.445500
3325.000000	99.447327
3324.000000	99.449964
3323.000000	99.453324
3322.000000	99.457100
3321.000000	99.460634
3320.000000	99.463270
3319.000000	99.464792
3318.000000	99.465574
3317.000000	99.466296
3316.000000	99.467398
3315.000000	99.468813
3314.000000	99.470229
3313.000000	99.471529
3312.000000	99.472886
3311.000000	99.474444
3310.000000	99.476058
3309.000000	99.477502
3308.000000	99.478881
3307.000000	99.480614
3306.000000	99.482962
3305.000000	99.485706
3304.000000	99.488353
3303.000000	99.490591
3302.000000	99.492472
3301.000000	99.494230
3300.000000	99.496054
3299.000000	99.498007
3298.000000	99.500062
3297.000000	99.502142
3296.000000	99.504173
3295.000000	99.506167
3294.000000	99.508244
3293.000000	99.510499
3292.000000	99.512865
3291.000000	99.515151
3290.000000	99.517251
3289.000000	99.519274
3288.000000	99.521409
3287.000000	99.523706
3286.000000	99.526070
3285.000000	99.528452
3284.000000	99.530914
3283.000000	99.533499
3282.000000	99.536126
3281.000000	99.538644
3280.000000	99.540997
3279.000000	99.543243
3278.000000	99.545479
3277.000000	99.547786
3276.000000	99.550198
3275.000000	99.552713
3274.000000	99.555304
3273.000000	99.557921
3272.000000	99.560527
3271.000000	99.563116
3270.000000	99.565703
3269.000000	99.568315
3268.000000	99.570975
3267.000000	99.573686
3266.000000	99.576430
3265.000000	99.579176
3264.000000	99.581912
3263.000000	99.584662
3262.000000	99.587459
3261.000000	99.590302
3260.000000	99.593139
3259.000000	99.595923
3258.000000	99.598669
3257.000000	99.601430
3256.000000	99.604225
3255.000000	99.607012
3254.000000	99.609734
3253.000000	99.612391
3252.000000	99.615061
3251.000000	99.617823
3250.000000	99.620716
3249.000000	99.623769
3248.000000	99.626998
3247.000000	99.630314
3246.000000	99.633480
3245.000000	99.636282
3244.000000	99.638781
3243.000000	99.641367
3242.000000	99.644374
3241.000000	99.647745
3240.000000	99.651068
3239.000000	99.654033
3238.000000	99.656739
3237.000000	99.659526
3236.000000	99.662584
3235.000000	99.665842
3234.000000	99.669189
3233.000000	99.672669
3232.000000	99.676384
3231.000000	99.680263
3230.000000	99.684012
3229.000000	99.687393
3228.000000	99.690497
3227.000000	99.693619
3226.000000	99.696826
3225.000000	99.699821
3224.000000	99.702317
3223.000000	99.704426
3222.000000	99.706603
3221.000000	99.709282
3220.000000	99.712650
3219.000000	99.716647
3218.000000	99.720961
3217.000000	99.725096
3216.000000	99.728659
3215.000000	99.731681
3214.000000	99.734544
3213.000000	99.737551
3212.000000	99.740621
3211.000000	99.743429
3210.000000	99.745726
3209.000000	99.747546
3208.000000	99.749265
3207.000000	99.751494
3206.000000	99.754697
3205.000000	99.758865
3204.000000	99.763483
3203.000000	99.767856
3202.000000	99.771551
3201.000000	99.774555
3200.000000	99.777200
3199.000000	99.779972
3198.000000	99.783205
3197.000000	99.786871
3196.000000	99.790680
3195.000000	99.794345
3194.000000	99.797736
3193.000000	99.800815
3192.000000	99.803613
3191.000000	99.806266
3190.000000	99.808915
3189.000000	99.811559
3188.000000	99.814149
3187.000000	99.816853
3186.000000	99.820028
3185.000000	99.823830
3184.000000	99.828015
3183.000000	99.832149
3182.000000	99.835977
3181.000000	99.839556
3180.000000	99.843139
3179.000000	99.846913
3178.000000	99.850721
3177.000000	99.854125
3176.000000	99.856925
3175.000000	99.859547
3174.000000	99.862689
3173.000000	99.866558
3172.000000	99.870686
3171.000000	99.874502
3170.000000	99.877918
3169.000000	99.881175
3168.000000	99.884359
3167.000000	99.887334
3166.000000	99.890062
3165.000000	99.892716
3164.000000	99.895488
3163.000000	99.898471
3162.000000	99.901691
3161.000000	99.905122
3160.000000	99.908684
3159.000000	99.912335
3158.000000	99.916074
3157.000000	99.919703
3156.000000	99.922779
3155.000000	99.925085
3154.000000	99.927028
3153.000000	99.929348
3152.000000	99.932377
3151.000000	99.935814
3150.000000	99.939092
3149.000000	99.941823
3148.000000	99.943941
3147.000000	99.945663
3146.000000	99.947435
3145.000000	99.949702
3144.000000	99.952639
3143.000000	99.956127
3142.000000	99.959907
3141.000000	99.963675
3140.000000	99.967051
3139.000000	99.969716
3138.000000	99.971721
3137.000000	99.973503
3136.000000	99.975464
3135.000000	99.977646
3134.000000	99.979935
3133.000000	99.982335
3132.000000	99.984856
3131.000000	99.987293
3130.000000	99.989353
3129.000000	99.990987
3128.000000	99.992480
3127.000000	99.994274
3126.000000	99.996702
3125.000000	99.999757
3124.000000	100.002997
3123.000000	100.005827
3122.000000	100.007999
3121.000000	100.009786
3120.000000	100.011662
3119.000000	100.013887
3118.000000	100.016383
3117.000000	100.018855
3116.000000	100.021095
3115.000000	100.023380
3114.000000	100.026486
3113.000000	100.031005
3112.000000	100.036524
3111.000000	100.041694
3110.000000	100.045415
3109.000000	100.047637
3108.000000	100.049019
3107.000000	100.050119
3106.000000	100.051145
3105.000000	100.052236
3104.000000	100.053553
3103.000000	100.055152
3102.000000	100.057011
3101.000000	100.059135
3100.000000	100.061514
3099.000000	100.064033
3098.000000	100.066534
3097.000000	100.068961
3096.000000	100.071399
3095.000000	100.074024
3094.000000	100.076977
3093.000000	100.080116
3092.000000	100.082915
3091.000000	100.084837
3090.000000	100.085902
3089.000000	100.086757
3088.000000	100.088027
3087.000000	100.089779
3086.000000	100.091734
3085.000000	100.093710
3084.000000	100.095640
3083.000000	100.097344
3082.000000	100.098656
3081.000000	100.099736
3080.000000	100.101034
3079.000000	100.102841
3078.000000	100.104975
3077.000000	100.106952
3076.000000	100.108411
3075.000000	100.109379
3074.000000	100.110228
3073.000000	100.111384
3072.000000	100.112983
3071.000000	100.114791
3070.000000	100.116398
3069.000000	100.117594
3068.000000	100.118490
3067.000000	100.119360
3066.000000	100.120389
3065.000000	100.121587
3064.000000	100.122874
3063.000000	100.124147
3062.000000	100.125283
3061.000000	100.126185
3060.000000	100.126877
3059.000000	100.127549
3058.000000	100.128404
3057.000000	100.129475
3056.000000	100.130651
3055.000000	100.131879
3054.000000	100.133249
3053.000000	100.134795
3052.000000	100.136303
3051.000000	100.137422
3050.000000	100.137980
3049.000000	100.138165
3048.000000	100.138474
3047.000000	100.139349
3046.000000	100.140853
3045.000000	100.142579
3044.000000	100.143943
3043.000000	100.144720
3042.000000	100.145281
3041.000000	100.146311
3040.000000	100.148203
3039.000000	100.150701
3038.000000	100.153070
3037.000000	100.154586
3036.000000	100.154881
3035.000000	100.154034
3034.000000	100.152606
3033.000000	100.151574
3032.000000	100.151945
3031.000000	100.154122
3030.000000	100.157480
3029.000000	100.160690
3028.000000	100.162748
3027.000000	100.163632
3026.000000	100.163911
3025.000000	100.163823
3024.000000	100.163076
3023.000000	100.161676
3022.000000	100.160557
3021.000000	100.160904
3020.000000	100.162852
3019.000000	100.165100
3018.000000	100.165958
3017.000000	100.164719
3016.000000	100.162079
3015.000000	100.159354
3014.000000	100.157295
3013.000000	100.155645
3012.000000	100.153926
3011.000000	100.152578
3010.000000	100.152911
3009.000000	100.155570
3008.000000	100.159344
3007.000000	100.162000
3006.000000	100.162323
3005.000000	100.160977
3004.000000	100.159502
3003.000000	100.158899
3002.000000	100.159167
3001.000000	100.159626
3000.000000	100.159345
2999.000000	100.157591
2998.000000	100.154332
2997.000000	100.150389
2996.000000	100.146911
2995.000000	100.144445
2994.000000	100.142226
2993.000000	100.138296
2992.000000	100.130891
2991.000000	100.120398
2990.000000	100.109878
2989.000000	100.102892
2988.000000	100.100574
2987.000000	100.101205
2986.000000	100.102362
2985.000000	100.102569
2984.000000	100.100754
2983.000000	100.095607
2982.000000	100.086825
2981.000000	100.076448
2980.000000	100.067547
2979.000000	100.061369
2978.000000	100.056647
2977.000000	100.051943
2976.000000	100.048019
2975.000000	100.047429
2974.000000	100.052140
2973.000000	100.061956
2972.000000	100.074793
2971.000000	100.088025
2970.000000	100.099703
2969.000000	100.109004
2968.000000	100.116025
2967.000000	100.121493
2966.000000	100.126593
2965.000000	100.132620
2964.000000	100.140321
2963.000000	100.149528
2962.000000	100.159449
2961.000000	100.169027
2960.000000	100.176972
2959.000000	100.182239
2958.000000	100.185286
2957.000000	100.188317
2956.000000	100.193028
2955.000000	100.198101
2954.000000	100.200249
2953.000000	100.198214
2952.000000	100.194484
2951.000000	100.192319
2950.000000	100.192082
2949.000000	100.191845
2948.000000	100.190937
2947.000000	100.191267
2946.000000	100.194965
2945.000000	100.201822
2944.000000	100.209230
2943.000000	100.213832
2942.000000	100.213398
2941.000000	100.208447
2940.000000	100.202642
2939.000000	100.200386
2938.000000	100.203114
2937.000000	100.208549
2936.000000	100.213810
2935.000000	100.218291
2934.000000	100.222716
2933.000000	100.226717
2932.000000	100.229170
2931.000000	100.230598
2930.000000	100.233389
2929.000000	100.239015
2928.000000	100.246131
2927.000000	100.252131
2926.000000	100.255849
2925.000000	100.258107
2924.000000	100.260293
2923.000000	100.263302
2922.000000	100.267621
2921.000000	100.273549
2920.000000	100.281004
2919.000000	100.289239
2918.000000	100.296761
2917.000000	100.301571
2916.000000	100.301912
2915.000000	100.297216
2914.000000	100.288564
2913.000000	100.278254
2912.000000	100.268614
2911.000000	100.260816
2910.000000	100.254629
2909.000000	100.249407
2908.000000	100.245449
2907.000000	100.244004
2906.000000	100.245635
2905.000000	100.248995
2904.000000	100.251875
2903.000000	100.253387
2902.000000	100.254345
2901.000000	100.255510
2900.000000	100.256289
2899.000000	100.255566
2898.000000	100.253213
2897.000000	100.250378
2896.000000	100.248599
2895.000000	100.248869
2894.000000	100.251186
2893.000000	100.254648
2892.000000	100.258184
2891.000000	100.261310
2890.000000	100.263904
2889.000000	100.265324
2888.000000	100.264535
2887.000000	100.261517
2886.000000	100.257967
2885.000000	100.255991
2884.000000	100.256349
2883.000000	100.258342
2882.000000	100.260935
2881.000000	100.263426
2880.000000	100.265254
2879.000000	100.265925
2878.000000	100.265353
2877.000000	100.264151
2876.000000	100.263626
2875.000000	100.265493
2874.000000	100.271049
2873.000000	100.279996
2872.000000	100.290177
2871.000000	100.299089
2870.000000	100.305690
2869.000000	100.310384
2868.000000	100.313566
2867.000000	100.314990
2866.000000	100.314763
2865.000000	100.314312
2864.000000	100.315590
2863.000000	100.319185
2862.000000	100.323619
2861.000000	100.326872
2860.000000	100.328710
2859.000000	100.331160
2858.000000	100.336340
2857.000000	100.343957
2856.000000	100.351407
2855.000000	100.356462
2854.000000	100.359332
2853.000000	100.361945
2852.000000	100.365712
2851.000000	100.370291
2850.000000	100.374085
2849.000000	100.375407
2848.000000	100.373552
2847.000000	100.369539
2846.000000	100.365749
2845.000000	100.363994
2844.000000	100.363753
2843.000000	100.362855
2842.000000	100.360030
2841.000000	100.356305
2840.000000	100.353731
2839.000000	100.353199
2838.000000	100.353983
2837.000000	100.355168
2836.000000	100.356913
2835.000000	100.360038
2834.000000	100.364688
2833.000000	100.369776
2832.000000	100.373776
2831.000000	100.375834
2830.000000	100.375990
2829.000000	100.374633
2828.000000	100.372216
2827.000000	100.369567
2826.000000	100.367926
2825.000000	100.368201
2824.000000	100.370233
2823.000000	100.373049
2822.000000	100.375874
2821.000000	100.378710
2820.000000	100.381890
2819.000000	100.385295
2818.000000	100.388205
2817.000000	100.389884
2816.000000	100.390236
2815.000000	100.389883
2814.000000	100.389716
2813.000000	100.390392
2812.000000	100.392152
2811.000000	100.394840
2810.000000	100.397900
2809.000000	100.400518
2808.000000	100.402113
2807.000000	100.402732
2806.000000	100.402888
2805.000000	100.403036
2804.000000	100.403254
2803.000000	100.403482
2802.000000	100.403932
2801.000000	100.405105
2800.000000	100.407389
2799.000000	100.410654
2798.000000	100.414133
2797.000000	100.416786
2796.000000	100.417984
2795.000000	100.417925
2794.000000	100.417479
2793.000000	100.417408
2792.000000	100.417774
2791.000000	100.418260
2790.000000	100.418866
2789.000000	100.420029
2788.000000	100.422060
2787.000000	100.424716
2786.000000	100.427405
2785.000000	100.429663
2784.000000	100.431339
2783.000000	100.432463
2782.000000	100.433080
2781.000000	100.433205
2780.000000	100.432913
2779.000000	100.432436
2778.000000	100.432057
2777.000000	100.431835
2776.000000	100.431598
2775.000000	100.431392
2774.000000	100.431769
2773.000000	100.433322
2772.000000	100.436032
2771.000000	100.439341
2770.000000	100.442760
2769.000000	100.445953
2768.000000	100.448254
2767.000000	100.448740
2766.000000	100.447089
2765.000000	100.444102
2764.000000	100.441101
2763.000000	100.438898
2762.000000	100.437705
2761.000000	100.437652
2760.000000	100.438786
2759.000000	100.440665
2758.000000	100.442491
2757.000000	100.443787
2756.000000	100.444624
2755.000000	100.445176
2754.000000	100.445503
2753.000000	100.445925
2752.000000	100.447162
2751.000000	100.449688
2750.000000	100.453035
2749.000000	100.455993
2748.000000	100.457648
2747.000000	100.458004
2746.000000	100.457665
2745.000000	100.457219
2744.000000	100.456934
2743.000000	100.456882
2742.000000	100.457074
2741.000000	100.457447
2740.000000	100.457901
2739.000000	100.458447
2738.000000	100.459243
2737.000000	100.460389
2736.000000	100.461710
2735.000000	100.462826
2734.000000	100.463484
2733.000000	100.463759
2732.000000	100.463884
2731.000000	100.463906
2730.000000	100.463599
2729.000000	100.462803
2728.000000	100.461851
2727.000000	100.461515
2726.000000	100.462400
2725.000000	100.464411
2724.000000	100.466784
2723.000000	100.468666
2722.000000	100.469713
2721.000000	100.470170
2720.000000	100.470532
2719.000000	100.471158
2718.000000	100.472061
2717.000000	100.472997
2716.000000	100.473787
2715.000000	100.474587
2714.000000	100.475735
2713.000000	100.477263
2712.000000	100.478653
2711.000000	100.479263
2710.000000	100.478911
2709.000000	100.478010
2708.000000	100.477253
2707.000000	100.477123
2706.000000	100.477639
2705.000000	100.478365
2704.000000	100.478705
2703.000000	100.478405
2702.000000	100.477790
2701.000000	100.477468
2700.000000	100.477719
2699.000000	100.478254
2698.000000	100.478600
2697.000000	100.478648
2696.000000	100.478724
2695.000000	100.479131
2694.000000	100.479731
2693.000000	100.480070
2692.000000	100.479909
2691.000000	100.479562
2690.000000	100.479576
2689.000000	100.480098
2688.000000	100.480707
2687.000000	100.481038
2686.000000	100.481320
2685.000000	100.481966
2684.000000	100.482774
2683.000000	100.483094
2682.000000	100.482799
2681.000000	100.482564
2680.000000	100.482971
2679.000000	100.483764
2678.000000	100.484290
2677.000000	100.484342
2676.000000	100.484140
2675.000000	100.483841
2674.000000	100.483533
2673.000000	100.483484
2672.000000	100.483787
2671.000000	100.483871
2670.000000	100.482972
2669.000000	100.481216
2668.000000	100.479755
2667.000000	100.479561
2666.000000	100.480600
2665.000000	100.482324
2664.000000	100.484416
2663.000000	100.486669
2662.000000	100.488584
2661.000000	100.489678
2660.000000	100.490038
2659.000000	100.490122
2658.000000	100.490125
2657.000000	100.489917
2656.000000	100.489439
2655.000000	100.488773
2654.000000	100.487950
2653.000000	100.487034
2652.000000	100.486363
2651.000000	100.486399
2650.000000	100.487321
2649.000000	100.488900
2648.000000	100.490610
2647.000000	100.491767
2646.000000	100.491784
2645.000000	100.490621
2644.000000	100.489064
2643.000000	100.488269
2642.000000	100.488764
2641.000000	100.490049
2640.000000	100.491059
2639.000000	100.491069
2638.000000	100.490171
2637.000000	100.489079
2636.000000	100.488458
2635.000000	100.488276
2634.000000	100.487871
2633.000000	100.486781
2632.000000	100.485433
2631.000000	100.484761
2630.000000	100.485097
2629.000000	100.485785
2628.000000	100.485950
2627.000000	100.485429
2626.000000	100.484763
2625.000000	100.484548
2624.000000	100.485022
2623.000000	100.486103
2622.000000	100.487523
2621.000000	100.488896
2620.000000	100.489804
2619.000000	100.489911
2618.000000	100.489095
2617.000000	100.487610
2616.000000	100.486118
2615.000000	100.485353
2614.000000	100.485671
2613.000000	100.486983
2612.000000	100.488994
2611.000000	100.491249
2610.000000	100.493003
2609.000000	100.493536
2608.000000	100.492813
2607.000000	100.491627
2606.000000	100.490798
2605.000000	100.490451
2604.000000	100.490367
2603.000000	100.490584
2602.000000	100.491215
2601.000000	100.491924
2600.000000	100.492087
2599.000000	100.491451
2598.000000	100.490261
2597.000000	100.488836
2596.000000	100.487490
2595.000000	100.486711
2594.000000	100.486932
2593.000000	100.488074
2592.000000	100.489537
2591.000000	100.490702
2590.000000	100.491220
2589.000000	100.490880
2588.000000	100.489607
2587.000000	100.487731
2586.000000	100.485960
2585.000000	100.484841
2584.000000	100.484408
2583.000000	100.484397
2582.000000	100.484625
2581.000000	100.485007
2580.000000	100.485398
2579.000000	100.485601
2578.000000	100.485524
2577.000000	100.485282
2576.000000	100.485200
2575.000000	100.485637
2574.000000	100.486644
2573.000000	100.487798
2572.000000	100.488540
2571.000000	100.488714
2570.000000	100.488610
2569.000000	100.488491
2568.000000	100.488271
2567.000000	100.487694
2566.000000	100.486666
2565.000000	100.485387
2564.000000	100.484316
2563.000000	100.483984
2562.000000	100.484603
2561.000000	100.485803
2560.000000	100.486894
2559.000000	100.487432
2558.000000	100.487310
2557.000000	100.486461
2556.000000	100.484949
2555.000000	100.483396
2554.000000	100.482760
2553.000000	100.483418
2552.000000	100.484755
2551.000000	100.485953
2550.000000	100.486921
2549.000000	100.487952
2548.000000	100.488929
2547.000000	100.489442
2546.000000	100.489424
2545.000000	100.489177
2544.000000	100.488885
2543.000000	100.488565
2542.000000	100.488449
2541.000000	100.488926
2540.000000	100.489998
2539.000000	100.491123
2538.000000	100.491716
2537.000000	100.491611
2536.000000	100.491002
2535.000000	100.490097
2534.000000	100.488938
2533.000000	100.487487
2532.000000	100.485917
2531.000000	100.484786
2530.000000	100.484648
2529.000000	100.485359
2528.000000	100.486025
2527.000000	100.485962
2526.000000	100.485517
2525.000000	100.485559
2524.000000	100.486412
2523.000000	100.487715
2522.000000	100.489170
2521.000000	100.490859
2520.000000	100.492717
2519.000000	100.494229
2518.000000	100.494950
2517.000000	100.495054
2516.000000	100.495032
2515.000000	100.494947
2514.000000	100.494297
2513.000000	100.492754
2512.000000	100.490929
2511.000000	100.490163
2510.000000	100.491330
2509.000000	100.494077
2508.000000	100.497101
2507.000000	100.499284
2506.000000	100.500475
2505.000000	100.501027
2504.000000	100.501140
2503.000000	100.500895
2502.000000	100.500634
2501.000000	100.500762
2500.000000	100.501175
2499.000000	100.501290
2498.000000	100.500752
2497.000000	100.499861
2496.000000	100.499248
2495.000000	100.499298
2494.000000	100.499946
2493.000000	100.500818
2492.000000	100.501462
2491.000000	100.501653
2490.000000	100.501563
2489.000000	100.501593
2488.000000	100.501975
2487.000000	100.502611
2486.000000	100.503287
2485.000000	100.503886
2484.000000	100.504393
2483.000000	100.504828
2482.000000	100.505251
2481.000000	100.505697
2480.000000	100.506011
2479.000000	100.505914
2478.000000	100.505355
2477.000000	100.504744
2476.000000	100.504597
2475.000000	100.504962
2474.000000	100.505381
2473.000000	100.505443
2472.000000	100.505214
2471.000000	100.505016
2470.000000	100.505034
2469.000000	100.505350
2468.000000	100.506120
2467.000000	100.507303
2466.000000	100.508353
2465.000000	100.508672
2464.000000	100.508329
2463.000000	100.508055
2462.000000	100.508345
2461.000000	100.508847
2460.000000	100.508929
2459.000000	100.508643
2458.000000	100.508702
2457.000000	100.509498
2456.000000	100.510592
2455.000000	100.511296
2454.000000	100.511469
2453.000000	100.511472
2452.000000	100.511642
2451.000000	100.512095
2450.000000	100.512858
2449.000000	100.513840
2448.000000	100.514744
2447.000000	100.515315
2446.000000	100.515662
2445.000000	100.516131
2444.000000	100.516887
2443.000000	100.517801
2442.000000	100.518690
2441.000000	100.519518
2440.000000	100.520415
2439.000000	100.521591
2438.000000	100.523074
2437.000000	100.524390
2436.000000	100.524726
2435.000000	100.523706
2434.000000	100.521864
2433.000000	100.520201
2432.000000	100.519280
2431.000000	100.518911
2430.000000	100.518643
2429.000000	100.518248
2428.000000	100.517734
2427.000000	100.517172
2426.000000	100.516645
2425.000000	100.516323
2424.000000	100.516450
2423.000000	100.517180
2422.000000	100.518336
2421.000000	100.519390
2420.000000	100.519932
2419.000000	100.520097
2418.000000	100.520372
2417.000000	100.521009
2416.000000	100.521836
2415.000000	100.522608
2414.000000	100.523226
2413.000000	100.523556
2412.000000	100.523388
2411.000000	100.522785
2410.000000	100.522231
2409.000000	100.522145
2408.000000	100.522441
2407.000000	100.522713
2406.000000	100.522806
2405.000000	100.522936
2404.000000	100.523304
2403.000000	100.523806
2402.000000	100.524200
2401.000000	100.524389
2400.000000	100.524465
2399.000000	100.524563
2398.000000	100.524728
2397.000000	100.524932
2396.000000	100.525150
2395.000000	100.525400
2394.000000	100.525709
2393.000000	100.526078
2392.000000	100.526477
2391.000000	100.526869
2390.000000	100.527229
2389.000000	100.527555
2388.000000	100.527860
2387.000000	100.528171
2386.000000	100.528513
2385.000000	100.528887
2384.000000	100.529272
2383.000000	100.529639
2382.000000	100.529972
2381.000000	100.530270
2380.000000	100.530543
2379.000000	100.530816
2378.000000	100.531126
2377.000000	100.531495
2376.000000	100.531910
2375.000000	100.532322
2374.000000	100.532687
2373.000000	100.532992
2372.000000	100.533256
2371.000000	100.533497
2370.000000	100.533691
2369.000000	100.533779
2368.000000	100.533749
2367.000000	100.533715
2366.000000	100.533853
2365.000000	100.534230
2364.000000	100.534773
2363.000000	100.535327
2362.000000	100.535770
2361.000000	100.536040
2360.000000	100.536138
2359.000000	100.536161
2358.000000	100.536220
2357.000000	100.536344
2356.000000	100.536500
2355.000000	100.536652
2354.000000	100.536729
2353.000000	100.536698
2352.000000	100.536643
2351.000000	100.536659
2350.000000	100.536741
2349.000000	100.536819
2348.000000	100.536826
2347.000000	100.536725
2346.000000	100.536537
2345.000000	100.536324
2344.000000	100.536106
2343.000000	100.535918
2342.000000	100.535902
2341.000000	100.536166
2340.000000	100.536516
2339.000000	100.536568
2338.000000	100.536145
2337.000000	100.535468
2336.000000	100.534898
2335.000000	100.534455
2334.000000	100.533885
2333.000000	100.533119
2332.000000	100.532419
2331.000000	100.531979
2330.000000	100.531744
2329.000000	100.531613
2328.000000	100.531562
2327.000000	100.531396
2326.000000	100.530814
2325.000000	100.529773
2324.000000	100.528558
2323.000000	100.527384
2322.000000	100.526250
2321.000000	100.525206
2320.000000	100.524490
2319.000000	100.524263
2318.000000	100.524444
2317.000000	100.524782
2316.000000	100.524960
2315.000000	100.524600
2314.000000	100.523604
2313.000000	100.522370
2312.000000	100.521505
2311.000000	100.521060
2310.000000	100.520559
2309.000000	100.519697
2308.000000	100.518781
2307.000000	100.518222
2306.000000	100.517962
2305.000000	100.517537
2304.000000	100.516574
2303.000000	100.514994
2302.000000	100.513004
2301.000000	100.511025
2300.000000	100.509521
2299.000000	100.508707
2298.000000	100.508526
2297.000000	100.508746
2296.000000	100.509059
2295.000000	100.509045
2294.000000	100.508480
2293.000000	100.507587
2292.000000	100.506832
2291.000000	100.506356
2290.000000	100.505933
2289.000000	100.505477
2288.000000	100.505270
2287.000000	100.505491
2286.000000	100.505830
2285.000000	100.505806
2284.000000	100.505284
2283.000000	100.504480
2282.000000	100.503603
2281.000000	100.502699
2280.000000	100.501780
2279.000000	100.500901
2278.000000	100.500132
2277.000000	100.499584
2276.000000	100.499370
2275.000000	100.499445
2274.000000	100.499534
2273.000000	100.499363
2272.000000	100.498919
2271.000000	100.498375
2270.000000	100.497843
2269.000000	100.497325
2268.000000	100.496863
2267.000000	100.496548
2266.000000	100.496397
2265.000000	100.496310
2264.000000	100.496177
2263.000000	100.495939
2262.000000	100.495563
2261.000000	100.495049
2260.000000	100.494493
2259.000000	100.494057
2258.000000	100.493803
2257.000000	100.493653
2256.000000	100.493484
2255.000000	100.493243
2254.000000	100.492943
2253.000000	100.492578
2252.000000	100.492104
2251.000000	100.491530
2250.000000	100.490981
2249.000000	100.490593
2248.000000	100.490374
2247.000000	100.490220
2246.000000	100.490068
2245.000000	100.489956
2244.000000	100.489905
2243.000000	100.489832
2242.000000	100.489624
2241.000000	100.489238
2240.000000	100.488730
2239.000000	100.488211
2238.000000	100.487798
2237.000000	100.487563
2236.000000	100.487483
2235.000000	100.487454
2234.000000	100.487378
2233.000000	100.487242
2232.000000	100.487084
2231.000000	100.486919
2230.000000	100.486739
2229.000000	100.486556
2228.000000	100.486388
2227.000000	100.486202
2226.000000	100.485949
2225.000000	100.485677
2224.000000	100.485539
2223.000000	100.485642
2222.000000	100.485913
2221.000000	100.486149
2220.000000	100.486141
2219.000000	100.485727
2218.000000	100.484862
2217.000000	100.483766
2216.000000	100.482911
2215.000000	100.482621
2214.000000	100.482742
2213.000000	100.482843
2212.000000	100.482716
2211.000000	100.482527
2210.000000	100.482444
2209.000000	100.482374
2208.000000	100.482179
2207.000000	100.481994
2206.000000	100.482130
2205.000000	100.482693
2204.000000	100.483454
2203.000000	100.484052
2202.000000	100.484242
2201.000000	100.484028
2200.000000	100.483618
2199.000000	100.483284
2198.000000	100.483171
2197.000000	100.483251
2196.000000	100.483474
2195.000000	100.483887
2194.000000	100.484507
2193.000000	100.485097
2192.000000	100.485255
2191.000000	100.484780
2190.000000	100.483884
2189.000000	100.483068
2188.000000	100.482676
2187.000000	100.482685
2186.000000	100.482880
2185.000000	100.483163
2184.000000	100.483628
2183.000000	100.484344
2182.000000	100.485192
2181.000000	100.485959
2180.000000	100.486528
2179.000000	100.486913
2178.000000	100.487170
2177.000000	100.487309
2176.000000	100.487339
2175.000000	100.487365
2174.000000	100.487561
2173.000000	100.488006
2172.000000	100.488580
2171.000000	100.489045
2170.000000	100.489281
2169.000000	100.489365
2168.000000	100.489441
2167.000000	100.489555
2166.000000	100.489672
2165.000000	100.489807
2164.000000	100.490038
2163.000000	100.490397
2162.000000	100.490825
2161.000000	100.491211
2160.000000	100.491487
2159.000000	100.491666
2158.000000	100.491809
2157.000000	100.491978
2156.000000	100.492203
2155.000000	100.492484
2154.000000	100.492801
2153.000000	100.493123
2152.000000	100.493430
2151.000000	100.493723
2150.000000	100.494012
2149.000000	100.494314
2148.000000	100.494636
2147.000000	100.494978
2146.000000	100.495339
2145.000000	100.495715
2144.000000	100.496098
2143.000000	100.496484
2142.000000	100.496868
2141.000000	100.497243
2140.000000	100.497604
2139.000000	100.497953
2138.000000	100.498295
2137.000000	100.498642
2136.000000	100.499000
2135.000000	100.499372
2134.000000	100.499756
2133.000000	100.500147
2132.000000	100.500539
2131.000000	100.500928
2130.000000	100.501310
2129.000000	100.501689
2128.000000	100.502073
2127.000000	100.502474
2126.000000	100.502902
2125.000000	100.503355
2124.000000	100.503826
2123.000000	100.504300
2122.000000	100.504762
2121.000000	100.505204
2120.000000	100.505630
2119.000000	100.506046
2118.000000	100.506464
2117.000000	100.506889
2116.000000	100.507324
2115.000000	100.507765
2114.000000	100.508203
2113.000000	100.508631
2112.000000	100.509046
2111.000000	100.509453
2110.000000	100.509857
2109.000000	100.510262
2108.000000	100.510671
2107.000000	100.511084
2106.000000	100.511496
2105.000000	100.511903
2104.000000	100.512301
2103.000000	100.512683
2102.000000	100.513044
2101.000000	100.513382
2100.000000	100.513705
2099.000000	100.514018
2098.000000	100.514325
2097.000000	100.514636
2096.000000	100.514991
2095.000000	100.515429
2094.000000	100.515939
2093.000000	100.516426
2092.000000	100.516780
2091.000000	100.516964
2090.000000	100.517063
2089.000000	100.517237
2088.000000	100.517625
2087.000000	100.518269
2086.000000	100.519105
2085.000000	100.520026
2084.000000	100.520911
2083.000000	100.521549
2082.000000	100.521735
2081.000000	100.521542
2080.000000	100.521286
2079.000000	100.521118
2078.000000	100.520789
2077.000000	100.520062
2076.000000	100.519247
2075.000000	100.518984
2074.000000	100.519525
2073.000000	100.520556
2072.000000	100.521665
2071.000000	100.522687
2070.000000	100.523545
2069.000000	100.524187
2068.000000	100.524776
2067.000000	100.525521
2066.000000	100.526135
2065.000000	100.525845
2064.000000	100.524283
2063.000000	100.522122
2062.000000	100.520562
2061.000000	100.520208
2060.000000	100.520799
2059.000000	100.521774
2058.000000	100.522814
2057.000000	100.523817
2056.000000	100.524653
2055.000000	100.525143
2054.000000	100.525181
2053.000000	100.524853
2052.000000	100.524396
2051.000000	100.524002
2050.000000	100.523654
2049.000000	100.523274
2048.000000	100.523033
2047.000000	100.523276
2046.000000	100.524032
2045.000000	100.524771
2044.000000	100.524971
2043.000000	100.524776
2042.000000	100.524746
2041.000000	100.524935
2040.000000	100.524612
2039.000000	100.523154
2038.000000	100.520955
2037.000000	100.519192
2036.000000	100.518589
2035.000000	100.518652
2034.000000	100.518278
2033.000000	100.516977
2032.000000	100.515243
2031.000000	100.513817
2030.000000	100.512892
2029.000000	100.512217
2028.000000	100.511644
2027.000000	100.511209
2026.000000	100.510804
2025.000000	100.510166
2024.000000	100.509290
2023.000000	100.508570
2022.000000	100.508370
2021.000000	100.508646
2020.000000	100.509070
2019.000000	100.509350
2018.000000	100.509304
2017.000000	100.508854
2016.000000	100.508176
2015.000000	100.507729
2014.000000	100.507853
2013.000000	100.508287
2012.000000	100.508268
2011.000000	100.507259
2010.000000	100.505439
2009.000000	100.503498
2008.000000	100.502032
2007.000000	100.501180
2006.000000	100.500805
2005.000000	100.500720
2004.000000	100.500694
2003.000000	100.500412
2002.000000	100.499612
2001.000000	100.498310
2000.000000	100.496823
1999.000000	100.495523
1998.000000	100.494558
1997.000000	100.493856
1996.000000	100.493335
1995.000000	100.493010
1994.000000	100.492863
1993.000000	100.492713
1992.000000	100.492326
1991.000000	100.491661
1990.000000	100.490919
1989.000000	100.490341
1988.000000	100.490005
1987.000000	100.489814
1986.000000	100.489608
1985.000000	100.489256
1984.000000	100.488712
1983.000000	100.488013
1982.000000	100.487257
1981.000000	100.486529
1980.000000	100.485845
1979.000000	100.485191
1978.000000	100.484588
1977.000000	100.484094
1976.000000	100.483745
1975.000000	100.483492
1974.000000	100.483221
1973.000000	100.482836
1972.000000	100.482310
1971.000000	100.481674
1970.000000	100.481017
1969.000000	100.480452
1968.000000	100.480057
1967.000000	100.479808
1966.000000	100.479622
1965.000000	100.479451
1964.000000	100.479263
1963.000000	100.478954
1962.000000	100.478417
1961.000000	100.477728
1960.000000	100.477164
1959.000000	100.476907
1958.000000	100.476763
1957.000000	100.476339
1956.000000	100.475506
1955.000000	100.474561
1954.000000	100.473926
1953.000000	100.473715
1952.000000	100.473640
1951.000000	100.473341
1950.000000	100.472802
1949.000000	100.472292
1948.000000	100.471775
1947.000000	100.470663
1946.000000	100.468489
1945.000000	100.465795
1944.000000	100.463934
1943.000000	100.463746
1942.000000	100.464760
1941.000000	100.465803
1940.000000	100.466320
1939.000000	100.466516
1938.000000	100.466608
1937.000000	100.466481
1936.000000	100.465840
1935.000000	100.464368
1934.000000	100.461941
1933.000000	100.459066
1932.000000	100.456860
1931.000000	100.456047
1930.000000	100.456090
1929.000000	100.455699
1928.000000	100.454181
1927.000000	100.451982
1926.000000	100.449920
1925.000000	100.448320
1924.000000	100.446969
1923.000000	100.445592
1922.000000	100.444344
1921.000000	100.443653
1920.000000	100.443478
1919.000000	100.442772
1918.000000	100.440185
1917.000000	100.435869
1916.000000	100.431941
1915.000000	100.430044
1914.000000	100.429434
1913.000000	100.428008
1912.000000	100.424607
1911.000000	100.419939
1910.000000	100.415444
1909.000000	100.411770
1908.000000	100.408659
1907.000000	100.405781
1906.000000	100.403088
1905.000000	100.400651
1904.000000	100.398478
1903.000000	100.396452
1902.000000	100.394511
1901.000000	100.392619
1900.000000	100.390629
1899.000000	100.388216
1898.000000	100.385182
1897.000000	100.382025
1896.000000	100.379761
1895.000000	100.378726
1894.000000	100.378045
1893.000000	100.376635
1892.000000	100.374324
1891.000000	100.371611
1890.000000	100.368938
1889.000000	100.366705
1888.000000	100.365340
1887.000000	100.364404
1886.000000	100.362341
1885.000000	100.358278
1884.000000	100.353654
1883.000000	100.350846
1882.000000	100.350382
1881.000000	100.350723
1880.000000	100.350744
1879.000000	100.351013
1878.000000	100.352102
1877.000000	100.353134
1876.000000	100.352900
1875.000000	100.351452
1874.000000	100.349865
1873.000000	100.349020
1872.000000	100.349123
1871.000000	100.349852
1870.000000	100.350252
1869.000000	100.349061
1868.000000	100.346536
1867.000000	100.345186
1866.000000	100.347178
1865.000000	100.352148
1864.000000	100.357628
1863.000000	100.360792
1862.000000	100.360305
1861.000000	100.357339
1860.000000	100.354980
1859.000000	100.355825
1858.000000	100.359916
1857.000000	100.365150
1856.000000	100.369597
1855.000000	100.372940
1854.000000	100.375563
1853.000000	100.377482
1852.000000	100.378824
1851.000000	100.380424
1850.000000	100.382892
1849.000000	100.385636
1848.000000	100.387668
1847.000000	100.388741
1846.000000	100.389196
1845.000000	100.389231
1844.000000	100.389172
1843.000000	100.390155
1842.000000	100.392931
1841.000000	100.396202
1840.000000	100.398091
1839.000000	100.398402
1838.000000	100.398477
1837.000000	100.399629
1836.000000	100.401714
1835.000000	100.403250
1834.000000	100.403033
1833.000000	100.401288
1832.000000	100.399449
1831.000000	100.398836
1830.000000	100.399209
1829.000000	100.399429
1828.000000	100.399731
1827.000000	100.401332
1826.000000	100.404434
1825.000000	100.407696
1824.000000	100.409670
1823.000000	100.410575
1822.000000	100.411397
1821.000000	100.412145
1820.000000	100.412260
1819.000000	100.411900
1818.000000	100.411769
1817.000000	100.411737
1816.000000	100.410612
1815.000000	100.407778
1814.000000	100.404357
1813.000000	100.402254
1812.000000	100.402402
1811.000000	100.403844
1810.000000	100.404723
1809.000000	100.404344
1808.000000	100.403637
1807.000000	100.403677
1806.000000	100.404165
1805.000000	100.403875
1804.000000	100.402641
1803.000000	100.401938
1802.000000	100.402868
1801.000000	100.404279
1800.000000	100.404213
1799.000000	100.402533
1798.000000	100.400547
1797.000000	100.399227
1796.000000	100.399153
1795.000000	100.401203
1794.000000	100.405310
1793.000000	100.408587
1792.000000	100.407778
1791.000000	100.404743
1790.000000	100.403931
1789.000000	100.405422
1788.000000	100.406418
1787.000000	100.406570
1786.000000	100.408245
1785.000000	100.412985
1784.000000	100.419543
1783.000000	100.425690
1782.000000	100.429977
1781.000000	100.431438
1780.000000	100.430368
1779.000000	100.429205
1778.000000	100.430238
1777.000000	100.432989
1776.000000	100.435562
1775.000000	100.438324
1774.000000	100.443791
1773.000000	100.451728
1772.000000	100.456571
1771.000000	100.455875
1770.000000	100.455617
1769.000000	100.461578
1768.000000	100.473268
1767.000000	100.485582
1766.000000	100.494151
1765.000000	100.499062
1764.000000	100.503366
1763.000000	100.510366
1762.000000	100.520754
1761.000000	100.531454
1760.000000	100.538443
1759.000000	100.539517
1758.000000	100.534859
1757.000000	100.526372
1756.000000	100.516385
1755.000000	100.507030
1754.000000	100.499221
1753.000000	100.493060
1752.000000	100.488808
1751.000000	100.486225
1750.000000	100.484316
1749.000000	100.481741
1748.000000	100.477034
1747.000000	100.470116
1746.000000	100.462776
1745.000000	100.456760
1744.000000	100.452933
1743.000000	100.451633
1742.000000	100.452829
1741.000000	100.455074
1740.000000	100.454506
1739.000000	100.448144
1738.000000	100.438592
1737.000000	100.430800
1736.000000	100.427079
1735.000000	100.427088
1734.000000	100.426713
1733.000000	100.424441
1732.000000	100.424379
1731.000000	100.426087
1730.000000	100.426117
1729.000000	100.424157
1728.000000	100.421518
1727.000000	100.419126
1726.000000	100.416294
1725.000000	100.412233
1724.000000	100.407624
1723.000000	100.403654
1722.000000	100.400223
1721.000000	100.396121
1720.000000	100.390645
1719.000000	100.384383
1718.000000	100.378190
1717.000000	100.372763
1716.000000	100.368986
1715.000000	100.366688
1714.000000	100.364456
1713.000000	100.361337
1712.000000	100.357492
1711.000000	100.353534
1710.000000	100.349439
1709.000000	100.344459
1708.000000	100.338322
1707.000000	100.331695
1706.000000	100.325119
1705.000000	100.318373
1704.000000	100.311853
1703.000000	100.306730
1702.000000	100.303663
1701.000000	100.300987
1700.000000	100.294786
1699.000000	100.285939
1698.000000	100.279525
1697.000000	100.276340
1696.000000	100.273566
1695.000000	100.268608
1694.000000	100.262070
1693.000000	100.255665
1692.000000	100.248953
1691.000000	100.241337
1690.000000	100.232775
1689.000000	100.223588
1688.000000	100.214459
1687.000000	100.206242
1686.000000	100.199893
1685.000000	100.195320
1684.000000	100.189258
1683.000000	100.181239
1682.000000	100.175783
1681.000000	100.172790
1680.000000	100.168734
1679.000000	100.161811
1678.000000	100.152214
1677.000000	100.142009
1676.000000	100.132729
1675.000000	100.123982
1674.000000	100.116050
1673.000000	100.111295
1672.000000	100.110193
1671.000000	100.110018
1670.000000	100.106201
1669.000000	100.097106
1668.000000	100.087851
1667.000000	100.083002
1666.000000	100.081069
1665.000000	100.079107
1664.000000	100.075995
1663.000000	100.071532
1662.000000	100.066368
1661.000000	100.062304
1660.000000	100.059783
1659.000000	100.056667
1658.000000	100.050441
1657.000000	100.040218
1656.000000	100.028041
1655.000000	100.018157
1654.000000	100.016023
1653.000000	100.017173
1652.000000	100.014386
1651.000000	100.013016
1650.000000	100.010700
1649.000000	100.004399
1648.000000	100.001997
1647.000000	100.005723
1646.000000	100.009836
1645.000000	100.010979
1644.000000	100.010908
1643.000000	100.010688
1642.000000	100.011654
1641.000000	100.013833
1640.000000	100.014604
1639.000000	100.012167
1638.000000	100.008775
1637.000000	100.010478
1636.000000	100.020076
1635.000000	100.031362
1634.000000	100.039498
1633.000000	100.046269
1632.000000	100.052597
1631.000000	100.059362
1630.000000	100.067767
1629.000000	100.076904
1628.000000	100.084822
1627.000000	100.090673
1626.000000	100.095880
1625.000000	100.102309
1624.000000	100.109850
1623.000000	100.115243
1622.000000	100.116654
1621.000000	100.117754
1620.000000	100.123563
1619.000000	100.136914
1618.000000	100.157643
1617.000000	100.179108
1616.000000	100.192611
1615.000000	100.199160
1614.000000	100.205052
1613.000000	100.212976
1612.000000	100.223609
1611.000000	100.235588
1610.000000	100.245518
1609.000000	100.251532
1608.000000	100.255216
1607.000000	100.259332
1606.000000	100.264995
1605.000000	100.271824
1604.000000	100.279528
1603.000000	100.288112
1602.000000	100.297335
1601.000000	100.306890
1600.000000	100.316150
1599.000000	100.323867
1598.000000	100.329379
1597.000000	100.334033
1596.000000	100.340037
1595.000000	100.347541
1594.000000	100.354217
1593.000000	100.358387
1592.000000	100.361087
1591.000000	100.364385
1590.000000	100.369067
1589.000000	100.374712
1588.000000	100.381084
1587.000000	100.388152
1586.000000	100.395183
1585.000000	100.401116
1584.000000	100.405754
1583.000000	100.409591
1582.000000	100.412191
1581.000000	100.412351
1580.000000	100.409728
1579.000000	100.405704
1578.000000	100.403003
1577.000000	100.404090
1576.000000	100.407518
1575.000000	100.409822
1574.000000	100.411012
1573.000000	100.412040
1572.000000	100.413446
1571.000000	100.415417
1570.000000	100.415544
1569.000000	100.412605
1568.000000	100.409947
1567.000000	100.410064
1566.000000	100.411485
1565.000000	100.412307
1564.000000	100.411812
1563.000000	100.409821
1562.000000	100.407239
1561.000000	100.405913
1560.000000	100.408718
1559.000000	100.411144
1558.000000	100.407280
1557.000000	100.405127
1556.000000	100.409030
1555.000000	100.415271
1554.000000	100.420788
1553.000000	100.423188
1552.000000	100.423942
1551.000000	100.425573
1550.000000	100.427926
1549.000000	100.428476
1548.000000	100.426153
1547.000000	100.422877
1546.000000	100.420936
1545.000000	100.420925
1544.000000	100.422042
1543.000000	100.424053
1542.000000	100.427877
1541.000000	100.434015
1540.000000	100.438804
1539.000000	100.437748
1538.000000	100.432525
1537.000000	100.426129
1536.000000	100.419799
1535.000000	100.416257
1534.000000	100.416668
1533.000000	100.417472
1532.000000	100.415478
1531.000000	100.411614
1530.000000	100.407590
1529.000000	100.404273
1528.000000	100.401918
1527.000000	100.400633
1526.000000	100.400476
1525.000000	100.400888
1524.000000	100.401297
1523.000000	100.401953
1522.000000	100.402958
1521.000000	100.402869
1520.000000	100.401330
1519.000000	100.399935
1518.000000	100.399998
1517.000000	100.402495
1516.000000	100.406960
1515.000000	100.411619
1514.000000	100.414920
1513.000000	100.415649
1512.000000	100.413446
1511.000000	100.409228
1510.000000	100.405442
1509.000000	100.405063
1508.000000	100.411070
1507.000000	100.423076
1506.000000	100.433582
1505.000000	100.438249
1504.000000	100.439800
1503.000000	100.440248
1502.000000	100.440802
1501.000000	100.442071
1500.000000	100.443321
1499.000000	100.444393
1498.000000	100.446503
1497.000000	100.450318
1496.000000	100.453983
1495.000000	100.455650
1494.000000	100.455675
1493.000000	100.455127
1492.000000	100.454765
1491.000000	100.454946
1490.000000	100.455571
1489.000000	100.456446
1488.000000	100.457444
1487.000000	100.458704
1486.000000	100.460801
1485.000000	100.463890
1484.000000	100.467220
1483.000000	100.469751
1482.000000	100.470401
1481.000000	100.468682
1480.000000	100.465513
1479.000000	100.462745
1478.000000	100.461591
1477.000000	100.461680
1476.000000	100.461833
1475.000000	100.461863
1474.000000	100.462739
1473.000000	100.464334
1472.000000	100.465449
1471.000000	100.466687
1470.000000	100.469390
1469.000000	100.472686
1468.000000	100.474592
1467.000000	100.473984
1466.000000	100.471356
1465.000000	100.468356
1464.000000	100.466179
1463.000000	100.464314
1462.000000	100.460804
1461.000000	100.453907
1460.000000	100.443918
1459.000000	100.434257
1458.000000	100.430817
1457.000000	100.435498
1456.000000	100.441704
1455.000000	100.443263
1454.000000	100.439796
1453.000000	100.433646
1452.000000	100.426935
1451.000000	100.419666
1450.000000	100.411881
1449.000000	100.404946
1448.000000	100.399625
1447.000000	100.395044
1446.000000	100.390543
1445.000000	100.386796
1444.000000	100.384559
1443.000000	100.383021
1442.000000	100.380349
1441.000000	100.375628
1440.000000	100.369509
1439.000000	100.363723
1438.000000	100.360659
1437.000000	100.361956
1436.000000	100.365892
1435.000000	100.368670
1434.000000	100.367899
1433.000000	100.363753
1432.000000	100.358235
1431.000000	100.353487
1430.000000	100.351120
1429.000000	100.351611
1428.000000	100.353327
1427.000000	100.353846
1426.000000	100.352524
1425.000000	100.350650
1424.000000	100.349246
1423.000000	100.347609
1422.000000	100.345185
1421.000000	100.343348
1420.000000	100.343744
1419.000000	100.345478
1418.000000	100.347166
1417.000000	100.349814
1416.000000	100.354026
1415.000000	100.358966
1414.000000	100.363503
1413.000000	100.367160
1412.000000	100.370513
1411.000000	100.373851
1410.000000	100.376745
1409.000000	100.379087
1408.000000	100.381729
1407.000000	100.386158
1406.000000	100.393589
1405.000000	100.403477
1404.000000	100.413153
1403.000000	100.420046
1402.000000	100.424347
1401.000000	100.428387
1400.000000	100.433560
1399.000000	100.438628
1398.000000	100.441944
1397.000000	100.443977
1396.000000	100.446393
1395.000000	100.450377
1394.000000	100.456128
1393.000000	100.462920
1392.000000	100.468867
1391.000000	100.471540
1390.000000	100.470325
1389.000000	100.467914
1388.000000	100.468830
1387.000000	100.475122
1386.000000	100.483786
1385.000000	100.489982
1384.000000	100.491683
1383.000000	100.490124
1382.000000	100.487764
1381.000000	100.486274
1380.000000	100.485676
1379.000000	100.485184
1378.000000	100.484563
1377.000000	100.484571
1376.000000	100.486369
1375.000000	100.490716
1374.000000	100.497290
1373.000000	100.504502
1372.000000	100.510273
1371.000000	100.513417
1370.000000	100.514718
1369.000000	100.516499
1368.000000	100.520377
1367.000000	100.525302
1366.000000	100.528562
1365.000000	100.528352
1364.000000	100.524947
1363.000000	100.520620
1362.000000	100.518582
1361.000000	100.520447
1360.000000	100.524631
1359.000000	100.527975
1358.000000	100.528756
1357.000000	100.527897
1356.000000	100.527245
1355.000000	100.527012
1354.000000	100.525999
1353.000000	100.524104
1352.000000	100.522964
1351.000000	100.523724
1350.000000	100.525384
1349.000000	100.526040
1348.000000	100.525152
1347.000000	100.523824
1346.000000	100.523358
1345.000000	100.523943
1344.000000	100.524333
1343.000000	100.522643
1342.000000	100.518104
1341.000000	100.512570
1340.000000	100.509613
1339.000000	100.511054
1338.000000	100.514949
1337.000000	100.518145
1336.000000	100.519905
1335.000000	100.521765
1334.000000	100.524829
1333.000000	100.528176
1332.000000	100.529680
1331.000000	100.528050
1330.000000	100.524282
1329.000000	100.521165
1328.000000	100.520856
1327.000000	100.522821
1326.000000	100.524651
1325.000000	100.524897
1324.000000	100.524281
1323.000000	100.524018
1322.000000	100.524178
1321.000000	100.524259
1320.000000	100.524262
1319.000000	100.524253
1318.000000	100.523814
1317.000000	100.523088
1316.000000	100.523653
1315.000000	100.527019
1314.000000	100.532288
1313.000000	100.536261
1312.000000	100.536121
1311.000000	100.531540
1310.000000	100.524669
1309.000000	100.519045
1308.000000	100.517813
1307.000000	100.521360
1306.000000	100.526453
1305.000000	100.528981
1304.000000	100.527997
1303.000000	100.526257
1302.000000	100.526616
1301.000000	100.528694
1300.000000	100.529794
1299.000000	100.528340
1298.000000	100.525484
1297.000000	100.523504
1296.000000	100.523267
1295.000000	100.523559
1294.000000	100.522802
1293.000000	100.521119
1292.000000	100.520227
1291.000000	100.521139
1290.000000	100.522684
1289.000000	100.523017
1288.000000	100.522041
1287.000000	100.521100
1286.000000	100.520426
1285.000000	100.518460
1284.000000	100.514181
1283.000000	100.508881
1282.000000	100.504779
1281.000000	100.502543
1280.000000	100.501027
1279.000000	100.499008
1278.000000	100.496319
1277.000000	100.493501
1276.000000	100.491127
1275.000000	100.489823
1274.000000	100.490589
1273.000000	100.494383
1272.000000	100.500599
1271.000000	100.506031
1270.000000	100.506818
1269.000000	100.502535
1268.000000	100.497583
1267.000000	100.497274
1266.000000	100.502705
1265.000000	100.510312
1264.000000	100.515696
1263.000000	100.516408
1262.000000	100.511834
1261.000000	100.502808
1260.000000	100.491664
1259.000000	100.480848
1258.000000	100.470899
1257.000000	100.461097
1256.000000	100.451929
1255.000000	100.444879
1254.000000	100.439575
1253.000000	100.433380
1252.000000	100.424484
1251.000000	100.413305
1250.000000	100.400125
1249.000000	100.383859
1248.000000	100.364813
1247.000000	100.346613
1246.000000	100.333101
1245.000000	100.324276
1244.000000	100.317002
1243.000000	100.308815
1242.000000	100.299416
1241.000000	100.289147
1240.000000	100.277573
1239.000000	100.263466
1238.000000	100.245529
1237.000000	100.223761
1236.000000	100.200565
1235.000000	100.179380
1234.000000	100.161271
1233.000000	100.143867
1232.000000	100.124397
1231.000000	100.102470
1230.000000	100.079042
1229.000000	100.054146
1228.000000	100.026987
1227.000000	99.997065
1226.000000	99.963693
1225.000000	99.925353
1224.000000	99.881106
1223.000000	99.832169
1222.000000	99.780722
1221.000000	99.727455
1220.000000	99.671266
1219.000000	99.610919
1218.000000	99.546199
1217.000000	99.477759
1216.000000	99.406322
1215.000000	99.331646
1214.000000	99.252427
1213.000000	99.168273
1212.000000	99.081506
1211.000000	98.995233
1210.000000	98.909676
1209.000000	98.822504
1208.000000	98.732830
1207.000000	98.642577
1206.000000	98.554073
1205.000000	98.468809
1204.000000	98.387870
1203.000000	98.310122
1202.000000	98.230495
1201.000000	98.144282
1200.000000	98.053565
1199.000000	97.965460
1198.000000	97.883302
1197.000000	97.803534
1196.000000	97.721589
1195.000000	97.636144
1194.000000	97.547055
1193.000000	97.454105
1192.000000	97.359381
1191.000000	97.266585
1190.000000	97.176316
1189.000000	97.085736
1188.000000	96.993723
1187.000000	96.902083
1186.000000	96.810964
1185.000000	96.717868
1184.000000	96.622135
1183.000000	96.525357
1182.000000	96.426511
1181.000000	96.322359
1180.000000	96.213942
1179.000000	96.106456
1178.000000	96.000613
1177.000000	95.890422
1176.000000	95.772222
1175.000000	95.649900
1174.000000	95.528129
1173.000000	95.406300
1172.000000	95.282597
1171.000000	95.158465
1170.000000	95.035426
1169.000000	94.912593
1168.000000	94.790867
1167.000000	94.675428
1166.000000	94.572317
1165.000000	94.488106
1164.000000	94.434041
1163.000000	94.422452
1162.000000	94.454697
1161.000000	94.517070
1160.000000	94.589572
1159.000000	94.652922
1158.000000	94.688295
1157.000000	94.681611
1156.000000	94.633221
1155.000000	94.557387
1154.000000	94.468228
1153.000000	94.370632
1152.000000	94.266441
1151.000000	94.160640
1150.000000	94.056169
1149.000000	93.949764
1148.000000	93.838628
1147.000000	93.725620
1146.000000	93.613610
1145.000000	93.500881
1144.000000	93.386422
1143.000000	93.273262
1142.000000	93.162063
1141.000000	93.047856
1140.000000	92.927744
1139.000000	92.805552
1138.000000	92.684551
1137.000000	92.561997
1136.000000	92.435042
1135.000000	92.305244
1134.000000	92.173009
1133.000000	92.034800
1132.000000	91.890519
1131.000000	91.746472
1130.000000	91.606144
1129.000000	91.464972
1128.000000	91.318924
1127.000000	91.170816
1126.000000	91.023344
1125.000000	90.873484
1124.000000	90.719200
1123.000000	90.564431
1122.000000	90.411835
1121.000000	90.257273
1120.000000	90.097003
1119.000000	89.934503
1118.000000	89.776118
1117.000000	89.626190
1116.000000	89.488900
1115.000000	89.366392
1114.000000	89.251810
1113.000000	89.133097
1112.000000	89.007086
1111.000000	88.880848
1110.000000	88.757422
1109.000000	88.631142
1108.000000	88.499668
1107.000000	88.369016
1106.000000	88.242390
1105.000000	88.114653
1104.000000	87.982215
1103.000000	87.848480
1102.000000	87.715945
1101.000000	87.582858
1100.000000	87.450294
1099.000000	87.321982
1098.000000	87.195061
1097.000000	87.062461
1096.000000	86.925970
1095.000000	86.794653
1094.000000	86.669180
1093.000000	86.541485
1092.000000	86.411213
1091.000000	86.287073
1090.000000	86.169791
1089.000000	86.050113
1088.000000	85.926935
1087.000000	85.810645
1086.000000	85.704506
1085.000000	85.599772
1084.000000	85.494022
1083.000000	85.396844
1082.000000	85.311274
1081.000000	85.226648
1080.000000	85.137113
1079.000000	85.051162
1078.000000	84.975041
1077.000000	84.901143
1076.000000	84.820224
1075.000000	84.731251
1074.000000	84.632747
1073.000000	84.517974
1072.000000	84.384710
1071.000000	84.237063
1070.000000	84.073051
1069.000000	83.883713
1068.000000	83.668879
1067.000000	83.440168
1066.000000	83.204072
1065.000000	82.956267
1064.000000	82.697392
1063.000000	82.439343
1062.000000	82.190703
1061.000000	81.950478
1060.000000	81.720244
1059.000000	81.505671
1058.000000	81.300715
1057.000000	81.087202
1056.000000	80.856487
1055.000000	80.617123
1054.000000	80.377016
1053.000000	80.133255
1052.000000	79.883723
1051.000000	79.631246
1050.000000	79.370990
1049.000000	79.092310
1048.000000	78.796946
1047.000000	78.495954
1046.000000	78.188447
1045.000000	77.864981
1044.000000	77.530820
1043.000000	77.202508
1042.000000	76.880619
1041.000000	76.549790
1040.000000	76.208813
1039.000000	75.876517
1038.000000	75.563536
1037.000000	75.263010
1036.000000	74.974067
1035.000000	74.708783
1034.000000	74.469334
1033.000000	74.243548
1032.000000	74.030058
1031.000000	73.843031
1030.000000	73.684809
1029.000000	73.538693
1028.000000	73.396333
1027.000000	73.267947
1026.000000	73.157674
1025.000000	73.053094
1024.000000	72.947129
1023.000000	72.846966
1022.000000	72.753828
1021.000000	72.656879
1020.000000	72.554053
1019.000000	72.456245
1018.000000	72.364672
1017.000000	72.266757
1016.000000	72.159649
1015.000000	72.054526
1014.000000	71.952800
1013.000000	71.842304
1012.000000	71.722710
1011.000000	71.610785
1010.000000	71.514488
1009.000000	71.424957
1008.000000	71.338918
1007.000000	71.265182
1006.000000	71.203950
1005.000000	71.143927
1004.000000	71.085745
1003.000000	71.044810
1002.000000	71.025598
1001.000000	71.015928
1000.000000	71.010484
999.000000	71.016111
998.000000	71.030276
997.000000	71.039653
996.000000	71.045043
995.000000	71.062920
994.000000	71.097152
993.000000	71.133498
992.000000	71.166695
991.000000	71.208071
990.000000	71.261164
989.000000	71.315176
988.000000	71.368938
987.000000	71.437122
986.000000	71.526264
985.000000	71.627884
984.000000	71.740752
983.000000	71.876431
982.000000	72.036982
981.000000	72.210481
980.000000	72.394330
979.000000	72.600366
978.000000	72.831658
977.000000	73.076939
976.000000	73.333193
975.000000	73.611446
974.000000	73.915020
973.000000	74.233723
972.000000	74.564199
971.000000	74.914553
970.000000	75.283972
969.000000	75.658375
968.000000	76.030646
967.000000	76.405720
966.000000	76.783056
965.000000	77.154464
964.000000	77.521733
963.000000	77.895285
962.000000	78.271810
961.000000	78.633750
960.000000	78.974962
959.000000	79.307269
958.000000	79.637726
957.000000	79.958646
956.000000	80.264669
955.000000	80.560825
954.000000	80.848416
953.000000	81.120017
952.000000	81.373150
951.000000	81.612865
950.000000	81.837480
949.000000	82.038512
948.000000	82.217939
947.000000	82.388218
946.000000	82.551199
945.000000	82.694568
944.000000	82.814440
943.000000	82.924305
942.000000	83.035150
941.000000	83.142134
940.000000	83.237867
939.000000	83.324653
938.000000	83.407539
937.000000	83.488631
936.000000	83.573683
935.000000	83.671007
934.000000	83.778514
933.000000	83.884070
932.000000	83.982297
931.000000	84.078776
930.000000	84.176352
929.000000	84.272112
928.000000	84.369932
927.000000	84.479316
926.000000	84.597135
925.000000	84.705791
924.000000	84.794670
923.000000	84.869910
922.000000	84.939652
921.000000	85.004436
920.000000	85.066001
919.000000	85.129619
918.000000	85.191801
917.000000	85.240530
916.000000	85.274704
915.000000	85.310699
914.000000	85.363827
913.000000	85.435850
912.000000	85.526007
911.000000	85.641151
910.000000	85.788673
909.000000	85.970548
908.000000	86.188674
907.000000	86.444423
906.000000	86.729531
905.000000	87.029429
904.000000	87.338859
903.000000	87.663327
902.000000	88.004354
901.000000	88.355262
900.000000	88.711454
899.000000	89.071543
898.000000	89.427815
897.000000	89.769048
896.000000	90.093806
895.000000	90.408257
894.000000	90.710702
893.000000	90.992044
892.000000	91.252894
891.000000	91.506043
890.000000	91.758432
889.000000	92.003068
888.000000	92.232922
887.000000	92.451437
886.000000	92.664813
885.000000	92.873848
884.000000	93.077860
883.000000	93.278204
882.000000	93.474565
881.000000	93.665831
880.000000	93.856654
879.000000	94.054363
878.000000	94.257949
877.000000	94.459838
876.000000	94.659886
875.000000	94.866644
874.000000	95.082417
873.000000	95.297928
872.000000	95.505309
871.000000	95.707016
870.000000	95.908546
869.000000	96.109944
868.000000	96.307511
867.000000	96.498048
866.000000	96.680061
865.000000	96.855679
864.000000	97.030742
863.000000	97.207326
862.000000	97.377477
861.000000	97.530887
860.000000	97.667354
859.000000	97.795307
858.000000	97.920458
857.000000	98.043532
856.000000	98.166341
855.000000	98.289336
854.000000	98.403428
853.000000	98.495506
852.000000	98.564749
851.000000	98.624674
850.000000	98.685992
849.000000	98.745319
848.000000	98.793608
847.000000	98.827242
846.000000	98.846945
845.000000	98.853175
844.000000	98.847414
843.000000	98.832434
842.000000	98.806740
841.000000	98.762673
840.000000	98.693173
839.000000	98.597528
838.000000	98.480216
837.000000	98.349126
836.000000	98.215680
835.000000	98.090347
834.000000	97.975529
833.000000	97.868283
832.000000	97.771406
831.000000	97.694872
830.000000	97.644422
829.000000	97.616721
828.000000	97.608890
827.000000	97.624307
826.000000	97.664407
825.000000	97.722328
824.000000	97.788644
823.000000	97.855602
822.000000	97.913699
821.000000	97.953893
820.000000	97.976160
819.000000	97.987564
818.000000	97.989320
817.000000	97.972104
816.000000	97.925349
815.000000	97.844719
814.000000	97.728470
813.000000	97.571618
812.000000	97.364941
811.000000	97.094434
810.000000	96.741740
809.000000	96.293294
808.000000	95.753039
807.000000	95.141779
806.000000	94.483025
805.000000	93.796640
804.000000	93.107149
803.000000	92.446169
802.000000	91.841187
801.000000	91.312817
800.000000	90.886388
799.000000	90.590104
798.000000	90.433159
797.000000	90.397853
796.000000	90.458715
795.000000	90.596554
794.000000	90.790685
793.000000	91.013848
792.000000	91.242101
791.000000	91.458601
790.000000	91.644364
789.000000	91.777487
788.000000	91.845250
787.000000	91.846404
786.000000	91.779464
785.000000	91.641040
784.000000	91.439755
783.000000	91.200440
782.000000	90.950189
781.000000	90.711499
780.000000	90.512324
779.000000	90.386919
778.000000	90.356818
777.000000	90.420524
776.000000	90.566442
775.000000	90.783374
774.000000	91.052973
773.000000	91.345657
772.000000	91.633840
771.000000	91.903388
770.000000	92.148975
769.000000	92.366266
768.000000	92.552286
767.000000	92.706744
766.000000	92.830179
765.000000	92.926071
764.000000	93.004448
763.000000	93.075774
762.000000	93.141018
761.000000	93.195564
760.000000	93.242276
759.000000	93.291502
758.000000	93.348910
757.000000	93.413602
756.000000	93.487122
755.000000	93.571806
754.000000	93.660151
753.000000	93.740016
752.000000	93.813475
751.000000	93.897772
750.000000	94.003308
749.000000	94.121649
748.000000	94.239701
747.000000	94.355646
746.000000	94.476274
745.000000	94.608066
744.000000	94.756232
743.000000	94.924678
742.000000	95.112073
741.000000	95.312891
740.000000	95.522432
739.000000	95.733858
738.000000	95.932868
737.000000	96.106897
736.000000	96.259650
735.000000	96.404923
734.000000	96.545813
733.000000	96.671688
732.000000	96.776211
731.000000	96.865358
730.000000	96.944894
729.000000	97.012441
728.000000	97.065688
727.000000	97.108342
726.000000	97.144869
725.000000	97.178408
724.000000	97.217126
723.000000	97.272752
722.000000	97.348317
721.000000	97.435593
720.000000	97.527608
719.000000	97.624566
718.000000	97.724090
717.000000	97.816006
716.000000	97.892529
715.000000	97.955500
714.000000	98.008964
713.000000	98.052100
712.000000	98.083396
711.000000	98.104138
710.000000	98.113000
709.000000	98.104481
708.000000	98.077450
707.000000	98.038793
706.000000	97.994481
705.000000	97.940365
704.000000	97.863456
703.000000	97.747990
702.000000	97.578044
701.000000	97.341112
700.000000	97.034223
699.000000	96.665687
698.000000	96.258749
697.000000	95.862074
696.000000	95.547514
695.000000	95.377665
694.000000	95.367923
693.000000	95.486501
692.000000	95.686415
691.000000	95.925690
690.000000	96.167074
689.000000	96.383354
688.000000	96.572156
687.000000	96.750079
686.000000	96.922590
685.000000	97.075126
684.000000	97.197390
683.000000	97.296397
682.000000	97.381465
681.000000	97.455831
680.000000	97.528760
679.000000	97.614575
678.000000	97.709318
677.000000	97.791322
676.000000	97.853468
675.000000	97.913578
674.000000	97.988949
673.000000	98.073169
672.000000	98.144403
671.000000	98.189170
670.000000	98.212660
669.000000	98.241518
668.000000	98.320965
667.000000	98.449129
666.000000	98.571705
665.000000	98.665526
664.000000	98.737523
663.000000	98.800715
662.000000	98.861675
661.000000	98.913888
660.000000	98.946240
659.000000	98.953467
658.000000	98.939312
657.000000	98.915108
656.000000	98.894112
655.000000	98.881147
654.000000	98.872861
653.000000	98.865247
652.000000	98.858751
651.000000	98.859438
650.000000	98.874403
