4000.000000	99.844231
3999.000000	99.844654
3998.000000	99.843960
3997.000000	99.841963
3996.000000	99.839025
3995.000000	99.835817
3994.000000	99.832982
3993.000000	99.831053
3992.000000	99.830306
3991.000000	99.830474
3990.000000	99.830741
3989.000000	99.830260
3988.000000	99.828677
3987.000000	99.826367
3986.000000	99.824256
3985.000000	99.823201
3984.000000	99.823425
3983.000000	99.824476
3982.000000	99.825690
3981.000000	99.826685
3980.000000	99.827392
3979.000000	99.827760
3978.000000	99.827630
3977.000000	99.826848
3976.000000	99.825421
3975.000000	99.823498
3974.000000	99.821277
3973.000000	99.819050
3972.000000	99.817338
3971.000000	99.816829
3970.000000	99.817922
3969.000000	99.820197
3968.000000	99.822393
3967.000000	99.823226
3966.000000	99.822348
3965.000000	99.820511
3964.000000	99.818858
3963.000000	99.818030
3962.000000	99.817924
3961.000000	99.818138
3960.000000	99.818365
3959.000000	99.818411
3958.000000	99.818115
3957.000000	99.817416
3956.000000	99.816476
3955.000000	99.815668
3954.000000	99.815437
3953.000000	99.816136
3952.000000	99.817837
3951.000000	99.820160
3950.000000	99.822324
3949.000000	99.823575
3948.000000	99.823755
3947.000000	99.823431
3946.000000	99.823308
3945.000000	99.823401
3944.000000	99.822959
3943.000000	99.821402
3942.000000	99.819144
3941.000000	99.817267
3940.000000	99.816376
3939.000000	99.816112
3938.000000	99.815770
3937.000000	99.815173
3936.000000	99.814756
3935.000000	99.814846
3934.000000	99.815203
3933.000000	99.815349
3932.000000	99.815156
3931.000000	99.814900
3930.000000	99.814819
3929.000000	99.815045
3928.000000	99.815843
3927.000000	99.817381
3926.000000	99.819107
3925.000000	99.819822
3924.000000	99.818784
3923.000000	99.816465
3922.000000	99.814138
3921.000000	99.812747
3920.000000	99.812422
3919.000000	99.812784
3918.000000	99.813475
3917.000000	99.814382
3916.000000	99.815454
3915.000000	99.816479
3914.000000	99.817076
3913.000000	99.817082
3912.000000	99.816751
3911.000000	99.816490
3910.000000	99.816442
3909.000000	99.816424
3908.000000	99.816314
3907.000000	99.816252
3906.000000	99.816418
3905.000000	99.816687
3904.000000	99.816735
3903.000000	99.816517
3902.000000	99.816451
3901.000000	99.816965
3900.000000	99.817967
3899.000000	99.818941
3898.000000	99.819369
3897.000000	99.819125
3896.000000	99.818382
3895.000000	99.817545
3894.000000	99.817136
3893.000000	99.817263
3892.000000	99.817217
3891.000000	99.816110
3890.000000	99.814048
3889.000000	99.812082
3888.000000	99.811089
3887.000000	99.810953
3886.000000	99.810828
3885.000000	99.810376
3884.000000	99.810265
3883.000000	99.811008
3882.000000	99.812088
3881.000000	99.812463
3880.000000	99.811778
3879.000000	99.810839
3878.000000	99.810667
3877.000000	99.811341
3876.000000	99.811846
3875.000000	99.810863
3874.000000	99.808180
3873.000000	99.805360
3872.000000	99.804359
3871.000000	99.805366
3870.000000	99.806554
3869.000000	99.806592
3868.000000	99.806308
3867.000000	99.807068
3866.000000	99.809049
3865.000000	99.811541
3864.000000	99.813874
3863.000000	99.815661
3862.000000	99.816451
3861.000000	99.815672
3860.000000	99.812731
3859.000000	99.807102
3858.000000	99.798991
3857.000000	99.790481
3856.000000	99.785518
3855.000000	99.786864
3854.000000	99.792304
3853.000000	99.796539
3852.000000	99.798673
3851.000000	99.801021
3850.000000	99.804004
3849.000000	99.806608
3848.000000	99.808506
3847.000000	99.810346
3846.000000	99.812669
3845.000000	99.815124
3844.000000	99.816408
3843.000000	99.815434
3842.000000	99.812618
3841.000000	99.809687
3840.000000	99.808193
3839.000000	99.808379
3838.000000	99.809156
3837.000000	99.809154
3836.000000	99.807992
3835.000000	99.806448
3834.000000	99.805789
3833.000000	99.806645
3832.000000	99.808376
3831.000000	99.809772
3830.000000	99.810269
3829.000000	99.810231
3828.000000	99.810022
3827.000000	99.809127
3826.000000	99.806820
3825.000000	99.803520
3824.000000	99.800725
3823.000000	99.799500
3822.000000	99.799014
3821.000000	99.797511
3820.000000	99.795199
3819.000000	99.793946
3818.000000	99.794759
3817.000000	99.796742
3816.000000	99.798275
3815.000000	99.799528
3814.000000	99.801992
3813.000000	99.805745
3812.000000	99.809289
3811.000000	99.811434
3810.000000	99.812028
3809.000000	99.811305
3808.000000	99.809213
3807.000000	99.806062
3806.000000	99.803450
3805.000000	99.803062
3804.000000	99.805058
3803.000000	99.807913
3802.000000	99.809187
3801.000000	99.808067
3800.000000	99.806593
3799.000000	99.806914
3798.000000	99.809038
3797.000000	99.811488
3796.000000	99.813013
3795.000000	99.813710
3794.000000	99.814486
3793.000000	99.815858
3792.000000	99.817658
3791.000000	99.819477
3790.000000	99.821041
3789.000000	99.822331
3788.000000	99.823428
3787.000000	99.824250
3786.000000	99.824543
3785.000000	99.824236
3784.000000	99.823926
3783.000000	99.824543
3782.000000	99.826093
3781.000000	99.827145
3780.000000	99.826024
3779.000000	99.822723
3778.000000	99.819161
3777.000000	99.817162
3776.000000	99.816747
3775.000000	99.816769
3774.000000	99.816708
3773.000000	99.817223
3772.000000	99.818700
3771.000000	99.819909
3770.000000	99.819236
3769.000000	99.817091
3768.000000	99.815723
3767.000000	99.816582
3766.000000	99.818886
3765.000000	99.821058
3764.000000	99.822871
3763.000000	99.825216
3762.000000	99.827864
3761.000000	99.829015
3760.000000	99.827582
3759.000000	99.824629
3758.000000	99.821547
3757.000000	99.817841
3756.000000	99.811914
3755.000000	99.803079
3754.000000	99.792477
3753.000000	99.782944
3752.000000	99.777954
3751.000000	99.778949
3750.000000	99.783450
3749.000000	99.787884
3748.000000	99.791877
3747.000000	99.797476
3746.000000	99.804747
3745.000000	99.808449
3744.000000	99.804690
3743.000000	99.798875
3742.000000	99.797350
3741.000000	99.799024
3740.000000	99.799997
3739.000000	99.799031
3738.000000	99.797365
3737.000000	99.795490
3736.000000	99.792723
3735.000000	99.789841
3734.000000	99.789104
3733.000000	99.791028
3732.000000	99.793545
3731.000000	99.794520
3730.000000	99.793624
3729.000000	99.791764
3728.000000	99.789806
3727.000000	99.788154
3726.000000	99.787426
3725.000000	99.788453
3724.000000	99.790809
3723.000000	99.792670
3722.000000	99.792381
3721.000000	99.789743
3720.000000	99.785905
3719.000000	99.782066
3718.000000	99.778184
3717.000000	99.773579
3716.000000	99.768326
3715.000000	99.763231
3714.000000	99.758783
3713.000000	99.754478
3712.000000	99.749679
3711.000000	99.744977
3710.000000	99.741476
3709.000000	99.738907
3708.000000	99.735546
3707.000000	99.730139
3706.000000	99.723394
3705.000000	99.717257
3704.000000	99.712530
3703.000000	99.707352
3702.000000	99.698801
3701.000000	99.686596
3700.000000	99.674323
3699.000000	99.665942
3698.000000	99.661704
3697.000000	99.658442
3696.000000	99.653395
3695.000000	99.646546
3694.000000	99.639280
3693.000000	99.632729
3692.000000	99.627994
3691.000000	99.626386
3690.000000	99.627646
3689.000000	99.628752
3688.000000	99.627430
3687.000000	99.625283
3686.000000	99.624765
3685.000000	99.625634
3684.000000	99.625969
3683.000000	99.624499
3682.000000	99.620795
3681.000000	99.613705
3680.000000	99.601987
3679.000000	99.587637
3678.000000	99.575960
3677.000000	99.569352
3676.000000	99.562518
3675.000000	99.550308
3674.000000	99.536499
3673.000000	99.528037
3672.000000	99.526323
3671.000000	99.525681
3670.000000	99.518490
3669.000000	99.503827
3668.000000	99.487573
3667.000000	99.474325
3666.000000	99.463839
3665.000000	99.453600
3664.000000	99.442298
3663.000000	99.430911
3662.000000	99.420943
3661.000000	99.412132
3660.000000	99.402688
3659.000000	99.391104
3658.000000	99.376917
3657.000000	99.360136
3656.000000	99.342126
3655.000000	99.326492
3654.000000	99.316092
3653.000000	99.309830
3652.000000	99.303223
3651.000000	99.292093
3650.000000	99.277346
3649.000000	99.264879
3648.000000	99.257439
3647.000000	99.251307
3646.000000	99.242451
3645.000000	99.231010
3644.000000	99.219916
3643.000000	99.211781
3642.000000	99.207411
3641.000000	99.205672
3640.000000	99.203709
3639.000000	99.197855
3638.000000	99.186194
3637.000000	99.170417
3636.000000	99.153817
3635.000000	99.137656
3634.000000	99.121006
3633.000000	99.104270
3632.000000	99.090383
3631.000000	99.081229
3630.000000	99.072739
3629.000000	99.058161
3628.000000	99.039881
3627.000000	99.027764
3626.000000	99.026004
3625.000000	99.030931
3624.000000	99.037155
3623.000000	99.041617
3622.000000	99.044073
3621.000000	99.045741
3620.000000	99.048489
3619.000000	99.054286
3618.000000	99.064127
3617.000000	99.077539
3616.000000	99.093022
3615.000000	99.108453
3614.000000	99.121671
3613.000000	99.131823
3612.000000	99.140071
3611.000000	99.148391
3610.000000	99.157667
3609.000000	99.167208
3608.000000	99.175879
3607.000000	99.183093
3606.000000	99.188995
3605.000000	99.194636
3604.000000	99.202033
3603.000000	99.213024
3602.000000	99.227460
3601.000000	99.242684
3600.000000	99.255802
3599.000000	99.265651
3598.000000	99.272498
3597.000000	99.277009
3596.000000	99.279891
3595.000000	99.281933
3594.000000	99.284108
3593.000000	99.287456
3592.000000	99.292815
3591.000000	99.300787
3590.000000	99.310940
3589.000000	99.320497
3588.000000	99.325103
3587.000000	99.322666
3586.000000	99.315922
3585.000000	99.310143
3584.000000	99.308933
3583.000000	99.312281
3582.000000	99.317226
3581.000000	99.320002
3580.000000	99.318562
3579.000000	99.313864
3578.000000	99.308840
3577.000000	99.306338
3576.000000	99.307685
3575.000000	99.312567
3574.000000	99.319581
3573.000000	99.326756
3572.000000	99.331969
3571.000000	99.333715
3570.000000	99.331895
3569.000000	99.328018
3568.000000	99.324544
3567.000000	99.323138
3566.000000	99.323168
3565.000000	99.322793
3564.000000	99.321220
3563.000000	99.319112
3562.000000	99.317317
3561.000000	99.315928
3560.000000	99.314546
3559.000000	99.313082
3558.000000	99.311844
3557.000000	99.311041
3556.000000	99.310583
3555.000000	99.310294
3554.000000	99.310027
3553.000000	99.309647
3552.000000	99.309175
3551.000000	99.308931
3550.000000	99.309230
3549.000000	99.309907
3548.000000	99.310276
3547.000000	99.309647
3546.000000	99.307838
3545.000000	99.305266
3544.000000	99.302719
3543.000000	99.301005
3542.000000	99.300538
3541.000000	99.301148
3540.000000	99.302183
3539.000000	99.302886
3538.000000	99.302863
3537.000000	99.302144
3536.000000	99.301029
3535.000000	99.299922
3534.000000	99.299103
3533.000000	99.298625
3532.000000	99.298391
3531.000000	99.298297
3530.000000	99.298278
3529.000000	99.298264
3528.000000	99.298163
3527.000000	99.297950
3526.000000	99.297703
3525.000000	99.297504
3524.000000	99.297331
3523.000000	99.297111
3522.000000	99.296889
3521.000000	99.296841
3520.000000	99.297051
3519.000000	99.297322
3518.000000	99.297308
3517.000000	99.296823
3516.000000	99.295991
3515.000000	99.295137
3514.000000	99.294584
3513.000000	99.294530
3512.000000	99.294947
3511.000000	99.295495
3510.000000	99.295665
3509.000000	99.295133
3508.000000	99.294013
3507.000000	99.292811
3506.000000	99.292088
3505.000000	99.292146
3504.000000	99.292933
3503.000000	99.294082
3502.000000	99.295183
3501.000000	99.296075
3500.000000	99.296768
3499.000000	99.297156
3498.000000	99.296936
3497.000000	99.295883
3496.000000	99.294112
3495.000000	99.292012
3494.000000	99.289897
3493.000000	99.287864
3492.000000	99.286044
3491.000000	99.284785
3490.000000	99.284421
3489.000000	99.284859
3488.000000	99.285510
3487.000000	99.285687
3486.000000	99.285148
3485.000000	99.284165
3484.000000	99.283121
3483.000000	99.282115
3482.000000	99.280988
3481.000000	99.279686
3480.000000	99.278424
3479.000000	99.277450
3478.000000	99.276733
3477.000000	99.275971
3476.000000	99.274906
3475.000000	99.273608
3474.000000	99.272411
3473.000000	99.271575
3472.000000	99.271076
3471.000000	99.270658
3470.000000	99.270035
3469.000000	99.269028
3468.000000	99.267594
3467.000000	99.265860
3466.000000	99.264134
3465.000000	99.262768
3464.000000	99.261915
3463.000000	99.261387
3462.000000	99.260714
3461.000000	99.259479
3460.000000	99.257623
3459.000000	99.255521
3458.000000	99.253754
3457.000000	99.252662
3456.000000	99.252103
3455.000000	99.251564
3454.000000	99.250604
3453.000000	99.249140
3452.000000	99.247291
3451.000000	99.245129
3450.000000	99.242760
3449.000000	99.240536
3448.000000	99.238906
3447.000000	99.237981
3446.000000	99.237415
3445.000000	99.236799
3444.000000	99.235991
3443.000000	99.234992
3442.000000	99.233713
3441.000000	99.231961
3440.000000	99.229563
3439.000000	99.226469
3438.000000	99.222955
3437.000000	99.219750
3436.000000	99.217677
3435.000000	99.216945
3434.000000	99.216838
3433.000000	99.216264
3432.000000	99.214691
3431.000000	99.212544
3430.000000	99.210801
3429.000000	99.210244
3428.000000	99.210944
3427.000000	99.212285
3426.000000	99.213500
3425.000000	99.214293
3424.000000	99.214853
3423.000000	99.215208
3422.000000	99.214832
3421.000000	99.213191
3420.000000	99.210635
3419.000000	99.208399
3418.000000	99.207470
3417.000000	99.207484
3416.000000	99.207001
3415.000000	99.204982
3414.000000	99.201912
3413.000000	99.199329
3412.000000	99.198245
3411.000000	99.198418
3410.000000	99.199056
3409.000000	99.199777
3408.000000	99.200553
3407.000000	99.201088
3406.000000	99.200856
3405.000000	99.199753
3404.000000	99.198279
3403.000000	99.196967
3402.000000	99.195868
3401.000000	99.194706
3400.000000	99.193218
3399.000000	99.191330
3398.000000	99.189365
3397.000000	99.188165
3396.000000	99.188548
3395.000000	99.190389
3394.000000	99.192493
3393.000000	99.193650
3392.000000	99.193746
3391.000000	99.193550
3390.000000	99.193680
3389.000000	99.194145
3388.000000	99.194787
3387.000000	99.195657
3386.000000	99.196747
3385.000000	99.197592
3384.000000	99.197507
3383.000000	99.196300
3382.000000	99.194587
3381.000000	99.193286
3380.000000	99.192752
3379.000000	99.192580
3378.000000	99.192283
3377.000000	99.192003
3376.000000	99.192292
3375.000000	99.193245
3374.000000	99.194227
3373.000000	99.194628
3372.000000	99.194627
3371.000000	99.194997
3370.000000	99.196319
3369.000000	99.198558
3368.000000	99.201186
3367.000000	99.203425
3366.000000	99.204494
3365.000000	99.203985
3364.000000	99.202187
3363.000000	99.200059
3362.000000	99.198625
3361.000000	99.198299
3360.000000	99.198816
3359.000000	99.199609
3358.000000	99.200294
3357.000000	99.200891
3356.000000	99.201654
3355.000000	99.202743
3354.000000	99.204084
3353.000000	99.205484
3352.000000	99.206785
3351.000000	99.207859
3350.000000	99.208546
3349.000000	99.208731
3348.000000	99.208553
3347.000000	99.208480
3346.000000	99.209049
3345.000000	99.210473
3344.000000	99.212465
3343.000000	99.214413
3342.000000	99.215807
3341.000000	99.216520
3340.000000	99.216721
3339.000000	99.216663
3338.000000	99.216590
3337.000000	99.216796
3336.000000	99.217592
3335.000000	99.219088
3334.000000	99.221060
3333.000000	99.223083
3332.000000	99.224818
3331.000000	99.226069
3330.000000	99.226705
3329.000000	99.226737
3328.000000	99.226480
3327.000000	99.226420
3326.000000	99.226757
3325.000000	99.227217
3324.000000	99.227477
3323.000000	99.227741
3322.000000	99.228633
3321.000000	99.230457
3320.000000	99.232743
3319.000000	99.234681
3318.000000	99.235987
3317.000000	99.237079
3316.000000	99.238350
3315.000000	99.239575
3314.000000	99.240302
3313.000000	99.240649
3312.000000	99.241263
3311.000000	99.242419
3310.000000	99.243500
3309.000000	99.243673
3308.000000	99.242926
3307.000000	99.242252
3306.000000	99.242733
3305.000000	99.244488
3304.000000	99.246451
3303.000000	99.247251
3302.000000	99.246483
3301.000000	99.245058
3300.000000	99.244093
3299.000000	99.243588
3298.000000	99.242679
3297.000000	99.241254
3296.000000	99.240597
3295.000000	99.241906
3294.000000	99.244900
3293.000000	99.248235
3292.000000	99.250974
3291.000000	99.253104
3290.000000	99.254760
3289.000000	99.255772
3288.000000	99.256055
3287.000000	99.255944
3286.000000	99.255929
3285.000000	99.256335
3284.000000	99.257279
3283.000000	99.258697
3282.000000	99.260340
3281.000000	99.261956
3280.000000	99.263505
3279.000000	99.265062
3278.000000	99.266557
3277.000000	99.267811
3276.000000	99.268774
3275.000000	99.269561
3274.000000	99.270318
3273.000000	99.271200
3272.000000	99.272359
3271.000000	99.273794
3270.000000	99.275256
3269.000000	99.276474
3268.000000	99.277470
3267.000000	99.278492
3266.000000	99.279688
3265.000000	99.280976
3264.000000	99.282218
3263.000000	99.283388
3262.000000	99.284556
3261.000000	99.285778
3260.000000	99.287058
3259.000000	99.288366
3258.000000	99.289679
3257.000000	99.290993
3256.000000	99.292300
3255.000000	99.293597
3254.000000	99.294884
3253.000000	99.296159
3252.000000	99.297419
3251.000000	99.298662
3250.000000	99.299889
3249.000000	99.301106
3248.000000	99.302318
3247.000000	99.303530
3246.000000	99.304748
3245.000000	99.305980
3244.000000	99.307232
3243.000000	99.308507
3242.000000	99.309806
3241.000000	99.311123
3240.000000	99.312450
3239.000000	99.313773
3238.000000	99.315079
3237.000000	99.316365
3236.000000	99.317645
3235.000000	99.318939
3234.000000	99.320252
3233.000000	99.321576
3232.000000	99.322914
3231.000000	99.324286
3230.000000	99.325718
3229.000000	99.327218
3228.000000	99.328757
3227.000000	99.330267
3226.000000	99.331683
3225.000000	99.332991
3224.000000	99.334272
3223.000000	99.335656
3222.000000	99.337216
3221.000000	99.338928
3220.000000	99.340698
3219.000000	99.342442
3218.000000	99.344113
3217.000000	99.345653
3216.000000	99.347002
3215.000000	99.348167
3214.000000	99.349266
3213.000000	99.350472
3212.000000	99.351870
3211.000000	99.353405
3210.000000	99.354980
3209.000000	99.356600
3208.000000	99.358341
3207.000000	99.360204
3206.000000	99.362077
3205.000000	99.363840
3204.000000	99.365501
3203.000000	99.367163
3202.000000	99.368902
3201.000000	99.370679
3200.000000	99.372376
3199.000000	99.373924
3198.000000	99.375371
3197.000000	99.376846
3196.000000	99.378428
3195.000000	99.380078
3194.000000	99.381713
3193.000000	99.383308
3192.000000	99.384914
3191.000000	99.386572
3190.000000	99.388271
3189.000000	99.389967
3188.000000	99.391635
3187.000000	99.393274
3186.000000	99.394894
3185.000000	99.396500
3184.000000	99.398093
3183.000000	99.399674
3182.000000	99.401244
3181.000000	99.402794
3180.000000	99.404316
3179.000000	99.405814
3178.000000	99.407320
3177.000000	99.408873
3176.000000	99.410492
3175.000000	99.412147
3174.000000	99.413773
3173.000000	99.415314
3172.000000	99.416761
3171.000000	99.418187
3170.000000	99.419714
3169.000000	99.421420
3168.000000	99.423267
3167.000000	99.425083
3166.000000	99.426682
3165.000000	99.428060
3164.000000	99.429451
3163.000000	99.431114
3162.000000	99.433049
3161.000000	99.434967
3160.000000	99.436584
3159.000000	99.437839
3158.000000	99.438844
3157.000000	99.439757
3156.000000	99.440759
3155.000000	99.441988
3154.000000	99.443422
3153.000000	99.444896
3152.000000	99.446355
3151.000000	99.447967
3150.000000	99.449881
3149.000000	99.451956
3148.000000	99.453868
3147.000000	99.455430
3146.000000	99.456627
3145.000000	99.457409
3144.000000	99.457667
3143.000000	99.457532
3142.000000	99.457546
3141.000000	99.458331
3140.000000	99.460119
3139.000000	99.462610
3138.000000	99.465233
3137.000000	99.467622
3136.000000	99.469826
3135.000000	99.472125
3134.000000	99.474660
3133.000000	99.477210
3132.000000	99.479277
3131.000000	99.480404
3130.000000	99.480545
3129.000000	99.480270
3128.000000	99.480535
3127.000000	99.481944
3126.000000	99.484197
3125.000000	99.486335
3124.000000	99.487729
3123.000000	99.488642
3122.000000	99.489672
3121.000000	99.490919
3120.000000	99.492060
3119.000000	99.493122
3118.000000	99.494705
3117.000000	99.497249
3116.000000	99.500383
3115.000000	99.503214
3114.000000	99.505208
3113.000000	99.506609
3112.000000	99.508039
3111.000000	99.509820
3110.000000	99.511744
3109.000000	99.513434
3108.000000	99.514797
3107.000000	99.516033
3106.000000	99.517254
3105.000000	99.518279
3104.000000	99.518887
3103.000000	99.519150
3102.000000	99.519468
3101.000000	99.520315
3100.000000	99.521945
3099.000000	99.524218
3098.000000	99.526590
3097.000000	99.528428
3096.000000	99.529492
3095.000000	99.530050
3094.000000	99.530499
3093.000000	99.530920
3092.000000	99.531180
3091.000000	99.531360
3090.000000	99.531843
3089.000000	99.532973
3088.000000	99.534818
3087.000000	99.537190
3086.000000	99.539703
3085.000000	99.541851
3084.000000	99.543273
3083.000000	99.543993
3082.000000	99.544267
3081.000000	99.544218
3080.000000	99.543862
3079.000000	99.543470
3078.000000	99.543599
3077.000000	99.544581
3076.000000	99.546194
3075.000000	99.547937
3074.000000	99.549516
3073.000000	99.550916
3072.000000	99.552119
3071.000000	99.552974
3070.000000	99.553350
3069.000000	99.553322
3068.000000	99.553260
3067.000000	99.553746
3066.000000	99.555158
3065.000000	99.557351
3064.000000	99.559667
3063.000000	99.561452
3062.000000	99.562598
3061.000000	99.563469
3060.000000	99.564451
3059.000000	99.565609
3058.000000	99.566732
3057.000000	99.567595
3056.000000	99.568160
3055.000000	99.568598
3054.000000	99.569125
3053.000000	99.569771
3052.000000	99.570355
3051.000000	99.570759
3050.000000	99.571150
3049.000000	99.571866
3048.000000	99.573084
3047.000000	99.574708
3046.000000	99.576470
3045.000000	99.578043
3044.000000	99.579142
3043.000000	99.579692
3042.000000	99.579951
3041.000000	99.580327
3040.000000	99.580971
3039.000000	99.581685
3038.000000	99.582257
3037.000000	99.582728
3036.000000	99.583265
3035.000000	99.583926
3034.000000	99.584650
3033.000000	99.585380
3032.000000	99.586051
3031.000000	99.586566
3030.000000	99.586994
3029.000000	99.587712
3028.000000	99.589115
3027.000000	99.591127
3026.000000	99.593032
3025.000000	99.594086
3024.000000	99.594125
3023.000000	99.593625
3022.000000	99.593249
3021.000000	99.593302
3020.000000	99.593761
3019.000000	99.594523
3018.000000	99.595474
3017.000000	99.596454
3016.000000	99.597316
3015.000000	99.598083
3014.000000	99.598940
3013.000000	99.599981
3012.000000	99.600985
3011.000000	99.601518
3010.000000	99.601356
3009.000000	99.600841
3008.000000	99.600770
3007.000000	99.601775
3006.000000	99.603859
3005.000000	99.606445
3004.000000	99.608913
3003.000000	99.611058
3002.000000	99.612913
3001.000000	99.614363
3000.000000	99.615206
2999.000000	99.615582
2998.000000	99.616027
2997.000000	99.616895
2996.000000	99.617876
2995.000000	99.618441
2994.000000	99.618718
2993.000000	99.619506
2992.000000	99.621268
2991.000000	99.623523
2990.000000	99.625541
2989.000000	99.627405
2988.000000	99.629843
2987.000000	99.633048
2986.000000	99.636111
2985.000000	99.637919
2984.000000	99.638322
2983.000000	99.638070
2982.000000	99.637884
2981.000000	99.637870
2980.000000	99.637804
2979.000000	99.637782
2978.000000	99.638420
2977.000000	99.640326
2976.000000	99.643370
2975.000000	99.646482
2974.000000	99.648446
2973.000000	99.648993
2972.000000	99.648961
2971.000000	99.649249
2970.000000	99.649745
2969.000000	99.649666
2968.000000	99.648842
2967.000000	99.648269
2966.000000	99.649145
2965.000000	99.651520
2964.000000	99.654050
2963.000000	99.655156
2962.000000	99.654429
2961.000000	99.652859
2960.000000	99.651800
2959.000000	99.651786
2958.000000	99.652501
2957.000000	99.653500
2956.000000	99.654623
2955.000000	99.655791
2954.000000	99.656862
2953.000000	99.657887
2952.000000	99.659192
2951.000000	99.660861
2950.000000	99.662331
2949.000000	99.662935
2948.000000	99.662865
2947.000000	99.663174
2946.000000	99.664577
2945.000000	99.666604
2944.000000	99.668267
2943.000000	99.669413
2942.000000	99.670886
2941.000000	99.673193
2940.000000	99.675465
2939.000000	99.676183
2938.000000	99.674975
2937.000000	99.673348
2936.000000	99.673398
2935.000000	99.675865
2934.000000	99.679599
2933.000000	99.682896
2932.000000	99.685260
2931.000000	99.687669
2930.000000	99.691192
2929.000000	99.695590
2928.000000	99.699462
2927.000000	99.701843
2926.000000	99.703358
2925.000000	99.705516
2924.000000	99.708768
2923.000000	99.711624
2922.000000	99.712152
2921.000000	99.710219
2920.000000	99.707891
2919.000000	99.707503
2918.000000	99.709303
2917.000000	99.711251
2916.000000	99.710921
2915.000000	99.707334
2914.000000	99.701284
2913.000000	99.694688
2912.000000	99.689645
2911.000000	99.687500
2910.000000	99.688186
2909.000000	99.690357
2908.000000	99.692488
2907.000000	99.693994
2906.000000	99.695132
2905.000000	99.696039
2904.000000	99.696352
2903.000000	99.695845
2902.000000	99.694996
2901.000000	99.694668
2900.000000	99.695471
2899.000000	99.697510
2898.000000	99.700376
2897.000000	99.703103
2896.000000	99.704516
2895.000000	99.704144
2894.000000	99.702786
2893.000000	99.701899
2892.000000	99.702422
2891.000000	99.704304
2890.000000	99.706904
2889.000000	99.709356
2888.000000	99.710759
2887.000000	99.710636
2886.000000	99.709423
2885.000000	99.708205
2884.000000	99.707707
2883.000000	99.707752
2882.000000	99.707866
2881.000000	99.708060
2880.000000	99.708724
2879.000000	99.709945
2878.000000	99.711244
2877.000000	99.712010
2876.000000	99.712043
2875.000000	99.711662
2874.000000	99.711385
2873.000000	99.711505
2872.000000	99.711912
2871.000000	99.712257
2870.000000	99.712368
2869.000000	99.712505
2868.000000	99.713094
2867.000000	99.714235
2866.000000	99.715575
2865.000000	99.716651
2864.000000	99.717341
2863.000000	99.717905
2862.000000	99.718627
2861.000000	99.719464
2860.000000	99.720122
2859.000000	99.720452
2858.000000	99.720628
2857.000000	99.720943
2856.000000	99.721438
2855.000000	99.721792
2854.000000	99.721625
2853.000000	99.720912
2852.000000	99.720072
2851.000000	99.719659
2850.000000	99.719898
2849.000000	99.720529
2848.000000	99.721034
2847.000000	99.721137
2846.000000	99.721050
2845.000000	99.721165
2844.000000	99.721547
2843.000000	99.721836
2842.000000	99.721691
2841.000000	99.721209
2840.000000	99.720864
2839.000000	99.721009
2838.000000	99.721578
2837.000000	99.722210
2836.000000	99.722615
2835.000000	99.722762
2834.000000	99.722780
2833.000000	99.722830
2832.000000	99.723056
2831.000000	99.723531
2830.000000	99.724172
2829.000000	99.724753
2828.000000	99.725122
2827.000000	99.725372
2826.000000	99.725712
2825.000000	99.726209
2824.000000	99.726722
2823.000000	99.727089
2822.000000	99.727315
2821.000000	99.727528
2820.000000	99.727784
2819.000000	99.728006
2818.000000	99.728107
2817.000000	99.728121
2816.000000	99.728212
2815.000000	99.728523
2814.000000	99.729052
2813.000000	99.729659
2812.000000	99.730184
2811.000000	99.730600
2810.000000	99.730991
2809.000000	99.731425
2808.000000	99.731874
2807.000000	99.732316
2806.000000	99.732841
2805.000000	99.733576
2804.000000	99.734504
2803.000000	99.735396
2802.000000	99.736010
2801.000000	99.736302
2800.000000	99.736411
2799.000000	99.736496
2798.000000	99.736640
2797.000000	99.736911
2796.000000	99.737407
2795.000000	99.738187
2794.000000	99.739200
2793.000000	99.740269
2792.000000	99.741179
2791.000000	99.741797
2790.000000	99.742122
2789.000000	99.742288
2788.000000	99.742502
2787.000000	99.742964
2786.000000	99.743783
2785.000000	99.744879
2784.000000	99.745943
2783.000000	99.746651
2782.000000	99.746969
2781.000000	99.747193
2780.000000	99.747618
2779.000000	99.748199
2778.000000	99.748675
2777.000000	99.748927
2776.000000	99.749054
2775.000000	99.749158
2774.000000	99.749237
2773.000000	99.749369
2772.000000	99.749775
2771.000000	99.750547
2770.000000	99.751503
2769.000000	99.752437
2768.000000	99.753399
2767.000000	99.754604
2766.000000	99.756115
2765.000000	99.757694
2764.000000	99.758935
2763.000000	99.759525
2762.000000	99.759424
2761.000000	99.758942
2760.000000	99.758605
2759.000000	99.758778
2758.000000	99.759377
2757.000000	99.759987
2756.000000	99.760330
2755.000000	99.760596
2754.000000	99.761178
2753.000000	99.762132
2752.000000	99.763015
2751.000000	99.763318
2750.000000	99.763018
2749.000000	99.762599
2748.000000	99.762560
2747.000000	99.762985
2746.000000	99.763637
2745.000000	99.764278
2744.000000	99.764785
2743.000000	99.765143
2742.000000	99.765476
2741.000000	99.765992
2740.000000	99.766725
2739.000000	99.767435
2738.000000	99.767897
2737.000000	99.768211
2736.000000	99.768679
2735.000000	99.769377
2734.000000	99.769991
2733.000000	99.770122
2732.000000	99.769707
2731.000000	99.769156
2730.000000	99.769082
2729.000000	99.769795
2728.000000	99.770992
2727.000000	99.771925
2726.000000	99.772099
2725.000000	99.771695
2724.000000	99.771261
2723.000000	99.771013
2722.000000	99.770662
2721.000000	99.769905
2720.000000	99.768856
2719.000000	99.767975
2718.000000	99.767644
2717.000000	99.767879
2716.000000	99.768336
2715.000000	99.768599
2714.000000	99.768509
2713.000000	99.768198
2712.000000	99.767846
2711.000000	99.767543
2710.000000	99.767399
2709.000000	99.767612
2708.000000	99.768269
2707.000000	99.769148
2706.000000	99.769867
2705.000000	99.770218
2704.000000	99.770263
2703.000000	99.770230
2702.000000	99.770396
2701.000000	99.770938
2700.000000	99.771685
2699.000000	99.772077
2698.000000	99.771653
2697.000000	99.770559
2696.000000	99.769535
2695.000000	99.769146
2694.000000	99.769219
2693.000000	99.769194
2692.000000	99.768938
2691.000000	99.768926
2690.000000	99.769582
2689.000000	99.770797
2688.000000	99.772120
2687.000000	99.773135
2686.000000	99.773558
2685.000000	99.773209
2684.000000	99.772081
2683.000000	99.770479
2682.000000	99.769022
2681.000000	99.768401
2680.000000	99.768907
2679.000000	99.770136
2678.000000	99.771193
2677.000000	99.771566
2676.000000	99.771666
2675.000000	99.772268
2674.000000	99.773569
2673.000000	99.774969
2672.000000	99.775724
2671.000000	99.775666
2670.000000	99.775339
2669.000000	99.775531
2668.000000	99.776594
2667.000000	99.778131
2666.000000	99.779338
2665.000000	99.779724
2664.000000	99.779381
2663.000000	99.778631
2662.000000	99.777631
2661.000000	99.776433
2660.000000	99.775151
2659.000000	99.773849
2658.000000	99.772522
2657.000000	99.771388
2656.000000	99.770933
2655.000000	99.771354
2654.000000	99.772152
2653.000000	99.772750
2652.000000	99.773305
2651.000000	99.774431
2650.000000	99.776251
2649.000000	99.778161
2648.000000	99.779518
2647.000000	99.780187
2646.000000	99.780313
2645.000000	99.780010
2644.000000	99.779511
2643.000000	99.779332
2642.000000	99.779873
2641.000000	99.780856
2640.000000	99.781415
2639.000000	99.780944
2638.000000	99.779748
2637.000000	99.778855
2636.000000	99.779081
2635.000000	99.780502
2634.000000	99.782567
2633.000000	99.784449
2632.000000	99.785485
2631.000000	99.785443
2630.000000	99.784647
2629.000000	99.783785
2628.000000	99.783267
2627.000000	99.782900
2626.000000	99.782347
2625.000000	99.781763
2624.000000	99.781658
2623.000000	99.782155
2622.000000	99.782716
2621.000000	99.782781
2620.000000	99.782462
2619.000000	99.782346
2618.000000	99.782764
2617.000000	99.783476
2616.000000	99.784017
2615.000000	99.784129
2614.000000	99.783878
2613.000000	99.783606
2612.000000	99.783764
2611.000000	99.784514
2610.000000	99.785449
2609.000000	99.785885
2608.000000	99.785487
2607.000000	99.784391
2606.000000	99.782776
2605.000000	99.780637
2604.000000	99.778103
2603.000000	99.775597
2602.000000	99.773525
2601.000000	99.772156
2600.000000	99.771915
2599.000000	99.773289
2598.000000	99.776114
2597.000000	99.779292
2596.000000	99.781659
2595.000000	99.783025
2594.000000	99.783934
2593.000000	99.784587
2592.000000	99.784533
2591.000000	99.783411
2590.000000	99.781618
2589.000000	99.780156
2588.000000	99.779890
2587.000000	99.780998
2586.000000	99.782960
2585.000000	99.784870
2584.000000	99.785970
2583.000000	99.786063
2582.000000	99.785516
2581.000000	99.784963
2580.000000	99.784871
2579.000000	99.785261
2578.000000	99.785786
2577.000000	99.786081
2576.000000	99.786071
2575.000000	99.785933
2574.000000	99.785825
2573.000000	99.785774
2572.000000	99.785792
2571.000000	99.785950
2570.000000	99.786254
2569.000000	99.786570
2568.000000	99.786765
2567.000000	99.786858
2566.000000	99.786957
2565.000000	99.787111
2564.000000	99.787290
2563.000000	99.787470
2562.000000	99.787645
2561.000000	99.787808
2560.000000	99.787957
2559.000000	99.788095
2558.000000	99.788223
2557.000000	99.788340
2556.000000	99.788439
2555.000000	99.788518
2554.000000	99.788581
2553.000000	99.788636
2552.000000	99.788690
2551.000000	99.788751
2550.000000	99.788825
2549.000000	99.788915
2548.000000	99.789020
2547.000000	99.789131
2546.000000	99.789235
2545.000000	99.789323
2544.000000	99.789392
2543.000000	99.789446
2542.000000	99.789494
2541.000000	99.789548
2540.000000	99.789623
2539.000000	99.789722
2538.000000	99.789842
2537.000000	99.789969
2536.000000	99.790094
2535.000000	99.790216
2534.000000	99.790339
2533.000000	99.790474
2532.000000	99.790625
2531.000000	99.790791
2530.000000	99.790965
2529.000000	99.791139
2528.000000	99.791309
2527.000000	99.791476
2526.000000	99.791645
2525.000000	99.791828
2524.000000	99.792036
2523.000000	99.792254
2522.000000	99.792456
2521.000000	99.792633
2520.000000	99.792813
2519.000000	99.793041
2518.000000	99.793328
2517.000000	99.793643
2516.000000	99.793929
2515.000000	99.794142
2514.000000	99.794262
2513.000000	99.794319
2512.000000	99.794416
2511.000000	99.794678
2510.000000	99.795148
2509.000000	99.795718
2508.000000	99.796182
2507.000000	99.796377
2506.000000	99.796262
2505.000000	99.795941
2504.000000	99.795598
2503.000000	99.795390
2502.000000	99.795379
2501.000000	99.795611
2500.000000	99.796205
2499.000000	99.797271
2498.000000	99.798636
2497.000000	99.799780
2496.000000	99.800243
2495.000000	99.799996
2494.000000	99.799362
2493.000000	99.798676
2492.000000	99.798083
2491.000000	99.797619
2490.000000	99.797304
2489.000000	99.797157
2488.000000	99.797259
2487.000000	99.797783
2486.000000	99.798739
2485.000000	99.799715
2484.000000	99.800172
2483.000000	99.800067
2482.000000	99.799956
2481.000000	99.800339
2480.000000	99.801065
2479.000000	99.801575
2478.000000	99.801683
2477.000000	99.801781
2476.000000	99.802255
2475.000000	99.802996
2474.000000	99.803630
2473.000000	99.804052
2472.000000	99.804474
2471.000000	99.805002
2470.000000	99.805417
2469.000000	99.805479
2468.000000	99.805260
2467.000000	99.805071
2466.000000	99.805131
2465.000000	99.805410
2464.000000	99.805752
2463.000000	99.806045
2462.000000	99.806269
2461.000000	99.806427
2460.000000	99.806480
2459.000000	99.806355
2458.000000	99.806065
2457.000000	99.805820
2456.000000	99.805928
2455.000000	99.806525
2454.000000	99.807447
2453.000000	99.808319
2452.000000	99.808863
2451.000000	99.809069
2450.000000	99.809104
2449.000000	99.809146
2448.000000	99.809259
2447.000000	99.809436
2446.000000	99.809664
2445.000000	99.809924
2444.000000	99.810196
2443.000000	99.810503
2442.000000	99.810894
2441.000000	99.811313
2440.000000	99.811550
2439.000000	99.811399
2438.000000	99.810870
2437.000000	99.810197
2436.000000	99.809633
2435.000000	99.809298
2434.000000	99.809229
2433.000000	99.809432
2432.000000	99.809799
2431.000000	99.810061
2430.000000	99.809977
2429.000000	99.809581
2428.000000	99.809227
2427.000000	99.809337
2426.000000	99.810088
2425.000000	99.811215
2424.000000	99.812141
2423.000000	99.812439
2422.000000	99.812233
2421.000000	99.812095
2420.000000	99.812490
2419.000000	99.813376
2418.000000	99.814386
2417.000000	99.815248
2416.000000	99.815921
2415.000000	99.816411
2414.000000	99.816666
2413.000000	99.816645
2412.000000	99.816415
2411.000000	99.816142
2410.000000	99.816035
2409.000000	99.816191
2408.000000	99.816397
2407.000000	99.816260
2406.000000	99.815690
2405.000000	99.815115
2404.000000	99.815014
2403.000000	99.815348
2402.000000	99.815699
2401.000000	99.815863
2400.000000	99.816005
2399.000000	99.816293
2398.000000	99.816731
2397.000000	99.817276
2396.000000	99.817899
2395.000000	99.818475
2394.000000	99.818926
2393.000000	99.819505
2392.000000	99.820534
2391.000000	99.821849
2390.000000	99.822831
2389.000000	99.823120
2388.000000	99.823042
2387.000000	99.823213
2386.000000	99.823864
2385.000000	99.824720
2384.000000	99.825401
2383.000000	99.825787
2382.000000	99.826002
2381.000000	99.826198
2380.000000	99.826424
2379.000000	99.826659
2378.000000	99.826881
2377.000000	99.827097
2376.000000	99.827326
2375.000000	99.827599
2374.000000	99.827951
2373.000000	99.828364
2372.000000	99.828713
2371.000000	99.828877
2370.000000	99.828923
2369.000000	99.829106
2368.000000	99.829590
2367.000000	99.830211
2366.000000	99.830641
2365.000000	99.830741
2364.000000	99.830617
2363.000000	99.830357
2362.000000	99.829987
2361.000000	99.829624
2360.000000	99.829378
2359.000000	99.829154
2358.000000	99.828766
2357.000000	99.828286
2356.000000	99.828071
2355.000000	99.828298
2354.000000	99.828755
2353.000000	99.828997
2352.000000	99.828832
2351.000000	99.828398
2350.000000	99.827883
2349.000000	99.827389
2348.000000	99.826971
2347.000000	99.826711
2346.000000	99.826652
2345.000000	99.826665
2344.000000	99.826510
2343.000000	99.826028
2342.000000	99.825270
2341.000000	99.824435
2340.000000	99.823703
2339.000000	99.823122
2338.000000	99.822640
2337.000000	99.822224
2336.000000	99.821888
2335.000000	99.821618
2334.000000	99.821339
2333.000000	99.820999
2332.000000	99.820619
2331.000000	99.820240
2330.000000	99.819857
2329.000000	99.819455
2328.000000	99.819046
2327.000000	99.818660
2326.000000	99.818306
2325.000000	99.817963
2324.000000	99.817620
2323.000000	99.817286
2322.000000	99.816979
2321.000000	99.816707
2320.000000	99.816464
2319.000000	99.816242
2318.000000	99.816031
2317.000000	99.815827
2316.000000	99.815630
2315.000000	99.815444
2314.000000	99.815268
2313.000000	99.815099
2312.000000	99.814932
2311.000000	99.814764
2310.000000	99.814600
2309.000000	99.814452
2308.000000	99.814325
2307.000000	99.814220
2306.000000	99.814131
2305.000000	99.814046
2304.000000	99.813955
2303.000000	99.813855
2302.000000	99.813746
2301.000000	99.813633
2300.000000	99.813525
2299.000000	99.813426
2298.000000	99.813339
2297.000000	99.813264
2296.000000	99.813197
2295.000000	99.813129
2294.000000	99.813052
2293.000000	99.812973
2292.000000	99.812908
2291.000000	99.812868
2290.000000	99.812840
2289.000000	99.812799
2288.000000	99.812740
2287.000000	99.812664
2286.000000	99.812547
2285.000000	99.812375
2284.000000	99.812185
2283.000000	99.812042
2282.000000	99.811951
2281.000000	99.811863
2280.000000	99.811765
2279.000000	99.811728
2278.000000	99.811787
2277.000000	99.811834
2276.000000	99.811693
2275.000000	99.811295
2274.000000	99.810741
2273.000000	99.810193
2272.000000	99.809772
2271.000000	99.809568
2270.000000	99.809628
2269.000000	99.809876
2268.000000	99.810103
2267.000000	99.810141
2266.000000	99.809993
2265.000000	99.809730
2264.000000	99.809356
2263.000000	99.808831
2262.000000	99.808217
2261.000000	99.807690
2260.000000	99.807365
2259.000000	99.807178
2258.000000	99.807023
2257.000000	99.806935
2256.000000	99.807000
2255.000000	99.807137
2254.000000	99.807144
2253.000000	99.806948
2252.000000	99.806676
2251.000000	99.806494
2250.000000	99.806454
2249.000000	99.806518
2248.000000	99.806629
2247.000000	99.806729
2246.000000	99.806744
2245.000000	99.806633
2244.000000	99.806424
2243.000000	99.806191
2242.000000	99.806003
2241.000000	99.805886
2240.000000	99.805827
2239.000000	99.805778
2238.000000	99.805680
2237.000000	99.805518
2236.000000	99.805330
2235.000000	99.805164
2234.000000	99.805017
2233.000000	99.804874
2232.000000	99.804755
2231.000000	99.804710
2230.000000	99.804751
2229.000000	99.804833
2228.000000	99.804885
2227.000000	99.804862
2226.000000	99.804770
2225.000000	99.804645
2224.000000	99.804544
2223.000000	99.804496
2222.000000	99.804493
2221.000000	99.804514
2220.000000	99.804547
2219.000000	99.804589
2218.000000	99.804623
2217.000000	99.804625
2216.000000	99.804596
2215.000000	99.804566
2214.000000	99.804576
2213.000000	99.804641
2212.000000	99.804742
2211.000000	99.804834
2210.000000	99.804889
2209.000000	99.804904
2208.000000	99.804884
2207.000000	99.804832
2206.000000	99.804756
2205.000000	99.804673
2204.000000	99.804590
2203.000000	99.804506
2202.000000	99.804426
2201.000000	99.804368
2200.000000	99.804342
2199.000000	99.804337
2198.000000	99.804330
2197.000000	99.804310
2196.000000	99.804288
2195.000000	99.804282
2194.000000	99.804297
2193.000000	99.804327
2192.000000	99.804357
2191.000000	99.804372
2190.000000	99.804364
2189.000000	99.804335
2188.000000	99.804295
2187.000000	99.804262
2186.000000	99.804246
2185.000000	99.804249
2184.000000	99.804266
2183.000000	99.804294
2182.000000	99.804326
2181.000000	99.804354
2180.000000	99.804376
2179.000000	99.804393
2178.000000	99.804411
2177.000000	99.804435
2176.000000	99.804472
2175.000000	99.804525
2174.000000	99.804589
2173.000000	99.804657
2172.000000	99.804721
2171.000000	99.804781
2170.000000	99.804838
2169.000000	99.804895
2168.000000	99.804959
2167.000000	99.805036
2166.000000	99.805133
2165.000000	99.805251
2164.000000	99.805388
2163.000000	99.805534
2162.000000	99.805684
2161.000000	99.805842
2160.000000	99.806008
2159.000000	99.806172
2158.000000	99.806339
2157.000000	99.806533
2156.000000	99.806773
2155.000000	99.807058
2154.000000	99.807366
2153.000000	99.807647
2152.000000	99.807842
2151.000000	99.807949
2150.000000	99.808058
2149.000000	99.808292
2148.000000	99.808708
2147.000000	99.809266
2146.000000	99.809857
2145.000000	99.810356
2144.000000	99.810673
2143.000000	99.810822
2142.000000	99.810948
2141.000000	99.811229
2140.000000	99.811715
2139.000000	99.812294
2138.000000	99.812831
2137.000000	99.813333
2136.000000	99.813923
2135.000000	99.814653
2134.000000	99.815376
2133.000000	99.815834
2132.000000	99.815886
2131.000000	99.815618
2130.000000	99.815303
2129.000000	99.815208
2128.000000	99.815427
2127.000000	99.815900
2126.000000	99.816569
2125.000000	99.817490
2124.000000	99.818668
2123.000000	99.819839
2122.000000	99.820666
2121.000000	99.821172
2120.000000	99.821773
2119.000000	99.822675
2118.000000	99.823446
2117.000000	99.823476
2116.000000	99.822695
2115.000000	99.821672
2114.000000	99.821103
2113.000000	99.821304
2112.000000	99.822157
2111.000000	99.823237
2110.000000	99.824053
2109.000000	99.824478
2108.000000	99.824892
2107.000000	99.825703
2106.000000	99.826792
2105.000000	99.827734
2104.000000	99.828461
2103.000000	99.829258
2102.000000	99.830089
2101.000000	99.830492
2100.000000	99.830368
2099.000000	99.830370
2098.000000	99.831122
2097.000000	99.832393
2096.000000	99.833457
2095.000000	99.834039
2094.000000	99.834464
2093.000000	99.834981
2092.000000	99.835386
2091.000000	99.835351
2090.000000	99.834777
2089.000000	99.833732
2088.000000	99.832338
2087.000000	99.830882
2086.000000	99.829871
2085.000000	99.829794
2084.000000	99.830777
2083.000000	99.832425
2082.000000	99.834011
2081.000000	99.835038
2080.000000	99.835724
2079.000000	99.836783
2078.000000	99.838574
2077.000000	99.840541
2076.000000	99.841677
2075.000000	99.841533
2074.000000	99.840556
2073.000000	99.839614
2072.000000	99.839234
2071.000000	99.839363
2070.000000	99.839668
2069.000000	99.839874
2068.000000	99.839911
2067.000000	99.839898
2066.000000	99.840069
2065.000000	99.840624
2064.000000	99.841569
2063.000000	99.842645
2062.000000	99.843452
2061.000000	99.843709
2060.000000	99.843447
2059.000000	99.842966
2058.000000	99.842618
2057.000000	99.842583
2056.000000	99.842788
2055.000000	99.842986
2054.000000	99.842977
2053.000000	99.842843
2052.000000	99.842910
2051.000000	99.843379
2050.000000	99.844014
2049.000000	99.844321
2048.000000	99.844082
2047.000000	99.843545
2046.000000	99.843108
2045.000000	99.842902
2044.000000	99.842802
2043.000000	99.842717
2042.000000	99.842693
2041.000000	99.842778
2040.000000	99.842903
2039.000000	99.842913
2038.000000	99.842696
2037.000000	99.842287
2036.000000	99.841892
2035.000000	99.841755
2034.000000	99.841965
2033.000000	99.842382
2032.000000	99.842718
2031.000000	99.842779
2030.000000	99.842548
2029.000000	99.842135
2028.000000	99.841722
2027.000000	99.841497
2026.000000	99.841521
2025.000000	99.841602
2024.000000	99.841427
2023.000000	99.840886
2022.000000	99.840171
2021.000000	99.839533
2020.000000	99.839032
2019.000000	99.838612
2018.000000	99.838291
2017.000000	99.838111
2016.000000	99.837980
2015.000000	99.837738
2014.000000	99.837358
2013.000000	99.836969
2012.000000	99.836683
2011.000000	99.836509
2010.000000	99.836395
2009.000000	99.836225
2008.000000	99.835813
2007.000000	99.835069
2006.000000	99.834180
2005.000000	99.833485
2004.000000	99.833110
2003.000000	99.832848
2002.000000	99.832434
2001.000000	99.831840
2000.000000	99.831213
1999.000000	99.830667
1998.000000	99.830211
1997.000000	99.829819
1996.000000	99.829455
1995.000000	99.829055
1994.000000	99.828604
1993.000000	99.828224
1992.000000	99.828114
1991.000000	99.828380
1990.000000	99.828944
1989.000000	99.829577
1988.000000	99.829959
1987.000000	99.829865
1986.000000	99.829336
1985.000000	99.828642
1984.000000	99.828071
1983.000000	99.827747
1982.000000	99.827680
1981.000000	99.827829
1980.000000	99.828033
1979.000000	99.828044
1978.000000	99.827753
1977.000000	99.827319
1976.000000	99.827013
1975.000000	99.826958
1974.000000	99.827113
1973.000000	99.827397
1972.000000	99.827693
1971.000000	99.827794
1970.000000	99.827540
1969.000000	99.827035
1968.000000	99.826662
1967.000000	99.826697
1966.000000	99.827029
1965.000000	99.827322
1964.000000	99.827430
1963.000000	99.827529
1962.000000	99.827842
1961.000000	99.828322
1960.000000	99.828673
1959.000000	99.828678
1958.000000	99.828438
1957.000000	99.828259
1956.000000	99.828269
1955.000000	99.828259
1954.000000	99.827973
1953.000000	99.827451
1952.000000	99.826923
1951.000000	99.826427
1950.000000	99.825806
1949.000000	99.825056
1948.000000	99.824372
1947.000000	99.823875
1946.000000	99.823540
1945.000000	99.823459
1944.000000	99.823807
1943.000000	99.824346
1942.000000	99.824360
1941.000000	99.823421
1940.000000	99.821925
1939.000000	99.820629
1938.000000	99.819910
1937.000000	99.819732
1936.000000	99.819967
1935.000000	99.820368
1934.000000	99.820462
1933.000000	99.819952
1932.000000	99.819155
1931.000000	99.818552
1930.000000	99.818061
1929.000000	99.817163
1928.000000	99.815778
1927.000000	99.814608
1926.000000	99.814347
1925.000000	99.814890
1924.000000	99.815339
1923.000000	99.814799
1922.000000	99.813199
1921.000000	99.811276
1920.000000	99.809800
1919.000000	99.808728
1918.000000	99.807292
1917.000000	99.805098
1916.000000	99.802826
1915.000000	99.801547
1914.000000	99.801537
1913.000000	99.801887
1912.000000	99.801193
1911.000000	99.798637
1910.000000	99.794615
1909.000000	99.790475
1908.000000	99.787371
1907.000000	99.785391
1906.000000	99.783927
1905.000000	99.782716
1904.000000	99.781937
1903.000000	99.781368
1902.000000	99.780220
1901.000000	99.778029
1900.000000	99.775385
1899.000000	99.773270
1898.000000	99.771906
1897.000000	99.770819
1896.000000	99.769747
1895.000000	99.768898
1894.000000	99.768351
1893.000000	99.767680
1892.000000	99.766392
1891.000000	99.764394
1890.000000	99.762145
1889.000000	99.760414
1888.000000	99.759534
1887.000000	99.759056
1886.000000	99.758359
1885.000000	99.757372
1884.000000	99.756470
1883.000000	99.755613
1882.000000	99.754095
1881.000000	99.751569
1880.000000	99.748978
1879.000000	99.747874
1878.000000	99.748817
1877.000000	99.750910
1876.000000	99.752688
1875.000000	99.752939
1874.000000	99.751064
1873.000000	99.747490
1872.000000	99.743732
1871.000000	99.741465
1870.000000	99.741400
1869.000000	99.743215
1868.000000	99.746235
1867.000000	99.749751
1866.000000	99.752977
1865.000000	99.755236
1864.000000	99.756347
1863.000000	99.756797
1862.000000	99.757397
1861.000000	99.758741
1860.000000	99.760934
1859.000000	99.763600
1858.000000	99.766077
1857.000000	99.767928
1856.000000	99.769458
1855.000000	99.771314
1854.000000	99.773610
1853.000000	99.775757
1852.000000	99.777343
1851.000000	99.778976
1850.000000	99.781378
1849.000000	99.784113
1848.000000	99.785893
1847.000000	99.786064
1846.000000	99.785387
1845.000000	99.785242
1844.000000	99.786068
1843.000000	99.786568
1842.000000	99.785504
1841.000000	99.783632
1840.000000	99.782866
1839.000000	99.784210
1838.000000	99.786822
1837.000000	99.789192
1836.000000	99.790749
1835.000000	99.791792
1834.000000	99.792509
1833.000000	99.792830
1832.000000	99.793086
1831.000000	99.793953
1830.000000	99.795405
1829.000000	99.796516
1828.000000	99.796662
1827.000000	99.796276
1826.000000	99.795959
1825.000000	99.795716
1824.000000	99.795433
1823.000000	99.795145
1822.000000	99.794808
1821.000000	99.794276
1820.000000	99.793721
1819.000000	99.793568
1818.000000	99.793696
1817.000000	99.793349
1816.000000	99.792008
1815.000000	99.790097
1814.000000	99.788555
1813.000000	99.787987
1812.000000	99.788528
1811.000000	99.789852
1810.000000	99.791249
1809.000000	99.792146
1808.000000	99.792604
1807.000000	99.793040
1806.000000	99.793364
1805.000000	99.792834
1804.000000	99.790836
1803.000000	99.787652
1802.000000	99.784455
1801.000000	99.782692
1800.000000	99.783474
1799.000000	99.786924
1798.000000	99.791869
1797.000000	99.796463
1796.000000	99.799496
1795.000000	99.801206
1794.000000	99.802428
1793.000000	99.803118
1792.000000	99.802626
1791.000000	99.801279
1790.000000	99.800461
1789.000000	99.801335
1788.000000	99.804092
1787.000000	99.807898
1786.000000	99.811228
1785.000000	99.812857
1784.000000	99.812870
1783.000000	99.812538
1782.000000	99.812813
1781.000000	99.813097
1780.000000	99.812445
1779.000000	99.811259
1778.000000	99.811020
1777.000000	99.812496
1776.000000	99.814965
1775.000000	99.817512
1774.000000	99.819993
1773.000000	99.822319
1772.000000	99.824060
1771.000000	99.825336
1770.000000	99.827051
1769.000000	99.830118
1768.000000	99.834184
1767.000000	99.837527
1766.000000	99.839042
1765.000000	99.839480
1764.000000	99.840301
1763.000000	99.841993
1762.000000	99.843759
1761.000000	99.844717
1760.000000	99.845114
1759.000000	99.845625
1758.000000	99.845939
1757.000000	99.844509
1756.000000	99.840614
1755.000000	99.835933
1754.000000	99.832758
1753.000000	99.831751
1752.000000	99.831900
1751.000000	99.832120
1750.000000	99.832493
1749.000000	99.833411
1748.000000	99.834022
1747.000000	99.833230
1746.000000	99.831312
1745.000000	99.829533
1744.000000	99.828798
1743.000000	99.828751
1742.000000	99.828395
1741.000000	99.827217
1740.000000	99.825302
1739.000000	99.822972
1738.000000	99.820719
1737.000000	99.818993
1736.000000	99.817973
1735.000000	99.817231
1734.000000	99.816612
1733.000000	99.816693
1732.000000	99.817085
1731.000000	99.816467
1730.000000	99.813916
1729.000000	99.809988
1728.000000	99.806609
1727.000000	99.805186
1726.000000	99.805396
1725.000000	99.805916
1724.000000	99.805785
1723.000000	99.804523
1722.000000	99.801874
1721.000000	99.798030
1720.000000	99.793808
1719.000000	99.790213
1718.000000	99.787701
1717.000000	99.785898
1716.000000	99.784287
1715.000000	99.783006
1714.000000	99.782151
1713.000000	99.781000
1712.000000	99.778527
1711.000000	99.774145
1710.000000	99.768155
1709.000000	99.761873
1708.000000	99.756997
1707.000000	99.754156
1706.000000	99.751973
1705.000000	99.748420
1704.000000	99.743461
1703.000000	99.739034
1702.000000	99.736779
1701.000000	99.735701
1700.000000	99.732558
1699.000000	99.726638
1698.000000	99.720245
1697.000000	99.714812
1696.000000	99.710234
1695.000000	99.706173
1694.000000	99.702693
1693.000000	99.700030
1692.000000	99.697898
1691.000000	99.695174
1690.000000	99.690572
1689.000000	99.683749
1688.000000	99.675911
1687.000000	99.668860
1686.000000	99.663377
1685.000000	99.658104
1684.000000	99.651977
1683.000000	99.646784
1682.000000	99.643399
1681.000000	99.640614
1680.000000	99.636927
1679.000000	99.631655
1678.000000	99.625777
1677.000000	99.620534
1676.000000	99.615918
1675.000000	99.610999
1674.000000	99.605604
1673.000000	99.600421
1672.000000	99.596053
1671.000000	99.592129
1670.000000	99.587856
1669.000000	99.583277
1668.000000	99.578769
1667.000000	99.574258
1666.000000	99.569317
1665.000000	99.563410
1664.000000	99.556242
1663.000000	99.548827
1662.000000	99.543575
1661.000000	99.541361
1660.000000	99.540917
1659.000000	99.540811
1658.000000	99.539997
1657.000000	99.538374
1656.000000	99.537023
1655.000000	99.537357
1654.000000	99.536943
1653.000000	99.532294
1652.000000	99.525667
1651.000000	99.520891
1650.000000	99.519674
1649.000000	99.520281
1648.000000	99.518796
1647.000000	99.513948
1646.000000	99.508625
1645.000000	99.505252
1644.000000	99.503178
1643.000000	99.501516
1642.000000	99.500115
1641.000000	99.499325
1640.000000	99.499774
1639.000000	99.501829
1638.000000	99.505230
1637.000000	99.508620
1636.000000	99.509580
1635.000000	99.507022
1634.000000	99.502252
1633.000000	99.498307
1632.000000	99.497821
1631.000000	99.501369
1630.000000	99.508007
1629.000000	99.516172
1628.000000	99.524603
1627.000000	99.532413
1626.000000	99.538873
1625.000000	99.543815
1624.000000	99.548008
1623.000000	99.552604
1622.000000	99.557847
1621.000000	99.563061
1620.000000	99.568315
1619.000000	99.574141
1618.000000	99.579503
1617.000000	99.582071
1616.000000	99.582390
1615.000000	99.584482
1614.000000	99.590657
1613.000000	99.599795
1612.000000	99.609182
1611.000000	99.616848
1610.000000	99.623202
1609.000000	99.629916
1608.000000	99.637184
1607.000000	99.643109
1606.000000	99.646434
1605.000000	99.648544
1604.000000	99.652214
1603.000000	99.658306
1602.000000	99.664447
1601.000000	99.668049
1600.000000	99.669550
1599.000000	99.671522
1598.000000	99.675096
1597.000000	99.678640
1596.000000	99.680289
1595.000000	99.680592
1594.000000	99.681827
1593.000000	99.685119
1592.000000	99.689364
1591.000000	99.692848
1590.000000	99.694899
1589.000000	99.695928
1588.000000	99.696702
1587.000000	99.697927
1586.000000	99.700194
1585.000000	99.703592
1584.000000	99.707422
1583.000000	99.710878
1582.000000	99.713564
1581.000000	99.715340
1580.000000	99.715965
1579.000000	99.715253
1578.000000	99.713530
1577.000000	99.712182
1576.000000	99.713183
1575.000000	99.716585
1574.000000	99.720443
1573.000000	99.723498
1572.000000	99.725530
1571.000000	99.726323
1570.000000	99.726300
1569.000000	99.727192
1568.000000	99.729963
1567.000000	99.733543
1566.000000	99.736296
1565.000000	99.737508
1564.000000	99.737719
1563.000000	99.738081
1562.000000	99.739009
1561.000000	99.740303
1560.000000	99.740953
1559.000000	99.740884
1558.000000	99.741532
1557.000000	99.742461
1556.000000	99.743262
1555.000000	99.744567
1554.000000	99.746337
1553.000000	99.748075
1552.000000	99.749420
1551.000000	99.750431
1550.000000	99.751113
1549.000000	99.751508
1548.000000	99.751846
1547.000000	99.752494
1546.000000	99.753459
1545.000000	99.754255
1544.000000	99.754765
1543.000000	99.755619
1542.000000	99.757328
1541.000000	99.759316
1540.000000	99.760622
1539.000000	99.761268
1538.000000	99.761695
1537.000000	99.762263
1536.000000	99.763005
1535.000000	99.763447
1534.000000	99.763194
1533.000000	99.762513
1532.000000	99.761975
1531.000000	99.761535
1530.000000	99.761069
1529.000000	99.760928
1528.000000	99.761621
1527.000000	99.763185
1526.000000	99.764764
1525.000000	99.765408
1524.000000	99.765401
1523.000000	99.765933
1522.000000	99.767640
1521.000000	99.769685
1520.000000	99.770669
1519.000000	99.770466
1518.000000	99.769803
1517.000000	99.769151
1516.000000	99.768918
1515.000000	99.769583
1514.000000	99.771430
1513.000000	99.774132
1512.000000	99.776664
1511.000000	99.778223
1510.000000	99.779209
1509.000000	99.780845
1508.000000	99.783942
1507.000000	99.787914
1506.000000	99.790734
1505.000000	99.791275
1504.000000	99.790954
1503.000000	99.791199
1502.000000	99.791741
1501.000000	99.791855
1500.000000	99.791584
1499.000000	99.792161
1498.000000	99.794686
1497.000000	99.798544
1496.000000	99.801662
1495.000000	99.802880
1494.000000	99.802776
1493.000000	99.802067
1492.000000	99.800906
1491.000000	99.799803
1490.000000	99.800348
1489.000000	99.803554
1488.000000	99.807963
1487.000000	99.811249
1486.000000	99.812700
1485.000000	99.813172
1484.000000	99.813838
1483.000000	99.815318
1482.000000	99.817184
1481.000000	99.818490
1480.000000	99.818867
1479.000000	99.818759
1478.000000	99.818366
1477.000000	99.817057
1476.000000	99.814444
1475.000000	99.811350
1474.000000	99.809102
1473.000000	99.808215
1472.000000	99.808446
1471.000000	99.809170
1470.000000	99.809818
1469.000000	99.810202
1468.000000	99.810188
1467.000000	99.809779
1466.000000	99.809288
1465.000000	99.808843
1464.000000	99.808418
1463.000000	99.808142
1462.000000	99.808146
1461.000000	99.808092
1460.000000	99.806865
1459.000000	99.803397
1458.000000	99.797527
1457.000000	99.791233
1456.000000	99.786675
1455.000000	99.783884
1454.000000	99.782729
1453.000000	99.782491
1452.000000	99.781320
1451.000000	99.777960
1450.000000	99.773022
1449.000000	99.768733
1448.000000	99.766811
1447.000000	99.766611
1446.000000	99.765667
1445.000000	99.762109
1444.000000	99.756650
1443.000000	99.751751
1442.000000	99.749125
1441.000000	99.748489
1440.000000	99.748633
1439.000000	99.748882
1438.000000	99.748651
1437.000000	99.746807
1436.000000	99.742825
1435.000000	99.737840
1434.000000	99.733341
1433.000000	99.729849
1432.000000	99.727071
1431.000000	99.724834
1430.000000	99.723520
1429.000000	99.723546
1428.000000	99.724680
1427.000000	99.726388
1426.000000	99.728497
1425.000000	99.730630
1424.000000	99.732243
1423.000000	99.733076
1422.000000	99.733042
1421.000000	99.732017
1420.000000	99.730063
1419.000000	99.729167
1418.000000	99.732324
1417.000000	99.739317
1416.000000	99.746820
1415.000000	99.751455
1414.000000	99.751624
1413.000000	99.748457
1412.000000	99.745070
1411.000000	99.744010
1410.000000	99.745241
1409.000000	99.747250
1408.000000	99.749520
1407.000000	99.752981
1406.000000	99.758372
1405.000000	99.764635
1404.000000	99.769888
1403.000000	99.773710
1402.000000	99.777225
1401.000000	99.781080
1400.000000	99.784362
1399.000000	99.786110
1398.000000	99.786975
1397.000000	99.788519
1396.000000	99.791715
1395.000000	99.796660
1394.000000	99.802485
1393.000000	99.807492
1392.000000	99.810762
1391.000000	99.813159
1390.000000	99.816234
1389.000000	99.820200
1388.000000	99.823136
1387.000000	99.823262
1386.000000	99.821743
1385.000000	99.821329
1384.000000	99.823073
1383.000000	99.826033
1382.000000	99.829128
1381.000000	99.832039
1380.000000	99.834233
1379.000000	99.834623
1378.000000	99.832993
1377.000000	99.830680
1376.000000	99.829101
1375.000000	99.828437
1374.000000	99.828350
1373.000000	99.829071
1372.000000	99.830996
1371.000000	99.833735
1370.000000	99.836099
1369.000000	99.836996
1368.000000	99.836522
1367.000000	99.835911
1366.000000	99.836247
1365.000000	99.837567
1364.000000	99.839202
1363.000000	99.840857
1362.000000	99.842917
1361.000000	99.845324
1360.000000	99.846993
1359.000000	99.846914
1358.000000	99.845216
1357.000000	99.842987
1356.000000	99.841292
1355.000000	99.840544
1354.000000	99.840739
1353.000000	99.841777
1352.000000	99.843369
1351.000000	99.844969
1350.000000	99.846078
1349.000000	99.846374
1348.000000	99.845639
1347.000000	99.843810
1346.000000	99.841263
1345.000000	99.838883
1344.000000	99.837668
1343.000000	99.838311
1342.000000	99.840906
1341.000000	99.844514
1340.000000	99.847097
1339.000000	99.846889
1338.000000	99.844161
1337.000000	99.841067
1336.000000	99.839517
1335.000000	99.839869
1334.000000	99.841634
1333.000000	99.844337
1332.000000	99.847201
1331.000000	99.848830
1330.000000	99.848296
1329.000000	99.846238
1328.000000	99.844125
1327.000000	99.842603
1326.000000	99.841326
1325.000000	99.840178
1324.000000	99.839741
1323.000000	99.840281
1322.000000	99.840911
1321.000000	99.840276
1320.000000	99.838025
1319.000000	99.835499
1318.000000	99.834818
1317.000000	99.836935
1316.000000	99.840538
1315.000000	99.843103
1314.000000	99.843259
1313.000000	99.842089
1312.000000	99.841900
1311.000000	99.843792
1310.000000	99.846783
1309.000000	99.849090
1308.000000	99.849715
1307.000000	99.848863
1306.000000	99.847301
1305.000000	99.845494
1304.000000	99.843497
1303.000000	99.841589
1302.000000	99.840615
1301.000000	99.841240
1300.000000	99.843063
1299.000000	99.845088
1298.000000	99.846956
1297.000000	99.848873
1296.000000	99.850213
1295.000000	99.849326
1294.000000	99.845374
1293.000000	99.839583
1292.000000	99.834008
1291.000000	99.829797
1290.000000	99.827457
1289.000000	99.827808
1288.000000	99.831155
1287.000000	99.835850
1286.000000	99.839167
1285.000000	99.839759
1284.000000	99.838251
1283.000000	99.835740
1282.000000	99.833020
1281.000000	99.831132
1280.000000	99.831051
1279.000000	99.832261
1278.000000	99.832850
1277.000000	99.831606
1276.000000	99.829035
1275.000000	99.825999
1274.000000	99.822671
1273.000000	99.819455
1272.000000	99.817679
1271.000000	99.818337
1270.000000	99.821036
1269.000000	99.825011
1268.000000	99.830038
1267.000000	99.835240
1266.000000	99.838158
1265.000000	99.836678
1264.000000	99.831494
1263.000000	99.825673
1262.000000	99.822065
1261.000000	99.821668
1260.000000	99.823399
1259.000000	99.824256
1258.000000	99.820695
1257.000000	99.811585
1256.000000	99.799717
1255.000000	99.789295
1254.000000	99.781902
1253.000000	99.775621
1252.000000	99.767508
1251.000000	99.755805
1250.000000	99.740523
1249.000000	99.723735
1248.000000	99.709213
1247.000000	99.699914
1246.000000	99.695119
1245.000000	99.691203
1244.000000	99.685543
1243.000000	99.678557
1242.000000	99.671714
1241.000000	99.664878
1240.000000	99.656361
1239.000000	99.644888
1238.000000	99.630973
1237.000000	99.616620
1236.000000	99.603555
1235.000000	99.591237
1234.000000	99.577120
1233.000000	99.559766
1232.000000	99.541131
1231.000000	99.524375
1230.000000	99.509782
1229.000000	99.494589
1228.000000	99.476734
1227.000000	99.456562
1226.000000	99.434389
1225.000000	99.408564
1224.000000	99.377313
1223.000000	99.341115
1222.000000	99.301918
1221.000000	99.260977
1220.000000	99.218612
1219.000000	99.175086
1218.000000	99.130186
1217.000000	99.082343
1216.000000	99.029390
1215.000000	98.970397
1214.000000	98.906671
1213.000000	98.841456
1212.000000	98.778598
1211.000000	98.720186
1210.000000	98.664680
1209.000000	98.608259
1208.000000	98.548431
1207.000000	98.485521
1206.000000	98.420919
1205.000000	98.355692
1204.000000	98.291174
1203.000000	98.228925
1202.000000	98.168983
1201.000000	98.109262
1200.000000	98.047548
1199.000000	97.983512
1198.000000	97.918755
1197.000000	97.855781
1196.000000	97.796460
1195.000000	97.739913
1194.000000	97.682160
1193.000000	97.619508
1192.000000	97.552005
1191.000000	97.482070
1190.000000	97.410774
1189.000000	97.337902
1188.000000	97.264953
1187.000000	97.194833
1186.000000	97.128241
1185.000000	97.063030
1184.000000	96.997304
1183.000000	96.930389
1182.000000	96.860807
1181.000000	96.786674
1180.000000	96.708905
1179.000000	96.631058
1178.000000	96.554745
1177.000000	96.477327
1176.000000	96.394861
1175.000000	96.305504
1174.000000	96.210255
1173.000000	96.112727
1172.000000	96.017924
1171.000000	95.928353
1170.000000	95.841221
1169.000000	95.752128
1168.000000	95.661285
1167.000000	95.573652
1166.000000	95.494761
1165.000000	95.430772
1164.000000	95.391179
1163.000000	95.385019
1162.000000	95.412385
1161.000000	95.462537
1160.000000	95.519972
1159.000000	95.569329
1158.000000	95.597005
1157.000000	95.594678
1156.000000	95.562804
1155.000000	95.507996
1154.000000	95.437176
1153.000000	95.356150
1152.000000	95.271235
1151.000000	95.187072
1150.000000	95.103416
1149.000000	95.018444
1148.000000	94.933924
1147.000000	94.852347
1146.000000	94.771107
1145.000000	94.685963
1144.000000	94.598899
1143.000000	94.515743
1142.000000	94.436847
1141.000000	94.357238
1140.000000	94.275260
1139.000000	94.193198
1138.000000	94.109648
1137.000000	94.019700
1136.000000	93.923376
1135.000000	93.825603
1134.000000	93.726638
1133.000000	93.621076
1132.000000	93.508510
1131.000000	93.397050
1130.000000	93.293250
1129.000000	93.195299
1128.000000	93.098502
1127.000000	93.000690
1126.000000	92.900316
1125.000000	92.796020
1124.000000	92.689972
1123.000000	92.585478
1122.000000	92.480623
1121.000000	92.371184
1120.000000	92.259876
1119.000000	92.154388
1118.000000	92.056048
1117.000000	91.959401
1116.000000	91.863061
1115.000000	91.771132
1114.000000	91.683416
1113.000000	91.594936
1112.000000	91.506137
1111.000000	91.422235
1110.000000	91.341451
1109.000000	91.255765
1108.000000	91.164983
1107.000000	91.078098
1106.000000	90.998601
1105.000000	90.920496
1104.000000	90.841029
1103.000000	90.764446
1102.000000	90.689942
1101.000000	90.609176
1100.000000	90.520448
1099.000000	90.433122
1098.000000	90.352792
1097.000000	90.273453
1096.000000	90.189289
1095.000000	90.103107
1094.000000	90.017889
1093.000000	89.930694
1092.000000	89.840476
1091.000000	89.752542
1090.000000	89.670519
1089.000000	89.592430
1088.000000	89.517455
1087.000000	89.447008
1086.000000	89.377308
1085.000000	89.301808
1084.000000	89.223154
1083.000000	89.151546
1082.000000	89.089034
1081.000000	89.026773
1080.000000	88.959791
1079.000000	88.892412
1078.000000	88.827110
1077.000000	88.760534
1076.000000	88.692828
1075.000000	88.627824
1074.000000	88.561187
1073.000000	88.481210
1072.000000	88.383859
1071.000000	88.274320
1070.000000	88.152145
1069.000000	88.008943
1068.000000	87.843727
1067.000000	87.666537
1066.000000	87.483353
1065.000000	87.291794
1064.000000	87.096050
1063.000000	86.910325
1062.000000	86.740695
1061.000000	86.577610
1060.000000	86.413071
1059.000000	86.251672
1058.000000	86.098241
1057.000000	85.947497
1056.000000	85.792576
1055.000000	85.632065
1054.000000	85.463229
1053.000000	85.280168
1052.000000	85.083786
1051.000000	84.881334
1050.000000	84.672082
1049.000000	84.448589
1048.000000	84.215475
1047.000000	83.988466
1046.000000	83.770556
1045.000000	83.546947
1044.000000	83.307518
1043.000000	83.058398
1042.000000	82.808263
1041.000000	82.559082
1040.000000	82.314670
1039.000000	82.082609
1038.000000	81.862735
1037.000000	81.648439
1036.000000	81.442651
1035.000000	81.256546
1034.000000	81.089647
1033.000000	80.929055
1032.000000	80.772455
1031.000000	80.633822
1030.000000	80.521259
1029.000000	80.426540
1028.000000	80.341218
1027.000000	80.265834
1026.000000	80.198047
1025.000000	80.128956
1024.000000	80.057201
1023.000000	79.991510
1022.000000	79.934855
1021.000000	79.880511
1020.000000	79.825622
1019.000000	79.772426
1018.000000	79.714665
1017.000000	79.640651
1016.000000	79.552479
1015.000000	79.465501
1014.000000	79.387107
1013.000000	79.312755
1012.000000	79.242568
1011.000000	79.182159
1010.000000	79.126267
1009.000000	79.062797
1008.000000	78.996017
1007.000000	78.945026
1006.000000	78.915498
1005.000000	78.892792
1004.000000	78.866638
1003.000000	78.842902
1002.000000	78.827024
1001.000000	78.816091
1000.000000	78.811910
999.000000	78.822165
998.000000	78.843479
997.000000	78.862393
996.000000	78.878033
995.000000	78.904649
994.000000	78.946722
993.000000	78.990800
992.000000	79.027508
991.000000	79.063273
990.000000	79.104484
989.000000	79.148375
988.000000	79.195870
987.000000	79.256074
986.000000	79.331530
985.000000	79.414885
984.000000	79.505275
983.000000	79.612323
982.000000	79.739414
981.000000	79.878760
980.000000	80.026983
979.000000	80.189787
978.000000	80.367603
977.000000	80.552752
976.000000	80.744647
975.000000	80.952201
974.000000	81.177630
973.000000	81.413062
972.000000	81.656110
971.000000	81.913295
970.000000	82.184581
969.000000	82.459220
968.000000	82.730157
967.000000	82.999250
966.000000	83.266825
965.000000	83.530036
964.000000	83.792378
963.000000	84.059991
962.000000	84.327194
961.000000	84.580387
960.000000	84.817671
959.000000	85.050151
958.000000	85.282852
957.000000	85.509283
956.000000	85.726227
955.000000	85.937803
954.000000	86.141898
953.000000	86.328039
952.000000	86.493096
951.000000	86.645721
950.000000	86.791684
949.000000	86.927555
948.000000	87.052009
947.000000	87.169816
946.000000	87.280953
945.000000	87.378918
944.000000	87.464041
943.000000	87.546109
942.000000	87.629593
941.000000	87.708143
940.000000	87.777711
939.000000	87.843065
938.000000	87.907342
937.000000	87.967226
936.000000	88.023224
935.000000	88.083389
934.000000	88.152034
933.000000	88.224822
932.000000	88.298442
931.000000	88.374501
930.000000	88.451257
929.000000	88.523207
928.000000	88.592026
927.000000	88.665948
926.000000	88.744501
925.000000	88.815580
924.000000	88.871953
923.000000	88.919770
922.000000	88.966876
921.000000	89.013511
920.000000	89.058285
919.000000	89.101973
918.000000	89.141021
917.000000	89.168359
916.000000	89.185760
915.000000	89.205838
914.000000	89.238013
913.000000	89.282700
912.000000	89.342483
911.000000	89.426927
910.000000	89.540836
909.000000	89.678009
908.000000	89.831618
907.000000	90.001590
906.000000	90.188203
905.000000	90.388449
904.000000	90.602094
903.000000	90.831236
902.000000	91.070560
901.000000	91.307996
900.000000	91.538443
899.000000	91.767459
898.000000	91.998372
897.000000	92.225315
896.000000	92.442304
895.000000	92.650257
894.000000	92.851341
893.000000	93.044279
892.000000	93.228747
891.000000	93.407558
890.000000	93.581514
889.000000	93.748137
888.000000	93.907547
887.000000	94.063784
886.000000	94.219028
885.000000	94.372135
884.000000	94.522743
883.000000	94.669994
882.000000	94.807863
881.000000	94.930054
880.000000	95.039863
879.000000	95.147337
878.000000	95.256891
877.000000	95.366601
876.000000	95.479155
875.000000	95.602164
874.000000	95.736159
873.000000	95.873111
872.000000	96.008662
871.000000	96.145417
870.000000	96.282516
869.000000	96.412963
868.000000	96.534839
867.000000	96.655683
866.000000	96.781602
865.000000	96.909527
864.000000	97.033625
863.000000	97.152289
862.000000	97.265611
861.000000	97.372495
860.000000	97.473836
859.000000	97.573220
858.000000	97.671194
857.000000	97.763063
856.000000	97.844539
855.000000	97.915840
854.000000	97.979511
853.000000	98.038733
852.000000	98.098000
851.000000	98.159871
850.000000	98.220097
849.000000	98.271060
848.000000	98.310061
847.000000	98.338850
846.000000	98.356407
845.000000	98.360227
844.000000	98.354905
843.000000	98.349957
842.000000	98.345996
841.000000	98.330984
840.000000	98.293776
839.000000	98.234845
838.000000	98.161612
837.000000	98.080862
836.000000	97.999225
835.000000	97.923431
834.000000	97.855215
833.000000	97.792133
832.000000	97.736769
831.000000	97.697009
830.000000	97.672530
829.000000	97.650748
828.000000	97.624918
827.000000	97.608924
826.000000	97.623143
825.000000	97.668731
824.000000	97.725136
823.000000	97.770917
822.000000	97.799890
821.000000	97.819619
820.000000	97.841158
819.000000	97.869022
818.000000	97.895770
817.000000	97.905939
816.000000	97.886408
815.000000	97.831854
814.000000	97.741408
813.000000	97.614597
812.000000	97.450910
811.000000	97.247452
810.000000	96.995044
809.000000	96.682934
808.000000	96.311115
807.000000	95.893025
806.000000	95.443314
805.000000	94.970385
804.000000	94.486261
803.000000	94.015616
802.000000	93.586866
801.000000	93.219820
800.000000	92.927389
799.000000	92.720089
798.000000	92.600563
797.000000	92.560146
796.000000	92.586734
795.000000	92.669761
794.000000	92.794215
793.000000	92.938442
792.000000	93.082915
791.000000	93.215642
790.000000	93.327177
789.000000	93.407146
788.000000	93.447762
787.000000	93.444816
786.000000	93.394482
785.000000	93.296276
784.000000	93.160593
783.000000	93.005997
782.000000	92.847079
781.000000	92.692425
780.000000	92.555920
779.000000	92.460282
778.000000	92.424693
777.000000	92.454935
776.000000	92.546135
775.000000	92.686219
774.000000	92.856495
773.000000	93.039896
772.000000	93.231026
771.000000	93.429553
770.000000	93.624056
769.000000	93.793274
768.000000	93.924558
767.000000	94.021192
766.000000	94.091477
765.000000	94.142463
764.000000	94.186161
763.000000	94.237742
762.000000	94.300217
761.000000	94.360634
760.000000	94.407997
759.000000	94.446722
758.000000	94.487256
757.000000	94.532654
756.000000	94.581163
755.000000	94.633783
754.000000	94.691682
753.000000	94.752293
752.000000	94.814356
751.000000	94.881487
750.000000	94.955561
749.000000	95.032432
748.000000	95.109831
747.000000	95.194027
746.000000	95.292361
745.000000	95.403380
744.000000	95.520067
743.000000	95.639170
742.000000	95.761876
741.000000	95.888169
740.000000	96.015816
739.000000	96.143539
738.000000	96.271250
737.000000	96.397712
736.000000	96.519841
735.000000	96.633301
734.000000	96.733689
733.000000	96.819758
732.000000	96.895765
731.000000	96.967685
730.000000	97.036151
729.000000	97.095341
728.000000	97.139332
727.000000	97.167896
726.000000	97.186891
725.000000	97.205632
724.000000	97.232870
723.000000	97.271925
722.000000	97.320159
721.000000	97.375277
720.000000	97.439411
719.000000	97.512833
718.000000	97.586797
717.000000	97.649190
716.000000	97.696523
715.000000	97.735718
714.000000	97.774748
713.000000	97.814797
712.000000	97.849782
711.000000	97.870087
710.000000	97.870006
709.000000	97.856099
708.000000	97.843926
707.000000	97.839953
706.000000	97.830787
705.000000	97.798066
704.000000	97.738762
703.000000	97.659699
702.000000	97.555471
701.000000	97.405748
700.000000	97.196123
699.000000	96.932392
698.000000	96.637127
697.000000	96.346730
696.000000	96.111885
695.000000	95.980804
694.000000	95.969144
693.000000	96.050677
692.000000	96.180922
691.000000	96.327087
690.000000	96.476793
689.000000	96.628796
688.000000	96.782167
687.000000	96.929868
686.000000	97.059006
685.000000	97.160382
684.000000	97.237500
683.000000	97.301648
682.000000	97.359899
681.000000	97.413813
680.000000	97.466962
679.000000	97.524527
678.000000	97.586068
677.000000	97.647685
676.000000	97.710546
675.000000	97.776161
674.000000	97.836902
673.000000	97.882089
672.000000	97.911862
671.000000	97.934879
670.000000	97.956002
669.000000	97.978420
668.000000	98.015910
667.000000	98.085278
666.000000	98.177898
665.000000	98.268223
664.000000	98.347416
663.000000	98.419068
662.000000	98.478591
661.000000	98.513910
660.000000	98.524274
659.000000	98.523983
658.000000	98.523366
657.000000	98.519549
656.000000	98.511805
655.000000	98.508710
654.000000	98.513645
653.000000	98.518597
652.000000	98.520989
651.000000	98.531336
650.000000	98.553933
