4000.000000	99.937037
3999.000000	99.939680
3998.000000	99.942011
3997.000000	99.942588
3996.000000	99.941890
3995.000000	99.941603
3994.000000	99.942437
3993.000000	99.943221
3992.000000	99.942411
3991.000000	99.939805
3990.000000	99.936837
3989.000000	99.935269
3988.000000	99.935649
3987.000000	99.937228
3986.000000	99.938810
3985.000000	99.939531
3984.000000	99.939103
3983.000000	99.937842
3982.000000	99.936647
3981.000000	99.936509
3980.000000	99.937759
3979.000000	99.939913
3978.000000	99.942280
3977.000000	99.944422
3976.000000	99.945795
3975.000000	99.945488
3974.000000	99.942886
3973.000000	99.938580
3972.000000	99.934281
3971.000000	99.931504
3970.000000	99.930550
3969.000000	99.930774
3968.000000	99.931510
3967.000000	99.932624
3966.000000	99.934201
3965.000000	99.935937
3964.000000	99.937164
3963.000000	99.937538
3962.000000	99.937506
3961.000000	99.937834
3960.000000	99.938657
3959.000000	99.939371
3958.000000	99.939412
3957.000000	99.938835
3956.000000	99.938076
3955.000000	99.937415
3954.000000	99.936867
3953.000000	99.936273
3952.000000	99.935374
3951.000000	99.933922
3950.000000	99.931961
3949.000000	99.929958
3948.000000	99.928490
3947.000000	99.927748
3946.000000	99.927428
3945.000000	99.927163
3944.000000	99.927018
3943.000000	99.927388
3942.000000	99.928353
3941.000000	99.929298
3940.000000	99.929393
3939.000000	99.928462
3938.000000	99.927186
3937.000000	99.926471
3936.000000	99.926610
3935.000000	99.927164
3934.000000	99.927509
3933.000000	99.927388
3932.000000	99.926997
3931.000000	99.926735
3930.000000	99.926857
3929.000000	99.927298
3928.000000	99.927667
3927.000000	99.927501
3926.000000	99.926647
3925.000000	99.925437
3924.000000	99.924377
3923.000000	99.923613
3922.000000	99.922941
3921.000000	99.922313
3920.000000	99.922033
3919.000000	99.922363
3918.000000	99.923209
3917.000000	99.924245
3916.000000	99.925115
3915.000000	99.925483
3914.000000	99.925153
3913.000000	99.924376
3912.000000	99.923609
3911.000000	99.923012
3910.000000	99.922402
3909.000000	99.921823
3908.000000	99.921805
3907.000000	99.922815
3906.000000	99.924608
3905.000000	99.926218
3904.000000	99.926747
3903.000000	99.925965
3902.000000	99.924148
3901.000000	99.921904
3900.000000	99.920221
3899.000000	99.920013
3898.000000	99.921362
3897.000000	99.923589
3896.000000	99.925981
3895.000000	99.928342
3894.000000	99.930458
3893.000000	99.931671
3892.000000	99.931406
3891.000000	99.930294
3890.000000	99.929671
3889.000000	99.929771
3888.000000	99.929716
3887.000000	99.928778
3886.000000	99.927096
3885.000000	99.925422
3884.000000	99.923951
3883.000000	99.922230
3882.000000	99.920662
3881.000000	99.920560
3880.000000	99.922517
3879.000000	99.925699
3878.000000	99.928683
3877.000000	99.930884
3876.000000	99.932749
3875.000000	99.934844
3874.000000	99.937294
3873.000000	99.939421
3872.000000	99.939826
3871.000000	99.937743
3870.000000	99.934281
3869.000000	99.931680
3868.000000	99.930637
3867.000000	99.930219
3866.000000	99.930220
3865.000000	99.931425
3864.000000	99.933777
3863.000000	99.935876
3862.000000	99.936494
3861.000000	99.935804
3860.000000	99.934700
3859.000000	99.933968
3858.000000	99.934122
3857.000000	99.935476
3856.000000	99.937864
3855.000000	99.940066
3854.000000	99.940360
3853.000000	99.938757
3852.000000	99.936889
3851.000000	99.935206
3850.000000	99.933555
3849.000000	99.932435
3848.000000	99.932167
3847.000000	99.932488
3846.000000	99.932994
3845.000000	99.933581
3844.000000	99.934237
3843.000000	99.934920
3842.000000	99.935579
3841.000000	99.936220
3840.000000	99.936866
3839.000000	99.937486
3838.000000	99.937961
3837.000000	99.938332
3836.000000	99.938840
3835.000000	99.939507
3834.000000	99.939979
3833.000000	99.939865
3832.000000	99.939203
3831.000000	99.938445
3830.000000	99.937957
3829.000000	99.937775
3828.000000	99.937748
3827.000000	99.937819
3826.000000	99.938106
3825.000000	99.938601
3824.000000	99.938966
3823.000000	99.938879
3822.000000	99.938402
3821.000000	99.938131
3820.000000	99.938632
3819.000000	99.939650
3818.000000	99.940500
3817.000000	99.940911
3816.000000	99.941031
3815.000000	99.941077
3814.000000	99.940951
3813.000000	99.940528
3812.000000	99.940092
3811.000000	99.939996
3810.000000	99.940232
3809.000000	99.940519
3808.000000	99.940642
3807.000000	99.940655
3806.000000	99.940707
3805.000000	99.940728
3804.000000	99.940555
3803.000000	99.940211
3802.000000	99.939869
3801.000000	99.939697
3800.000000	99.939685
3799.000000	99.939643
3798.000000	99.939517
3797.000000	99.939455
3796.000000	99.939552
3795.000000	99.939706
3794.000000	99.939711
3793.000000	99.939502
3792.000000	99.939204
3791.000000	99.938999
3790.000000	99.938976
3789.000000	99.939136
3788.000000	99.939399
3787.000000	99.939601
3786.000000	99.939561
3785.000000	99.939257
3784.000000	99.938875
3783.000000	99.938621
3782.000000	99.938516
3781.000000	99.938475
3780.000000	99.938445
3779.000000	99.938445
3778.000000	99.938457
3777.000000	99.938372
3776.000000	99.938133
3775.000000	99.937899
3774.000000	99.937919
3773.000000	99.938280
3772.000000	99.938894
3771.000000	99.939641
3770.000000	99.940421
3769.000000	99.941063
3768.000000	99.941335
3767.000000	99.941155
3766.000000	99.940719
3765.000000	99.940300
3764.000000	99.939957
3763.000000	99.939533
3762.000000	99.939047
3761.000000	99.938965
3760.000000	99.939661
3759.000000	99.940801
3758.000000	99.941618
3757.000000	99.941803
3756.000000	99.941527
3755.000000	99.940817
3754.000000	99.939574
3753.000000	99.938171
3752.000000	99.937500
3751.000000	99.937945
3750.000000	99.938923
3749.000000	99.939908
3748.000000	99.940718
3747.000000	99.940705
3746.000000	99.939213
3745.000000	99.936754
3744.000000	99.935526
3743.000000	99.936355
3742.000000	99.936314
3741.000000	99.933549
3740.000000	99.930070
3739.000000	99.928709
3738.000000	99.929919
3737.000000	99.931607
3736.000000	99.931560
3735.000000	99.929315
3734.000000	99.926051
3733.000000	99.923338
3732.000000	99.922214
3731.000000	99.922122
3730.000000	99.920947
3729.000000	99.917245
3728.000000	99.912122
3727.000000	99.908318
3726.000000	99.907152
3725.000000	99.906725
3724.000000	99.904268
3723.000000	99.899602
3722.000000	99.894695
3721.000000	99.891141
3720.000000	99.889047
3719.000000	99.887951
3718.000000	99.887771
3717.000000	99.888782
3716.000000	99.890409
3715.000000	99.890737
3714.000000	99.888248
3713.000000	99.883160
3712.000000	99.876947
3711.000000	99.870919
3710.000000	99.864577
3709.000000	99.856049
3708.000000	99.844774
3707.000000	99.832875
3706.000000	99.823199
3705.000000	99.816443
3704.000000	99.810651
3703.000000	99.803229
3702.000000	99.793718
3701.000000	99.784687
3700.000000	99.778917
3699.000000	99.776061
3698.000000	99.773375
3697.000000	99.768994
3696.000000	99.763431
3695.000000	99.758497
3694.000000	99.756283
3693.000000	99.758571
3692.000000	99.764515
3691.000000	99.769375
3690.000000	99.768061
3689.000000	99.761335
3688.000000	99.755730
3687.000000	99.755294
3686.000000	99.757538
3685.000000	99.758317
3684.000000	99.756137
3683.000000	99.751199
3682.000000	99.743474
3681.000000	99.733258
3680.000000	99.723169
3679.000000	99.715583
3678.000000	99.708438
3677.000000	99.697379
3676.000000	99.683077
3675.000000	99.672799
3674.000000	99.668317
3673.000000	99.660954
3672.000000	99.645094
3671.000000	99.625231
3670.000000	99.609695
3669.000000	99.601320
3668.000000	99.594419
3667.000000	99.582897
3666.000000	99.567251
3665.000000	99.551900
3664.000000	99.539709
3663.000000	99.529623
3662.000000	99.518581
3661.000000	99.505239
3660.000000	99.491582
3659.000000	99.480262
3658.000000	99.471529
3657.000000	99.462744
3656.000000	99.451873
3655.000000	99.439468
3654.000000	99.426074
3653.000000	99.411766
3652.000000	99.397822
3651.000000	99.384893
3650.000000	99.370790
3649.000000	99.353675
3648.000000	99.336168
3647.000000	99.322694
3646.000000	99.313996
3645.000000	99.307024
3644.000000	99.298505
3643.000000	99.287793
3642.000000	99.276528
3641.000000	99.266184
3640.000000	99.256245
3639.000000	99.245137
3638.000000	99.232590
3637.000000	99.219438
3636.000000	99.206233
3635.000000	99.193418
3634.000000	99.182232
3633.000000	99.173251
3632.000000	99.164287
3631.000000	99.152255
3630.000000	99.136746
3629.000000	99.121862
3628.000000	99.112897
3627.000000	99.108305
3626.000000	99.101988
3625.000000	99.093194
3624.000000	99.085444
3623.000000	99.080589
3622.000000	99.077758
3621.000000	99.076421
3620.000000	99.078531
3619.000000	99.086660
3618.000000	99.100769
3617.000000	99.117307
3616.000000	99.132109
3615.000000	99.143675
3614.000000	99.153440
3613.000000	99.163411
3612.000000	99.173932
3611.000000	99.184173
3610.000000	99.194370
3609.000000	99.205619
3608.000000	99.217105
3607.000000	99.226001
3606.000000	99.230780
3605.000000	99.233639
3604.000000	99.238909
3603.000000	99.248988
3602.000000	99.262496
3601.000000	99.275710
3600.000000	99.285425
3599.000000	99.290162
3598.000000	99.291400
3597.000000	99.293407
3596.000000	99.300236
3595.000000	99.311902
3594.000000	99.324516
3593.000000	99.333876
3592.000000	99.338757
3591.000000	99.340760
3590.000000	99.341906
3589.000000	99.343016
3588.000000	99.343907
3587.000000	99.344633
3586.000000	99.344873
3585.000000	99.343056
3584.000000	99.338432
3583.000000	99.332831
3582.000000	99.329624
3581.000000	99.331341
3580.000000	99.337918
3579.000000	99.346616
3578.000000	99.354085
3577.000000	99.358859
3576.000000	99.361634
3575.000000	99.363439
3574.000000	99.364035
3573.000000	99.362499
3572.000000	99.358800
3571.000000	99.354138
3570.000000	99.349526
3569.000000	99.344907
3568.000000	99.339870
3567.000000	99.334757
3566.000000	99.330115
3565.000000	99.325393
3564.000000	99.320048
3563.000000	99.315484
3562.000000	99.314104
3561.000000	99.316717
3560.000000	99.321295
3559.000000	99.324433
3558.000000	99.323886
3557.000000	99.320116
3556.000000	99.315713
3555.000000	99.313429
3554.000000	99.314301
3553.000000	99.317283
3552.000000	99.320310
3551.000000	99.321703
3550.000000	99.320579
3549.000000	99.316722
3548.000000	99.310707
3547.000000	99.304138
3546.000000	99.299194
3545.000000	99.297177
3544.000000	99.297435
3543.000000	99.298071
3542.000000	99.297776
3541.000000	99.296761
3540.000000	99.295951
3539.000000	99.295701
3538.000000	99.295543
3537.000000	99.294855
3536.000000	99.293469
3535.000000	99.291635
3534.000000	99.289876
3533.000000	99.288853
3532.000000	99.288939
3531.000000	99.289630
3530.000000	99.289659
3529.000000	99.288202
3528.000000	99.285929
3527.000000	99.284492
3526.000000	99.284839
3525.000000	99.286480
3524.000000	99.288295
3523.000000	99.289761
3522.000000	99.291096
3521.000000	99.292497
3520.000000	99.293706
3519.000000	99.294333
3518.000000	99.294306
3517.000000	99.293805
3516.000000	99.293059
3515.000000	99.292420
3514.000000	99.292322
3513.000000	99.292727
3512.000000	99.292783
3511.000000	99.291461
3510.000000	99.288673
3509.000000	99.285555
3508.000000	99.283421
3507.000000	99.282540
3506.000000	99.282166
3505.000000	99.281455
3504.000000	99.280217
3503.000000	99.278953
3502.000000	99.278342
3501.000000	99.278679
3500.000000	99.279668
3499.000000	99.280538
3498.000000	99.280502
3497.000000	99.279312
3496.000000	99.277403
3495.000000	99.275528
3494.000000	99.274157
3493.000000	99.273261
3492.000000	99.272612
3491.000000	99.272118
3490.000000	99.271828
3489.000000	99.271708
3488.000000	99.271531
3487.000000	99.270992
3486.000000	99.269911
3485.000000	99.268360
3484.000000	99.266615
3483.000000	99.264999
3482.000000	99.263658
3481.000000	99.262462
3480.000000	99.261167
3479.000000	99.259701
3478.000000	99.258248
3477.000000	99.257031
3476.000000	99.256056
3475.000000	99.255098
3474.000000	99.253903
3473.000000	99.252397
3472.000000	99.250680
3471.000000	99.248882
3470.000000	99.247083
3469.000000	99.245351
3468.000000	99.243763
3467.000000	99.242348
3466.000000	99.241044
3465.000000	99.239729
3464.000000	99.238297
3463.000000	99.236735
3462.000000	99.235084
3461.000000	99.233416
3460.000000	99.231783
3459.000000	99.230197
3458.000000	99.228640
3457.000000	99.227088
3456.000000	99.225536
3455.000000	99.223991
3454.000000	99.222444
3453.000000	99.220865
3452.000000	99.219226
3451.000000	99.217526
3450.000000	99.215792
3449.000000	99.214077
3448.000000	99.212439
3447.000000	99.210910
3446.000000	99.209470
3445.000000	99.208063
3444.000000	99.206639
3443.000000	99.205177
3442.000000	99.203677
3441.000000	99.202149
3440.000000	99.200639
3439.000000	99.199218
3438.000000	99.197937
3437.000000	99.196773
3436.000000	99.195612
3435.000000	99.194332
3434.000000	99.192895
3433.000000	99.191378
3432.000000	99.189897
3431.000000	99.188528
3430.000000	99.187321
3429.000000	99.186286
3428.000000	99.185325
3427.000000	99.184221
3426.000000	99.182803
3425.000000	99.181147
3424.000000	99.179523
3423.000000	99.178092
3422.000000	99.176732
3421.000000	99.175304
3420.000000	99.173962
3419.000000	99.173039
3418.000000	99.172704
3417.000000	99.172834
3416.000000	99.173098
3415.000000	99.173117
3414.000000	99.172598
3413.000000	99.171489
3412.000000	99.170120
3411.000000	99.169057
3410.000000	99.168644
3409.000000	99.168718
3408.000000	99.168779
3407.000000	99.168487
3406.000000	99.167910
3405.000000	99.167275
3404.000000	99.166664
3403.000000	99.166044
3402.000000	99.165496
3401.000000	99.165214
3400.000000	99.165195
3399.000000	99.165085
3398.000000	99.164492
3397.000000	99.163444
3396.000000	99.162475
3395.000000	99.162214
3394.000000	99.162873
3393.000000	99.164155
3392.000000	99.165465
3391.000000	99.166344
3390.000000	99.166709
3389.000000	99.166724
3388.000000	99.166512
3387.000000	99.166058
3386.000000	99.165411
3385.000000	99.164896
3384.000000	99.164970
3383.000000	99.165798
3382.000000	99.167055
3381.000000	99.168163
3380.000000	99.168761
3379.000000	99.169001
3378.000000	99.169429
3377.000000	99.170503
3376.000000	99.172162
3375.000000	99.173854
3374.000000	99.175021
3373.000000	99.175592
3372.000000	99.175912
3371.000000	99.176281
3370.000000	99.176651
3369.000000	99.176852
3368.000000	99.176993
3367.000000	99.177517
3366.000000	99.178846
3365.000000	99.181039
3364.000000	99.183680
3363.000000	99.186020
3362.000000	99.187440
3361.000000	99.187828
3360.000000	99.187595
3359.000000	99.187337
3358.000000	99.187408
3357.000000	99.187888
3356.000000	99.188755
3355.000000	99.189890
3354.000000	99.191000
3353.000000	99.191816
3352.000000	99.192392
3351.000000	99.193091
3350.000000	99.194160
3349.000000	99.195469
3348.000000	99.196744
3347.000000	99.197932
3346.000000	99.199184
3345.000000	99.200555
3344.000000	99.201924
3343.000000	99.203221
3342.000000	99.204564
3341.000000	99.206097
3340.000000	99.207758
3339.000000	99.209250
3338.000000	99.210269
3337.000000	99.210788
3336.000000	99.211175
3335.000000	99.211958
3334.000000	99.213365
3333.000000	99.215141
3332.000000	99.216765
3331.000000	99.217948
3330.000000	99.218819
3329.000000	99.219700
3328.000000	99.220782
3327.000000	99.222014
3326.000000	99.223195
3325.000000	99.224141
3324.000000	99.224808
3323.000000	99.225317
3322.000000	99.225875
3321.000000	99.226610
3320.000000	99.227535
3319.000000	99.228625
3318.000000	99.229863
3317.000000	99.231215
3316.000000	99.232583
3315.000000	99.233838
3314.000000	99.234899
3313.000000	99.235767
3312.000000	99.236500
3311.000000	99.237172
3310.000000	99.237859
3309.000000	99.238631
3308.000000	99.239526
3307.000000	99.240553
3306.000000	99.241679
3305.000000	99.242838
3304.000000	99.243955
3303.000000	99.244988
3302.000000	99.245948
3301.000000	99.246879
3300.000000	99.247826
3299.000000	99.248800
3298.000000	99.249781
3297.000000	99.250745
3296.000000	99.251686
3295.000000	99.252618
3294.000000	99.253562
3293.000000	99.254532
3292.000000	99.255524
3291.000000	99.256519
3290.000000	99.257506
3289.000000	99.258487
3288.000000	99.259474
3287.000000	99.260484
3286.000000	99.261525
3285.000000	99.262599
3284.000000	99.263698
3283.000000	99.264817
3282.000000	99.265951
3281.000000	99.267101
3280.000000	99.268270
3279.000000	99.269454
3278.000000	99.270638
3277.000000	99.271809
3276.000000	99.272968
3275.000000	99.274133
3274.000000	99.275327
3273.000000	99.276557
3272.000000	99.277810
3271.000000	99.279068
3270.000000	99.280327
3269.000000	99.281600
3268.000000	99.282903
3267.000000	99.284232
3266.000000	99.285578
3265.000000	99.286940
3264.000000	99.288343
3263.000000	99.289814
3262.000000	99.291351
3261.000000	99.292910
3260.000000	99.294421
3259.000000	99.295823
3258.000000	99.297091
3257.000000	99.298232
3256.000000	99.299337
3255.000000	99.300581
3254.000000	99.302134
3253.000000	99.304032
3252.000000	99.306117
3251.000000	99.308137
3250.000000	99.309932
3249.000000	99.311531
3248.000000	99.313105
3247.000000	99.314780
3246.000000	99.316463
3245.000000	99.317940
3244.000000	99.319160
3243.000000	99.320391
3242.000000	99.321985
3241.000000	99.324026
3240.000000	99.326278
3239.000000	99.328422
3238.000000	99.330367
3237.000000	99.332238
3236.000000	99.334155
3235.000000	99.336088
3234.000000	99.337918
3233.000000	99.339602
3232.000000	99.341246
3231.000000	99.343010
3230.000000	99.344934
3229.000000	99.346895
3228.000000	99.348736
3227.000000	99.350397
3226.000000	99.351859
3225.000000	99.353072
3224.000000	99.354069
3223.000000	99.355144
3222.000000	99.356734
3221.000000	99.359051
3220.000000	99.361882
3219.000000	99.364756
3218.000000	99.367341
3217.000000	99.369605
3216.000000	99.371682
3215.000000	99.373675
3214.000000	99.375535
3213.000000	99.377107
3212.000000	99.378314
3211.000000	99.379306
3210.000000	99.380367
3209.000000	99.381651
3208.000000	99.383102
3207.000000	99.384630
3206.000000	99.386303
3205.000000	99.388309
3204.000000	99.390722
3203.000000	99.393350
3202.000000	99.395805
3201.000000	99.397793
3200.000000	99.399324
3199.000000	99.400673
3198.000000	99.402158
3197.000000	99.403929
3196.000000	99.405968
3195.000000	99.408139
3194.000000	99.410196
3193.000000	99.411903
3192.000000	99.413264
3191.000000	99.414598
3190.000000	99.416249
3189.000000	99.418258
3188.000000	99.420418
3187.000000	99.422572
3186.000000	99.424693
3185.000000	99.426705
3184.000000	99.428487
3183.000000	99.430103
3182.000000	99.431837
3181.000000	99.433879
3180.000000	99.436120
3179.000000	99.438306
3178.000000	99.440310
3177.000000	99.442168
3176.000000	99.443944
3175.000000	99.445702
3174.000000	99.447560
3173.000000	99.449620
3172.000000	99.451832
3171.000000	99.454000
3170.000000	99.455971
3169.000000	99.457736
3168.000000	99.459356
3167.000000	99.460874
3166.000000	99.462355
3165.000000	99.463911
3164.000000	99.465618
3163.000000	99.467445
3162.000000	99.469299
3161.000000	99.471111
3160.000000	99.472863
3159.000000	99.474559
3158.000000	99.476225
3157.000000	99.477894
3156.000000	99.479550
3155.000000	99.481112
3154.000000	99.482515
3153.000000	99.483841
3152.000000	99.485317
3151.000000	99.487162
3150.000000	99.489452
3149.000000	99.492064
3148.000000	99.494698
3147.000000	99.497002
3146.000000	99.498734
3145.000000	99.499925
3144.000000	99.500921
3143.000000	99.502155
3142.000000	99.503818
3141.000000	99.505769
3140.000000	99.507766
3139.000000	99.509706
3138.000000	99.511605
3137.000000	99.513409
3136.000000	99.514992
3135.000000	99.516397
3134.000000	99.517916
3133.000000	99.519755
3132.000000	99.521702
3131.000000	99.523258
3130.000000	99.524158
3129.000000	99.524675
3128.000000	99.525402
3127.000000	99.526711
3126.000000	99.528507
3125.000000	99.530476
3124.000000	99.532470
3123.000000	99.534567
3122.000000	99.536726
3121.000000	99.538611
3120.000000	99.539894
3119.000000	99.540701
3118.000000	99.541598
3117.000000	99.543057
3116.000000	99.545057
3115.000000	99.547283
3114.000000	99.549579
3113.000000	99.552038
3112.000000	99.554694
3111.000000	99.557299
3110.000000	99.559498
3109.000000	99.561145
3108.000000	99.562398
3107.000000	99.563542
3106.000000	99.564735
3105.000000	99.565884
3104.000000	99.566771
3103.000000	99.567321
3102.000000	99.567763
3101.000000	99.568523
3100.000000	99.569863
3099.000000	99.571664
3098.000000	99.573510
3097.000000	99.575007
3096.000000	99.576075
3095.000000	99.576940
3094.000000	99.577951
3093.000000	99.579300
3092.000000	99.580895
3091.000000	99.582453
3090.000000	99.583747
3089.000000	99.584791
3088.000000	99.585794
3087.000000	99.586959
3086.000000	99.588328
3085.000000	99.589804
3084.000000	99.591251
3083.000000	99.592560
3082.000000	99.593682
3081.000000	99.594669
3080.000000	99.595668
3079.000000	99.596783
3078.000000	99.597936
3077.000000	99.598940
3076.000000	99.599727
3075.000000	99.600443
3074.000000	99.601291
3073.000000	99.602352
3072.000000	99.603576
3071.000000	99.604885
3070.000000	99.606201
3069.000000	99.607425
3068.000000	99.608511
3067.000000	99.609524
3066.000000	99.610571
3065.000000	99.611692
3064.000000	99.612870
3063.000000	99.614094
3062.000000	99.615306
3061.000000	99.616312
3060.000000	99.616948
3059.000000	99.617318
3058.000000	99.617684
3057.000000	99.618102
3056.000000	99.618430
3055.000000	99.618754
3054.000000	99.619523
3053.000000	99.621021
3052.000000	99.622969
3051.000000	99.624790
3050.000000	99.626066
3049.000000	99.626745
3048.000000	99.627175
3047.000000	99.628002
3046.000000	99.629709
3045.000000	99.632096
3044.000000	99.634337
3043.000000	99.635827
3042.000000	99.636837
3041.000000	99.638118
3040.000000	99.639955
3039.000000	99.641835
3038.000000	99.643057
3037.000000	99.643467
3036.000000	99.643459
3035.000000	99.643436
3034.000000	99.643425
3033.000000	99.643335
3032.000000	99.643424
3031.000000	99.644248
3030.000000	99.646036
3029.000000	99.648284
3028.000000	99.650113
3027.000000	99.651102
3026.000000	99.651531
3025.000000	99.651925
3024.000000	99.652483
3023.000000	99.653051
3022.000000	99.653551
3021.000000	99.654235
3020.000000	99.655402
3019.000000	99.656922
3018.000000	99.658205
3017.000000	99.658760
3016.000000	99.658730
3015.000000	99.658789
3014.000000	99.659488
3013.000000	99.660815
3012.000000	99.662385
3011.000000	99.663878
3010.000000	99.665235
3009.000000	99.666584
3008.000000	99.668133
3007.000000	99.669972
3006.000000	99.671781
3005.000000	99.672920
3004.000000	99.673116
3003.000000	99.673000
3002.000000	99.673592
3001.000000	99.675190
3000.000000	99.677052
2999.000000	99.678238
2998.000000	99.678573
2997.000000	99.678716
2996.000000	99.679538
2995.000000	99.681434
2994.000000	99.683950
2993.000000	99.685968
2992.000000	99.686636
2991.000000	99.686238
2990.000000	99.685958
2989.000000	99.686701
2988.000000	99.688513
2987.000000	99.691198
2986.000000	99.694832
2985.000000	99.699197
2984.000000	99.703239
2983.000000	99.705848
2982.000000	99.706770
2981.000000	99.706387
2980.000000	99.704942
2979.000000	99.702556
2978.000000	99.699908
2977.000000	99.698072
2976.000000	99.697457
2975.000000	99.697418
2974.000000	99.697220
2973.000000	99.697006
2972.000000	99.697477
2971.000000	99.698795
2970.000000	99.700231
2969.000000	99.701006
2968.000000	99.701180
2967.000000	99.701486
2966.000000	99.702313
2965.000000	99.703179
2964.000000	99.703355
2963.000000	99.702784
2962.000000	99.702106
2961.000000	99.701800
2960.000000	99.701684
2959.000000	99.701429
2958.000000	99.701217
2957.000000	99.701527
2956.000000	99.702355
2955.000000	99.703004
2954.000000	99.702779
2953.000000	99.701778
2952.000000	99.700875
2951.000000	99.700915
2950.000000	99.701934
2949.000000	99.703157
2948.000000	99.703799
2947.000000	99.703927
2946.000000	99.704421
2945.000000	99.705979
2944.000000	99.708181
2943.000000	99.709643
2942.000000	99.709292
2941.000000	99.707436
2940.000000	99.705614
2939.000000	99.705188
2938.000000	99.706238
2937.000000	99.707981
2936.000000	99.710010
2935.000000	99.712656
2934.000000	99.715923
2933.000000	99.718708
2932.000000	99.719703
2931.000000	99.718743
2930.000000	99.716779
2929.000000	99.714721
2928.000000	99.712861
2927.000000	99.711377
2926.000000	99.710549
2925.000000	99.710284
2924.000000	99.710153
2923.000000	99.710281
2922.000000	99.711533
2921.000000	99.714446
2920.000000	99.718446
2919.000000	99.722408
2918.000000	99.725649
2917.000000	99.728101
2916.000000	99.730014
2915.000000	99.731877
2914.000000	99.734214
2913.000000	99.736992
2912.000000	99.739462
2911.000000	99.740940
2910.000000	99.741623
2909.000000	99.742374
2908.000000	99.743863
2907.000000	99.746155
2906.000000	99.748921
2905.000000	99.751756
2904.000000	99.754349
2903.000000	99.756488
2902.000000	99.757852
2901.000000	99.757943
2900.000000	99.756691
2899.000000	99.755134
2898.000000	99.754910
2897.000000	99.756548
2896.000000	99.758852
2895.000000	99.760370
2894.000000	99.761033
2893.000000	99.761841
2892.000000	99.763301
2891.000000	99.764907
2890.000000	99.766050
2889.000000	99.766676
2888.000000	99.766861
2887.000000	99.766344
2886.000000	99.764912
2885.000000	99.762956
2884.000000	99.761235
2883.000000	99.760198
2882.000000	99.759877
2881.000000	99.760352
2880.000000	99.761844
2879.000000	99.764157
2878.000000	99.766345
2877.000000	99.767396
2876.000000	99.767301
2875.000000	99.767102
2874.000000	99.767742
2873.000000	99.769118
2872.000000	99.770487
2871.000000	99.771542
2870.000000	99.772602
2869.000000	99.773800
2868.000000	99.774665
2867.000000	99.774777
2866.000000	99.774430
2865.000000	99.774308
2864.000000	99.774626
2863.000000	99.775006
2862.000000	99.775167
2861.000000	99.775428
2860.000000	99.776336
2859.000000	99.778038
2858.000000	99.780103
2857.000000	99.781882
2856.000000	99.782942
2855.000000	99.783242
2854.000000	99.783122
2853.000000	99.783128
2852.000000	99.783678
2851.000000	99.784791
2850.000000	99.786114
2849.000000	99.787205
2848.000000	99.787853
2847.000000	99.788171
2846.000000	99.788475
2845.000000	99.789074
2844.000000	99.790043
2843.000000	99.791129
2842.000000	99.791929
2841.000000	99.792306
2840.000000	99.792612
2839.000000	99.793432
2838.000000	99.795082
2837.000000	99.797403
2836.000000	99.799943
2835.000000	99.802223
2834.000000	99.803859
2833.000000	99.804686
2832.000000	99.804928
2831.000000	99.805123
2830.000000	99.805661
2829.000000	99.806392
2828.000000	99.806754
2827.000000	99.806293
2826.000000	99.805065
2825.000000	99.803684
2824.000000	99.802942
2823.000000	99.803179
2822.000000	99.804113
2821.000000	99.805342
2820.000000	99.806906
2819.000000	99.809038
2818.000000	99.811439
2817.000000	99.813236
2816.000000	99.813924
2815.000000	99.813936
2814.000000	99.814107
2813.000000	99.814772
2812.000000	99.815668
2811.000000	99.816512
2810.000000	99.817256
2809.000000	99.817862
2808.000000	99.818252
2807.000000	99.818560
2806.000000	99.819154
2805.000000	99.820264
2804.000000	99.821764
2803.000000	99.823312
2802.000000	99.824611
2801.000000	99.825542
2800.000000	99.826170
2799.000000	99.826725
2798.000000	99.827427
2797.000000	99.828281
2796.000000	99.829118
2795.000000	99.829838
2794.000000	99.830520
2793.000000	99.831269
2792.000000	99.832084
2791.000000	99.832897
2790.000000	99.833673
2789.000000	99.834435
2788.000000	99.835237
2787.000000	99.836137
2786.000000	99.837154
2785.000000	99.838253
2784.000000	99.839351
2783.000000	99.840381
2782.000000	99.841331
2781.000000	99.842227
2780.000000	99.843106
2779.000000	99.843995
2778.000000	99.844906
2777.000000	99.845830
2776.000000	99.846746
2775.000000	99.847634
2774.000000	99.848496
2773.000000	99.849352
2772.000000	99.850216
2771.000000	99.851084
2770.000000	99.851956
2769.000000	99.852839
2768.000000	99.853737
2767.000000	99.854633
2766.000000	99.855490
2765.000000	99.856271
2764.000000	99.856966
2763.000000	99.857598
2762.000000	99.858223
2761.000000	99.858897
2760.000000	99.859631
2759.000000	99.860390
2758.000000	99.861121
2757.000000	99.861809
2756.000000	99.862472
2755.000000	99.863123
2754.000000	99.863755
2753.000000	99.864372
2752.000000	99.864998
2751.000000	99.865648
2750.000000	99.866310
2749.000000	99.866953
2748.000000	99.867541
2747.000000	99.868041
2746.000000	99.868442
2745.000000	99.868770
2744.000000	99.869091
2743.000000	99.869466
2742.000000	99.869916
2741.000000	99.870419
2740.000000	99.870919
2739.000000	99.871353
2738.000000	99.871694
2737.000000	99.871957
2736.000000	99.872190
2735.000000	99.872435
2734.000000	99.872687
2733.000000	99.872913
2732.000000	99.873092
2731.000000	99.873242
2730.000000	99.873402
2729.000000	99.873604
2728.000000	99.873855
2727.000000	99.874143
2726.000000	99.874448
2725.000000	99.874748
2724.000000	99.875016
2723.000000	99.875232
2722.000000	99.875394
2721.000000	99.875523
2720.000000	99.875649
2719.000000	99.875781
2718.000000	99.875902
2717.000000	99.876004
2716.000000	99.876099
2715.000000	99.876206
2714.000000	99.876321
2713.000000	99.876428
2712.000000	99.876513
2711.000000	99.876570
2710.000000	99.876604
2709.000000	99.876629
2708.000000	99.876658
2707.000000	99.876704
2706.000000	99.876771
2705.000000	99.876859
2704.000000	99.876964
2703.000000	99.877077
2702.000000	99.877191
2701.000000	99.877299
2700.000000	99.877399
2699.000000	99.877492
2698.000000	99.877585
2697.000000	99.877683
2696.000000	99.877793
2695.000000	99.877913
2694.000000	99.878038
2693.000000	99.878162
2692.000000	99.878280
2691.000000	99.878390
2690.000000	99.878493
2689.000000	99.878592
2688.000000	99.878688
2687.000000	99.878781
2686.000000	99.878863
2685.000000	99.878935
2684.000000	99.879008
2683.000000	99.879102
2682.000000	99.879232
2681.000000	99.879398
2680.000000	99.879579
2679.000000	99.879749
2678.000000	99.879912
2677.000000	99.880117
2676.000000	99.880396
2675.000000	99.880714
2674.000000	99.880972
2673.000000	99.881072
2672.000000	99.880975
2671.000000	99.880760
2670.000000	99.880607
2669.000000	99.880728
2668.000000	99.881261
2667.000000	99.882101
2666.000000	99.882900
2665.000000	99.883337
2664.000000	99.883397
2663.000000	99.883334
2662.000000	99.883355
2661.000000	99.883459
2660.000000	99.883569
2659.000000	99.883612
2658.000000	99.883436
2657.000000	99.882893
2656.000000	99.882115
2655.000000	99.881498
2654.000000	99.881232
2653.000000	99.881041
2652.000000	99.880613
2651.000000	99.880132
2650.000000	99.880152
2649.000000	99.880996
2648.000000	99.882492
2647.000000	99.884076
2646.000000	99.885037
2645.000000	99.884897
2644.000000	99.883966
2643.000000	99.883468
2642.000000	99.884510
2641.000000	99.886791
2640.000000	99.888622
2639.000000	99.888612
2638.000000	99.886879
2637.000000	99.884612
2636.000000	99.882717
2635.000000	99.881149
2634.000000	99.879531
2633.000000	99.877942
2632.000000	99.876938
2631.000000	99.876893
2630.000000	99.877455
2629.000000	99.877808
2628.000000	99.877622
2627.000000	99.877494
2626.000000	99.878209
2625.000000	99.879769
2624.000000	99.881465
2623.000000	99.882714
2622.000000	99.883389
2621.000000	99.883430
2620.000000	99.882647
2619.000000	99.881097
2618.000000	99.879327
2617.000000	99.878040
2616.000000	99.877679
2615.000000	99.878398
2614.000000	99.880089
2613.000000	99.882339
2612.000000	99.884578
2611.000000	99.886355
2610.000000	99.887355
2609.000000	99.887288
2608.000000	99.886173
2607.000000	99.884734
2606.000000	99.883969
2605.000000	99.884138
2604.000000	99.884627
2603.000000	99.884936
2602.000000	99.885308
2601.000000	99.886100
2600.000000	99.887079
2599.000000	99.887753
2598.000000	99.888064
2597.000000	99.888198
2596.000000	99.888101
2595.000000	99.887695
2594.000000	99.887242
2593.000000	99.887142
2592.000000	99.887487
2591.000000	99.888083
2590.000000	99.888743
2589.000000	99.889244
2588.000000	99.889181
2587.000000	99.888279
2586.000000	99.886811
2585.000000	99.885495
2584.000000	99.884835
2583.000000	99.884753
2582.000000	99.884834
2581.000000	99.884761
2580.000000	99.884493
2579.000000	99.884184
2578.000000	99.884048
2577.000000	99.884265
2576.000000	99.884893
2575.000000	99.885795
2574.000000	99.886642
2573.000000	99.887071
2572.000000	99.886923
2571.000000	99.886353
2570.000000	99.885740
2569.000000	99.885410
2568.000000	99.885390
2567.000000	99.885441
2566.000000	99.885320
2565.000000	99.885016
2564.000000	99.884762
2563.000000	99.884795
2562.000000	99.885122
2561.000000	99.885522
2560.000000	99.885782
2559.000000	99.885866
2558.000000	99.885827
2557.000000	99.885668
2556.000000	99.885406
2555.000000	99.885230
2554.000000	99.885403
2553.000000	99.885970
2552.000000	99.886664
2551.000000	99.887183
2550.000000	99.887469
2549.000000	99.887629
2548.000000	99.887689
2547.000000	99.887572
2546.000000	99.887294
2545.000000	99.887032
2544.000000	99.886996
2543.000000	99.887274
2542.000000	99.887827
2541.000000	99.888510
2540.000000	99.889111
2539.000000	99.889465
2538.000000	99.889561
2537.000000	99.889562
2536.000000	99.889691
2535.000000	99.890019
2534.000000	99.890330
2533.000000	99.890250
2532.000000	99.889620
2531.000000	99.888766
2530.000000	99.888280
2529.000000	99.888438
2528.000000	99.889045
2527.000000	99.889833
2526.000000	99.890758
2525.000000	99.891781
2524.000000	99.892677
2523.000000	99.893267
2522.000000	99.893668
2521.000000	99.894103
2520.000000	99.894565
2519.000000	99.894854
2518.000000	99.894913
2517.000000	99.894924
2516.000000	99.895080
2515.000000	99.895349
2514.000000	99.895552
2513.000000	99.895614
2512.000000	99.895659
2511.000000	99.895867
2510.000000	99.896261
2509.000000	99.896688
2508.000000	99.896983
2507.000000	99.897124
2506.000000	99.897195
2505.000000	99.897274
2504.000000	99.897397
2503.000000	99.897591
2502.000000	99.897883
2501.000000	99.898245
2500.000000	99.898576
2499.000000	99.898777
2498.000000	99.898818
2497.000000	99.898752
2496.000000	99.898714
2495.000000	99.898847
2494.000000	99.899200
2493.000000	99.899689
2492.000000	99.900133
2491.000000	99.900434
2490.000000	99.900654
2489.000000	99.900896
2488.000000	99.901153
2487.000000	99.901342
2486.000000	99.901469
2485.000000	99.901657
2484.000000	99.902010
2483.000000	99.902465
2482.000000	99.902843
2481.000000	99.903005
2480.000000	99.902939
2479.000000	99.902741
2478.000000	99.902576
2477.000000	99.902594
2476.000000	99.902850
2475.000000	99.903309
2474.000000	99.903929
2473.000000	99.904639
2472.000000	99.905266
2471.000000	99.905638
2470.000000	99.905829
2469.000000	99.906204
2468.000000	99.907113
2467.000000	99.908556
2466.000000	99.910127
2465.000000	99.911295
2464.000000	99.911775
2463.000000	99.911666
2462.000000	99.911190
2461.000000	99.910343
2460.000000	99.908999
2459.000000	99.907453
2458.000000	99.906552
2457.000000	99.906976
2456.000000	99.908563
2455.000000	99.910428
2454.000000	99.911772
2453.000000	99.912379
2452.000000	99.912413
2451.000000	99.912249
2450.000000	99.912448
2449.000000	99.913505
2448.000000	99.915419
2447.000000	99.917617
2446.000000	99.919366
2445.000000	99.920210
2444.000000	99.920111
2443.000000	99.919444
2442.000000	99.918850
2441.000000	99.918745
2440.000000	99.918958
2439.000000	99.919036
2438.000000	99.918852
2437.000000	99.918681
2436.000000	99.918724
2435.000000	99.918857
2434.000000	99.918916
2433.000000	99.918939
2432.000000	99.919068
2431.000000	99.919353
2430.000000	99.919717
2429.000000	99.919987
2428.000000	99.919998
2427.000000	99.919788
2426.000000	99.919637
2425.000000	99.919755
2424.000000	99.920033
2423.000000	99.920255
2422.000000	99.920421
2421.000000	99.920658
2420.000000	99.920965
2419.000000	99.921260
2418.000000	99.921594
2417.000000	99.922063
2416.000000	99.922560
2415.000000	99.922855
2414.000000	99.922895
2413.000000	99.922806
2412.000000	99.922650
2411.000000	99.922429
2410.000000	99.922314
2409.000000	99.922564
2408.000000	99.923145
2407.000000	99.923667
2406.000000	99.923863
2405.000000	99.923963
2404.000000	99.924365
2403.000000	99.925139
2402.000000	99.926039
2401.000000	99.926787
2400.000000	99.927303
2399.000000	99.927651
2398.000000	99.927911
2397.000000	99.928118
2396.000000	99.928305
2395.000000	99.928546
2394.000000	99.928917
2393.000000	99.929403
2392.000000	99.929871
2391.000000	99.930193
2390.000000	99.930380
2389.000000	99.930584
2388.000000	99.930955
2387.000000	99.931508
2386.000000	99.932140
2385.000000	99.932699
2384.000000	99.933091
2383.000000	99.933313
2382.000000	99.933435
2381.000000	99.933551
2380.000000	99.933720
2379.000000	99.933958
2378.000000	99.934279
2377.000000	99.934704
2376.000000	99.935213
2375.000000	99.935723
2374.000000	99.936141
2373.000000	99.936447
2372.000000	99.936696
2371.000000	99.936939
2370.000000	99.937170
2369.000000	99.937349
2368.000000	99.937469
2367.000000	99.937579
2366.000000	99.937749
2365.000000	99.938008
2364.000000	99.938322
2363.000000	99.938619
2362.000000	99.938852
2361.000000	99.939023
2360.000000	99.939157
2359.000000	99.939264
2358.000000	99.939325
2357.000000	99.939340
2356.000000	99.939342
2355.000000	99.939363
2354.000000	99.939394
2353.000000	99.939414
2352.000000	99.939415
2351.000000	99.939407
2350.000000	99.939398
2349.000000	99.939393
2348.000000	99.939385
2347.000000	99.939364
2346.000000	99.939317
2345.000000	99.939241
2344.000000	99.939144
2343.000000	99.939040
2342.000000	99.938936
2341.000000	99.938834
2340.000000	99.938727
2339.000000	99.938603
2338.000000	99.938453
2337.000000	99.938277
2336.000000	99.938077
2335.000000	99.937841
2334.000000	99.937549
2333.000000	99.937186
2332.000000	99.936800
2331.000000	99.936464
2330.000000	99.936199
2329.000000	99.935947
2328.000000	99.935690
2327.000000	99.935384
2326.000000	99.934937
2325.000000	99.934300
2324.000000	99.933594
2323.000000	99.932999
2322.000000	99.932624
2321.000000	99.932554
2320.000000	99.932778
2319.000000	99.932926
2318.000000	99.932566
2317.000000	99.931701
2316.000000	99.930975
2315.000000	99.930774
2314.000000	99.930891
2313.000000	99.930798
2312.000000	99.930515
2311.000000	99.930321
2310.000000	99.930483
2309.000000	99.930901
2308.000000	99.931311
2307.000000	99.931097
2306.000000	99.929791
2305.000000	99.927525
2304.000000	99.925120
2303.000000	99.923146
2302.000000	99.921698
2301.000000	99.920729
2300.000000	99.920388
2299.000000	99.920284
2298.000000	99.919643
2297.000000	99.918188
2296.000000	99.916632
2295.000000	99.915387
2294.000000	99.913933
2293.000000	99.911868
2292.000000	99.910197
2291.000000	99.910337
2290.000000	99.912405
2289.000000	99.915266
2288.000000	99.917995
2287.000000	99.920501
2286.000000	99.922613
2285.000000	99.923654
2284.000000	99.923120
2283.000000	99.921249
2282.000000	99.918675
2281.000000	99.916015
2280.000000	99.913830
2279.000000	99.912549
2278.000000	99.912126
2277.000000	99.912104
2276.000000	99.912184
2275.000000	99.912435
2274.000000	99.912881
2273.000000	99.913262
2272.000000	99.913428
2271.000000	99.913550
2270.000000	99.913726
2269.000000	99.913687
2268.000000	99.913189
2267.000000	99.912466
2266.000000	99.912021
2265.000000	99.912064
2264.000000	99.912390
2263.000000	99.912658
2262.000000	99.912567
2261.000000	99.911877
2260.000000	99.910591
2259.000000	99.909164
2258.000000	99.908270
2257.000000	99.908205
2256.000000	99.908576
2255.000000	99.908632
2254.000000	99.907937
2253.000000	99.906716
2252.000000	99.905642
2251.000000	99.905282
2250.000000	99.905705
2249.000000	99.906470
2248.000000	99.906907
2247.000000	99.906520
2246.000000	99.905241
2245.000000	99.903440
2244.000000	99.901696
2243.000000	99.900415
2242.000000	99.899679
2241.000000	99.899415
2240.000000	99.899620
2239.000000	99.900328
2238.000000	99.901371
2237.000000	99.902321
2236.000000	99.902769
2235.000000	99.902641
2234.000000	99.902232
2233.000000	99.902022
2232.000000	99.902421
2231.000000	99.903527
2230.000000	99.904944
2229.000000	99.905893
2228.000000	99.905762
2227.000000	99.904678
2226.000000	99.903502
2225.000000	99.903084
2224.000000	99.903452
2223.000000	99.903925
2222.000000	99.904043
2221.000000	99.904076
2220.000000	99.904393
2219.000000	99.904622
2218.000000	99.903982
2217.000000	99.902392
2216.000000	99.900675
2215.000000	99.899495
2214.000000	99.898626
2213.000000	99.897648
2212.000000	99.896828
2211.000000	99.896629
2210.000000	99.896729
2209.000000	99.896348
2208.000000	99.895485
2207.000000	99.895042
2206.000000	99.895580
2205.000000	99.896615
2204.000000	99.897402
2203.000000	99.897872
2202.000000	99.898328
2201.000000	99.898733
2200.000000	99.898884
2199.000000	99.898992
2198.000000	99.899584
2197.000000	99.900824
2196.000000	99.902255
2195.000000	99.903248
2194.000000	99.903517
2193.000000	99.903156
2192.000000	99.902365
2191.000000	99.901293
2190.000000	99.900106
2189.000000	99.899059
2188.000000	99.898368
2187.000000	99.898011
2186.000000	99.897790
2185.000000	99.897638
2184.000000	99.897798
2183.000000	99.898579
2182.000000	99.899988
2181.000000	99.901674
2180.000000	99.903213
2179.000000	99.904340
2178.000000	99.904976
2177.000000	99.905169
2176.000000	99.905058
2175.000000	99.904843
2174.000000	99.904780
2173.000000	99.905142
2172.000000	99.906059
2171.000000	99.907296
2170.000000	99.908335
2169.000000	99.908816
2168.000000	99.908825
2167.000000	99.908661
2166.000000	99.908456
2165.000000	99.908227
2164.000000	99.908161
2163.000000	99.908504
2162.000000	99.909227
2161.000000	99.909960
2160.000000	99.910343
2159.000000	99.910357
2158.000000	99.910235
2157.000000	99.910210
2156.000000	99.910355
2155.000000	99.910624
2154.000000	99.910937
2153.000000	99.911230
2152.000000	99.911496
2151.000000	99.911779
2150.000000	99.912091
2149.000000	99.912360
2148.000000	99.912525
2147.000000	99.912659
2146.000000	99.912911
2145.000000	99.913314
2144.000000	99.913754
2143.000000	99.914126
2142.000000	99.914439
2141.000000	99.914712
2140.000000	99.914863
2139.000000	99.914835
2138.000000	99.914778
2137.000000	99.914970
2136.000000	99.915495
2135.000000	99.916112
2134.000000	99.916558
2133.000000	99.916912
2132.000000	99.917491
2131.000000	99.918359
2130.000000	99.919089
2129.000000	99.919200
2128.000000	99.918707
2127.000000	99.918159
2126.000000	99.918128
2125.000000	99.918726
2124.000000	99.919615
2123.000000	99.920323
2122.000000	99.920526
2121.000000	99.920111
2120.000000	99.919167
2119.000000	99.917992
2118.000000	99.916989
2117.000000	99.916511
2116.000000	99.916745
2115.000000	99.917684
2114.000000	99.919081
2113.000000	99.920444
2112.000000	99.921318
2111.000000	99.921633
2110.000000	99.921662
2109.000000	99.921650
2108.000000	99.921620
2107.000000	99.921612
2106.000000	99.921856
2105.000000	99.922513
2104.000000	99.923367
2103.000000	99.924039
2102.000000	99.924473
2101.000000	99.924979
2100.000000	99.925814
2099.000000	99.926930
2098.000000	99.928137
2097.000000	99.929258
2096.000000	99.930088
2095.000000	99.930436
2094.000000	99.930364
2093.000000	99.930186
2092.000000	99.930066
2091.000000	99.929841
2090.000000	99.929425
2089.000000	99.929212
2088.000000	99.929731
2087.000000	99.931033
2086.000000	99.932674
2085.000000	99.934268
2084.000000	99.935757
2083.000000	99.937048
2082.000000	99.937840
2081.000000	99.937987
2080.000000	99.937692
2079.000000	99.937166
2078.000000	99.936400
2077.000000	99.935517
2076.000000	99.935062
2075.000000	99.935520
2074.000000	99.936727
2073.000000	99.938041
2072.000000	99.938998
2071.000000	99.939531
2070.000000	99.939647
2069.000000	99.939355
2068.000000	99.938957
2067.000000	99.938911
2066.000000	99.939195
2065.000000	99.939177
2064.000000	99.938419
2063.000000	99.937364
2062.000000	99.936915
2061.000000	99.937488
2060.000000	99.938739
2059.000000	99.940048
2058.000000	99.941019
2057.000000	99.941519
2056.000000	99.941512
2055.000000	99.941039
2054.000000	99.940319
2053.000000	99.939780
2052.000000	99.939842
2051.000000	99.940516
2050.000000	99.941259
2049.000000	99.941478
2048.000000	99.941215
2047.000000	99.941062
2046.000000	99.941255
2045.000000	99.941195
2044.000000	99.940284
2043.000000	99.938915
2042.000000	99.938130
2041.000000	99.938291
2040.000000	99.938647
2039.000000	99.938424
2038.000000	99.937860
2037.000000	99.937815
2036.000000	99.938539
2035.000000	99.939260
2034.000000	99.939033
2033.000000	99.937654
2032.000000	99.935597
2031.000000	99.933370
2030.000000	99.931231
2029.000000	99.929457
2028.000000	99.928435
2027.000000	99.928301
2026.000000	99.928643
2025.000000	99.928791
2024.000000	99.928410
2023.000000	99.927727
2022.000000	99.927204
2021.000000	99.927078
2020.000000	99.927193
2019.000000	99.927177
2018.000000	99.926764
2017.000000	99.926003
2016.000000	99.925159
2015.000000	99.924426
2014.000000	99.923789
2013.000000	99.923159
2012.000000	99.922516
2011.000000	99.921858
2010.000000	99.921152
2009.000000	99.920443
2008.000000	99.919916
2007.000000	99.919697
2006.000000	99.919641
2005.000000	99.919430
2004.000000	99.918895
2003.000000	99.918135
2002.000000	99.917377
2001.000000	99.916790
2000.000000	99.916410
1999.000000	99.916166
1998.000000	99.915918
1997.000000	99.915559
1996.000000	99.915120
1995.000000	99.914742
1994.000000	99.914522
1993.000000	99.914411
1992.000000	99.914286
1991.000000	99.914089
1990.000000	99.913861
1989.000000	99.913668
1988.000000	99.913542
1987.000000	99.913476
1986.000000	99.913438
1985.000000	99.913394
1984.000000	99.913320
1983.000000	99.913210
1982.000000	99.913078
1981.000000	99.912947
1980.000000	99.912830
1979.000000	99.912730
1978.000000	99.912642
1977.000000	99.912567
1976.000000	99.912508
1975.000000	99.912467
1974.000000	99.912440
1973.000000	99.912422
1972.000000	99.912416
1971.000000	99.912431
1970.000000	99.912449
1969.000000	99.912422
1968.000000	99.912317
1967.000000	99.912194
1966.000000	99.912179
1965.000000	99.912362
1964.000000	99.912699
1963.000000	99.913004
1962.000000	99.913047
1961.000000	99.912753
1960.000000	99.912386
1959.000000	99.912382
1958.000000	99.912864
1957.000000	99.913363
1956.000000	99.913229
1955.000000	99.912357
1954.000000	99.911391
1953.000000	99.911082
1952.000000	99.911461
1951.000000	99.911989
1950.000000	99.912284
1949.000000	99.912440
1948.000000	99.912592
1947.000000	99.912426
1946.000000	99.911488
1945.000000	99.909960
1944.000000	99.908687
1943.000000	99.908194
1942.000000	99.908067
1941.000000	99.907855
1940.000000	99.908042
1939.000000	99.909304
1938.000000	99.911177
1937.000000	99.912313
1936.000000	99.912224
1935.000000	99.911940
1934.000000	99.912402
1933.000000	99.912901
1932.000000	99.911934
1931.000000	99.909557
1930.000000	99.907398
1929.000000	99.906498
1928.000000	99.906218
1927.000000	99.905200
1926.000000	99.903239
1925.000000	99.901106
1924.000000	99.899651
1923.000000	99.899103
1922.000000	99.898987
1921.000000	99.898606
1920.000000	99.897594
1919.000000	99.895954
1918.000000	99.893838
1917.000000	99.891322
1916.000000	99.888875
1915.000000	99.887304
1914.000000	99.886862
1913.000000	99.886540
1912.000000	99.884722
1911.000000	99.880953
1910.000000	99.876466
1909.000000	99.872908
1908.000000	99.870738
1907.000000	99.869102
1906.000000	99.867452
1905.000000	99.865851
1904.000000	99.864495
1903.000000	99.863149
1902.000000	99.861021
1901.000000	99.857531
1900.000000	99.853125
1899.000000	99.848980
1898.000000	99.846323
1897.000000	99.845386
1896.000000	99.845230
1895.000000	99.844625
1894.000000	99.843199
1893.000000	99.841772
1892.000000	99.841459
1891.000000	99.842502
1890.000000	99.843900
1889.000000	99.844096
1888.000000	99.842164
1887.000000	99.838060
1886.000000	99.832368
1885.000000	99.826598
1884.000000	99.822865
1883.000000	99.822257
1882.000000	99.823584
1881.000000	99.824664
1880.000000	99.824767
1879.000000	99.824814
1878.000000	99.825728
1877.000000	99.827376
1876.000000	99.829182
1875.000000	99.831212
1874.000000	99.833688
1873.000000	99.835898
1872.000000	99.836527
1871.000000	99.834814
1870.000000	99.831167
1869.000000	99.827106
1868.000000	99.824681
1867.000000	99.825192
1866.000000	99.828110
1865.000000	99.831512
1864.000000	99.833704
1863.000000	99.834457
1862.000000	99.834746
1861.000000	99.835704
1860.000000	99.838116
1859.000000	99.842324
1858.000000	99.847856
1857.000000	99.853158
1856.000000	99.856447
1855.000000	99.857089
1854.000000	99.855981
1853.000000	99.854833
1852.000000	99.855530
1851.000000	99.858576
1850.000000	99.863211
1849.000000	99.868224
1848.000000	99.872640
1847.000000	99.875863
1846.000000	99.877651
1845.000000	99.878591
1844.000000	99.879964
1843.000000	99.882249
1842.000000	99.884253
1841.000000	99.884740
1840.000000	99.884003
1839.000000	99.883287
1838.000000	99.883553
1837.000000	99.884621
1836.000000	99.886147
1835.000000	99.888116
1834.000000	99.889977
1833.000000	99.890549
1832.000000	99.889294
1831.000000	99.886973
1830.000000	99.885378
1829.000000	99.885417
1828.000000	99.886357
1827.000000	99.887293
1826.000000	99.888168
1825.000000	99.889095
1824.000000	99.889563
1823.000000	99.889274
1822.000000	99.888795
1821.000000	99.888887
1820.000000	99.889462
1819.000000	99.889611
1818.000000	99.888732
1817.000000	99.886914
1816.000000	99.884865
1815.000000	99.883512
1814.000000	99.883481
1813.000000	99.884946
1812.000000	99.887131
1811.000000	99.888641
1810.000000	99.888470
1809.000000	99.886752
1808.000000	99.884784
1807.000000	99.883858
1806.000000	99.884147
1805.000000	99.885003
1804.000000	99.886063
1803.000000	99.887495
1802.000000	99.888974
1801.000000	99.889625
1800.000000	99.888921
1799.000000	99.887647
1798.000000	99.886979
1797.000000	99.887233
1796.000000	99.888044
1795.000000	99.888994
1794.000000	99.889592
1793.000000	99.889375
1792.000000	99.888405
1791.000000	99.887891
1790.000000	99.888926
1789.000000	99.891270
1788.000000	99.893974
1787.000000	99.896393
1786.000000	99.898287
1785.000000	99.899540
1784.000000	99.900354
1783.000000	99.901194
1782.000000	99.901786
1781.000000	99.901844
1780.000000	99.901552
1779.000000	99.902016
1778.000000	99.904056
1777.000000	99.907199
1776.000000	99.910444
1775.000000	99.913185
1774.000000	99.915668
1773.000000	99.918327
1772.000000	99.920310
1771.000000	99.920233
1770.000000	99.918697
1769.000000	99.917417
1768.000000	99.917749
1767.000000	99.920189
1766.000000	99.924010
1765.000000	99.927848
1764.000000	99.930421
1763.000000	99.931576
1762.000000	99.932460
1761.000000	99.934531
1760.000000	99.937348
1759.000000	99.939586
1758.000000	99.940420
1757.000000	99.940382
1756.000000	99.940558
1755.000000	99.940903
1754.000000	99.940745
1753.000000	99.939941
1752.000000	99.939199
1751.000000	99.939237
1750.000000	99.940174
1749.000000	99.941069
1748.000000	99.941351
1747.000000	99.941220
1746.000000	99.941103
1745.000000	99.941366
1744.000000	99.941456
1743.000000	99.940617
1742.000000	99.938819
1741.000000	99.936737
1740.000000	99.935074
1739.000000	99.934267
1738.000000	99.933942
1737.000000	99.933493
1736.000000	99.933078
1735.000000	99.934100
1734.000000	99.937195
1733.000000	99.939738
1732.000000	99.939293
1731.000000	99.936183
1730.000000	99.932252
1729.000000	99.929306
1728.000000	99.927982
1727.000000	99.927351
1726.000000	99.926137
1725.000000	99.924182
1724.000000	99.922073
1723.000000	99.920781
1722.000000	99.920488
1721.000000	99.920312
1720.000000	99.919348
1719.000000	99.917403
1718.000000	99.914709
1717.000000	99.910910
1716.000000	99.906257
1715.000000	99.902312
1714.000000	99.900026
1713.000000	99.898935
1712.000000	99.898466
1711.000000	99.898517
1710.000000	99.898249
1709.000000	99.895990
1708.000000	99.891139
1707.000000	99.885290
1706.000000	99.881184
1705.000000	99.879457
1704.000000	99.878497
1703.000000	99.876931
1702.000000	99.874151
1701.000000	99.869409
1700.000000	99.862607
1699.000000	99.856039
1698.000000	99.851630
1697.000000	99.848682
1696.000000	99.846039
1695.000000	99.843163
1694.000000	99.839887
1693.000000	99.835665
1692.000000	99.829949
1691.000000	99.822982
1690.000000	99.815568
1689.000000	99.808800
1688.000000	99.803599
1687.000000	99.799725
1686.000000	99.796554
1685.000000	99.793134
1684.000000	99.788965
1683.000000	99.784539
1682.000000	99.780310
1681.000000	99.775744
1680.000000	99.770730
1679.000000	99.765714
1678.000000	99.761072
1677.000000	99.756707
1676.000000	99.752076
1675.000000	99.747006
1674.000000	99.742085
1673.000000	99.738364
1672.000000	99.735321
1671.000000	99.731748
1670.000000	99.726233
1669.000000	99.718956
1668.000000	99.712350
1667.000000	99.707998
1666.000000	99.705284
1665.000000	99.702634
1664.000000	99.698579
1663.000000	99.693064
1662.000000	99.686446
1661.000000	99.679648
1660.000000	99.673759
1659.000000	99.669634
1658.000000	99.667678
1657.000000	99.667256
1656.000000	99.665719
1655.000000	99.659211
1654.000000	99.647199
1653.000000	99.636577
1652.000000	99.633623
1651.000000	99.635538
1650.000000	99.636512
1649.000000	99.634906
1648.000000	99.631148
1647.000000	99.626664
1646.000000	99.623929
1645.000000	99.623503
1644.000000	99.623724
1643.000000	99.624099
1642.000000	99.625005
1641.000000	99.626306
1640.000000	99.626419
1639.000000	99.623567
1638.000000	99.618158
1637.000000	99.612492
1636.000000	99.610106
1635.000000	99.611814
1634.000000	99.616205
1633.000000	99.620819
1632.000000	99.624175
1631.000000	99.626600
1630.000000	99.629033
1629.000000	99.632063
1628.000000	99.635407
1627.000000	99.638651
1626.000000	99.641908
1625.000000	99.645893
1624.000000	99.650249
1623.000000	99.653701
1622.000000	99.655900
1621.000000	99.658845
1620.000000	99.664288
1619.000000	99.672319
1618.000000	99.682258
1617.000000	99.692023
1616.000000	99.698264
1615.000000	99.699622
1614.000000	99.698668
1613.000000	99.699219
1612.000000	99.703604
1611.000000	99.711164
1610.000000	99.719161
1609.000000	99.726133
1608.000000	99.732325
1607.000000	99.737656
1606.000000	99.741366
1605.000000	99.744397
1604.000000	99.748311
1603.000000	99.752959
1602.000000	99.757142
1601.000000	99.760388
1600.000000	99.763081
1599.000000	99.765572
1598.000000	99.768603
1597.000000	99.773579
1596.000000	99.780837
1595.000000	99.788351
1594.000000	99.793439
1593.000000	99.795838
1592.000000	99.797710
1591.000000	99.800942
1590.000000	99.805427
1589.000000	99.810100
1588.000000	99.814504
1587.000000	99.818852
1586.000000	99.823186
1585.000000	99.827239
1584.000000	99.831287
1583.000000	99.835330
1582.000000	99.839006
1581.000000	99.841861
1580.000000	99.843445
1579.000000	99.843175
1578.000000	99.841888
1577.000000	99.842636
1576.000000	99.847618
1575.000000	99.854091
1574.000000	99.858210
1573.000000	99.860129
1572.000000	99.861684
1571.000000	99.863772
1570.000000	99.866007
1569.000000	99.867945
1568.000000	99.869827
1567.000000	99.870558
1566.000000	99.869127
1565.000000	99.866509
1564.000000	99.865103
1563.000000	99.865257
1562.000000	99.865582
1561.000000	99.865615
1560.000000	99.867857
1559.000000	99.872348
1558.000000	99.872578
1557.000000	99.869784
1556.000000	99.869003
1555.000000	99.871754
1554.000000	99.876053
1553.000000	99.879360
1552.000000	99.880892
1551.000000	99.881138
1550.000000	99.880517
1549.000000	99.878434
1548.000000	99.875025
1547.000000	99.870884
1546.000000	99.866525
1545.000000	99.862499
1544.000000	99.859614
1543.000000	99.858382
1542.000000	99.859184
1541.000000	99.861407
1540.000000	99.862954
1539.000000	99.861557
1538.000000	99.857717
1537.000000	99.853007
1536.000000	99.848676
1535.000000	99.845767
1534.000000	99.844269
1533.000000	99.842872
1532.000000	99.840234
1531.000000	99.836986
1530.000000	99.834414
1529.000000	99.832855
1528.000000	99.831784
1527.000000	99.830477
1526.000000	99.828516
1525.000000	99.826165
1524.000000	99.823823
1523.000000	99.821624
1522.000000	99.819267
1521.000000	99.816011
1520.000000	99.811923
1519.000000	99.808230
1518.000000	99.806305
1517.000000	99.806756
1516.000000	99.808278
1515.000000	99.808743
1514.000000	99.807396
1513.000000	99.804943
1512.000000	99.802210
1511.000000	99.799743
1510.000000	99.797666
1509.000000	99.796091
1508.000000	99.795373
1507.000000	99.795687
1506.000000	99.795819
1505.000000	99.794781
1504.000000	99.792958
1503.000000	99.790910
1502.000000	99.789043
1501.000000	99.787484
1500.000000	99.786177
1499.000000	99.785069
1498.000000	99.784343
1497.000000	99.784032
1496.000000	99.783631
1495.000000	99.782775
1494.000000	99.781570
1493.000000	99.780329
1492.000000	99.779270
1491.000000	99.778368
1490.000000	99.777165
1489.000000	99.775209
1488.000000	99.772788
1487.000000	99.770782
1486.000000	99.769525
1485.000000	99.768562
1484.000000	99.767511
1483.000000	99.766220
1482.000000	99.764698
1481.000000	99.762804
1480.000000	99.760449
1479.000000	99.757919
1478.000000	99.755806
1477.000000	99.754491
1476.000000	99.753725
1475.000000	99.752871
1474.000000	99.751291
1473.000000	99.748935
1472.000000	99.746309
1471.000000	99.744177
1470.000000	99.742848
1469.000000	99.742010
1468.000000	99.741196
1467.000000	99.740307
1466.000000	99.739215
1465.000000	99.737485
1464.000000	99.734686
1463.000000	99.731157
1462.000000	99.728053
1461.000000	99.725716
1460.000000	99.723654
1459.000000	99.721548
1458.000000	99.721203
1457.000000	99.724336
1456.000000	99.727616
1455.000000	99.726867
1454.000000	99.722413
1453.000000	99.717058
1452.000000	99.712140
1451.000000	99.707073
1450.000000	99.701583
1449.000000	99.696850
1448.000000	99.693729
1447.000000	99.691620
1446.000000	99.688945
1445.000000	99.686110
1444.000000	99.683458
1443.000000	99.680080
1442.000000	99.675618
1441.000000	99.671453
1440.000000	99.669312
1439.000000	99.669189
1438.000000	99.670541
1437.000000	99.672571
1436.000000	99.674166
1435.000000	99.674288
1434.000000	99.673334
1433.000000	99.671731
1432.000000	99.669255
1431.000000	99.665667
1430.000000	99.662464
1429.000000	99.661730
1428.000000	99.663260
1427.000000	99.664843
1426.000000	99.664394
1425.000000	99.662990
1424.000000	99.662633
1423.000000	99.663440
1422.000000	99.665077
1421.000000	99.668685
1420.000000	99.675566
1419.000000	99.683250
1418.000000	99.687402
1417.000000	99.688400
1416.000000	99.690048
1415.000000	99.694361
1414.000000	99.700299
1413.000000	99.705661
1412.000000	99.708907
1411.000000	99.710031
1410.000000	99.710876
1409.000000	99.713845
1408.000000	99.720210
1407.000000	99.730042
1406.000000	99.741841
1405.000000	99.753401
1404.000000	99.762352
1403.000000	99.767544
1402.000000	99.770251
1401.000000	99.772993
1400.000000	99.777740
1399.000000	99.784284
1398.000000	99.790885
1397.000000	99.796742
1396.000000	99.802999
1395.000000	99.811115
1394.000000	99.820392
1393.000000	99.828401
1392.000000	99.832985
1391.000000	99.833958
1390.000000	99.833357
1389.000000	99.834306
1388.000000	99.839014
1387.000000	99.847312
1386.000000	99.856706
1385.000000	99.864570
1384.000000	99.869649
1383.000000	99.872095
1382.000000	99.873249
1381.000000	99.874279
1380.000000	99.875400
1379.000000	99.876522
1378.000000	99.878117
1377.000000	99.880758
1376.000000	99.884406
1375.000000	99.888950
1374.000000	99.894824
1373.000000	99.902033
1372.000000	99.908697
1371.000000	99.912496
1370.000000	99.913081
1369.000000	99.912791
1368.000000	99.914034
1367.000000	99.916588
1366.000000	99.918584
1365.000000	99.918992
1364.000000	99.918343
1363.000000	99.918049
1362.000000	99.919459
1361.000000	99.922742
1360.000000	99.926436
1359.000000	99.928729
1358.000000	99.929383
1357.000000	99.930018
1356.000000	99.932022
1355.000000	99.934735
1354.000000	99.936486
1353.000000	99.936732
1352.000000	99.936109
1351.000000	99.935308
1350.000000	99.934539
1349.000000	99.934503
1348.000000	99.936146
1347.000000	99.939474
1346.000000	99.943122
1345.000000	99.945227
1344.000000	99.944549
1343.000000	99.941335
1342.000000	99.937747
1341.000000	99.936799
1340.000000	99.939326
1339.000000	99.942272
1338.000000	99.942074
1337.000000	99.939279
1336.000000	99.937615
1335.000000	99.939325
1334.000000	99.943126
1333.000000	99.946335
1332.000000	99.947312
1331.000000	99.945748
1330.000000	99.942386
1329.000000	99.939224
1328.000000	99.938376
1327.000000	99.939781
1326.000000	99.940889
1325.000000	99.939728
1324.000000	99.937048
1323.000000	99.934750
1322.000000	99.933377
1321.000000	99.932342
1320.000000	99.931737
1319.000000	99.932484
1318.000000	99.934965
1317.000000	99.938623
1316.000000	99.942676
1315.000000	99.946153
1314.000000	99.947626
1313.000000	99.946177
1312.000000	99.942740
1311.000000	99.939596
1310.000000	99.938404
1309.000000	99.939310
1308.000000	99.941585
1307.000000	99.944238
1306.000000	99.945959
1305.000000	99.945792
1304.000000	99.944125
1303.000000	99.942496
1302.000000	99.941995
1301.000000	99.942283
1300.000000	99.942400
1299.000000	99.941920
1298.000000	99.940912
1297.000000	99.939300
1296.000000	99.937070
1295.000000	99.935081
1294.000000	99.934989
1293.000000	99.937633
1292.000000	99.941628
1291.000000	99.944189
1290.000000	99.943833
1289.000000	99.942020
1288.000000	99.941494
1287.000000	99.942981
1286.000000	99.944368
1285.000000	99.943364
1284.000000	99.939953
1283.000000	99.935742
1282.000000	99.931941
1281.000000	99.928985
1280.000000	99.927513
1279.000000	99.928145
1278.000000	99.930228
1277.000000	99.931963
1276.000000	99.932292
1275.000000	99.932036
1274.000000	99.932941
1273.000000	99.935809
1272.000000	99.939493
1271.000000	99.941540
1270.000000	99.940425
1269.000000	99.937499
1268.000000	99.935916
1267.000000	99.937124
1266.000000	99.939538
1265.000000	99.941377
1264.000000	99.943049
1263.000000	99.945131
1262.000000	99.945781
1261.000000	99.942753
1260.000000	99.936926
1259.000000	99.930832
1258.000000	99.924596
1257.000000	99.916840
1256.000000	99.909174
1255.000000	99.905460
1254.000000	99.905691
1253.000000	99.904651
1252.000000	99.898564
1251.000000	99.889539
1250.000000	99.881290
1249.000000	99.873803
1248.000000	99.865226
1247.000000	99.856039
1246.000000	99.847673
1245.000000	99.838991
1244.000000	99.828079
1243.000000	99.816502
1242.000000	99.808130
1241.000000	99.804083
1240.000000	99.801733
1239.000000	99.798123
1238.000000	99.791655
1237.000000	99.781192
1236.000000	99.766650
1235.000000	99.750377
1234.000000	99.735138
1233.000000	99.720655
1232.000000	99.704595
1231.000000	99.686530
1230.000000	99.667999
1229.000000	99.648916
1228.000000	99.627163
1227.000000	99.601929
1226.000000	99.574109
1225.000000	99.542828
1224.000000	99.505126
1223.000000	99.460547
1222.000000	99.413129
1221.000000	99.367104
1220.000000	99.322796
1219.000000	99.278060
1218.000000	99.231236
1217.000000	99.180922
1216.000000	99.125070
1215.000000	99.062562
1214.000000	98.994698
1213.000000	98.923666
1212.000000	98.850551
1211.000000	98.776071
1210.000000	98.701963
1209.000000	98.630013
1208.000000	98.560246
1207.000000	98.491192
1206.000000	98.421880
1205.000000	98.352930
1204.000000	98.285382
1203.000000	98.218723
1202.000000	98.150691
1201.000000	98.079542
1200.000000	98.006284
1199.000000	97.933790
1198.000000	97.863550
1197.000000	97.794094
1196.000000	97.722609
1195.000000	97.647225
1194.000000	97.568056
1193.000000	97.487273
1192.000000	97.407703
1191.000000	97.329809
1190.000000	97.250684
1189.000000	97.167970
1188.000000	97.083847
1187.000000	97.002325
1186.000000	96.923077
1185.000000	96.841405
1184.000000	96.754393
1183.000000	96.663587
1182.000000	96.571323
1181.000000	96.478049
1180.000000	96.383792
1179.000000	96.288248
1178.000000	96.188500
1177.000000	96.080966
1176.000000	95.967169
1175.000000	95.853690
1174.000000	95.744654
1173.000000	95.638158
1172.000000	95.531658
1171.000000	95.426389
1170.000000	95.324160
1169.000000	95.224013
1168.000000	95.124990
1167.000000	95.029481
1166.000000	94.942788
1165.000000	94.873152
1164.000000	94.832567
1163.000000	94.831396
1162.000000	94.868569
1161.000000	94.929643
1160.000000	94.995271
1159.000000	95.048488
1158.000000	95.075817
1157.000000	95.069249
1156.000000	95.029920
1155.000000	94.965531
1154.000000	94.882449
1153.000000	94.784322
1152.000000	94.678804
1151.000000	94.578173
1150.000000	94.488761
1149.000000	94.404739
1148.000000	94.316395
1147.000000	94.220570
1146.000000	94.120521
1145.000000	94.020567
1144.000000	93.924138
1143.000000	93.832394
1142.000000	93.741409
1141.000000	93.645041
1140.000000	93.543253
1139.000000	93.442922
1138.000000	93.348014
1137.000000	93.254268
1136.000000	93.156340
1135.000000	93.054289
1134.000000	92.949746
1133.000000	92.841723
1132.000000	92.730540
1131.000000	92.620579
1130.000000	92.514537
1129.000000	92.409219
1128.000000	92.300824
1127.000000	92.190103
1126.000000	92.079178
1125.000000	91.967885
1124.000000	91.856524
1123.000000	91.747418
1122.000000	91.640337
1121.000000	91.530751
1120.000000	91.415791
1119.000000	91.298151
1118.000000	91.182250
1117.000000	91.071167
1116.000000	90.968221
1115.000000	90.875466
1114.000000	90.789073
1113.000000	90.702279
1112.000000	90.613950
1111.000000	90.527757
1110.000000	90.443377
1109.000000	90.356855
1108.000000	90.269352
1107.000000	90.186074
1106.000000	90.105737
1105.000000	90.020899
1104.000000	89.930128
1103.000000	89.840249
1102.000000	89.755132
1101.000000	89.672020
1100.000000	89.590102
1099.000000	89.512081
1098.000000	89.435591
1097.000000	89.353809
1096.000000	89.266658
1095.000000	89.180916
1094.000000	89.097697
1093.000000	89.010944
1092.000000	88.919724
1091.000000	88.829909
1090.000000	88.741966
1089.000000	88.650155
1088.000000	88.556468
1087.000000	88.471713
1086.000000	88.398767
1085.000000	88.327744
1084.000000	88.252147
1083.000000	88.177091
1082.000000	88.107315
1081.000000	88.040020
1080.000000	87.974688
1079.000000	87.917111
1078.000000	87.867231
1077.000000	87.814166
1076.000000	87.749235
1075.000000	87.673856
1074.000000	87.590257
1073.000000	87.494727
1072.000000	87.384325
1071.000000	87.260194
1070.000000	87.120627
1069.000000	86.960864
1068.000000	86.782871
1067.000000	86.595074
1066.000000	86.399729
1065.000000	86.191701
1064.000000	85.972481
1063.000000	85.753287
1062.000000	85.541168
1061.000000	85.334497
1060.000000	85.134872
1059.000000	84.948990
1058.000000	84.774539
1057.000000	84.598594
1056.000000	84.414761
1055.000000	84.228322
1054.000000	84.040169
1053.000000	83.840145
1052.000000	83.622590
1051.000000	83.394715
1050.000000	83.162990
1049.000000	82.925421
1048.000000	82.682569
1047.000000	82.439943
1046.000000	82.195354
1045.000000	81.940326
1044.000000	81.676721
1043.000000	81.416026
1042.000000	81.160092
1041.000000	80.899275
1040.000000	80.632687
1039.000000	80.373142
1038.000000	80.128469
1037.000000	79.895531
1036.000000	79.675978
1035.000000	79.478982
1034.000000	79.304097
1033.000000	79.140343
1032.000000	78.986707
1031.000000	78.854443
1030.000000	78.744705
1029.000000	78.643866
1028.000000	78.546296
1027.000000	78.461806
1026.000000	78.394390
1025.000000	78.333353
1024.000000	78.272162
1023.000000	78.217364
1022.000000	78.171828
1021.000000	78.126403
1020.000000	78.074265
1019.000000	78.017251
1018.000000	77.954073
1017.000000	77.879843
1016.000000	77.800914
1015.000000	77.731891
1014.000000	77.673963
1013.000000	77.614251
1012.000000	77.549740
1011.000000	77.492367
1010.000000	77.446520
1009.000000	77.401693
1008.000000	77.352887
1007.000000	77.309268
1006.000000	77.276865
1005.000000	77.250842
1004.000000	77.230167
1003.000000	77.222243
1002.000000	77.227782
1001.000000	77.237948
1000.000000	77.250360
999.000000	77.270949
998.000000	77.297450
997.000000	77.319725
996.000000	77.339414
995.000000	77.369968
994.000000	77.413628
993.000000	77.457741
992.000000	77.497696
991.000000	77.543745
990.000000	77.600699
989.000000	77.661287
988.000000	77.725159
987.000000	77.804265
986.000000	77.902290
985.000000	78.007445
984.000000	78.112899
983.000000	78.227413
982.000000	78.359016
981.000000	78.504935
980.000000	78.663892
979.000000	78.841821
978.000000	79.038602
977.000000	79.244277
976.000000	79.454602
975.000000	79.676530
974.000000	79.913497
973.000000	80.159265
972.000000	80.410481
971.000000	80.671505
970.000000	80.942933
969.000000	81.218372
968.000000	81.495374
967.000000	81.776485
966.000000	82.057761
965.000000	82.330181
964.000000	82.594317
963.000000	82.859570
962.000000	83.126958
961.000000	83.386736
960.000000	83.634974
959.000000	83.877760
958.000000	84.116263
957.000000	84.342497
956.000000	84.554271
955.000000	84.760780
954.000000	84.968217
953.000000	85.171096
952.000000	85.361934
951.000000	85.538754
950.000000	85.700245
949.000000	85.844835
948.000000	85.977522
947.000000	86.106559
946.000000	86.230334
945.000000	86.338559
944.000000	86.429188
943.000000	86.512794
942.000000	86.597221
941.000000	86.679301
940.000000	86.755381
939.000000	86.828292
938.000000	86.899643
937.000000	86.966630
936.000000	87.031500
935.000000	87.103568
934.000000	87.186303
933.000000	87.271540
932.000000	87.351074
931.000000	87.425399
930.000000	87.497963
929.000000	87.570399
928.000000	87.646917
927.000000	87.733235
926.000000	87.826232
925.000000	87.913333
924.000000	87.986680
923.000000	88.050436
922.000000	88.111136
921.000000	88.169204
920.000000	88.223455
919.000000	88.275649
918.000000	88.326511
917.000000	88.374251
916.000000	88.420310
915.000000	88.470143
914.000000	88.526188
913.000000	88.586972
912.000000	88.655085
911.000000	88.738977
910.000000	88.845202
909.000000	88.975463
908.000000	89.131179
907.000000	89.312708
906.000000	89.513661
905.000000	89.724292
904.000000	89.941362
903.000000	90.167979
902.000000	90.405135
901.000000	90.650604
900.000000	90.903125
899.000000	91.158831
898.000000	91.406623
897.000000	91.637185
896.000000	91.854353
895.000000	92.067993
894.000000	92.278349
893.000000	92.477987
892.000000	92.667015
891.000000	92.854282
890.000000	93.043085
889.000000	93.226453
888.000000	93.397906
887.000000	93.557324
886.000000	93.705256
885.000000	93.840935
884.000000	93.967919
883.000000	94.093525
882.000000	94.220648
881.000000	94.346926
880.000000	94.471855
879.000000	94.596378
878.000000	94.716052
877.000000	94.825098
876.000000	94.928832
875.000000	95.042559
874.000000	95.175761
873.000000	95.325289
872.000000	95.484835
871.000000	95.651744
870.000000	95.822851
869.000000	95.992399
868.000000	96.157112
867.000000	96.317940
866.000000	96.476128
865.000000	96.632321
864.000000	96.788233
863.000000	96.942863
862.000000	97.088188
861.000000	97.215545
860.000000	97.326087
859.000000	97.429226
858.000000	97.531805
857.000000	97.635038
856.000000	97.740170
855.000000	97.847835
854.000000	97.951112
853.000000	98.038504
852.000000	98.107273
851.000000	98.167544
850.000000	98.229925
849.000000	98.293762
848.000000	98.350141
847.000000	98.392014
846.000000	98.419258
845.000000	98.437565
844.000000	98.453976
843.000000	98.470436
842.000000	98.480555
841.000000	98.474871
840.000000	98.448614
839.000000	98.402328
838.000000	98.338560
837.000000	98.262979
836.000000	98.185779
835.000000	98.115107
834.000000	98.050290
833.000000	97.988244
832.000000	97.934632
831.000000	97.899820
830.000000	97.884430
829.000000	97.879241
828.000000	97.880474
827.000000	97.893979
826.000000	97.921756
825.000000	97.956669
824.000000	97.994818
823.000000	98.039575
822.000000	98.087305
821.000000	98.122444
820.000000	98.133925
819.000000	98.126309
818.000000	98.109345
817.000000	98.084495
816.000000	98.045965
815.000000	97.987439
814.000000	97.901826
813.000000	97.778510
812.000000	97.605427
811.000000	97.371567
810.000000	97.066753
809.000000	96.685261
808.000000	96.233470
807.000000	95.729437
806.000000	95.191929
805.000000	94.635297
804.000000	94.077071
803.000000	93.541072
802.000000	93.048160
801.000000	92.613424
800.000000	92.256254
799.000000	91.999667
798.000000	91.852109
797.000000	91.800687
796.000000	91.827146
795.000000	91.918006
794.000000	92.054903
793.000000	92.210106
792.000000	92.359616
791.000000	92.490597
790.000000	92.592144
789.000000	92.651230
788.000000	92.663222
787.000000	92.634460
786.000000	92.567850
785.000000	92.456781
784.000000	92.300467
783.000000	92.115045
782.000000	91.922171
781.000000	91.737038
780.000000	91.575404
779.000000	91.460340
778.000000	91.410520
777.000000	91.429354
776.000000	91.512739
775.000000	91.656680
774.000000	91.848209
773.000000	92.059406
772.000000	92.262866
771.000000	92.449223
770.000000	92.622633
769.000000	92.784740
768.000000	92.930491
767.000000	93.054854
766.000000	93.156146
765.000000	93.235944
764.000000	93.301731
763.000000	93.366306
762.000000	93.438164
761.000000	93.514094
760.000000	93.585529
759.000000	93.650218
758.000000	93.714963
757.000000	93.789785
756.000000	93.881207
755.000000	93.986493
754.000000	94.091758
753.000000	94.181254
752.000000	94.252862
751.000000	94.321226
750.000000	94.402547
749.000000	94.499141
748.000000	94.600979
747.000000	94.698646
746.000000	94.792251
745.000000	94.890697
744.000000	95.004599
743.000000	95.137774
742.000000	95.284527
741.000000	95.437088
740.000000	95.593981
739.000000	95.756723
738.000000	95.920071
737.000000	96.072569
736.000000	96.207582
735.000000	96.327041
734.000000	96.433302
733.000000	96.524309
732.000000	96.599544
731.000000	96.665353
730.000000	96.730085
729.000000	96.795890
728.000000	96.856982
727.000000	96.905139
726.000000	96.938393
725.000000	96.966786
724.000000	97.007598
723.000000	97.070557
722.000000	97.148708
721.000000	97.227678
720.000000	97.301496
719.000000	97.373568
718.000000	97.444549
717.000000	97.508287
716.000000	97.560639
715.000000	97.604542
714.000000	97.644446
713.000000	97.681664
712.000000	97.716510
711.000000	97.749176
710.000000	97.777056
709.000000	97.796942
708.000000	97.810389
707.000000	97.819854
706.000000	97.818067
705.000000	97.787560
704.000000	97.713584
703.000000	97.593446
702.000000	97.431567
701.000000	97.230237
700.000000	96.986939
699.000000	96.697231
698.000000	96.365396
697.000000	96.022706
696.000000	95.731949
695.000000	95.557739
694.000000	95.525077
693.000000	95.610563
692.000000	95.769253
691.000000	95.960879
690.000000	96.155700
689.000000	96.334305
688.000000	96.493246
687.000000	96.642758
686.000000	96.789666
685.000000	96.928571
684.000000	97.052330
683.000000	97.159808
682.000000	97.250102
681.000000	97.321515
680.000000	97.382167
679.000000	97.448894
678.000000	97.526816
677.000000	97.601774
676.000000	97.661454
675.000000	97.712680
674.000000	97.771948
673.000000	97.844905
672.000000	97.921980
671.000000	97.990946
670.000000	98.046285
669.000000	98.089213
668.000000	98.129872
667.000000	98.185184
666.000000	98.260060
665.000000	98.345105
664.000000	98.428060
663.000000	98.498661
662.000000	98.549287
661.000000	98.579509
660.000000	98.597140
659.000000	98.611444
658.000000	98.624322
657.000000	98.630133
656.000000	98.625664
655.000000	98.616423
654.000000	98.613543
653.000000	98.623583
652.000000	98.643097
651.000000	98.663807
650.000000	98.680853
