4000.000000	100.360681
3999.000000	100.361660
3998.000000	100.362809
3997.000000	100.363294
3996.000000	100.362942
3995.000000	100.362284
3994.000000	100.361963
3993.000000	100.362053
3992.000000	100.362063
3991.000000	100.361562
3990.000000	100.360719
3989.000000	100.360204
3988.000000	100.360503
3987.000000	100.361445
3986.000000	100.362387
3985.000000	100.362777
3984.000000	100.362504
3983.000000	100.361825
3982.000000	100.361082
3981.000000	100.360490
3980.000000	100.360190
3979.000000	100.360387
3978.000000	100.361289
3977.000000	100.362806
3976.000000	100.364320
3975.000000	100.365017
3974.000000	100.364487
3973.000000	100.362946
3972.000000	100.360954
3971.000000	100.359042
3970.000000	100.357592
3969.000000	100.356878
3968.000000	100.356990
3967.000000	100.357680
3966.000000	100.358367
3965.000000	100.358467
3964.000000	100.357827
3963.000000	100.356917
3962.000000	100.356551
3961.000000	100.357235
3960.000000	100.358763
3959.000000	100.360392
3958.000000	100.361406
3957.000000	100.361530
3956.000000	100.360931
3955.000000	100.360032
3954.000000	100.359319
3953.000000	100.359129
3952.000000	100.359503
3951.000000	100.360179
3950.000000	100.360815
3949.000000	100.361242
3948.000000	100.361452
3947.000000	100.361449
3946.000000	100.361181
3945.000000	100.360568
3944.000000	100.359568
3943.000000	100.358373
3942.000000	100.357505
3941.000000	100.357455
3940.000000	100.358185
3939.000000	100.359100
3938.000000	100.359605
3937.000000	100.359667
3936.000000	100.359680
3935.000000	100.359947
3934.000000	100.360450
3933.000000	100.361024
3932.000000	100.361599
3931.000000	100.362167
3930.000000	100.362631
3929.000000	100.362793
3928.000000	100.362549
3927.000000	100.362035
3926.000000	100.361519
3925.000000	100.361197
3924.000000	100.361077
3923.000000	100.361038
3922.000000	100.360904
3921.000000	100.360565
3920.000000	100.360126
3919.000000	100.359883
3918.000000	100.360030
3917.000000	100.360427
3916.000000	100.360741
3915.000000	100.360745
3914.000000	100.360427
3913.000000	100.359863
3912.000000	100.359147
3911.000000	100.358415
3910.000000	100.357835
3909.000000	100.357516
3908.000000	100.357481
3907.000000	100.357646
3906.000000	100.357817
3905.000000	100.357734
3904.000000	100.357251
3903.000000	100.356463
3902.000000	100.355629
3901.000000	100.354931
3900.000000	100.354369
3899.000000	100.353882
3898.000000	100.353451
3897.000000	100.353085
3896.000000	100.352765
3895.000000	100.352455
3894.000000	100.352133
3893.000000	100.351786
3892.000000	100.351412
3891.000000	100.351019
3890.000000	100.350622
3889.000000	100.350233
3888.000000	100.349856
3887.000000	100.349496
3886.000000	100.349163
3885.000000	100.348876
3884.000000	100.348653
3883.000000	100.348500
3882.000000	100.348404
3881.000000	100.348348
3880.000000	100.348318
3879.000000	100.348307
3878.000000	100.348314
3877.000000	100.348331
3876.000000	100.348348
3875.000000	100.348360
3874.000000	100.348370
3873.000000	100.348389
3872.000000	100.348426
3871.000000	100.348481
3870.000000	100.348556
3869.000000	100.348659
3868.000000	100.348799
3867.000000	100.348973
3866.000000	100.349169
3865.000000	100.349376
3864.000000	100.349598
3863.000000	100.349846
3862.000000	100.350123
3861.000000	100.350424
3860.000000	100.350748
3859.000000	100.351095
3858.000000	100.351456
3857.000000	100.351812
3856.000000	100.352137
3855.000000	100.352402
3854.000000	100.352589
3853.000000	100.352709
3852.000000	100.352801
3851.000000	100.352906
3850.000000	100.353041
3849.000000	100.353209
3848.000000	100.353414
3847.000000	100.353663
3846.000000	100.353959
3845.000000	100.354287
3844.000000	100.354622
3843.000000	100.354933
3842.000000	100.355197
3841.000000	100.355400
3840.000000	100.355543
3839.000000	100.355632
3838.000000	100.355679
3837.000000	100.355698
3836.000000	100.355705
3835.000000	100.355710
3834.000000	100.355714
3833.000000	100.355714
3832.000000	100.355712
3831.000000	100.355718
3830.000000	100.355746
3829.000000	100.355803
3828.000000	100.355891
3827.000000	100.355998
3826.000000	100.356115
3825.000000	100.356233
3824.000000	100.356347
3823.000000	100.356450
3822.000000	100.356528
3821.000000	100.356572
3820.000000	100.356590
3819.000000	100.356600
3818.000000	100.356610
3817.000000	100.356616
3816.000000	100.356617
3815.000000	100.356626
3814.000000	100.356662
3813.000000	100.356738
3812.000000	100.356853
3811.000000	100.357003
3810.000000	100.357182
3809.000000	100.357379
3808.000000	100.357570
3807.000000	100.357731
3806.000000	100.357849
3805.000000	100.357932
3804.000000	100.357986
3803.000000	100.358001
3802.000000	100.357963
3801.000000	100.357904
3800.000000	100.357902
3799.000000	100.358020
3798.000000	100.358218
3797.000000	100.358345
3796.000000	100.358348
3795.000000	100.358394
3794.000000	100.358659
3793.000000	100.359097
3792.000000	100.359496
3791.000000	100.359821
3790.000000	100.360286
3789.000000	100.361015
3788.000000	100.361782
3787.000000	100.362224
3786.000000	100.362232
3785.000000	100.362065
3784.000000	100.362095
3783.000000	100.362404
3782.000000	100.362669
3781.000000	100.362400
3780.000000	100.361389
3779.000000	100.360053
3778.000000	100.359146
3777.000000	100.358998
3776.000000	100.359291
3775.000000	100.359481
3774.000000	100.359485
3773.000000	100.359692
3772.000000	100.360376
3771.000000	100.361351
3770.000000	100.362182
3769.000000	100.362648
3768.000000	100.362754
3767.000000	100.362455
3766.000000	100.361695
3765.000000	100.360701
3764.000000	100.359906
3763.000000	100.359546
3762.000000	100.359535
3761.000000	100.359639
3760.000000	100.359706
3759.000000	100.359734
3758.000000	100.359714
3757.000000	100.359509
3756.000000	100.359025
3755.000000	100.358395
3754.000000	100.357800
3753.000000	100.357234
3752.000000	100.356650
3751.000000	100.356021
3750.000000	100.355178
3749.000000	100.353958
3748.000000	100.352668
3747.000000	100.352048
3746.000000	100.352130
3745.000000	100.351541
3744.000000	100.349438
3743.000000	100.347475
3742.000000	100.347777
3741.000000	100.348939
3740.000000	100.347348
3739.000000	100.343596
3738.000000	100.341729
3737.000000	100.342426
3736.000000	100.342428
3735.000000	100.339419
3734.000000	100.335081
3733.000000	100.332195
3732.000000	100.330840
3731.000000	100.329919
3730.000000	100.329677
3729.000000	100.330137
3728.000000	100.329606
3727.000000	100.327176
3726.000000	100.324721
3725.000000	100.324941
3724.000000	100.328141
3723.000000	100.331555
3722.000000	100.332624
3721.000000	100.331993
3720.000000	100.331446
3719.000000	100.330790
3718.000000	100.328323
3717.000000	100.323448
3716.000000	100.317674
3715.000000	100.313014
3714.000000	100.309700
3713.000000	100.306017
3712.000000	100.300304
3711.000000	100.292558
3710.000000	100.284139
3709.000000	100.275809
3708.000000	100.267589
3707.000000	100.260448
3706.000000	100.255504
3705.000000	100.251866
3704.000000	100.246629
3703.000000	100.237220
3702.000000	100.224492
3701.000000	100.213005
3700.000000	100.207254
3699.000000	100.207842
3698.000000	100.211078
3697.000000	100.212093
3696.000000	100.209026
3695.000000	100.204092
3694.000000	100.200239
3693.000000	100.198003
3692.000000	100.196182
3691.000000	100.193663
3690.000000	100.189523
3689.000000	100.183869
3688.000000	100.179013
3687.000000	100.177835
3686.000000	100.180370
3685.000000	100.182246
3684.000000	100.178730
3683.000000	100.170541
3682.000000	100.162386
3681.000000	100.156445
3680.000000	100.151033
3679.000000	100.144487
3678.000000	100.137456
3677.000000	100.129925
3676.000000	100.119175
3675.000000	100.104765
3674.000000	100.091904
3673.000000	100.084220
3672.000000	100.076189
3671.000000	100.060866
3670.000000	100.041159
3669.000000	100.026519
3668.000000	100.021609
3667.000000	100.021447
3666.000000	100.016878
3665.000000	100.005034
3664.000000	99.990192
3663.000000	99.976739
3662.000000	99.965876
3661.000000	99.956879
3660.000000	99.949285
3659.000000	99.943312
3658.000000	99.938344
3657.000000	99.931683
3656.000000	99.920905
3655.000000	99.907176
3654.000000	99.893568
3653.000000	99.879813
3652.000000	99.862792
3651.000000	99.842989
3650.000000	99.825195
3649.000000	99.813194
3648.000000	99.806039
3647.000000	99.798683
3646.000000	99.788062
3645.000000	99.777203
3644.000000	99.769200
3643.000000	99.762861
3642.000000	99.756584
3641.000000	99.751503
3640.000000	99.749561
3639.000000	99.750190
3638.000000	99.750420
3637.000000	99.747767
3636.000000	99.741374
3635.000000	99.730104
3634.000000	99.713069
3633.000000	99.692689
3632.000000	99.674021
3631.000000	99.659669
3630.000000	99.647058
3629.000000	99.632529
3628.000000	99.618358
3627.000000	99.611459
3626.000000	99.610859
3625.000000	99.605744
3624.000000	99.592378
3623.000000	99.580134
3622.000000	99.578162
3621.000000	99.587670
3620.000000	99.604511
3619.000000	99.622872
3618.000000	99.638238
3617.000000	99.648288
3616.000000	99.652140
3615.000000	99.650961
3614.000000	99.648732
3613.000000	99.650140
3612.000000	99.657590
3611.000000	99.670042
3610.000000	99.684157
3609.000000	99.697070
3608.000000	99.708448
3607.000000	99.719899
3606.000000	99.732151
3605.000000	99.743529
3604.000000	99.752242
3603.000000	99.758813
3602.000000	99.764960
3601.000000	99.771288
3600.000000	99.777234
3599.000000	99.782108
3598.000000	99.785760
3597.000000	99.788648
3596.000000	99.792488
3595.000000	99.799313
3594.000000	99.808956
3593.000000	99.818747
3592.000000	99.825964
3591.000000	99.829805
3590.000000	99.831564
3589.000000	99.833266
3588.000000	99.835488
3587.000000	99.837300
3586.000000	99.837819
3585.000000	99.836503
3584.000000	99.833238
3583.000000	99.829593
3582.000000	99.828265
3581.000000	99.830497
3580.000000	99.835467
3579.000000	99.841991
3578.000000	99.849525
3577.000000	99.857161
3576.000000	99.863026
3575.000000	99.865554
3574.000000	99.864697
3573.000000	99.861498
3572.000000	99.856667
3571.000000	99.850263
3570.000000	99.842757
3569.000000	99.835979
3568.000000	99.832153
3567.000000	99.831761
3566.000000	99.832914
3565.000000	99.832941
3564.000000	99.830614
3563.000000	99.827411
3562.000000	99.826282
3561.000000	99.828415
3560.000000	99.831813
3559.000000	99.833416
3558.000000	99.832038
3557.000000	99.828989
3556.000000	99.826407
3555.000000	99.825582
3554.000000	99.826380
3553.000000	99.827635
3552.000000	99.828084
3551.000000	99.827203
3550.000000	99.825224
3549.000000	99.822617
3548.000000	99.819939
3547.000000	99.817986
3546.000000	99.817459
3545.000000	99.818212
3544.000000	99.819183
3543.000000	99.819268
3542.000000	99.818066
3541.000000	99.815798
3540.000000	99.812906
3539.000000	99.810017
3538.000000	99.808028
3537.000000	99.807585
3536.000000	99.808395
3535.000000	99.809334
3534.000000	99.809443
3533.000000	99.808669
3532.000000	99.807540
3531.000000	99.806379
3530.000000	99.805026
3529.000000	99.803341
3528.000000	99.801781
3527.000000	99.801132
3526.000000	99.801649
3525.000000	99.802706
3524.000000	99.803404
3523.000000	99.803483
3522.000000	99.803343
3521.000000	99.803398
3520.000000	99.803679
3519.000000	99.803991
3518.000000	99.804142
3517.000000	99.803954
3516.000000	99.803258
3515.000000	99.802053
3514.000000	99.800589
3513.000000	99.799215
3512.000000	99.798206
3511.000000	99.797686
3510.000000	99.797588
3509.000000	99.797580
3508.000000	99.797162
3507.000000	99.796029
3506.000000	99.794348
3505.000000	99.792672
3504.000000	99.791514
3503.000000	99.790977
3502.000000	99.790786
3501.000000	99.790631
3500.000000	99.790465
3499.000000	99.790430
3498.000000	99.790549
3497.000000	99.790556
3496.000000	99.790078
3495.000000	99.788973
3494.000000	99.787425
3493.000000	99.785799
3492.000000	99.784431
3491.000000	99.783521
3490.000000	99.783100
3489.000000	99.783039
3488.000000	99.783070
3487.000000	99.782892
3486.000000	99.782337
3485.000000	99.781414
3484.000000	99.780277
3483.000000	99.779135
3482.000000	99.778110
3481.000000	99.777170
3480.000000	99.776201
3479.000000	99.775159
3478.000000	99.774152
3477.000000	99.773326
3476.000000	99.772687
3475.000000	99.772067
3474.000000	99.771261
3473.000000	99.770183
3472.000000	99.768878
3471.000000	99.767456
3470.000000	99.766044
3469.000000	99.764783
3468.000000	99.763790
3467.000000	99.763087
3466.000000	99.762559
3465.000000	99.762001
3464.000000	99.761211
3463.000000	99.760100
3462.000000	99.758763
3461.000000	99.757450
3460.000000	99.756365
3459.000000	99.755475
3458.000000	99.754560
3457.000000	99.753462
3456.000000	99.752265
3455.000000	99.751192
3454.000000	99.750350
3453.000000	99.749643
3452.000000	99.748906
3451.000000	99.748083
3450.000000	99.747250
3449.000000	99.746516
3448.000000	99.745925
3447.000000	99.745395
3446.000000	99.744685
3445.000000	99.743510
3444.000000	99.741791
3443.000000	99.739786
3442.000000	99.737905
3441.000000	99.736325
3440.000000	99.734950
3439.000000	99.733704
3438.000000	99.732687
3437.000000	99.731969
3436.000000	99.731314
3435.000000	99.730338
3434.000000	99.728970
3433.000000	99.727557
3432.000000	99.726394
3431.000000	99.725352
3430.000000	99.724139
3429.000000	99.722801
3428.000000	99.721712
3427.000000	99.721060
3426.000000	99.720518
3425.000000	99.719515
3424.000000	99.717805
3423.000000	99.715712
3422.000000	99.713905
3421.000000	99.712912
3420.000000	99.712813
3419.000000	99.713200
3418.000000	99.713395
3417.000000	99.712816
3416.000000	99.711362
3415.000000	99.709524
3414.000000	99.708071
3413.000000	99.707481
3412.000000	99.707724
3411.000000	99.708473
3410.000000	99.709371
3409.000000	99.710011
3408.000000	99.709890
3407.000000	99.708684
3406.000000	99.706577
3405.000000	99.704230
3404.000000	99.702313
3403.000000	99.701128
3402.000000	99.700617
3401.000000	99.700456
3400.000000	99.700072
3399.000000	99.698866
3398.000000	99.696804
3397.000000	99.694798
3396.000000	99.694109
3395.000000	99.695218
3394.000000	99.697430
3393.000000	99.699539
3392.000000	99.700780
3391.000000	99.701139
3390.000000	99.701021
3389.000000	99.700878
3388.000000	99.700957
3387.000000	99.701133
3386.000000	99.701031
3385.000000	99.700553
3384.000000	99.700251
3383.000000	99.700924
3382.000000	99.702749
3381.000000	99.704950
3380.000000	99.706479
3379.000000	99.707052
3378.000000	99.707365
3377.000000	99.708307
3376.000000	99.709998
3375.000000	99.711664
3374.000000	99.712515
3373.000000	99.712597
3372.000000	99.712624
3371.000000	99.713090
3370.000000	99.713799
3369.000000	99.714348
3368.000000	99.714732
3367.000000	99.715278
3366.000000	99.716157
3365.000000	99.717203
3364.000000	99.718162
3363.000000	99.718941
3362.000000	99.719589
3361.000000	99.720190
3360.000000	99.720832
3359.000000	99.721581
3358.000000	99.722467
3357.000000	99.723484
3356.000000	99.724588
3355.000000	99.725695
3354.000000	99.726705
3353.000000	99.727571
3352.000000	99.728319
3351.000000	99.729052
3350.000000	99.729857
3349.000000	99.730703
3348.000000	99.731475
3347.000000	99.732198
3346.000000	99.733081
3345.000000	99.734282
3344.000000	99.735658
3343.000000	99.736846
3342.000000	99.737642
3341.000000	99.738196
3340.000000	99.738866
3339.000000	99.739827
3338.000000	99.740898
3337.000000	99.741788
3336.000000	99.742455
3335.000000	99.743162
3334.000000	99.744164
3333.000000	99.745419
3332.000000	99.746627
3331.000000	99.747503
3330.000000	99.747992
3329.000000	99.748267
3328.000000	99.748563
3327.000000	99.748940
3326.000000	99.749177
3325.000000	99.749055
3324.000000	99.748872
3323.000000	99.749497
3322.000000	99.751631
3321.000000	99.755083
3320.000000	99.758745
3319.000000	99.761518
3318.000000	99.763113
3317.000000	99.763864
3316.000000	99.764071
3315.000000	99.763703
3314.000000	99.762735
3313.000000	99.761528
3312.000000	99.760722
3311.000000	99.760733
3310.000000	99.761344
3309.000000	99.761841
3308.000000	99.761751
3307.000000	99.761468
3306.000000	99.761947
3305.000000	99.763744
3304.000000	99.766505
3303.000000	99.769388
3302.000000	99.771819
3301.000000	99.773715
3300.000000	99.775156
3299.000000	99.776109
3298.000000	99.776442
3297.000000	99.776025
3296.000000	99.774950
3295.000000	99.773794
3294.000000	99.773513
3293.000000	99.774721
3292.000000	99.776998
3291.000000	99.779106
3290.000000	99.780145
3289.000000	99.780377
3288.000000	99.780761
3287.000000	99.781917
3286.000000	99.783792
3285.000000	99.786156
3284.000000	99.788830
3283.000000	99.791421
3282.000000	99.793291
3281.000000	99.794155
3280.000000	99.794512
3279.000000	99.795068
3278.000000	99.795896
3277.000000	99.796553
3276.000000	99.796899
3275.000000	99.797353
3274.000000	99.798283
3273.000000	99.799483
3272.000000	99.800426
3271.000000	99.800844
3270.000000	99.800972
3269.000000	99.801295
3268.000000	99.802172
3267.000000	99.803627
3266.000000	99.805436
3265.000000	99.807383
3264.000000	99.809433
3263.000000	99.811599
3262.000000	99.813713
3261.000000	99.815474
3260.000000	99.816753
3259.000000	99.817707
3258.000000	99.818593
3257.000000	99.819562
3256.000000	99.820678
3255.000000	99.822020
3254.000000	99.823643
3253.000000	99.825458
3252.000000	99.827269
3251.000000	99.828960
3250.000000	99.830574
3249.000000	99.832228
3248.000000	99.833975
3247.000000	99.835733
3246.000000	99.837354
3245.000000	99.838773
3244.000000	99.840079
3243.000000	99.841477
3242.000000	99.843108
3241.000000	99.844950
3240.000000	99.846840
3239.000000	99.848604
3238.000000	99.850192
3237.000000	99.851654
3236.000000	99.853093
3235.000000	99.854609
3234.000000	99.856277
3233.000000	99.858125
3232.000000	99.860115
3231.000000	99.862160
3230.000000	99.864179
3229.000000	99.866150
3228.000000	99.868108
3227.000000	99.870097
3226.000000	99.872088
3225.000000	99.873971
3224.000000	99.875652
3223.000000	99.877175
3222.000000	99.878708
3221.000000	99.880399
3220.000000	99.882305
3219.000000	99.884454
3218.000000	99.886851
3217.000000	99.889381
3216.000000	99.891789
3215.000000	99.893867
3214.000000	99.895589
3213.000000	99.896969
3212.000000	99.897952
3211.000000	99.898550
3210.000000	99.898991
3209.000000	99.899682
3208.000000	99.900991
3207.000000	99.903052
3206.000000	99.905695
3205.000000	99.908529
3204.000000	99.911159
3203.000000	99.913379
3202.000000	99.915130
3201.000000	99.916443
3200.000000	99.917524
3199.000000	99.918787
3198.000000	99.920500
3197.000000	99.922457
3196.000000	99.924255
3195.000000	99.925864
3194.000000	99.927652
3193.000000	99.929808
3192.000000	99.932095
3191.000000	99.934208
3190.000000	99.936088
3189.000000	99.937744
3188.000000	99.939028
3187.000000	99.939865
3186.000000	99.940526
3185.000000	99.941470
3184.000000	99.942911
3183.000000	99.944719
3182.000000	99.946632
3181.000000	99.948496
3180.000000	99.950320
3179.000000	99.952172
3178.000000	99.954037
3177.000000	99.955789
3176.000000	99.957324
3175.000000	99.958724
3174.000000	99.960235
3173.000000	99.962015
3172.000000	99.964001
3171.000000	99.965999
3170.000000	99.967867
3169.000000	99.969608
3168.000000	99.971293
3167.000000	99.972948
3166.000000	99.974543
3165.000000	99.976069
3164.000000	99.977569
3163.000000	99.979111
3162.000000	99.980732
3161.000000	99.982427
3160.000000	99.984157
3159.000000	99.985875
3158.000000	99.987552
3157.000000	99.989171
3156.000000	99.990723
3155.000000	99.992223
3154.000000	99.993706
3153.000000	99.995213
3152.000000	99.996761
3151.000000	99.998343
3150.000000	99.999944
3149.000000	100.001540
3148.000000	100.003111
3147.000000	100.004649
3146.000000	100.006167
3145.000000	100.007695
3144.000000	100.009257
3143.000000	100.010859
3142.000000	100.012489
3141.000000	100.014101
3140.000000	100.015623
3139.000000	100.017003
3138.000000	100.018278
3137.000000	100.019545
3136.000000	100.020836
3135.000000	100.022074
3134.000000	100.023233
3133.000000	100.024480
3132.000000	100.026009
3131.000000	100.027783
3130.000000	100.029540
3129.000000	100.031058
3128.000000	100.032369
3127.000000	100.033680
3126.000000	100.035140
3125.000000	100.036713
3124.000000	100.038269
3123.000000	100.039755
3122.000000	100.041249
3121.000000	100.042816
3120.000000	100.044355
3119.000000	100.045641
3118.000000	100.046501
3117.000000	100.046936
3116.000000	100.047156
3115.000000	100.047576
3114.000000	100.048659
3113.000000	100.050642
3112.000000	100.053349
3111.000000	100.056275
3110.000000	100.058923
3109.000000	100.060998
3108.000000	100.062383
3107.000000	100.063112
3106.000000	100.063426
3105.000000	100.063717
3104.000000	100.064238
3103.000000	100.064928
3102.000000	100.065586
3101.000000	100.066212
3100.000000	100.067108
3099.000000	100.068582
3098.000000	100.070577
3097.000000	100.072629
3096.000000	100.074260
3095.000000	100.075462
3094.000000	100.076672
3093.000000	100.078264
3092.000000	100.080121
3091.000000	100.081778
3090.000000	100.082919
3089.000000	100.083657
3088.000000	100.084364
3087.000000	100.085326
3086.000000	100.086590
3085.000000	100.088065
3084.000000	100.089633
3083.000000	100.091170
3082.000000	100.092558
3081.000000	100.093750
3080.000000	100.094800
3079.000000	100.095820
3078.000000	100.096883
3077.000000	100.097984
3076.000000	100.099093
3075.000000	100.100208
3074.000000	100.101345
3073.000000	100.102495
3072.000000	100.103632
3071.000000	100.104741
3070.000000	100.105829
3069.000000	100.106904
3068.000000	100.107970
3067.000000	100.109033
3066.000000	100.110090
3065.000000	100.111137
3064.000000	100.112169
3063.000000	100.113186
3062.000000	100.114193
3061.000000	100.115196
3060.000000	100.116194
3059.000000	100.117184
3058.000000	100.118156
3057.000000	100.119107
3056.000000	100.120037
3055.000000	100.120952
3054.000000	100.121856
3053.000000	100.122746
3052.000000	100.123615
3051.000000	100.124452
3050.000000	100.125256
3049.000000	100.126034
3048.000000	100.126799
3047.000000	100.127559
3046.000000	100.128313
3045.000000	100.129050
3044.000000	100.129756
3043.000000	100.130428
3042.000000	100.131072
3041.000000	100.131695
3040.000000	100.132302
3039.000000	100.132891
3038.000000	100.133460
3037.000000	100.134006
3036.000000	100.134534
3035.000000	100.135050
3034.000000	100.135557
3033.000000	100.136052
3032.000000	100.136532
3031.000000	100.136996
3030.000000	100.137440
3029.000000	100.137860
3028.000000	100.138251
3027.000000	100.138610
3026.000000	100.138937
3025.000000	100.139238
3024.000000	100.139524
3023.000000	100.139809
3022.000000	100.140102
3021.000000	100.140408
3020.000000	100.140717
3019.000000	100.141016
3018.000000	100.141293
3017.000000	100.141543
3016.000000	100.141771
3015.000000	100.141985
3014.000000	100.142193
3013.000000	100.142398
3012.000000	100.142600
3011.000000	100.142799
3010.000000	100.142994
3009.000000	100.143187
3008.000000	100.143381
3007.000000	100.143581
3006.000000	100.143792
3005.000000	100.144013
3004.000000	100.144240
3003.000000	100.144473
3002.000000	100.144718
3001.000000	100.144976
3000.000000	100.145244
2999.000000	100.145516
2998.000000	100.145791
2997.000000	100.146073
2996.000000	100.146367
2995.000000	100.146675
2994.000000	100.146993
2993.000000	100.147313
2992.000000	100.147625
2991.000000	100.147922
2990.000000	100.148203
2989.000000	100.148496
2988.000000	100.148834
2987.000000	100.149233
2986.000000	100.149686
2985.000000	100.150176
2984.000000	100.150679
2983.000000	100.151166
2982.000000	100.151647
2981.000000	100.152143
2980.000000	100.152602
2979.000000	100.152926
2978.000000	100.153133
2977.000000	100.153415
2976.000000	100.153907
2975.000000	100.154519
2974.000000	100.155068
2973.000000	100.155560
2972.000000	100.156179
2971.000000	100.157025
2970.000000	100.157946
2969.000000	100.158664
2968.000000	100.159060
2967.000000	100.159363
2966.000000	100.159994
2965.000000	100.161110
2964.000000	100.162397
2963.000000	100.163428
2962.000000	100.164240
2961.000000	100.165260
2960.000000	100.166666
2959.000000	100.168097
2958.000000	100.169127
2957.000000	100.169754
2956.000000	100.170205
2955.000000	100.170482
2954.000000	100.170413
2953.000000	100.170083
2952.000000	100.169926
2951.000000	100.170342
2950.000000	100.171421
2949.000000	100.172980
2948.000000	100.174705
2947.000000	100.176310
2946.000000	100.177693
2945.000000	100.178952
2944.000000	100.180175
2943.000000	100.181226
2942.000000	100.181890
2941.000000	100.182248
2940.000000	100.182744
2939.000000	100.183706
2938.000000	100.184947
2937.000000	100.186009
2936.000000	100.186775
2935.000000	100.187600
2934.000000	100.188761
2933.000000	100.190050
2932.000000	100.191112
2931.000000	100.192009
2930.000000	100.193124
2929.000000	100.194552
2928.000000	100.195901
2927.000000	100.196799
2926.000000	100.197297
2925.000000	100.197648
2924.000000	100.197906
2923.000000	100.198006
2922.000000	100.198120
2921.000000	100.198643
2920.000000	100.199822
2919.000000	100.201581
2918.000000	100.203618
2917.000000	100.205531
2916.000000	100.206885
2915.000000	100.207401
2914.000000	100.207172
2913.000000	100.206684
2912.000000	100.206457
2911.000000	100.206652
2910.000000	100.207143
2909.000000	100.207805
2908.000000	100.208629
2907.000000	100.209590
2906.000000	100.210523
2905.000000	100.211270
2904.000000	100.211883
2903.000000	100.212564
2902.000000	100.213379
2901.000000	100.214126
2900.000000	100.214585
2899.000000	100.214812
2898.000000	100.215077
2897.000000	100.215510
2896.000000	100.215972
2895.000000	100.216352
2894.000000	100.216845
2893.000000	100.217784
2892.000000	100.219216
2891.000000	100.220747
2890.000000	100.221832
2889.000000	100.222253
2888.000000	100.222282
2887.000000	100.222443
2886.000000	100.223063
2885.000000	100.224053
2884.000000	100.225100
2883.000000	100.225976
2882.000000	100.226646
2881.000000	100.227183
2880.000000	100.227691
2879.000000	100.228224
2878.000000	100.228651
2877.000000	100.228707
2876.000000	100.228391
2875.000000	100.228269
2874.000000	100.229064
2873.000000	100.230920
2872.000000	100.233321
2871.000000	100.235673
2870.000000	100.237783
2869.000000	100.239609
2868.000000	100.240920
2867.000000	100.241507
2866.000000	100.241564
2865.000000	100.241643
2864.000000	100.242157
2863.000000	100.243068
2862.000000	100.244077
2861.000000	100.244975
2860.000000	100.245816
2859.000000	100.246802
2858.000000	100.248010
2857.000000	100.249238
2856.000000	100.250151
2855.000000	100.250626
2854.000000	100.250880
2853.000000	100.251294
2852.000000	100.252073
2851.000000	100.253155
2850.000000	100.254303
2849.000000	100.255259
2848.000000	100.255904
2847.000000	100.256314
2846.000000	100.256709
2845.000000	100.257258
2844.000000	100.257927
2843.000000	100.258553
2842.000000	100.259044
2841.000000	100.259467
2840.000000	100.259973
2839.000000	100.260632
2838.000000	100.261396
2837.000000	100.262161
2836.000000	100.262867
2835.000000	100.263510
2834.000000	100.264113
2833.000000	100.264686
2832.000000	100.265226
2831.000000	100.265730
2830.000000	100.266199
2829.000000	100.266645
2828.000000	100.267089
2827.000000	100.267559
2826.000000	100.268074
2825.000000	100.268629
2824.000000	100.269206
2823.000000	100.269781
2822.000000	100.270340
2821.000000	100.270892
2820.000000	100.271480
2819.000000	100.272149
2818.000000	100.272876
2817.000000	100.273535
2816.000000	100.274001
2815.000000	100.274263
2814.000000	100.274475
2813.000000	100.274825
2812.000000	100.275387
2811.000000	100.276131
2810.000000	100.277004
2809.000000	100.277932
2808.000000	100.278791
2807.000000	100.279501
2806.000000	100.280122
2805.000000	100.280809
2804.000000	100.281658
2803.000000	100.282620
2802.000000	100.283552
2801.000000	100.284311
2800.000000	100.284843
2799.000000	100.285279
2798.000000	100.285887
2797.000000	100.286771
2796.000000	100.287680
2795.000000	100.288275
2794.000000	100.288503
2793.000000	100.288575
2792.000000	100.288663
2791.000000	100.288802
2790.000000	100.289063
2789.000000	100.289580
2788.000000	100.290345
2787.000000	100.291199
2786.000000	100.292065
2785.000000	100.292997
2784.000000	100.294013
2783.000000	100.295012
2782.000000	100.295866
2781.000000	100.296489
2780.000000	100.296912
2779.000000	100.297386
2778.000000	100.298272
2777.000000	100.299624
2776.000000	100.300942
2775.000000	100.301639
2774.000000	100.301705
2773.000000	100.301734
2772.000000	100.302265
2771.000000	100.303301
2770.000000	100.304537
2769.000000	100.305680
2768.000000	100.306528
2767.000000	100.307013
2766.000000	100.307305
2765.000000	100.307599
2764.000000	100.307734
2763.000000	100.307357
2762.000000	100.306563
2761.000000	100.306011
2760.000000	100.306202
2759.000000	100.306962
2758.000000	100.307756
2757.000000	100.308328
2756.000000	100.308788
2755.000000	100.309245
2754.000000	100.309680
2753.000000	100.310122
2752.000000	100.310682
2751.000000	100.311416
2750.000000	100.312311
2749.000000	100.313309
2748.000000	100.314204
2747.000000	100.314644
2746.000000	100.314433
2745.000000	100.313806
2744.000000	100.313323
2743.000000	100.313379
2742.000000	100.313969
2741.000000	100.314877
2740.000000	100.315888
2739.000000	100.316810
2738.000000	100.317475
2737.000000	100.317890
2736.000000	100.318305
2735.000000	100.318965
2734.000000	100.319798
2733.000000	100.320442
2732.000000	100.320604
2731.000000	100.320322
2730.000000	100.319885
2729.000000	100.319591
2728.000000	100.319529
2727.000000	100.319593
2726.000000	100.319668
2725.000000	100.319823
2724.000000	100.320246
2723.000000	100.321004
2722.000000	100.321917
2721.000000	100.322675
2720.000000	100.323140
2719.000000	100.323384
2718.000000	100.323529
2717.000000	100.323621
2716.000000	100.323676
2715.000000	100.323775
2714.000000	100.324016
2713.000000	100.324411
2712.000000	100.324856
2711.000000	100.325188
2710.000000	100.325318
2709.000000	100.325287
2708.000000	100.325207
2707.000000	100.325190
2706.000000	100.325281
2705.000000	100.325474
2704.000000	100.325751
2703.000000	100.326081
2702.000000	100.326417
2701.000000	100.326691
2700.000000	100.326854
2699.000000	100.326937
2698.000000	100.327054
2697.000000	100.327311
2696.000000	100.327699
2695.000000	100.328081
2694.000000	100.328291
2693.000000	100.328268
2692.000000	100.328133
2691.000000	100.328142
2690.000000	100.328425
2689.000000	100.328790
2688.000000	100.328880
2687.000000	100.328562
2686.000000	100.327981
2685.000000	100.327282
2684.000000	100.326573
2683.000000	100.326231
2682.000000	100.326798
2681.000000	100.328177
2680.000000	100.329311
2679.000000	100.329240
2678.000000	100.328286
2677.000000	100.327745
2676.000000	100.328317
2675.000000	100.329412
2674.000000	100.330036
2673.000000	100.329923
2672.000000	100.329461
2671.000000	100.329039
2670.000000	100.328928
2669.000000	100.329459
2668.000000	100.330762
2667.000000	100.332381
2666.000000	100.333635
2665.000000	100.334414
2664.000000	100.335153
2663.000000	100.335952
2662.000000	100.336230
2661.000000	100.335532
2660.000000	100.334197
2659.000000	100.332925
2658.000000	100.331962
2657.000000	100.331092
2656.000000	100.330220
2655.000000	100.329540
2654.000000	100.329147
2653.000000	100.328784
2652.000000	100.328136
2651.000000	100.327276
2650.000000	100.326680
2649.000000	100.326739
2648.000000	100.327344
2647.000000	100.327948
2646.000000	100.328053
2645.000000	100.327625
2644.000000	100.327057
2643.000000	100.326789
2642.000000	100.326931
2641.000000	100.327217
2640.000000	100.327239
2639.000000	100.326781
2638.000000	100.325956
2637.000000	100.325184
2636.000000	100.324890
2635.000000	100.325152
2634.000000	100.325665
2633.000000	100.325965
2632.000000	100.325817
2631.000000	100.325330
2630.000000	100.324797
2629.000000	100.324398
2628.000000	100.324089
2627.000000	100.323799
2626.000000	100.323659
2625.000000	100.323902
2624.000000	100.324537
2623.000000	100.325267
2622.000000	100.325763
2621.000000	100.325973
2620.000000	100.326070
2619.000000	100.326193
2618.000000	100.326302
2617.000000	100.326326
2616.000000	100.326355
2615.000000	100.326591
2614.000000	100.327110
2613.000000	100.327791
2612.000000	100.328496
2611.000000	100.329172
2610.000000	100.329683
2609.000000	100.329767
2608.000000	100.329332
2607.000000	100.328645
2606.000000	100.328058
2605.000000	100.327619
2604.000000	100.327245
2603.000000	100.327162
2602.000000	100.327813
2601.000000	100.329255
2600.000000	100.330876
2599.000000	100.331877
2598.000000	100.331980
2597.000000	100.331441
2596.000000	100.330720
2595.000000	100.330198
2594.000000	100.330089
2593.000000	100.330403
2592.000000	100.330881
2591.000000	100.331170
2590.000000	100.331064
2589.000000	100.330577
2588.000000	100.329845
2587.000000	100.329076
2586.000000	100.328521
2585.000000	100.328312
2584.000000	100.328321
2583.000000	100.328301
2582.000000	100.328150
2581.000000	100.327986
2580.000000	100.327934
2579.000000	100.327939
2578.000000	100.327845
2577.000000	100.327612
2576.000000	100.327351
2575.000000	100.327174
2574.000000	100.327079
2573.000000	100.326999
2572.000000	100.326910
2571.000000	100.326856
2570.000000	100.326865
2569.000000	100.326893
2568.000000	100.326870
2567.000000	100.326779
2566.000000	100.326660
2565.000000	100.326557
2564.000000	100.326496
2563.000000	100.326466
2562.000000	100.326452
2561.000000	100.326441
2560.000000	100.326431
2559.000000	100.326421
2558.000000	100.326415
2557.000000	100.326421
2556.000000	100.326454
2555.000000	100.326518
2554.000000	100.326614
2553.000000	100.326733
2552.000000	100.326864
2551.000000	100.327004
2550.000000	100.327154
2549.000000	100.327323
2548.000000	100.327516
2547.000000	100.327733
2546.000000	100.327972
2545.000000	100.328227
2544.000000	100.328491
2543.000000	100.328759
2542.000000	100.329027
2541.000000	100.329295
2540.000000	100.329563
2539.000000	100.329831
2538.000000	100.330094
2537.000000	100.330355
2536.000000	100.330615
2535.000000	100.330877
2534.000000	100.331138
2533.000000	100.331394
2532.000000	100.331644
2531.000000	100.331893
2530.000000	100.332145
2529.000000	100.332396
2528.000000	100.332642
2527.000000	100.332879
2526.000000	100.333108
2525.000000	100.333338
2524.000000	100.333576
2523.000000	100.333827
2522.000000	100.334089
2521.000000	100.334360
2520.000000	100.334631
2519.000000	100.334896
2518.000000	100.335147
2517.000000	100.335384
2516.000000	100.335611
2515.000000	100.335831
2514.000000	100.336043
2513.000000	100.336245
2512.000000	100.336438
2511.000000	100.336628
2510.000000	100.336817
2509.000000	100.337003
2508.000000	100.337182
2507.000000	100.337348
2506.000000	100.337503
2505.000000	100.337651
2504.000000	100.337796
2503.000000	100.337940
2502.000000	100.338078
2501.000000	100.338207
2500.000000	100.338322
2499.000000	100.338424
2498.000000	100.338516
2497.000000	100.338607
2496.000000	100.338705
2495.000000	100.338814
2494.000000	100.338934
2493.000000	100.339068
2492.000000	100.339212
2491.000000	100.339367
2490.000000	100.339531
2489.000000	100.339703
2488.000000	100.339875
2487.000000	100.340044
2486.000000	100.340214
2485.000000	100.340382
2484.000000	100.340543
2483.000000	100.340700
2482.000000	100.340866
2481.000000	100.341053
2480.000000	100.341248
2479.000000	100.341421
2478.000000	100.341553
2477.000000	100.341658
2476.000000	100.341771
2475.000000	100.341916
2474.000000	100.342095
2473.000000	100.342303
2472.000000	100.342535
2471.000000	100.342776
2470.000000	100.342989
2469.000000	100.343135
2468.000000	100.343246
2467.000000	100.343435
2466.000000	100.343779
2465.000000	100.344245
2464.000000	100.344721
2463.000000	100.345119
2462.000000	100.345412
2461.000000	100.345584
2460.000000	100.345641
2459.000000	100.345675
2458.000000	100.345855
2457.000000	100.346297
2456.000000	100.346973
2455.000000	100.347723
2454.000000	100.348362
2453.000000	100.348783
2452.000000	100.348994
2451.000000	100.349130
2450.000000	100.349352
2449.000000	100.349698
2448.000000	100.350048
2447.000000	100.350299
2446.000000	100.350499
2445.000000	100.350739
2444.000000	100.350992
2443.000000	100.351181
2442.000000	100.351371
2441.000000	100.351725
2440.000000	100.352297
2439.000000	100.352981
2438.000000	100.353684
2437.000000	100.354401
2436.000000	100.355086
2435.000000	100.355579
2434.000000	100.355774
2433.000000	100.355848
2432.000000	100.356186
2431.000000	100.356988
2430.000000	100.357955
2429.000000	100.358482
2428.000000	100.358235
2427.000000	100.357446
2426.000000	100.356644
2425.000000	100.356136
2424.000000	100.355907
2423.000000	100.355926
2422.000000	100.356250
2421.000000	100.356812
2420.000000	100.357380
2419.000000	100.357861
2418.000000	100.358433
2417.000000	100.359183
2416.000000	100.359820
2415.000000	100.359961
2414.000000	100.359590
2413.000000	100.359024
2412.000000	100.358508
2411.000000	100.358098
2410.000000	100.357899
2409.000000	100.358138
2408.000000	100.358877
2407.000000	100.359822
2406.000000	100.360515
2405.000000	100.360762
2404.000000	100.360772
2403.000000	100.360935
2402.000000	100.361465
2401.000000	100.362226
2400.000000	100.362866
2399.000000	100.363109
2398.000000	100.362953
2397.000000	100.362633
2396.000000	100.362474
2395.000000	100.362760
2394.000000	100.363648
2393.000000	100.365024
2392.000000	100.366474
2391.000000	100.367540
2390.000000	100.368068
2389.000000	100.368263
2388.000000	100.368493
2387.000000	100.369036
2386.000000	100.369946
2385.000000	100.371034
2384.000000	100.371989
2383.000000	100.372595
2382.000000	100.372806
2381.000000	100.372614
2380.000000	100.372027
2379.000000	100.371306
2378.000000	100.371045
2377.000000	100.371729
2376.000000	100.373326
2375.000000	100.375421
2374.000000	100.377616
2373.000000	100.379585
2372.000000	100.380903
2371.000000	100.381273
2370.000000	100.380941
2369.000000	100.380499
2368.000000	100.380198
2367.000000	100.379831
2366.000000	100.379328
2365.000000	100.379081
2364.000000	100.379546
2363.000000	100.380861
2362.000000	100.382712
2361.000000	100.384500
2360.000000	100.385910
2359.000000	100.386844
2358.000000	100.387203
2357.000000	100.386733
2356.000000	100.385444
2355.000000	100.384196
2354.000000	100.383741
2353.000000	100.384105
2352.000000	100.384451
2351.000000	100.384051
2350.000000	100.383230
2349.000000	100.382696
2348.000000	100.382886
2347.000000	100.383279
2346.000000	100.383154
2345.000000	100.382458
2344.000000	100.381575
2343.000000	100.381015
2342.000000	100.380697
2341.000000	100.380457
2340.000000	100.380016
2339.000000	100.379219
2338.000000	100.378314
2337.000000	100.377811
2336.000000	100.377884
2335.000000	100.378008
2334.000000	100.377578
2333.000000	100.376716
2332.000000	100.376045
2331.000000	100.375539
2330.000000	100.374804
2329.000000	100.373663
2328.000000	100.372882
2327.000000	100.372679
2326.000000	100.372441
2325.000000	100.371329
2324.000000	100.369221
2323.000000	100.366914
2322.000000	100.365209
2321.000000	100.364481
2320.000000	100.364429
2319.000000	100.364490
2318.000000	100.364443
2317.000000	100.364492
2316.000000	100.364937
2315.000000	100.365413
2314.000000	100.365378
2313.000000	100.364535
2312.000000	100.363359
2311.000000	100.362308
2310.000000	100.361641
2309.000000	100.361227
2308.000000	100.360978
2307.000000	100.360625
2306.000000	100.359955
2305.000000	100.358877
2304.000000	100.357518
2303.000000	100.355842
2302.000000	100.353870
2301.000000	100.351876
2300.000000	100.350471
2299.000000	100.349863
2298.000000	100.349753
2297.000000	100.349507
2296.000000	100.348810
2295.000000	100.347665
2294.000000	100.346460
2293.000000	100.345654
2292.000000	100.345469
2291.000000	100.345679
2290.000000	100.345998
2289.000000	100.346507
2288.000000	100.347327
2287.000000	100.348000
2286.000000	100.347734
2285.000000	100.346404
2284.000000	100.344769
2283.000000	100.343625
2282.000000	100.342940
2281.000000	100.342275
2280.000000	100.341558
2279.000000	100.341082
2278.000000	100.340916
2277.000000	100.340833
2276.000000	100.340702
2275.000000	100.340562
2274.000000	100.340357
2273.000000	100.339893
2272.000000	100.339159
2271.000000	100.338406
2270.000000	100.337862
2269.000000	100.337509
2268.000000	100.337221
2267.000000	100.336963
2266.000000	100.336786
2265.000000	100.336725
2264.000000	100.336806
2263.000000	100.337010
2262.000000	100.337158
2261.000000	100.336942
2260.000000	100.336238
2259.000000	100.335341
2258.000000	100.334731
2257.000000	100.334608
2256.000000	100.334749
2255.000000	100.334788
2254.000000	100.334566
2253.000000	100.334141
2252.000000	100.333583
2251.000000	100.332854
2250.000000	100.331952
2249.000000	100.331070
2248.000000	100.330514
2247.000000	100.330439
2246.000000	100.330688
2245.000000	100.330894
2244.000000	100.330797
2243.000000	100.330421
2242.000000	100.329960
2241.000000	100.329555
2240.000000	100.329228
2239.000000	100.328979
2238.000000	100.328858
2237.000000	100.328911
2236.000000	100.329088
2235.000000	100.329282
2234.000000	100.329449
2233.000000	100.329626
2232.000000	100.329826
2231.000000	100.329981
2230.000000	100.330003
2229.000000	100.329858
2228.000000	100.329536
2227.000000	100.329028
2226.000000	100.328398
2225.000000	100.327792
2224.000000	100.327315
2223.000000	100.326949
2222.000000	100.326663
2221.000000	100.326527
2220.000000	100.326586
2219.000000	100.326655
2218.000000	100.326426
2217.000000	100.325832
2216.000000	100.325209
2215.000000	100.324981
2214.000000	100.325220
2213.000000	100.325642
2212.000000	100.325909
2211.000000	100.325926
2210.000000	100.325777
2209.000000	100.325568
2208.000000	100.325354
2207.000000	100.325155
2206.000000	100.324963
2205.000000	100.324785
2204.000000	100.324685
2203.000000	100.324729
2202.000000	100.324890
2201.000000	100.325037
2200.000000	100.325098
2199.000000	100.325141
2198.000000	100.325249
2197.000000	100.325412
2196.000000	100.325573
2195.000000	100.325722
2194.000000	100.325864
2193.000000	100.325961
2192.000000	100.325971
2191.000000	100.325926
2190.000000	100.325910
2189.000000	100.325961
2188.000000	100.326049
2187.000000	100.326133
2186.000000	100.326217
2185.000000	100.326331
2184.000000	100.326490
2183.000000	100.326682
2182.000000	100.326880
2181.000000	100.327070
2180.000000	100.327268
2179.000000	100.327492
2178.000000	100.327744
2177.000000	100.328013
2176.000000	100.328282
2175.000000	100.328546
2174.000000	100.328809
2173.000000	100.329077
2172.000000	100.329354
2171.000000	100.329639
2170.000000	100.329929
2169.000000	100.330226
2168.000000	100.330532
2167.000000	100.330849
2166.000000	100.331178
2165.000000	100.331518
2164.000000	100.331869
2163.000000	100.332233
2162.000000	100.332607
2161.000000	100.332983
2160.000000	100.333351
2159.000000	100.333703
2158.000000	100.334042
2157.000000	100.334371
2156.000000	100.334695
2155.000000	100.335016
2154.000000	100.335333
2153.000000	100.335648
2152.000000	100.335959
2151.000000	100.336272
2150.000000	100.336598
2149.000000	100.336941
2148.000000	100.337283
2147.000000	100.337608
2146.000000	100.337923
2145.000000	100.338257
2144.000000	100.338626
2143.000000	100.339040
2142.000000	100.339503
2141.000000	100.339992
2140.000000	100.340432
2139.000000	100.340768
2138.000000	100.341047
2137.000000	100.341385
2136.000000	100.341823
2135.000000	100.342290
2134.000000	100.342725
2133.000000	100.343149
2132.000000	100.343590
2131.000000	100.344007
2130.000000	100.344359
2129.000000	100.344658
2128.000000	100.344914
2127.000000	100.345088
2126.000000	100.345183
2125.000000	100.345325
2124.000000	100.345684
2123.000000	100.346303
2122.000000	100.346993
2121.000000	100.347431
2120.000000	100.347395
2119.000000	100.346927
2118.000000	100.346371
2117.000000	100.346126
2116.000000	100.346353
2115.000000	100.346919
2114.000000	100.347557
2113.000000	100.348077
2112.000000	100.348445
2111.000000	100.348799
2110.000000	100.349335
2109.000000	100.350087
2108.000000	100.350810
2107.000000	100.351224
2106.000000	100.351355
2105.000000	100.351532
2104.000000	100.352014
2103.000000	100.352755
2102.000000	100.353565
2101.000000	100.354330
2100.000000	100.354992
2099.000000	100.355421
2098.000000	100.355492
2097.000000	100.355257
2096.000000	100.354981
2095.000000	100.354976
2094.000000	100.355384
2093.000000	100.356065
2092.000000	100.356655
2091.000000	100.356866
2090.000000	100.356762
2089.000000	100.356693
2088.000000	100.356914
2087.000000	100.357380
2086.000000	100.357949
2085.000000	100.358587
2084.000000	100.359252
2083.000000	100.359721
2082.000000	100.359765
2081.000000	100.359408
2080.000000	100.358832
2079.000000	100.358121
2078.000000	100.357352
2077.000000	100.356853
2076.000000	100.356996
2075.000000	100.357764
2074.000000	100.358743
2073.000000	100.359579
2072.000000	100.360276
2071.000000	100.360982
2070.000000	100.361735
2069.000000	100.362487
2068.000000	100.363168
2067.000000	100.363556
2066.000000	100.363284
2065.000000	100.362193
2064.000000	100.360688
2063.000000	100.359541
2062.000000	100.359243
2061.000000	100.359647
2060.000000	100.360232
2059.000000	100.360646
2058.000000	100.360985
2057.000000	100.361487
2056.000000	100.362101
2055.000000	100.362480
2054.000000	100.362445
2053.000000	100.362255
2052.000000	100.362294
2051.000000	100.362555
2050.000000	100.362644
2049.000000	100.362319
2048.000000	100.361808
2047.000000	100.361519
2046.000000	100.361499
2045.000000	100.361363
2044.000000	100.360795
2043.000000	100.360020
2042.000000	100.359624
2041.000000	100.359841
2040.000000	100.360167
2039.000000	100.359916
2038.000000	100.359101
2037.000000	100.358493
2036.000000	100.358681
2035.000000	100.359265
2034.000000	100.359263
2033.000000	100.358196
2032.000000	100.356395
2031.000000	100.354456
2030.000000	100.352763
2029.000000	100.351545
2028.000000	100.350963
2027.000000	100.350892
2026.000000	100.350907
2025.000000	100.350779
2024.000000	100.350791
2023.000000	100.351266
2022.000000	100.351942
2021.000000	100.352172
2020.000000	100.351689
2019.000000	100.350854
2018.000000	100.350126
2017.000000	100.349547
2016.000000	100.348921
2015.000000	100.348253
2014.000000	100.347737
2013.000000	100.347398
2012.000000	100.346986
2011.000000	100.346256
2010.000000	100.345254
2009.000000	100.344291
2008.000000	100.343660
2007.000000	100.343375
2006.000000	100.343175
2005.000000	100.342760
2004.000000	100.342058
2003.000000	100.341247
2002.000000	100.340524
2001.000000	100.339920
2000.000000	100.339351
1999.000000	100.338758
1998.000000	100.338131
1997.000000	100.337484
1996.000000	100.336944
1995.000000	100.336737
1994.000000	100.336949
1993.000000	100.337322
1992.000000	100.337415
1991.000000	100.337067
1990.000000	100.336514
1989.000000	100.336104
1988.000000	100.335984
1987.000000	100.336095
1986.000000	100.336311
1985.000000	100.336496
1984.000000	100.336520
1983.000000	100.336340
1982.000000	100.336034
1981.000000	100.335731
1980.000000	100.335498
1979.000000	100.335327
1978.000000	100.335212
1977.000000	100.335166
1976.000000	100.335182
1975.000000	100.335219
1974.000000	100.335249
1973.000000	100.335272
1972.000000	100.335272
1971.000000	100.335192
1970.000000	100.335010
1969.000000	100.334794
1968.000000	100.334666
1967.000000	100.334683
1966.000000	100.334816
1965.000000	100.334978
1964.000000	100.335077
1963.000000	100.335037
1962.000000	100.334855
1961.000000	100.334666
1960.000000	100.334677
1959.000000	100.334949
1958.000000	100.335283
1957.000000	100.335380
1956.000000	100.335113
1955.000000	100.334608
1954.000000	100.334136
1953.000000	100.333886
1952.000000	100.333828
1951.000000	100.333759
1950.000000	100.333529
1949.000000	100.333163
1948.000000	100.332691
1947.000000	100.331990
1946.000000	100.331015
1945.000000	100.330096
1944.000000	100.329674
1943.000000	100.329686
1942.000000	100.329543
1941.000000	100.328946
1940.000000	100.328348
1939.000000	100.328335
1938.000000	100.328914
1937.000000	100.329600
1936.000000	100.329990
1935.000000	100.329961
1934.000000	100.329395
1933.000000	100.328054
1932.000000	100.325872
1931.000000	100.323260
1930.000000	100.321070
1929.000000	100.320086
1928.000000	100.320365
1927.000000	100.321011
1926.000000	100.320877
1925.000000	100.319657
1924.000000	100.318113
1923.000000	100.317125
1922.000000	100.316593
1921.000000	100.315622
1920.000000	100.313577
1919.000000	100.310603
1918.000000	100.307440
1917.000000	100.304939
1916.000000	100.303568
1915.000000	100.303140
1914.000000	100.302907
1913.000000	100.302051
1912.000000	100.300280
1911.000000	100.297985
1910.000000	100.295882
1909.000000	100.294438
1908.000000	100.293467
1907.000000	100.292214
1906.000000	100.289953
1905.000000	100.286681
1904.000000	100.283187
1903.000000	100.280299
1902.000000	100.278223
1901.000000	100.276518
1900.000000	100.274576
1899.000000	100.272134
1898.000000	100.269563
1897.000000	100.267713
1896.000000	100.267136
1895.000000	100.267347
1894.000000	100.267236
1893.000000	100.266328
1892.000000	100.265110
1891.000000	100.264103
1890.000000	100.263169
1889.000000	100.261913
1888.000000	100.260221
1887.000000	100.257959
1886.000000	100.254715
1885.000000	100.250445
1884.000000	100.245976
1883.000000	100.242327
1882.000000	100.239944
1881.000000	100.239079
1880.000000	100.240254
1879.000000	100.243513
1878.000000	100.247497
1877.000000	100.250143
1876.000000	100.250512
1875.000000	100.249306
1874.000000	100.247638
1873.000000	100.245992
1872.000000	100.244439
1871.000000	100.243175
1870.000000	100.242447
1869.000000	100.242212
1868.000000	100.242363
1867.000000	100.243300
1866.000000	100.245643
1865.000000	100.249221
1864.000000	100.252552
1863.000000	100.253587
1862.000000	100.251542
1861.000000	100.248327
1860.000000	100.247441
1859.000000	100.250696
1858.000000	100.256556
1857.000000	100.261722
1856.000000	100.264453
1855.000000	100.265584
1854.000000	100.266627
1853.000000	100.268072
1852.000000	100.269668
1851.000000	100.271337
1850.000000	100.273111
1849.000000	100.274708
1848.000000	100.275830
1847.000000	100.276609
1846.000000	100.277401
1845.000000	100.278405
1844.000000	100.279696
1843.000000	100.281311
1842.000000	100.283011
1841.000000	100.284201
1840.000000	100.284535
1839.000000	100.284501
1838.000000	100.284894
1837.000000	100.285905
1836.000000	100.287043
1835.000000	100.287676
1834.000000	100.287460
1833.000000	100.286527
1832.000000	100.285462
1831.000000	100.284840
1830.000000	100.284555
1829.000000	100.284139
1828.000000	100.283937
1827.000000	100.284879
1826.000000	100.287019
1825.000000	100.289229
1824.000000	100.290626
1823.000000	100.291685
1822.000000	100.293096
1821.000000	100.294299
1820.000000	100.294186
1819.000000	100.292783
1818.000000	100.291225
1817.000000	100.290230
1816.000000	100.289515
1815.000000	100.288755
1814.000000	100.288298
1813.000000	100.288531
1812.000000	100.289014
1811.000000	100.288750
1810.000000	100.287318
1809.000000	100.285479
1808.000000	100.284416
1807.000000	100.284537
1806.000000	100.285240
1805.000000	100.285787
1804.000000	100.286240
1803.000000	100.287200
1802.000000	100.288642
1801.000000	100.289505
1800.000000	100.288941
1799.000000	100.287632
1798.000000	100.287136
1797.000000	100.288295
1796.000000	100.290870
1795.000000	100.294166
1794.000000	100.297227
1793.000000	100.298585
1792.000000	100.297443
1791.000000	100.295521
1790.000000	100.295460
1789.000000	100.297620
1788.000000	100.300301
1787.000000	100.302105
1786.000000	100.303067
1785.000000	100.304002
1784.000000	100.305442
1783.000000	100.307233
1782.000000	100.308574
1781.000000	100.308366
1780.000000	100.306496
1779.000000	100.304768
1778.000000	100.305302
1777.000000	100.308236
1776.000000	100.312027
1775.000000	100.315808
1774.000000	100.320255
1773.000000	100.325177
1772.000000	100.327585
1771.000000	100.325667
1770.000000	100.322460
1769.000000	100.322063
1768.000000	100.325389
1767.000000	100.330403
1766.000000	100.334973
1765.000000	100.339217
1764.000000	100.344756
1763.000000	100.352412
1762.000000	100.360432
1761.000000	100.365655
1760.000000	100.367033
1759.000000	100.366212
1758.000000	100.365118
1757.000000	100.364291
1756.000000	100.363021
1755.000000	100.360763
1754.000000	100.357683
1753.000000	100.353968
1752.000000	100.349972
1751.000000	100.347124
1750.000000	100.347032
1749.000000	100.348976
1748.000000	100.349979
1747.000000	100.348011
1746.000000	100.343819
1745.000000	100.339318
1744.000000	100.335503
1743.000000	100.332443
1742.000000	100.330248
1741.000000	100.328882
1740.000000	100.327268
1739.000000	100.324069
1738.000000	100.319980
1737.000000	100.317297
1736.000000	100.317511
1735.000000	100.320000
1734.000000	100.321268
1733.000000	100.319183
1732.000000	100.316471
1731.000000	100.315402
1730.000000	100.315208
1729.000000	100.314628
1728.000000	100.313160
1727.000000	100.311101
1726.000000	100.308936
1725.000000	100.307093
1724.000000	100.305957
1723.000000	100.305463
1722.000000	100.304807
1721.000000	100.303040
1720.000000	100.299900
1719.000000	100.295914
1718.000000	100.291954
1717.000000	100.288667
1716.000000	100.286146
1715.000000	100.284036
1714.000000	100.281872
1713.000000	100.279438
1712.000000	100.276827
1711.000000	100.274200
1710.000000	100.271546
1709.000000	100.268714
1708.000000	100.265652
1707.000000	100.262464
1706.000000	100.259244
1705.000000	100.255989
1704.000000	100.252778
1703.000000	100.249735
1702.000000	100.246809
1701.000000	100.243641
1700.000000	100.239969
1699.000000	100.236101
1698.000000	100.232495
1697.000000	100.229139
1696.000000	100.225854
1695.000000	100.222426
1694.000000	100.218775
1693.000000	100.215034
1692.000000	100.211289
1691.000000	100.207430
1690.000000	100.203237
1689.000000	100.198616
1688.000000	100.193817
1687.000000	100.189299
1686.000000	100.185403
1685.000000	100.181925
1684.000000	100.177976
1683.000000	100.173578
1682.000000	100.170174
1681.000000	100.168143
1680.000000	100.166121
1679.000000	100.162734
1678.000000	100.157816
1677.000000	100.152259
1676.000000	100.146756
1675.000000	100.141143
1674.000000	100.135609
1673.000000	100.131505
1672.000000	100.129665
1671.000000	100.129076
1670.000000	100.127205
1669.000000	100.122351
1668.000000	100.115979
1667.000000	100.110539
1666.000000	100.106630
1665.000000	100.103849
1664.000000	100.102080
1663.000000	100.100834
1662.000000	100.098638
1661.000000	100.094748
1660.000000	100.090121
1659.000000	100.085514
1658.000000	100.080333
1657.000000	100.072583
1656.000000	100.061102
1655.000000	100.047350
1654.000000	100.038134
1653.000000	100.039751
1652.000000	100.045618
1651.000000	100.048212
1650.000000	100.048041
1649.000000	100.046449
1648.000000	100.046518
1647.000000	100.049318
1646.000000	100.052113
1645.000000	100.053151
1644.000000	100.052970
1643.000000	100.052110
1642.000000	100.051048
1641.000000	100.050355
1640.000000	100.049386
1639.000000	100.047090
1638.000000	100.044280
1637.000000	100.044199
1636.000000	100.049046
1635.000000	100.055539
1634.000000	100.059713
1633.000000	100.062563
1632.000000	100.065845
1631.000000	100.069816
1630.000000	100.074257
1629.000000	100.078483
1628.000000	100.081734
1627.000000	100.083955
1626.000000	100.086375
1625.000000	100.090458
1624.000000	100.095829
1623.000000	100.099518
1622.000000	100.099669
1621.000000	100.098995
1620.000000	100.101697
1619.000000	100.109595
1618.000000	100.121265
1617.000000	100.131612
1616.000000	100.136229
1615.000000	100.136992
1614.000000	100.138354
1613.000000	100.141761
1612.000000	100.146430
1611.000000	100.151162
1610.000000	100.155330
1609.000000	100.159330
1608.000000	100.163783
1607.000000	100.168527
1606.000000	100.172900
1605.000000	100.176763
1604.000000	100.180663
1603.000000	100.185170
1602.000000	100.190473
1601.000000	100.196362
1600.000000	100.202081
1599.000000	100.206380
1598.000000	100.208473
1597.000000	100.209193
1596.000000	100.210524
1595.000000	100.213622
1594.000000	100.217741
1593.000000	100.221498
1592.000000	100.224675
1591.000000	100.228196
1590.000000	100.232710
1589.000000	100.237792
1588.000000	100.242588
1587.000000	100.246760
1586.000000	100.250587
1585.000000	100.254465
1584.000000	100.258545
1583.000000	100.262678
1582.000000	100.266348
1581.000000	100.268788
1580.000000	100.269406
1579.000000	100.268403
1578.000000	100.267002
1577.000000	100.266764
1576.000000	100.267766
1575.000000	100.268537
1574.000000	100.268838
1573.000000	100.269703
1572.000000	100.271676
1571.000000	100.274192
1570.000000	100.275415
1569.000000	100.274449
1568.000000	100.273003
1567.000000	100.272863
1566.000000	100.273931
1565.000000	100.275193
1564.000000	100.275861
1563.000000	100.275545
1562.000000	100.274813
1561.000000	100.274906
1560.000000	100.277660
1559.000000	100.281639
1558.000000	100.281852
1557.000000	100.279226
1556.000000	100.277815
1555.000000	100.278234
1554.000000	100.279813
1553.000000	100.281734
1552.000000	100.283739
1551.000000	100.285704
1550.000000	100.286698
1549.000000	100.285912
1548.000000	100.284093
1547.000000	100.282931
1546.000000	100.283014
1545.000000	100.283291
1544.000000	100.282596
1543.000000	100.281487
1542.000000	100.281704
1541.000000	100.284020
1540.000000	100.286280
1539.000000	100.285608
1538.000000	100.282598
1537.000000	100.279291
1536.000000	100.276433
1535.000000	100.274681
1534.000000	100.274137
1533.000000	100.273179
1532.000000	100.270670
1531.000000	100.267639
1530.000000	100.265347
1529.000000	100.264087
1528.000000	100.263535
1527.000000	100.263152
1526.000000	100.262387
1525.000000	100.260872
1524.000000	100.258866
1523.000000	100.257240
1522.000000	100.256458
1521.000000	100.255433
1520.000000	100.253187
1519.000000	100.250727
1518.000000	100.249611
1517.000000	100.250370
1516.000000	100.251877
1515.000000	100.252713
1514.000000	100.252792
1513.000000	100.252429
1512.000000	100.251339
1511.000000	100.248989
1510.000000	100.245961
1509.000000	100.244311
1508.000000	100.246667
1507.000000	100.253270
1506.000000	100.259066
1505.000000	100.260637
1504.000000	100.260253
1503.000000	100.259761
1502.000000	100.259477
1501.000000	100.259769
1500.000000	100.260820
1499.000000	100.262725
1498.000000	100.265259
1497.000000	100.267423
1496.000000	100.267857
1495.000000	100.266387
1494.000000	100.263918
1493.000000	100.261210
1492.000000	100.258723
1491.000000	100.256757
1490.000000	100.255296
1489.000000	100.254284
1488.000000	100.254028
1487.000000	100.254851
1486.000000	100.256515
1485.000000	100.258288
1484.000000	100.259624
1483.000000	100.260504
1482.000000	100.260961
1481.000000	100.260646
1480.000000	100.259296
1479.000000	100.257304
1478.000000	100.255413
1477.000000	100.254050
1476.000000	100.253184
1475.000000	100.252707
1474.000000	100.252616
1473.000000	100.252662
1472.000000	100.252458
1471.000000	100.252172
1470.000000	100.252143
1469.000000	100.252013
1468.000000	100.251203
1467.000000	100.249838
1466.000000	100.248769
1465.000000	100.248551
1464.000000	100.248535
1463.000000	100.247718
1462.000000	100.245720
1461.000000	100.242357
1460.000000	100.237695
1459.000000	100.232934
1458.000000	100.230913
1457.000000	100.233344
1456.000000	100.237060
1455.000000	100.238145
1454.000000	100.236208
1453.000000	100.232340
1452.000000	100.227663
1451.000000	100.223026
1450.000000	100.219349
1449.000000	100.217453
1448.000000	100.216664
1447.000000	100.214989
1446.000000	100.211565
1445.000000	100.207508
1444.000000	100.203901
1443.000000	100.200461
1442.000000	100.196612
1441.000000	100.193073
1440.000000	100.191502
1439.000000	100.192646
1438.000000	100.195137
1437.000000	100.195596
1436.000000	100.191753
1435.000000	100.185751
1434.000000	100.181142
1433.000000	100.179166
1432.000000	100.179098
1431.000000	100.179202
1430.000000	100.178395
1429.000000	100.177672
1428.000000	100.178597
1427.000000	100.180949
1426.000000	100.182866
1425.000000	100.182699
1424.000000	100.180349
1423.000000	100.177441
1422.000000	100.176376
1421.000000	100.179104
1420.000000	100.185685
1419.000000	100.192215
1418.000000	100.194008
1417.000000	100.192097
1416.000000	100.191336
1415.000000	100.194725
1414.000000	100.201407
1413.000000	100.207810
1412.000000	100.210951
1411.000000	100.210860
1410.000000	100.210095
1409.000000	100.211154
1408.000000	100.214770
1407.000000	100.220344
1406.000000	100.226988
1405.000000	100.233646
1404.000000	100.238820
1403.000000	100.241579
1402.000000	100.242786
1401.000000	100.244366
1400.000000	100.247378
1399.000000	100.251093
1398.000000	100.254646
1397.000000	100.258960
1396.000000	100.265628
1395.000000	100.274477
1394.000000	100.283398
1393.000000	100.290821
1392.000000	100.296729
1391.000000	100.301097
1390.000000	100.303586
1389.000000	100.304692
1388.000000	100.306074
1387.000000	100.309071
1386.000000	100.313253
1385.000000	100.317325
1384.000000	100.320647
1383.000000	100.323042
1382.000000	100.324118
1381.000000	100.323680
1380.000000	100.322579
1379.000000	100.322476
1378.000000	100.324451
1377.000000	100.328065
1376.000000	100.332058
1375.000000	100.335786
1374.000000	100.339684
1373.000000	100.344113
1372.000000	100.348181
1371.000000	100.350562
1370.000000	100.351206
1369.000000	100.351693
1368.000000	100.353528
1367.000000	100.356268
1366.000000	100.358075
1365.000000	100.357775
1364.000000	100.355959
1363.000000	100.354693
1362.000000	100.355950
1361.000000	100.359661
1360.000000	100.363597
1359.000000	100.365396
1358.000000	100.364574
1357.000000	100.362759
1356.000000	100.361916
1355.000000	100.362259
1354.000000	100.362483
1353.000000	100.361887
1352.000000	100.361316
1351.000000	100.361733
1350.000000	100.362632
1349.000000	100.362560
1348.000000	100.360977
1347.000000	100.359018
1346.000000	100.358289
1345.000000	100.359132
1344.000000	100.360281
1343.000000	100.360248
1342.000000	100.358995
1341.000000	100.358023
1340.000000	100.358560
1339.000000	100.359818
1338.000000	100.359908
1337.000000	100.358622
1336.000000	100.358028
1335.000000	100.359990
1334.000000	100.363915
1333.000000	100.367232
1332.000000	100.367780
1331.000000	100.365319
1330.000000	100.361326
1329.000000	100.358025
1328.000000	100.357315
1327.000000	100.359728
1326.000000	100.363804
1325.000000	100.366883
1324.000000	100.367156
1323.000000	100.364975
1322.000000	100.362238
1321.000000	100.360578
1320.000000	100.360134
1319.000000	100.359960
1318.000000	100.359502
1317.000000	100.359528
1316.000000	100.361295
1315.000000	100.364713
1314.000000	100.367708
1313.000000	100.367970
1312.000000	100.365225
1311.000000	100.361342
1310.000000	100.358441
1309.000000	100.357593
1308.000000	100.359109
1307.000000	100.362777
1306.000000	100.367233
1305.000000	100.370142
1304.000000	100.369984
1303.000000	100.367459
1302.000000	100.364680
1301.000000	100.363040
1300.000000	100.362337
1299.000000	100.361718
1298.000000	100.360611
1297.000000	100.358796
1296.000000	100.356404
1295.000000	100.354226
1294.000000	100.353641
1293.000000	100.355682
1292.000000	100.360026
1291.000000	100.364888
1290.000000	100.368048
1289.000000	100.368261
1288.000000	100.365956
1287.000000	100.362692
1286.000000	100.359913
1285.000000	100.358065
1284.000000	100.356505
1283.000000	100.354064
1282.000000	100.350229
1281.000000	100.346372
1280.000000	100.345271
1279.000000	100.348254
1278.000000	100.352810
1277.000000	100.354418
1276.000000	100.351366
1275.000000	100.346777
1274.000000	100.345093
1273.000000	100.347259
1272.000000	100.350312
1271.000000	100.351214
1270.000000	100.349976
1269.000000	100.348858
1268.000000	100.349327
1267.000000	100.350519
1266.000000	100.350701
1265.000000	100.349784
1264.000000	100.349491
1263.000000	100.350602
1262.000000	100.350952
1261.000000	100.347484
1260.000000	100.339786
1259.000000	100.330065
1258.000000	100.319985
1257.000000	100.309670
1256.000000	100.300105
1255.000000	100.293889
1254.000000	100.292112
1253.000000	100.292224
1252.000000	100.290629
1251.000000	100.286157
1250.000000	100.279624
1249.000000	100.271284
1248.000000	100.260519
1247.000000	100.247358
1246.000000	100.232799
1245.000000	100.218113
1244.000000	100.204997
1243.000000	100.195470
1242.000000	100.189986
1241.000000	100.186189
1240.000000	100.180921
1239.000000	100.173010
1238.000000	100.163179
1237.000000	100.152105
1236.000000	100.139979
1235.000000	100.127290
1234.000000	100.114429
1233.000000	100.100830
1232.000000	100.085815
1231.000000	100.069929
1230.000000	100.054109
1229.000000	100.037706
1228.000000	100.018580
1227.000000	99.995112
1226.000000	99.967243
1225.000000	99.935952
1224.000000	99.902830
1223.000000	99.869791
1222.000000	99.837857
1221.000000	99.805995
1220.000000	99.771773
1219.000000	99.733123
1218.000000	99.689447
1217.000000	99.641774
1216.000000	99.592058
1215.000000	99.541306
1214.000000	99.488116
1213.000000	99.430449
1212.000000	99.369139
1211.000000	99.307731
1210.000000	99.248111
1209.000000	99.188638
1208.000000	99.127794
1207.000000	99.067128
1206.000000	99.008944
1205.000000	98.953237
1204.000000	98.898583
1203.000000	98.843918
1202.000000	98.787936
1201.000000	98.729154
1200.000000	98.668502
1199.000000	98.609684
1198.000000	98.554715
1197.000000	98.500697
1196.000000	98.442750
1195.000000	98.378667
1194.000000	98.309683
1193.000000	98.238748
1192.000000	98.169286
1191.000000	98.103495
1190.000000	98.040449
1189.000000	97.977589
1188.000000	97.914553
1187.000000	97.852836
1186.000000	97.791251
1185.000000	97.725585
1184.000000	97.654125
1183.000000	97.579723
1182.000000	97.504632
1181.000000	97.427314
1180.000000	97.346870
1179.000000	97.266433
1178.000000	97.188635
1177.000000	97.111093
1176.000000	97.030093
1175.000000	96.945881
1174.000000	96.860728
1173.000000	96.774416
1172.000000	96.685643
1171.000000	96.596070
1170.000000	96.509192
1169.000000	96.426244
1168.000000	96.346094
1167.000000	96.268542
1166.000000	96.196551
1165.000000	96.137176
1164.000000	96.100994
1163.000000	96.096880
1162.000000	96.124311
1161.000000	96.171852
1160.000000	96.223629
1159.000000	96.265427
1158.000000	96.286337
1157.000000	96.280505
1156.000000	96.249417
1155.000000	96.199162
1154.000000	96.134098
1153.000000	96.056458
1152.000000	95.972399
1151.000000	95.892139
1150.000000	95.820360
1149.000000	95.751106
1148.000000	95.676164
1147.000000	95.594777
1146.000000	95.512149
1145.000000	95.432545
1144.000000	95.357485
1143.000000	95.286692
1142.000000	95.216466
1141.000000	95.140321
1140.000000	95.055408
1139.000000	94.966275
1138.000000	94.879536
1137.000000	94.797175
1136.000000	94.717102
1135.000000	94.636474
1134.000000	94.551845
1133.000000	94.460151
1132.000000	94.362978
1131.000000	94.266594
1130.000000	94.174726
1129.000000	94.084503
1128.000000	93.991899
1127.000000	93.896958
1126.000000	93.800757
1125.000000	93.701622
1124.000000	93.598169
1123.000000	93.492615
1122.000000	93.387486
1121.000000	93.281994
1120.000000	93.174874
1119.000000	93.068121
1118.000000	92.965418
1117.000000	92.869370
1116.000000	92.781500
1115.000000	92.701520
1114.000000	92.625765
1113.000000	92.550235
1112.000000	92.475272
1111.000000	92.402635
1110.000000	92.329105
1109.000000	92.249616
1108.000000	92.166386
1107.000000	92.087345
1106.000000	92.014582
1105.000000	91.941622
1104.000000	91.863318
1103.000000	91.781287
1102.000000	91.698579
1101.000000	91.616522
1100.000000	91.537890
1099.000000	91.465359
1098.000000	91.395561
1097.000000	91.322235
1096.000000	91.245752
1095.000000	91.171320
1094.000000	91.097963
1093.000000	91.019167
1092.000000	90.935071
1091.000000	90.853423
1090.000000	90.776909
1089.000000	90.700298
1088.000000	90.621973
1087.000000	90.547060
1086.000000	90.476600
1085.000000	90.405230
1084.000000	90.332990
1083.000000	90.267823
1082.000000	90.211944
1081.000000	90.156746
1080.000000	90.096382
1079.000000	90.036154
1078.000000	89.981958
1077.000000	89.930460
1076.000000	89.875112
1075.000000	89.813570
1074.000000	89.744269
1073.000000	89.663265
1072.000000	89.568572
1071.000000	89.461057
1070.000000	89.338788
1069.000000	89.198001
1068.000000	89.041591
1067.000000	88.878407
1066.000000	88.711864
1065.000000	88.537929
1064.000000	88.356534
1063.000000	88.175601
1062.000000	88.001472
1061.000000	87.834858
1060.000000	87.677956
1059.000000	87.534390
1058.000000	87.399264
1057.000000	87.260377
1056.000000	87.112600
1055.000000	86.961176
1054.000000	86.808795
1053.000000	86.650079
1052.000000	86.481253
1051.000000	86.303495
1050.000000	86.114078
1049.000000	85.907522
1048.000000	85.687829
1047.000000	85.465212
1046.000000	85.239733
1045.000000	85.003511
1044.000000	84.759513
1043.000000	84.521808
1042.000000	84.294714
1041.000000	84.067440
1040.000000	83.833785
1039.000000	83.602558
1038.000000	83.383750
1037.000000	83.178448
1036.000000	82.986889
1035.000000	82.812515
1034.000000	82.653854
1033.000000	82.505930
1032.000000	82.372621
1031.000000	82.263321
1030.000000	82.175114
1029.000000	82.093365
1028.000000	82.012463
1027.000000	81.940061
1026.000000	81.878230
1025.000000	81.817678
1024.000000	81.754609
1023.000000	81.696637
1022.000000	81.646905
1021.000000	81.597526
1020.000000	81.543497
1019.000000	81.489125
1018.000000	81.437001
1017.000000	81.384243
1016.000000	81.331947
1015.000000	81.284130
1014.000000	81.235675
1013.000000	81.176341
1012.000000	81.108416
1011.000000	81.045308
1010.000000	80.991599
1009.000000	80.940464
1008.000000	80.891883
1007.000000	80.856027
1006.000000	80.835739
1005.000000	80.822169
1004.000000	80.811016
1003.000000	80.807579
1002.000000	80.812988
1001.000000	80.820760
1000.000000	80.829471
999.000000	80.844081
998.000000	80.863316
997.000000	80.881092
996.000000	80.901262
995.000000	80.934685
994.000000	80.980305
993.000000	81.025233
992.000000	81.064780
991.000000	81.106268
990.000000	81.152808
989.000000	81.201306
988.000000	81.257512
987.000000	81.333769
986.000000	81.428774
985.000000	81.527553
984.000000	81.625271
983.000000	81.733679
982.000000	81.859960
981.000000	81.996862
980.000000	82.138739
979.000000	82.291099
978.000000	82.458527
977.000000	82.637552
976.000000	82.826231
975.000000	83.027613
974.000000	83.240091
973.000000	83.457235
972.000000	83.679975
971.000000	83.916281
970.000000	84.166729
969.000000	84.422527
968.000000	84.678482
967.000000	84.934944
966.000000	85.187101
965.000000	85.426912
964.000000	85.656700
963.000000	85.886725
962.000000	86.117920
961.000000	86.340865
960.000000	86.553093
959.000000	86.762628
958.000000	86.971777
957.000000	87.171838
956.000000	87.358055
955.000000	87.536874
954.000000	87.713755
953.000000	87.884781
952.000000	88.044512
951.000000	88.192340
950.000000	88.328191
949.000000	88.451491
948.000000	88.566321
947.000000	88.677856
946.000000	88.782434
945.000000	88.871546
944.000000	88.946635
943.000000	89.018863
942.000000	89.092835
941.000000	89.162315
940.000000	89.224047
939.000000	89.283485
938.000000	89.343978
937.000000	89.402402
936.000000	89.459327
935.000000	89.521711
934.000000	89.590919
933.000000	89.658866
932.000000	89.720571
931.000000	89.780563
930.000000	89.843261
929.000000	89.907522
928.000000	89.974436
927.000000	90.049017
926.000000	90.128486
925.000000	90.199132
924.000000	90.251552
923.000000	90.291493
922.000000	90.330598
921.000000	90.373573
920.000000	90.418588
919.000000	90.462474
918.000000	90.501002
917.000000	90.531225
916.000000	90.557906
915.000000	90.591464
914.000000	90.636429
913.000000	90.688442
912.000000	90.745235
911.000000	90.813458
910.000000	90.901832
909.000000	91.014369
908.000000	91.152255
907.000000	91.314802
906.000000	91.496109
905.000000	91.687595
904.000000	91.885635
903.000000	92.091082
902.000000	92.302106
901.000000	92.514816
900.000000	92.729802
899.000000	92.949395
898.000000	93.168584
897.000000	93.377273
896.000000	93.572047
895.000000	93.757919
894.000000	93.938356
893.000000	94.111361
892.000000	94.275822
891.000000	94.433995
890.000000	94.586674
889.000000	94.732843
888.000000	94.874888
887.000000	95.017438
886.000000	95.160067
885.000000	95.297108
884.000000	95.425144
883.000000	95.545279
882.000000	95.658971
881.000000	95.767934
880.000000	95.876881
879.000000	95.989004
878.000000	96.099881
877.000000	96.203773
876.000000	96.304756
875.000000	96.413176
874.000000	96.532054
873.000000	96.655871
872.000000	96.781604
871.000000	96.910940
870.000000	97.041734
869.000000	97.167297
868.000000	97.285721
867.000000	97.402296
866.000000	97.521825
865.000000	97.644860
864.000000	97.770545
863.000000	97.895256
862.000000	98.009178
861.000000	98.103436
860.000000	98.182019
859.000000	98.259200
858.000000	98.343712
857.000000	98.432490
856.000000	98.520385
855.000000	98.606478
854.000000	98.688181
853.000000	98.758629
852.000000	98.815304
851.000000	98.864639
850.000000	98.912849
849.000000	98.957163
848.000000	98.990921
847.000000	99.013066
846.000000	99.028012
845.000000	99.038896
844.000000	99.044684
843.000000	99.042180
842.000000	99.028674
841.000000	99.004213
840.000000	98.971743
839.000000	98.932806
838.000000	98.884217
837.000000	98.823181
836.000000	98.754557
835.000000	98.687165
834.000000	98.623281
833.000000	98.559386
832.000000	98.498568
831.000000	98.453216
830.000000	98.431077
829.000000	98.426322
828.000000	98.430162
827.000000	98.443562
826.000000	98.472333
825.000000	98.514813
824.000000	98.561744
823.000000	98.604607
822.000000	98.638460
821.000000	98.660483
820.000000	98.671037
819.000000	98.673514
818.000000	98.669434
817.000000	98.655405
816.000000	98.626381
815.000000	98.578940
814.000000	98.509218
813.000000	98.409763
812.000000	98.270193
811.000000	98.079720
810.000000	97.829704
809.000000	97.517974
808.000000	97.152486
807.000000	96.747640
806.000000	96.315455
805.000000	95.864008
804.000000	95.405571
803.000000	94.960403
802.000000	94.550035
801.000000	94.192623
800.000000	93.905794
799.000000	93.704421
798.000000	93.591352
797.000000	93.557152
796.000000	93.590008
795.000000	93.677557
794.000000	93.800173
793.000000	93.934694
792.000000	94.066938
791.000000	94.191331
790.000000	94.298591
789.000000	94.374545
788.000000	94.411233
787.000000	94.407815
786.000000	94.359699
785.000000	94.259497
784.000000	94.112934
783.000000	93.943230
782.000000	93.774842
781.000000	93.621976
780.000000	93.496217
779.000000	93.413256
778.000000	93.385198
777.000000	93.414853
776.000000	93.501336
775.000000	93.640548
774.000000	93.815553
773.000000	93.998066
772.000000	94.167347
771.000000	94.321634
770.000000	94.467796
769.000000	94.607468
768.000000	94.736487
767.000000	94.849478
766.000000	94.940545
765.000000	95.006326
764.000000	95.052072
763.000000	95.088716
762.000000	95.121846
761.000000	95.150666
760.000000	95.178863
759.000000	95.216443
758.000000	95.267238
757.000000	95.324318
756.000000	95.381892
755.000000	95.441874
754.000000	95.504180
753.000000	95.561677
752.000000	95.612225
751.000000	95.666524
750.000000	95.735163
749.000000	95.814465
748.000000	95.893553
747.000000	95.970276
746.000000	96.051644
745.000000	96.142027
744.000000	96.239299
743.000000	96.341633
742.000000	96.451872
741.000000	96.574600
740.000000	96.710952
739.000000	96.854622
738.000000	96.992454
737.000000	97.113772
736.000000	97.220863
735.000000	97.324884
734.000000	97.429242
733.000000	97.522687
732.000000	97.592183
731.000000	97.637851
730.000000	97.672034
729.000000	97.707820
728.000000	97.750784
727.000000	97.797808
726.000000	97.841185
725.000000	97.876790
724.000000	97.910853
723.000000	97.955876
722.000000	98.017683
721.000000	98.089124
720.000000	98.157748
719.000000	98.216631
718.000000	98.266826
717.000000	98.313298
716.000000	98.360681
715.000000	98.408867
714.000000	98.450701
713.000000	98.478349
712.000000	98.493249
711.000000	98.505000
710.000000	98.518652
709.000000	98.528419
708.000000	98.526109
707.000000	98.510050
706.000000	98.482652
705.000000	98.442837
704.000000	98.384572
703.000000	98.301052
702.000000	98.186715
701.000000	98.036823
700.000000	97.847732
699.000000	97.618050
698.000000	97.355355
697.000000	97.087643
696.000000	96.863355
695.000000	96.728664
694.000000	96.700007
693.000000	96.761605
692.000000	96.884681
691.000000	97.040371
690.000000	97.201272
689.000000	97.347424
688.000000	97.477274
687.000000	97.603039
686.000000	97.728444
685.000000	97.840778
684.000000	97.927863
683.000000	97.990574
682.000000	98.036439
681.000000	98.073946
680.000000	98.116532
679.000000	98.176501
678.000000	98.246668
677.000000	98.303619
676.000000	98.336871
675.000000	98.362113
674.000000	98.402290
673.000000	98.461763
672.000000	98.523390
671.000000	98.569076
670.000000	98.597466
669.000000	98.627215
668.000000	98.683140
667.000000	98.763087
666.000000	98.845651
665.000000	98.922093
664.000000	98.990432
663.000000	99.045612
662.000000	99.079968
661.000000	99.094821
660.000000	99.102759
659.000000	99.114337
658.000000	99.128346
657.000000	99.138487
656.000000	99.141235
655.000000	99.132764
654.000000	99.113980
653.000000	99.100944
652.000000	99.116830
651.000000	99.166406
650.000000	99.224357
