4000.000000	99.068659
3999.000000	99.066970
3998.000000	99.064294
3997.000000	99.061594
3996.000000	99.059832
3995.000000	99.059244
3994.000000	99.059117
3993.000000	99.058345
3992.000000	99.056361
3991.000000	99.053441
3990.000000	99.050495
3989.000000	99.048538
3988.000000	99.048103
3987.000000	99.048998
3986.000000	99.050451
3985.000000	99.051488
3984.000000	99.051448
3983.000000	99.050248
3982.000000	99.048330
3981.000000	99.046422
3980.000000	99.045100
3979.000000	99.044531
3978.000000	99.044586
3977.000000	99.045085
3976.000000	99.045833
3975.000000	99.046483
3974.000000	99.046542
3973.000000	99.045677
3972.000000	99.044004
3971.000000	99.042104
3970.000000	99.040730
3969.000000	99.040336
3968.000000	99.040819
3967.000000	99.041573
3966.000000	99.041877
3965.000000	99.041427
3964.000000	99.040523
3963.000000	99.039764
3962.000000	99.039486
3961.000000	99.039450
3960.000000	99.039091
3959.000000	99.038040
3958.000000	99.036429
3957.000000	99.034782
3956.000000	99.033688
3955.000000	99.033474
3954.000000	99.034138
3953.000000	99.035468
3952.000000	99.037069
3951.000000	99.038399
3950.000000	99.038989
3949.000000	99.038753
3948.000000	99.038052
3947.000000	99.037437
3946.000000	99.037356
3945.000000	99.038028
3944.000000	99.039272
3943.000000	99.040437
3942.000000	99.040809
3941.000000	99.040272
3940.000000	99.039344
3939.000000	99.038542
3938.000000	99.037822
3937.000000	99.036775
3936.000000	99.035254
3935.000000	99.033626
3934.000000	99.032478
3933.000000	99.032141
3932.000000	99.032556
3931.000000	99.033461
3930.000000	99.034534
3929.000000	99.035339
3928.000000	99.035423
3927.000000	99.034630
3926.000000	99.033335
3925.000000	99.032237
3924.000000	99.031884
3923.000000	99.032388
3922.000000	99.033395
3921.000000	99.034285
3920.000000	99.034566
3919.000000	99.034147
3918.000000	99.033218
3917.000000	99.031902
3916.000000	99.030244
3915.000000	99.028576
3914.000000	99.027498
3913.000000	99.027406
3912.000000	99.028177
3911.000000	99.029266
3910.000000	99.030081
3909.000000	99.030307
3908.000000	99.029986
3907.000000	99.029485
3906.000000	99.029304
3905.000000	99.029621
3904.000000	99.030037
3903.000000	99.030073
3902.000000	99.029832
3901.000000	99.029908
3900.000000	99.030613
3899.000000	99.031644
3898.000000	99.032496
3897.000000	99.032951
3896.000000	99.033029
3895.000000	99.032804
3894.000000	99.032395
3893.000000	99.032073
3892.000000	99.032039
3891.000000	99.032034
3890.000000	99.031578
3889.000000	99.030626
3888.000000	99.029853
3887.000000	99.030094
3886.000000	99.031312
3885.000000	99.032516
3884.000000	99.033051
3883.000000	99.033283
3882.000000	99.033861
3881.000000	99.034780
3880.000000	99.035372
3879.000000	99.035248
3878.000000	99.034775
3877.000000	99.034686
3876.000000	99.035530
3875.000000	99.037158
3874.000000	99.038664
3873.000000	99.039362
3872.000000	99.039719
3871.000000	99.040731
3870.000000	99.042119
3869.000000	99.042435
3868.000000	99.041169
3867.000000	99.039565
3866.000000	99.039272
3865.000000	99.040603
3864.000000	99.042446
3863.000000	99.043604
3862.000000	99.043619
3861.000000	99.042725
3860.000000	99.041804
3859.000000	99.042048
3858.000000	99.044068
3857.000000	99.047122
3856.000000	99.049802
3855.000000	99.051581
3854.000000	99.052175
3853.000000	99.051179
3852.000000	99.049387
3851.000000	99.047797
3850.000000	99.046285
3849.000000	99.044024
3848.000000	99.040505
3847.000000	99.036386
3846.000000	99.033188
3845.000000	99.032294
3844.000000	99.034058
3843.000000	99.037519
3842.000000	99.041023
3841.000000	99.043460
3840.000000	99.044600
3839.000000	99.044581
3838.000000	99.043626
3837.000000	99.042051
3836.000000	99.040313
3835.000000	99.038883
3834.000000	99.038143
3833.000000	99.038164
3832.000000	99.038430
3831.000000	99.038191
3830.000000	99.037179
3829.000000	99.035885
3828.000000	99.035136
3827.000000	99.035253
3826.000000	99.035713
3825.000000	99.035796
3824.000000	99.035450
3823.000000	99.035325
3822.000000	99.035775
3821.000000	99.036239
3820.000000	99.036164
3819.000000	99.035707
3818.000000	99.035321
3817.000000	99.035156
3816.000000	99.034964
3815.000000	99.034600
3814.000000	99.034195
3813.000000	99.033847
3812.000000	99.033538
3811.000000	99.033251
3810.000000	99.032983
3809.000000	99.032731
3808.000000	99.032498
3807.000000	99.032278
3806.000000	99.032057
3805.000000	99.031820
3804.000000	99.031560
3803.000000	99.031277
3802.000000	99.030971
3801.000000	99.030637
3800.000000	99.030278
3799.000000	99.029915
3798.000000	99.029575
3797.000000	99.029274
3796.000000	99.029013
3795.000000	99.028786
3794.000000	99.028589
3793.000000	99.028426
3792.000000	99.028298
3791.000000	99.028199
3790.000000	99.028136
3789.000000	99.028121
3788.000000	99.028166
3787.000000	99.028281
3786.000000	99.028502
3785.000000	99.028852
3784.000000	99.029195
3783.000000	99.029242
3782.000000	99.028857
3781.000000	99.028416
3780.000000	99.028583
3779.000000	99.029514
3778.000000	99.030493
3777.000000	99.030717
3776.000000	99.030088
3775.000000	99.028931
3774.000000	99.027363
3773.000000	99.025603
3772.000000	99.024702
3771.000000	99.025680
3770.000000	99.027830
3769.000000	99.029502
3768.000000	99.030655
3767.000000	99.033043
3766.000000	99.037433
3765.000000	99.041533
3764.000000	99.042075
3763.000000	99.038733
3762.000000	99.034586
3761.000000	99.032608
3760.000000	99.032662
3759.000000	99.032996
3758.000000	99.033239
3757.000000	99.034365
3756.000000	99.037234
3755.000000	99.042079
3754.000000	99.048384
3753.000000	99.054377
3752.000000	99.057967
3751.000000	99.059770
3750.000000	99.062496
3749.000000	99.065957
3748.000000	99.066797
3747.000000	99.063913
3746.000000	99.062510
3745.000000	99.066453
3744.000000	99.069765
3743.000000	99.067538
3742.000000	99.064006
3741.000000	99.064606
3740.000000	99.068510
3739.000000	99.070473
3738.000000	99.068192
3737.000000	99.064564
3736.000000	99.062767
3735.000000	99.062415
3734.000000	99.061812
3733.000000	99.060375
3732.000000	99.057675
3731.000000	99.053324
3730.000000	99.048415
3729.000000	99.045647
3728.000000	99.046990
3727.000000	99.050268
3726.000000	99.049917
3725.000000	99.042876
3724.000000	99.031596
3723.000000	99.021311
3722.000000	99.015338
3721.000000	99.012991
3720.000000	99.011022
3719.000000	99.007187
3718.000000	99.002130
3717.000000	98.997704
3716.000000	98.994703
3715.000000	98.992208
3714.000000	98.988628
3713.000000	98.983385
3712.000000	98.977605
3711.000000	98.972931
3710.000000	98.969391
3709.000000	98.965680
3708.000000	98.961325
3707.000000	98.956721
3706.000000	98.951793
3705.000000	98.945949
3704.000000	98.939430
3703.000000	98.933920
3702.000000	98.930916
3701.000000	98.929818
3700.000000	98.928803
3699.000000	98.927592
3698.000000	98.927851
3697.000000	98.930169
3696.000000	98.932796
3695.000000	98.934399
3694.000000	98.935847
3693.000000	98.938215
3692.000000	98.940254
3691.000000	98.939403
3690.000000	98.935272
3689.000000	98.930471
3688.000000	98.927453
3687.000000	98.925871
3686.000000	98.923852
3685.000000	98.919955
3684.000000	98.913507
3683.000000	98.904890
3682.000000	98.896655
3681.000000	98.892157
3680.000000	98.891785
3679.000000	98.892627
3678.000000	98.893720
3677.000000	98.899169
3676.000000	98.909357
3675.000000	98.915515
3674.000000	98.911188
3673.000000	98.898796
3672.000000	98.885454
3671.000000	98.876634
3670.000000	98.871321
3669.000000	98.865526
3668.000000	98.857944
3667.000000	98.849188
3666.000000	98.839714
3665.000000	98.829654
3664.000000	98.819277
3663.000000	98.809045
3662.000000	98.799325
3661.000000	98.790047
3660.000000	98.781173
3659.000000	98.773676
3658.000000	98.770021
3657.000000	98.771762
3656.000000	98.776224
3655.000000	98.778759
3654.000000	98.777433
3653.000000	98.773705
3652.000000	98.769750
3651.000000	98.765262
3650.000000	98.757518
3649.000000	98.746405
3648.000000	98.735248
3647.000000	98.725611
3646.000000	98.716074
3645.000000	98.705674
3644.000000	98.695503
3643.000000	98.686718
3642.000000	98.678340
3641.000000	98.668394
3640.000000	98.657356
3639.000000	98.648407
3638.000000	98.643995
3637.000000	98.643803
3636.000000	98.646315
3635.000000	98.650244
3634.000000	98.653552
3633.000000	98.653589
3632.000000	98.649480
3631.000000	98.644411
3630.000000	98.642221
3629.000000	98.639447
3628.000000	98.629787
3627.000000	98.614983
3626.000000	98.602234
3625.000000	98.596021
3624.000000	98.595789
3623.000000	98.598445
3622.000000	98.602264
3621.000000	98.607948
3620.000000	98.616207
3619.000000	98.625510
3618.000000	98.632844
3617.000000	98.636138
3616.000000	98.636146
3615.000000	98.636219
3614.000000	98.639173
3613.000000	98.644192
3612.000000	98.647689
3611.000000	98.647430
3610.000000	98.645084
3609.000000	98.644393
3608.000000	98.647534
3607.000000	98.653960
3606.000000	98.662144
3605.000000	98.671226
3604.000000	98.681210
3603.000000	98.692089
3602.000000	98.702911
3601.000000	98.711160
3600.000000	98.714076
3599.000000	98.711366
3598.000000	98.705742
3597.000000	98.700812
3596.000000	98.699099
3595.000000	98.701227
3594.000000	98.706118
3593.000000	98.712063
3592.000000	98.717466
3591.000000	98.721342
3590.000000	98.723866
3589.000000	98.726089
3588.000000	98.728463
3587.000000	98.730146
3586.000000	98.730266
3585.000000	98.729080
3584.000000	98.727666
3583.000000	98.726789
3582.000000	98.726391
3581.000000	98.726022
3580.000000	98.725588
3579.000000	98.725608
3578.000000	98.726570
3577.000000	98.728334
3576.000000	98.730467
3575.000000	98.732974
3574.000000	98.736146
3573.000000	98.739788
3572.000000	98.743030
3571.000000	98.745132
3570.000000	98.746291
3569.000000	98.747207
3568.000000	98.747785
3567.000000	98.747131
3566.000000	98.745171
3565.000000	98.743205
3564.000000	98.742554
3563.000000	98.743336
3562.000000	98.744550
3561.000000	98.744964
3560.000000	98.744102
3559.000000	98.742656
3558.000000	98.742002
3557.000000	98.743051
3556.000000	98.745535
3555.000000	98.748199
3554.000000	98.749804
3553.000000	98.750059
3552.000000	98.749599
3551.000000	98.749235
3550.000000	98.749251
3549.000000	98.749392
3548.000000	98.749256
3547.000000	98.748663
3546.000000	98.747786
3545.000000	98.746935
3544.000000	98.746204
3543.000000	98.745450
3542.000000	98.744659
3541.000000	98.744195
3540.000000	98.744539
3539.000000	98.745795
3538.000000	98.747420
3537.000000	98.748489
3536.000000	98.748365
3535.000000	98.747069
3534.000000	98.745207
3533.000000	98.743550
3532.000000	98.742577
3531.000000	98.742380
3530.000000	98.742843
3529.000000	98.743795
3528.000000	98.744962
3527.000000	98.745896
3526.000000	98.746180
3525.000000	98.745733
3524.000000	98.744871
3523.000000	98.743995
3522.000000	98.743239
3521.000000	98.742443
3520.000000	98.741468
3519.000000	98.740472
3518.000000	98.739946
3517.000000	98.740425
3516.000000	98.742039
3515.000000	98.744210
3514.000000	98.745852
3513.000000	98.746270
3512.000000	98.745799
3511.000000	98.745470
3510.000000	98.746078
3509.000000	98.747592
3508.000000	98.749372
3507.000000	98.750700
3506.000000	98.751094
3505.000000	98.750377
3504.000000	98.748788
3503.000000	98.746954
3502.000000	98.745504
3501.000000	98.744732
3500.000000	98.744673
3499.000000	98.745277
3498.000000	98.746264
3497.000000	98.746980
3496.000000	98.746791
3495.000000	98.745663
3494.000000	98.744112
3493.000000	98.742663
3492.000000	98.741515
3491.000000	98.740727
3490.000000	98.740406
3489.000000	98.740512
3488.000000	98.740703
3487.000000	98.740624
3486.000000	98.740307
3485.000000	98.740091
3484.000000	98.740211
3483.000000	98.740551
3482.000000	98.740767
3481.000000	98.740572
3480.000000	98.739898
3479.000000	98.738919
3478.000000	98.737955
3477.000000	98.737286
3476.000000	98.736991
3475.000000	98.736952
3474.000000	98.736973
3473.000000	98.736876
3472.000000	98.736561
3471.000000	98.736039
3470.000000	98.735446
3469.000000	98.734961
3468.000000	98.734647
3467.000000	98.734412
3466.000000	98.734122
3465.000000	98.733746
3464.000000	98.733354
3463.000000	98.733022
3462.000000	98.732769
3461.000000	98.732585
3460.000000	98.732442
3459.000000	98.732295
3458.000000	98.732091
3457.000000	98.731776
3456.000000	98.731321
3455.000000	98.730763
3454.000000	98.730232
3453.000000	98.729881
3452.000000	98.729778
3451.000000	98.729847
3450.000000	98.729966
3449.000000	98.730090
3448.000000	98.730157
3447.000000	98.729929
3446.000000	98.729189
3445.000000	98.728153
3444.000000	98.727408
3443.000000	98.727253
3442.000000	98.727310
3441.000000	98.726977
3440.000000	98.726177
3439.000000	98.725353
3438.000000	98.724873
3437.000000	98.724775
3436.000000	98.725027
3435.000000	98.725644
3434.000000	98.726442
3433.000000	98.727008
3432.000000	98.727055
3431.000000	98.726628
3430.000000	98.725827
3429.000000	98.724618
3428.000000	98.723089
3427.000000	98.721710
3426.000000	98.721029
3425.000000	98.721105
3424.000000	98.721381
3423.000000	98.721156
3422.000000	98.720151
3421.000000	98.718675
3420.000000	98.717340
3419.000000	98.716556
3418.000000	98.716252
3417.000000	98.716202
3416.000000	98.716583
3415.000000	98.717918
3414.000000	98.720327
3413.000000	98.723131
3412.000000	98.725537
3411.000000	98.727492
3410.000000	98.729437
3409.000000	98.731279
3408.000000	98.732103
3407.000000	98.731207
3406.000000	98.729083
3405.000000	98.727108
3404.000000	98.726238
3403.000000	98.726201
3402.000000	98.725958
3401.000000	98.724787
3400.000000	98.723025
3399.000000	98.721844
3398.000000	98.722220
3397.000000	98.724035
3396.000000	98.726137
3395.000000	98.727371
3394.000000	98.727595
3393.000000	98.727521
3392.000000	98.727764
3391.000000	98.728269
3390.000000	98.728669
3389.000000	98.728877
3388.000000	98.729094
3387.000000	98.729440
3386.000000	98.729860
3385.000000	98.730321
3384.000000	98.730871
3383.000000	98.731490
3382.000000	98.732065
3381.000000	98.732570
3380.000000	98.733137
3379.000000	98.733864
3378.000000	98.734632
3377.000000	98.735172
3376.000000	98.735317
3375.000000	98.735143
3374.000000	98.734884
3373.000000	98.734782
3372.000000	98.734956
3371.000000	98.735361
3370.000000	98.735849
3369.000000	98.736287
3368.000000	98.736656
3367.000000	98.737007
3366.000000	98.737363
3365.000000	98.737706
3364.000000	98.738019
3363.000000	98.738310
3362.000000	98.738600
3361.000000	98.738904
3360.000000	98.739228
3359.000000	98.739575
3358.000000	98.739952
3357.000000	98.740350
3356.000000	98.740751
3355.000000	98.741145
3354.000000	98.741528
3353.000000	98.741892
3352.000000	98.742225
3351.000000	98.742526
3350.000000	98.742809
3349.000000	98.743093
3348.000000	98.743385
3347.000000	98.743683
3346.000000	98.743978
3345.000000	98.744259
3344.000000	98.744522
3343.000000	98.744769
3342.000000	98.745007
3341.000000	98.745241
3340.000000	98.745475
3339.000000	98.745712
3338.000000	98.745957
3337.000000	98.746218
3336.000000	98.746498
3335.000000	98.746794
3334.000000	98.747097
3333.000000	98.747398
3332.000000	98.747689
3331.000000	98.747969
3330.000000	98.748248
3329.000000	98.748540
3328.000000	98.748854
3327.000000	98.749192
3326.000000	98.749542
3325.000000	98.749887
3324.000000	98.750204
3323.000000	98.750488
3322.000000	98.750738
3321.000000	98.750948
3320.000000	98.751112
3319.000000	98.751247
3318.000000	98.751402
3317.000000	98.751628
3316.000000	98.751942
3315.000000	98.752307
3314.000000	98.752650
3313.000000	98.752908
3312.000000	98.753068
3311.000000	98.753154
3310.000000	98.753213
3309.000000	98.753329
3308.000000	98.753624
3307.000000	98.754135
3306.000000	98.754676
3305.000000	98.754963
3304.000000	98.754925
3303.000000	98.754785
3302.000000	98.754779
3301.000000	98.754905
3300.000000	98.755071
3299.000000	98.755379
3298.000000	98.756019
3297.000000	98.756943
3296.000000	98.757838
3295.000000	98.758467
3294.000000	98.758914
3293.000000	98.759449
3292.000000	98.760169
3291.000000	98.760842
3290.000000	98.761160
3289.000000	98.761179
3288.000000	98.761355
3287.000000	98.762031
3286.000000	98.762944
3285.000000	98.763433
3284.000000	98.763157
3283.000000	98.762374
3282.000000	98.761547
3281.000000	98.760906
3280.000000	98.760546
3279.000000	98.760693
3278.000000	98.761515
3277.000000	98.762759
3276.000000	98.763875
3275.000000	98.764551
3274.000000	98.764927
3273.000000	98.765286
3272.000000	98.765782
3271.000000	98.766453
3270.000000	98.767240
3269.000000	98.767859
3268.000000	98.767883
3267.000000	98.767187
3266.000000	98.766257
3265.000000	98.765909
3264.000000	98.766576
3263.000000	98.767850
3262.000000	98.768705
3261.000000	98.768385
3260.000000	98.767059
3259.000000	98.765664
3258.000000	98.764959
3257.000000	98.764780
3256.000000	98.764418
3255.000000	98.763596
3254.000000	98.762857
3253.000000	98.762854
3252.000000	98.763495
3251.000000	98.763990
3250.000000	98.763788
3249.000000	98.763224
3248.000000	98.763114
3247.000000	98.763796
3246.000000	98.764775
3245.000000	98.765293
3244.000000	98.765148
3243.000000	98.764747
3242.000000	98.764494
3241.000000	98.764467
3240.000000	98.764699
3239.000000	98.765377
3238.000000	98.766483
3237.000000	98.767521
3236.000000	98.767983
3235.000000	98.767943
3234.000000	98.767928
3233.000000	98.768254
3232.000000	98.768777
3231.000000	98.769284
3230.000000	98.769844
3229.000000	98.770657
3228.000000	98.771741
3227.000000	98.772840
3226.000000	98.773572
3225.000000	98.773661
3224.000000	98.773161
3223.000000	98.772484
3222.000000	98.772105
3221.000000	98.772175
3220.000000	98.772497
3219.000000	98.772845
3218.000000	98.773211
3217.000000	98.773706
3216.000000	98.774356
3215.000000	98.775019
3214.000000	98.775478
3213.000000	98.775634
3212.000000	98.775649
3211.000000	98.775909
3210.000000	98.776691
3209.000000	98.777913
3208.000000	98.779196
3207.000000	98.780185
3206.000000	98.780812
3205.000000	98.781222
3204.000000	98.781614
3203.000000	98.782106
3202.000000	98.782693
3201.000000	98.783313
3200.000000	98.783938
3199.000000	98.784603
3198.000000	98.785331
3197.000000	98.786061
3196.000000	98.786685
3195.000000	98.787172
3194.000000	98.787587
3193.000000	98.788036
3192.000000	98.788569
3191.000000	98.789168
3190.000000	98.789787
3189.000000	98.790387
3188.000000	98.790955
3187.000000	98.791505
3186.000000	98.792058
3185.000000	98.792627
3184.000000	98.793208
3183.000000	98.793781
3182.000000	98.794323
3181.000000	98.794823
3180.000000	98.795295
3179.000000	98.795773
3178.000000	98.796284
3177.000000	98.796829
3176.000000	98.797384
3175.000000	98.797921
3174.000000	98.798432
3173.000000	98.798918
3172.000000	98.799386
3171.000000	98.799854
3170.000000	98.800357
3169.000000	98.800911
3168.000000	98.801490
3167.000000	98.802039
3166.000000	98.802538
3165.000000	98.803033
3164.000000	98.803584
3163.000000	98.804185
3162.000000	98.804753
3161.000000	98.805220
3160.000000	98.805631
3159.000000	98.806126
3158.000000	98.806820
3157.000000	98.807705
3156.000000	98.808623
3155.000000	98.809397
3154.000000	98.809989
3153.000000	98.810508
3152.000000	98.811093
3151.000000	98.811767
3150.000000	98.812443
3149.000000	98.813041
3148.000000	98.813526
3147.000000	98.813846
3146.000000	98.813954
3145.000000	98.813911
3144.000000	98.813934
3143.000000	98.814263
3142.000000	98.815004
3141.000000	98.816053
3140.000000	98.817145
3139.000000	98.818042
3138.000000	98.818703
3137.000000	98.819335
3136.000000	98.820188
3135.000000	98.821279
3134.000000	98.822354
3133.000000	98.823126
3132.000000	98.823489
3131.000000	98.823564
3130.000000	98.823638
3129.000000	98.824074
3128.000000	98.825112
3127.000000	98.826613
3126.000000	98.828099
3125.000000	98.829225
3124.000000	98.830124
3123.000000	98.831117
3122.000000	98.832145
3121.000000	98.832740
3120.000000	98.832619
3119.000000	98.832087
3118.000000	98.831773
3117.000000	98.832086
3116.000000	98.832936
3115.000000	98.833734
3114.000000	98.833706
3113.000000	98.832608
3112.000000	98.831321
3111.000000	98.831275
3110.000000	98.833018
3109.000000	98.835643
3108.000000	98.837736
3107.000000	98.838853
3106.000000	98.839620
3105.000000	98.840758
3104.000000	98.842571
3103.000000	98.845210
3102.000000	98.848687
3101.000000	98.852407
3100.000000	98.855233
3099.000000	98.856400
3098.000000	98.855980
3097.000000	98.854378
3096.000000	98.851990
3095.000000	98.849511
3094.000000	98.847978
3093.000000	98.848048
3092.000000	98.849380
3091.000000	98.850970
3090.000000	98.852022
3089.000000	98.852379
3088.000000	98.852315
3087.000000	98.852221
3086.000000	98.852440
3085.000000	98.853112
3084.000000	98.854117
3083.000000	98.855217
3082.000000	98.856228
3081.000000	98.857026
3080.000000	98.857513
3079.000000	98.857707
3078.000000	98.857832
3077.000000	98.858216
3076.000000	98.859070
3075.000000	98.860363
3074.000000	98.861858
3073.000000	98.863272
3072.000000	98.864462
3071.000000	98.865418
3070.000000	98.866101
3069.000000	98.866428
3068.000000	98.866478
3067.000000	98.866591
3066.000000	98.867045
3065.000000	98.867740
3064.000000	98.868357
3063.000000	98.868780
3062.000000	98.869183
3061.000000	98.869741
3060.000000	98.870414
3059.000000	98.871042
3058.000000	98.871524
3057.000000	98.871900
3056.000000	98.872257
3055.000000	98.872651
3054.000000	98.873086
3053.000000	98.873543
3052.000000	98.874001
3051.000000	98.874451
3050.000000	98.874897
3049.000000	98.875344
3048.000000	98.875781
3047.000000	98.876176
3046.000000	98.876503
3045.000000	98.876790
3044.000000	98.877136
3043.000000	98.877625
3042.000000	98.878146
3041.000000	98.878434
3040.000000	98.878376
3039.000000	98.878201
3038.000000	98.878284
3037.000000	98.878816
3036.000000	98.879596
3035.000000	98.880151
3034.000000	98.880261
3033.000000	98.880261
3032.000000	98.880551
3031.000000	98.880929
3030.000000	98.880918
3029.000000	98.880738
3028.000000	98.881230
3027.000000	98.882581
3026.000000	98.883728
3025.000000	98.883556
3024.000000	98.882345
3023.000000	98.881405
3022.000000	98.881395
3021.000000	98.881786
3020.000000	98.882160
3019.000000	98.883176
3018.000000	98.885569
3017.000000	98.888768
3016.000000	98.891394
3015.000000	98.892780
3014.000000	98.893091
3013.000000	98.892250
3012.000000	98.889995
3011.000000	98.887178
3010.000000	98.885735
3009.000000	98.886682
3008.000000	98.888957
3007.000000	98.890791
3006.000000	98.891502
3005.000000	98.891297
3004.000000	98.890151
3003.000000	98.888077
3002.000000	98.886222
3001.000000	98.886507
3000.000000	98.889933
2999.000000	98.895835
2998.000000	98.902511
2997.000000	98.908069
2996.000000	98.911110
2995.000000	98.911746
2994.000000	98.912097
2993.000000	98.914682
2992.000000	98.919818
2991.000000	98.925281
2990.000000	98.928956
2989.000000	98.931242
2988.000000	98.934536
2987.000000	98.941059
2986.000000	98.951500
2985.000000	98.964710
2984.000000	98.977781
2983.000000	98.987183
2982.000000	98.991195
2981.000000	98.991357
2980.000000	98.990879
2979.000000	98.991488
2978.000000	98.992531
2977.000000	98.992985
2976.000000	98.993008
2975.000000	98.993011
2974.000000	98.992270
2973.000000	98.989369
2972.000000	98.983639
2971.000000	98.975540
2970.000000	98.966097
2969.000000	98.956655
2968.000000	98.948873
2967.000000	98.943926
2966.000000	98.941429
2965.000000	98.939583
2964.000000	98.936404
2963.000000	98.930695
2962.000000	98.922442
2961.000000	98.913260
2960.000000	98.906226
2959.000000	98.903911
2958.000000	98.905895
2957.000000	98.908825
2956.000000	98.909459
2955.000000	98.907237
2954.000000	98.903508
2953.000000	98.899237
2952.000000	98.894602
2951.000000	98.890348
2950.000000	98.888118
2949.000000	98.888977
2948.000000	98.892290
2947.000000	98.896352
2946.000000	98.899737
2945.000000	98.901878
2944.000000	98.902771
2943.000000	98.902456
2942.000000	98.900742
2941.000000	98.897517
2940.000000	98.893526
2939.000000	98.890537
2938.000000	98.890048
2937.000000	98.891743
2936.000000	98.893689
2935.000000	98.894231
2934.000000	98.893349
2933.000000	98.892044
2932.000000	98.891070
2931.000000	98.890743
2930.000000	98.891562
2929.000000	98.894160
2928.000000	98.898236
2927.000000	98.901947
2926.000000	98.903091
2925.000000	98.901248
2924.000000	98.898455
2923.000000	98.897330
2922.000000	98.898489
2921.000000	98.900352
2920.000000	98.901333
2919.000000	98.901616
2918.000000	98.902400
2917.000000	98.904140
2916.000000	98.906247
2915.000000	98.908067
2914.000000	98.909375
2913.000000	98.910089
2912.000000	98.910363
2911.000000	98.910975
2910.000000	98.912816
2909.000000	98.915746
2908.000000	98.918517
2907.000000	98.920204
2906.000000	98.921284
2905.000000	98.922927
2904.000000	98.925547
2903.000000	98.928418
2902.000000	98.930553
2901.000000	98.931588
2900.000000	98.931923
2899.000000	98.932335
2898.000000	98.933487
2897.000000	98.935591
2896.000000	98.938478
2895.000000	98.941887
2894.000000	98.945392
2893.000000	98.948088
2892.000000	98.948933
2891.000000	98.947866
2890.000000	98.946281
2889.000000	98.945853
2888.000000	98.946994
2887.000000	98.948751
2886.000000	98.949923
2885.000000	98.949953
2884.000000	98.949111
2883.000000	98.948407
2882.000000	98.949050
2881.000000	98.951254
2880.000000	98.953563
2879.000000	98.953966
2878.000000	98.951836
2877.000000	98.948494
2876.000000	98.945999
2875.000000	98.945537
2874.000000	98.947042
2873.000000	98.949755
2872.000000	98.952720
2871.000000	98.955012
2870.000000	98.955932
2869.000000	98.955247
2868.000000	98.953342
2867.000000	98.951064
2866.000000	98.949114
2865.000000	98.947415
2864.000000	98.945328
2863.000000	98.942646
2862.000000	98.940094
2861.000000	98.938548
2860.000000	98.938076
2859.000000	98.938166
2858.000000	98.938568
2857.000000	98.939308
2856.000000	98.940022
2855.000000	98.940021
2854.000000	98.939108
2853.000000	98.937772
2852.000000	98.936507
2851.000000	98.935564
2850.000000	98.935519
2849.000000	98.937307
2848.000000	98.941084
2847.000000	98.945468
2846.000000	98.948452
2845.000000	98.949124
2844.000000	98.948194
2843.000000	98.947114
2842.000000	98.946999
2841.000000	98.948160
2840.000000	98.950203
2839.000000	98.952317
2838.000000	98.953756
2837.000000	98.954289
2836.000000	98.954179
2835.000000	98.953791
2834.000000	98.953380
2833.000000	98.953219
2832.000000	98.953615
2831.000000	98.954541
2830.000000	98.955422
2829.000000	98.955579
2828.000000	98.954891
2827.000000	98.953893
2826.000000	98.953297
2825.000000	98.953485
2824.000000	98.954434
2823.000000	98.955869
2822.000000	98.957351
2821.000000	98.958448
2820.000000	98.959038
2819.000000	98.959403
2818.000000	98.959955
2817.000000	98.960835
2816.000000	98.961873
2815.000000	98.962835
2814.000000	98.963611
2813.000000	98.964208
2812.000000	98.964670
2811.000000	98.965071
2810.000000	98.965516
2809.000000	98.966059
2808.000000	98.966662
2807.000000	98.967239
2806.000000	98.967732
2805.000000	98.968146
2804.000000	98.968549
2803.000000	98.969027
2802.000000	98.969608
2801.000000	98.970234
2800.000000	98.970815
2799.000000	98.971306
2798.000000	98.971738
2797.000000	98.972167
2796.000000	98.972597
2795.000000	98.972993
2794.000000	98.973352
2793.000000	98.973737
2792.000000	98.974224
2791.000000	98.974825
2790.000000	98.975479
2789.000000	98.976112
2788.000000	98.976684
2787.000000	98.977153
2786.000000	98.977457
2785.000000	98.977628
2784.000000	98.977839
2783.000000	98.978251
2782.000000	98.978843
2781.000000	98.979476
2780.000000	98.980122
2779.000000	98.980885
2778.000000	98.981769
2777.000000	98.982562
2776.000000	98.983077
2775.000000	98.983358
2774.000000	98.983599
2773.000000	98.983915
2772.000000	98.984267
2771.000000	98.984601
2770.000000	98.984918
2769.000000	98.985246
2768.000000	98.985635
2767.000000	98.986169
2766.000000	98.986880
2765.000000	98.987628
2764.000000	98.988177
2763.000000	98.988445
2762.000000	98.988579
2761.000000	98.988741
2760.000000	98.988903
2759.000000	98.988978
2758.000000	98.988996
2757.000000	98.989091
2756.000000	98.989355
2755.000000	98.989773
2754.000000	98.990254
2753.000000	98.990675
2752.000000	98.990951
2751.000000	98.991084
2750.000000	98.991141
2749.000000	98.991200
2748.000000	98.991302
2747.000000	98.991463
2746.000000	98.991694
2745.000000	98.991969
2744.000000	98.992224
2743.000000	98.992408
2742.000000	98.992539
2741.000000	98.992665
2740.000000	98.992808
2739.000000	98.992952
2738.000000	98.993076
2737.000000	98.993176
2736.000000	98.993264
2735.000000	98.993356
2734.000000	98.993454
2733.000000	98.993548
2732.000000	98.993634
2731.000000	98.993717
2730.000000	98.993802
2729.000000	98.993878
2728.000000	98.993933
2727.000000	98.993965
2726.000000	98.993992
2725.000000	98.994036
2724.000000	98.994108
2723.000000	98.994200
2722.000000	98.994299
2721.000000	98.994399
2720.000000	98.994501
2719.000000	98.994603
2718.000000	98.994706
2717.000000	98.994808
2716.000000	98.994907
2715.000000	98.994998
2714.000000	98.995076
2713.000000	98.995139
2712.000000	98.995191
2711.000000	98.995240
2710.000000	98.995296
2709.000000	98.995365
2708.000000	98.995445
2707.000000	98.995532
2706.000000	98.995626
2705.000000	98.995726
2704.000000	98.995830
2703.000000	98.995926
2702.000000	98.996008
2701.000000	98.996077
2700.000000	98.996143
2699.000000	98.996216
2698.000000	98.996302
2697.000000	98.996395
2696.000000	98.996492
2695.000000	98.996594
2694.000000	98.996702
2693.000000	98.996817
2692.000000	98.996937
2691.000000	98.997058
2690.000000	98.997183
2689.000000	98.997313
2688.000000	98.997449
2687.000000	98.997592
2686.000000	98.997740
2685.000000	98.997890
2684.000000	98.998034
2683.000000	98.998162
2682.000000	98.998270
2681.000000	98.998363
2680.000000	98.998452
2679.000000	98.998546
2678.000000	98.998648
2677.000000	98.998756
2676.000000	98.998863
2675.000000	98.998964
2674.000000	98.999059
2673.000000	98.999150
2672.000000	98.999243
2671.000000	98.999339
2670.000000	98.999439
2669.000000	98.999539
2668.000000	98.999635
2667.000000	98.999725
2666.000000	98.999810
2665.000000	98.999895
2664.000000	98.999977
2663.000000	99.000052
2662.000000	99.000117
2661.000000	99.000177
2660.000000	99.000239
2659.000000	99.000304
2658.000000	99.000363
2657.000000	99.000405
2656.000000	99.000425
2655.000000	99.000424
2654.000000	99.000411
2653.000000	99.000388
2652.000000	99.000353
2651.000000	99.000300
2650.000000	99.000226
2649.000000	99.000135
2648.000000	99.000028
2647.000000	98.999903
2646.000000	98.999755
2645.000000	98.999576
2644.000000	98.999367
2643.000000	98.999139
2642.000000	98.998914
2641.000000	98.998709
2640.000000	98.998528
2639.000000	98.998363
2638.000000	98.998198
2637.000000	98.998021
2636.000000	98.997832
2635.000000	98.997635
2634.000000	98.997438
2633.000000	98.997261
2632.000000	98.997122
2631.000000	98.997015
2630.000000	98.996936
2629.000000	98.996885
2628.000000	98.996839
2627.000000	98.996765
2626.000000	98.996672
2625.000000	98.996593
2624.000000	98.996479
2623.000000	98.996187
2622.000000	98.995665
2621.000000	98.995049
2620.000000	98.994524
2619.000000	98.994139
2618.000000	98.993844
2617.000000	98.993629
2616.000000	98.993499
2615.000000	98.993359
2614.000000	98.993076
2613.000000	98.992665
2612.000000	98.992289
2611.000000	98.992076
2610.000000	98.992039
2609.000000	98.992150
2608.000000	98.992348
2607.000000	98.992492
2606.000000	98.992439
2605.000000	98.992171
2604.000000	98.991782
2603.000000	98.991416
2602.000000	98.991295
2601.000000	98.991650
2600.000000	98.992448
2599.000000	98.993282
2598.000000	98.993676
2597.000000	98.993588
2596.000000	98.993382
2595.000000	98.993376
2594.000000	98.993575
2593.000000	98.993827
2592.000000	98.994030
2591.000000	98.994094
2590.000000	98.993897
2589.000000	98.993414
2588.000000	98.992833
2587.000000	98.992445
2586.000000	98.992379
2585.000000	98.992517
2584.000000	98.992644
2583.000000	98.992652
2582.000000	98.992598
2581.000000	98.992589
2580.000000	98.992672
2579.000000	98.992825
2578.000000	98.993010
2577.000000	98.993194
2576.000000	98.993350
2575.000000	98.993449
2574.000000	98.993478
2573.000000	98.993448
2572.000000	98.993387
2571.000000	98.993327
2570.000000	98.993286
2569.000000	98.993260
2568.000000	98.993241
2567.000000	98.993218
2566.000000	98.993186
2565.000000	98.993139
2564.000000	98.993081
2563.000000	98.993019
2562.000000	98.992966
2561.000000	98.992927
2560.000000	98.992898
2559.000000	98.992867
2558.000000	98.992830
2557.000000	98.992789
2556.000000	98.992748
2555.000000	98.992705
2554.000000	98.992665
2553.000000	98.992645
2552.000000	98.992650
2551.000000	98.992654
2550.000000	98.992622
2549.000000	98.992546
2548.000000	98.992457
2547.000000	98.992398
2546.000000	98.992394
2545.000000	98.992456
2544.000000	98.992578
2543.000000	98.992706
2542.000000	98.992764
2541.000000	98.992730
2540.000000	98.992683
2539.000000	98.992724
2538.000000	98.992838
2537.000000	98.992884
2536.000000	98.992707
2535.000000	98.992259
2534.000000	98.991667
2533.000000	98.991199
2532.000000	98.991101
2531.000000	98.991461
2530.000000	98.992137
2529.000000	98.992844
2528.000000	98.993391
2527.000000	98.993821
2526.000000	98.994316
2525.000000	98.994901
2524.000000	98.995278
2523.000000	98.995135
2522.000000	98.994595
2521.000000	98.994193
2520.000000	98.994265
2519.000000	98.994559
2518.000000	98.994591
2517.000000	98.994263
2516.000000	98.993939
2515.000000	98.993967
2514.000000	98.994328
2513.000000	98.994783
2512.000000	98.995147
2511.000000	98.995364
2510.000000	98.995447
2509.000000	98.995500
2508.000000	98.995714
2507.000000	98.996203
2506.000000	98.996831
2505.000000	98.997272
2504.000000	98.997285
2503.000000	98.996948
2502.000000	98.996652
2501.000000	98.996811
2500.000000	98.997469
2499.000000	98.998166
2498.000000	98.998299
2497.000000	98.997713
2496.000000	98.996895
2495.000000	98.996526
2494.000000	98.996851
2493.000000	98.997576
2492.000000	98.998269
2491.000000	98.998807
2490.000000	98.999330
2489.000000	98.999922
2488.000000	99.000521
2487.000000	99.001126
2486.000000	99.001895
2485.000000	99.002924
2484.000000	99.004087
2483.000000	99.005227
2482.000000	99.006411
2481.000000	99.007748
2480.000000	99.008977
2479.000000	99.009538
2478.000000	99.009176
2477.000000	99.008334
2476.000000	99.007832
2475.000000	99.008105
2474.000000	99.008968
2473.000000	99.010006
2472.000000	99.011002
2471.000000	99.011990
2470.000000	99.013017
2469.000000	99.013985
2468.000000	99.014715
2467.000000	99.015138
2466.000000	99.015414
2465.000000	99.015867
2464.000000	99.016716
2463.000000	99.017836
2462.000000	99.018803
2461.000000	99.019268
2460.000000	99.019289
2459.000000	99.019246
2458.000000	99.019434
2457.000000	99.019770
2456.000000	99.019983
2455.000000	99.019999
2454.000000	99.020060
2453.000000	99.020414
2452.000000	99.021052
2451.000000	99.021777
2450.000000	99.022452
2449.000000	99.023073
2448.000000	99.023658
2447.000000	99.024183
2446.000000	99.024626
2445.000000	99.024987
2444.000000	99.025231
2443.000000	99.025309
2442.000000	99.025260
2441.000000	99.025268
2440.000000	99.025510
2439.000000	99.025984
2438.000000	99.026500
2437.000000	99.026852
2436.000000	99.026983
2435.000000	99.027014
2434.000000	99.027165
2433.000000	99.027578
2432.000000	99.028201
2431.000000	99.028792
2430.000000	99.029106
2429.000000	99.029064
2428.000000	99.028796
2427.000000	99.028551
2426.000000	99.028537
2425.000000	99.028814
2424.000000	99.029304
2423.000000	99.029890
2422.000000	99.030508
2421.000000	99.031135
2420.000000	99.031695
2419.000000	99.032055
2418.000000	99.032157
2417.000000	99.032149
2416.000000	99.032339
2415.000000	99.032963
2414.000000	99.034008
2413.000000	99.035209
2412.000000	99.036245
2411.000000	99.036935
2410.000000	99.037257
2409.000000	99.037269
2408.000000	99.037084
2407.000000	99.036902
2406.000000	99.036952
2405.000000	99.037326
2404.000000	99.037944
2403.000000	99.038691
2402.000000	99.039519
2401.000000	99.040359
2400.000000	99.041081
2399.000000	99.041687
2398.000000	99.042421
2397.000000	99.043527
2396.000000	99.044910
2395.000000	99.046167
2394.000000	99.046906
2393.000000	99.046989
2392.000000	99.046558
2391.000000	99.045991
2390.000000	99.045728
2389.000000	99.045916
2388.000000	99.046332
2387.000000	99.046720
2386.000000	99.047141
2385.000000	99.047804
2384.000000	99.048647
2383.000000	99.049355
2382.000000	99.049755
2381.000000	99.049974
2380.000000	99.050180
2379.000000	99.050346
2378.000000	99.050378
2377.000000	99.050323
2376.000000	99.050354
2375.000000	99.050571
2374.000000	99.050912
2373.000000	99.051254
2372.000000	99.051518
2371.000000	99.051703
2370.000000	99.051851
2369.000000	99.051994
2368.000000	99.052142
2367.000000	99.052285
2366.000000	99.052412
2365.000000	99.052517
2364.000000	99.052599
2363.000000	99.052666
2362.000000	99.052723
2361.000000	99.052772
2360.000000	99.052812
2359.000000	99.052835
2358.000000	99.052836
2357.000000	99.052821
2356.000000	99.052794
2355.000000	99.052756
2354.000000	99.052706
2353.000000	99.052641
2352.000000	99.052560
2351.000000	99.052466
2350.000000	99.052359
2349.000000	99.052241
2348.000000	99.052110
2347.000000	99.051963
2346.000000	99.051798
2345.000000	99.051614
2344.000000	99.051419
2343.000000	99.051221
2342.000000	99.051022
2341.000000	99.050823
2340.000000	99.050618
2339.000000	99.050403
2338.000000	99.050172
2337.000000	99.049923
2336.000000	99.049656
2335.000000	99.049378
2334.000000	99.049092
2333.000000	99.048804
2332.000000	99.048515
2331.000000	99.048226
2330.000000	99.047933
2329.000000	99.047638
2328.000000	99.047339
2327.000000	99.047041
2326.000000	99.046748
2325.000000	99.046460
2324.000000	99.046179
2323.000000	99.045905
2322.000000	99.045640
2321.000000	99.045388
2320.000000	99.045148
2319.000000	99.044891
2318.000000	99.044588
2317.000000	99.044268
2316.000000	99.044008
2315.000000	99.043840
2314.000000	99.043676
2313.000000	99.043406
2312.000000	99.043023
2311.000000	99.042613
2310.000000	99.042211
2309.000000	99.041782
2308.000000	99.041308
2307.000000	99.040818
2306.000000	99.040376
2305.000000	99.040116
2304.000000	99.040208
2303.000000	99.040647
2302.000000	99.041117
2301.000000	99.041241
2300.000000	99.040944
2299.000000	99.040459
2298.000000	99.040036
2297.000000	99.039758
2296.000000	99.039642
2295.000000	99.039676
2294.000000	99.039711
2293.000000	99.039550
2292.000000	99.039272
2291.000000	99.039259
2290.000000	99.039699
2289.000000	99.040234
2288.000000	99.040376
2287.000000	99.040162
2286.000000	99.040134
2285.000000	99.040614
2284.000000	99.041279
2283.000000	99.041568
2282.000000	99.041285
2281.000000	99.040617
2280.000000	99.039698
2279.000000	99.038464
2278.000000	99.036958
2277.000000	99.035504
2276.000000	99.034478
2275.000000	99.033990
2274.000000	99.033897
2273.000000	99.034012
2272.000000	99.034197
2271.000000	99.034346
2270.000000	99.034360
2269.000000	99.034188
2268.000000	99.033852
2267.000000	99.033395
2266.000000	99.032877
2265.000000	99.032418
2264.000000	99.032201
2263.000000	99.032343
2262.000000	99.032734
2261.000000	99.033039
2260.000000	99.032977
2259.000000	99.032560
2258.000000	99.031979
2257.000000	99.031301
2256.000000	99.030432
2255.000000	99.029447
2254.000000	99.028711
2253.000000	99.028484
2252.000000	99.028597
2251.000000	99.028612
2250.000000	99.028326
2249.000000	99.027933
2248.000000	99.027679
2247.000000	99.027566
2246.000000	99.027458
2245.000000	99.027296
2244.000000	99.027096
2243.000000	99.026830
2242.000000	99.026460
2241.000000	99.026048
2240.000000	99.025745
2239.000000	99.025645
2238.000000	99.025701
2237.000000	99.025780
2236.000000	99.025772
2235.000000	99.025644
2234.000000	99.025411
2233.000000	99.025130
2232.000000	99.024889
2231.000000	99.024737
2230.000000	99.024607
2229.000000	99.024352
2228.000000	99.023924
2227.000000	99.023480
2226.000000	99.023250
2225.000000	99.023241
2224.000000	99.023151
2223.000000	99.022687
2222.000000	99.021965
2221.000000	99.021469
2220.000000	99.021531
2219.000000	99.022040
2218.000000	99.022653
2217.000000	99.023150
2216.000000	99.023438
2215.000000	99.023387
2214.000000	99.022920
2213.000000	99.022232
2212.000000	99.021713
2211.000000	99.021610
2210.000000	99.021903
2209.000000	99.022465
2208.000000	99.023224
2207.000000	99.024142
2206.000000	99.025141
2205.000000	99.026058
2204.000000	99.026624
2203.000000	99.026669
2202.000000	99.026375
2201.000000	99.026189
2200.000000	99.026241
2199.000000	99.026097
2198.000000	99.025377
2197.000000	99.024398
2196.000000	99.023891
2195.000000	99.024083
2194.000000	99.024495
2193.000000	99.024592
2192.000000	99.024366
2191.000000	99.024138
2190.000000	99.024117
2189.000000	99.024351
2188.000000	99.024917
2187.000000	99.025885
2186.000000	99.027116
2185.000000	99.028261
2184.000000	99.028981
2183.000000	99.029163
2182.000000	99.028952
2181.000000	99.028654
2180.000000	99.028543
2179.000000	99.028686
2178.000000	99.028943
2177.000000	99.029127
2176.000000	99.029156
2175.000000	99.029089
2174.000000	99.029063
2173.000000	99.029194
2172.000000	99.029490
2171.000000	99.029869
2170.000000	99.030243
2169.000000	99.030570
2168.000000	99.030822
2167.000000	99.030946
2166.000000	99.030893
2165.000000	99.030691
2164.000000	99.030486
2163.000000	99.030508
2162.000000	99.030894
2161.000000	99.031567
2160.000000	99.032269
2159.000000	99.032760
2158.000000	99.033036
2157.000000	99.033274
2156.000000	99.033621
2155.000000	99.034052
2154.000000	99.034458
2153.000000	99.034786
2152.000000	99.035053
2151.000000	99.035283
2150.000000	99.035499
2149.000000	99.035751
2148.000000	99.036082
2147.000000	99.036471
2146.000000	99.036853
2145.000000	99.037192
2144.000000	99.037492
2143.000000	99.037764
2142.000000	99.038006
2141.000000	99.038234
2140.000000	99.038483
2139.000000	99.038767
2138.000000	99.039076
2137.000000	99.039394
2136.000000	99.039718
2135.000000	99.040052
2134.000000	99.040389
2133.000000	99.040723
2132.000000	99.041062
2131.000000	99.041421
2130.000000	99.041807
2129.000000	99.042210
2128.000000	99.042609
2127.000000	99.042989
2126.000000	99.043348
2125.000000	99.043686
2124.000000	99.044001
2123.000000	99.044296
2122.000000	99.044585
2121.000000	99.044891
2120.000000	99.045220
2119.000000	99.045569
2118.000000	99.045927
2117.000000	99.046283
2116.000000	99.046641
2115.000000	99.046999
2114.000000	99.047352
2113.000000	99.047697
2112.000000	99.048039
2111.000000	99.048384
2110.000000	99.048737
2109.000000	99.049101
2108.000000	99.049481
2107.000000	99.049869
2106.000000	99.050236
2105.000000	99.050556
2104.000000	99.050838
2103.000000	99.051131
2102.000000	99.051472
2101.000000	99.051855
2100.000000	99.052244
2099.000000	99.052615
2098.000000	99.052961
2097.000000	99.053279
2096.000000	99.053590
2095.000000	99.053949
2094.000000	99.054400
2093.000000	99.054913
2092.000000	99.055392
2091.000000	99.055775
2090.000000	99.056078
2089.000000	99.056322
2088.000000	99.056463
2087.000000	99.056449
2086.000000	99.056336
2085.000000	99.056307
2084.000000	99.056529
2083.000000	99.057004
2082.000000	99.057546
2081.000000	99.057966
2080.000000	99.058286
2079.000000	99.058721
2078.000000	99.059433
2077.000000	99.060310
2076.000000	99.061032
2075.000000	99.061376
2074.000000	99.061400
2073.000000	99.061358
2072.000000	99.061418
2071.000000	99.061524
2070.000000	99.061552
2069.000000	99.061466
2068.000000	99.061308
2067.000000	99.061140
2066.000000	99.061067
2065.000000	99.061249
2064.000000	99.061717
2063.000000	99.062226
2062.000000	99.062433
2061.000000	99.062274
2060.000000	99.062018
2059.000000	99.061934
2058.000000	99.062048
2057.000000	99.062306
2056.000000	99.062796
2055.000000	99.063622
2054.000000	99.064598
2053.000000	99.065233
2052.000000	99.065132
2051.000000	99.064387
2050.000000	99.063582
2049.000000	99.063341
2048.000000	99.063838
2047.000000	99.064727
2046.000000	99.065473
2045.000000	99.065773
2044.000000	99.065643
2043.000000	99.065241
2042.000000	99.064751
2041.000000	99.064388
2040.000000	99.064270
2039.000000	99.064214
2038.000000	99.063876
2037.000000	99.063126
2036.000000	99.062127
2035.000000	99.061099
2034.000000	99.060134
2033.000000	99.059311
2032.000000	99.058812
2031.000000	99.058756
2030.000000	99.059029
2029.000000	99.059318
2028.000000	99.059319
2027.000000	99.058910
2026.000000	99.058188
2025.000000	99.057399
2024.000000	99.056735
2023.000000	99.056168
2022.000000	99.055538
2021.000000	99.054793
2020.000000	99.054064
2019.000000	99.053489
2018.000000	99.053066
2017.000000	99.052703
2016.000000	99.052306
2015.000000	99.051794
2014.000000	99.051158
2013.000000	99.050563
2012.000000	99.050238
2011.000000	99.050182
2010.000000	99.050088
2009.000000	99.049659
2008.000000	99.048944
2007.000000	99.048247
2006.000000	99.047773
2005.000000	99.047463
2004.000000	99.047134
2003.000000	99.046640
2002.000000	99.045907
2001.000000	99.044975
2000.000000	99.044084
1999.000000	99.043555
1998.000000	99.043469
1997.000000	99.043530
1996.000000	99.043369
1995.000000	99.042976
1994.000000	99.042664
1993.000000	99.042661
1992.000000	99.042866
1991.000000	99.042990
1990.000000	99.042889
1989.000000	99.042651
1988.000000	99.042424
1987.000000	99.042246
1986.000000	99.042072
1985.000000	99.041894
1984.000000	99.041788
1983.000000	99.041812
1982.000000	99.041905
1981.000000	99.041919
1980.000000	99.041773
1979.000000	99.041521
1978.000000	99.041278
1977.000000	99.041075
1976.000000	99.040863
1975.000000	99.040633
1974.000000	99.040497
1973.000000	99.040582
1972.000000	99.040874
1971.000000	99.041202
1970.000000	99.041373
1969.000000	99.041348
1968.000000	99.041234
1967.000000	99.041157
1966.000000	99.041141
1965.000000	99.041109
1964.000000	99.040989
1963.000000	99.040780
1962.000000	99.040543
1961.000000	99.040345
1960.000000	99.040218
1959.000000	99.040156
1958.000000	99.040124
1957.000000	99.040081
1956.000000	99.039992
1955.000000	99.039851
1954.000000	99.039673
1953.000000	99.039488
1952.000000	99.039314
1951.000000	99.039140
1950.000000	99.038938
1949.000000	99.038682
1948.000000	99.038366
1947.000000	99.037999
1946.000000	99.037599
1945.000000	99.037201
1944.000000	99.036843
1943.000000	99.036544
1942.000000	99.036272
1941.000000	99.035952
1940.000000	99.035537
1939.000000	99.035037
1938.000000	99.034509
1937.000000	99.034004
1936.000000	99.033526
1935.000000	99.033064
1934.000000	99.032629
1933.000000	99.032227
1932.000000	99.031775
1931.000000	99.031142
1930.000000	99.030289
1929.000000	99.029367
1928.000000	99.028603
1927.000000	99.028059
1926.000000	99.027549
1925.000000	99.026826
1924.000000	99.025856
1923.000000	99.024855
1922.000000	99.024045
1921.000000	99.023423
1920.000000	99.022873
1919.000000	99.022354
1918.000000	99.021859
1917.000000	99.021241
1916.000000	99.020295
1915.000000	99.018981
1914.000000	99.017481
1913.000000	99.016027
1912.000000	99.014703
1911.000000	99.013448
1910.000000	99.012200
1909.000000	99.010982
1908.000000	99.009859
1907.000000	99.008840
1906.000000	99.007845
1905.000000	99.006799
1904.000000	99.005772
1903.000000	99.004899
1902.000000	99.004108
1901.000000	99.003025
1900.000000	99.001286
1899.000000	98.998976
1898.000000	98.996670
1897.000000	98.995056
1896.000000	98.994544
1895.000000	98.995038
1894.000000	98.995817
1893.000000	98.995831
1892.000000	98.994518
1891.000000	98.992378
1890.000000	98.990600
1889.000000	98.989793
1888.000000	98.989402
1887.000000	98.988717
1886.000000	98.987853
1885.000000	98.987280
1884.000000	98.986975
1883.000000	98.986599
1882.000000	98.986215
1881.000000	98.986088
1880.000000	98.985862
1879.000000	98.984723
1878.000000	98.982502
1877.000000	98.980126
1876.000000	98.978852
1875.000000	98.979308
1874.000000	98.981198
1873.000000	98.983375
1872.000000	98.984295
1871.000000	98.983018
1870.000000	98.980136
1869.000000	98.977485
1868.000000	98.976338
1867.000000	98.976425
1866.000000	98.977073
1865.000000	98.978253
1864.000000	98.980178
1863.000000	98.982812
1862.000000	98.986075
1861.000000	98.989803
1860.000000	98.993230
1859.000000	98.995262
1858.000000	98.995688
1857.000000	98.995586
1856.000000	98.996059
1855.000000	98.997012
1854.000000	98.997688
1853.000000	98.997959
1852.000000	98.998256
1851.000000	98.998686
1850.000000	98.998929
1849.000000	98.998925
1848.000000	98.999056
1847.000000	98.999593
1846.000000	99.000514
1845.000000	99.001864
1844.000000	99.003775
1843.000000	99.006065
1842.000000	99.008232
1841.000000	99.009782
1840.000000	99.010440
1839.000000	99.010284
1838.000000	99.009807
1837.000000	99.009736
1836.000000	99.010441
1835.000000	99.011541
1834.000000	99.012254
1833.000000	99.012159
1832.000000	99.011577
1831.000000	99.011396
1830.000000	99.012165
1829.000000	99.013177
1828.000000	99.013134
1827.000000	99.011648
1826.000000	99.009698
1825.000000	99.008812
1824.000000	99.009483
1823.000000	99.010758
1822.000000	99.011503
1821.000000	99.011515
1820.000000	99.011316
1819.000000	99.011424
1818.000000	99.011995
1817.000000	99.012909
1816.000000	99.013857
1815.000000	99.014428
1814.000000	99.014470
1813.000000	99.014255
1812.000000	99.014113
1811.000000	99.013949
1810.000000	99.013399
1809.000000	99.012354
1808.000000	99.010952
1807.000000	99.009311
1806.000000	99.007745
1805.000000	99.006962
1804.000000	99.007434
1803.000000	99.008585
1802.000000	99.009206
1801.000000	99.008836
1800.000000	99.008263
1799.000000	99.008332
1798.000000	99.009005
1797.000000	99.009894
1796.000000	99.010870
1795.000000	99.011846
1794.000000	99.012553
1793.000000	99.012951
1792.000000	99.013606
1791.000000	99.014988
1790.000000	99.016647
1789.000000	99.017772
1788.000000	99.018106
1787.000000	99.017900
1786.000000	99.017369
1785.000000	99.016521
1784.000000	99.015543
1783.000000	99.014964
1782.000000	99.015295
1781.000000	99.016522
1780.000000	99.018062
1779.000000	99.019307
1778.000000	99.020109
1777.000000	99.020600
1776.000000	99.020757
1775.000000	99.020375
1774.000000	99.019503
1773.000000	99.018841
1772.000000	99.019321
1771.000000	99.021073
1770.000000	99.023362
1769.000000	99.025423
1768.000000	99.026990
1767.000000	99.028183
1766.000000	99.029205
1765.000000	99.030092
1764.000000	99.030759
1763.000000	99.031209
1762.000000	99.031671
1761.000000	99.032390
1760.000000	99.033358
1759.000000	99.034390
1758.000000	99.035373
1757.000000	99.036294
1756.000000	99.037104
1755.000000	99.037742
1754.000000	99.038274
1753.000000	99.038905
1752.000000	99.039794
1751.000000	99.040793
1750.000000	99.041500
1749.000000	99.041761
1748.000000	99.041860
1747.000000	99.042173
1746.000000	99.042804
1745.000000	99.043632
1744.000000	99.044509
1743.000000	99.045308
1742.000000	99.045874
1741.000000	99.046123
1740.000000	99.046235
1739.000000	99.046572
1738.000000	99.047294
1737.000000	99.048134
1736.000000	99.048566
1735.000000	99.048168
1734.000000	99.047256
1733.000000	99.047115
1732.000000	99.048446
1731.000000	99.050442
1730.000000	99.051735
1729.000000	99.051609
1728.000000	99.050533
1727.000000	99.049551
1726.000000	99.049233
1725.000000	99.049468
1724.000000	99.049882
1723.000000	99.050071
1722.000000	99.049767
1721.000000	99.049150
1720.000000	99.048806
1719.000000	99.049142
1718.000000	99.049427
1717.000000	99.048443
1716.000000	99.046733
1715.000000	99.045729
1714.000000	99.045601
1713.000000	99.045679
1712.000000	99.045526
1711.000000	99.045001
1710.000000	99.044037
1709.000000	99.042792
1708.000000	99.041485
1707.000000	99.039823
1706.000000	99.037187
1705.000000	99.034016
1704.000000	99.031827
1703.000000	99.030788
1702.000000	99.029109
1701.000000	99.025180
1700.000000	99.019907
1699.000000	99.016006
1698.000000	99.013456
1697.000000	99.010406
1696.000000	99.007092
1695.000000	99.005271
1694.000000	99.005009
1693.000000	99.004701
1692.000000	99.003409
1691.000000	99.001398
1690.000000	98.999362
1689.000000	98.997715
1688.000000	98.996374
1687.000000	98.995013
1686.000000	98.993355
1685.000000	98.991676
1684.000000	98.990362
1683.000000	98.989201
1682.000000	98.987696
1681.000000	98.985685
1680.000000	98.983628
1679.000000	98.982058
1678.000000	98.980739
1677.000000	98.978740
1676.000000	98.975479
1675.000000	98.971716
1674.000000	98.968991
1673.000000	98.967724
1672.000000	98.967208
1671.000000	98.966561
1670.000000	98.965189
1669.000000	98.963124
1668.000000	98.961029
1667.000000	98.959401
1666.000000	98.958091
1665.000000	98.956637
1664.000000	98.954780
1663.000000	98.952570
1662.000000	98.950223
1661.000000	98.947952
1660.000000	98.945906
1659.000000	98.944192
1658.000000	98.942738
1657.000000	98.941101
1656.000000	98.938482
1655.000000	98.934168
1654.000000	98.928671
1653.000000	98.924479
1652.000000	98.923353
1651.000000	98.924142
1650.000000	98.924907
1649.000000	98.924649
1648.000000	98.923115
1647.000000	98.920748
1646.000000	98.918484
1645.000000	98.917127
1644.000000	98.916804
1643.000000	98.917035
1642.000000	98.916974
1641.000000	98.915804
1640.000000	98.913424
1639.000000	98.910636
1638.000000	98.908438
1637.000000	98.907736
1636.000000	98.909090
1635.000000	98.911656
1634.000000	98.913555
1633.000000	98.913681
1632.000000	98.912169
1631.000000	98.910004
1630.000000	98.908506
1629.000000	98.908442
1628.000000	98.909505
1627.000000	98.910736
1626.000000	98.911429
1625.000000	98.911412
1624.000000	98.911113
1623.000000	98.911542
1622.000000	98.913573
1621.000000	98.916944
1620.000000	98.920405
1619.000000	98.922804
1618.000000	98.923877
1617.000000	98.924333
1616.000000	98.924765
1615.000000	98.924981
1614.000000	98.924800
1613.000000	98.924852
1612.000000	98.926167
1611.000000	98.928863
1610.000000	98.931687
1609.000000	98.933430
1608.000000	98.934464
1607.000000	98.935996
1606.000000	98.938401
1605.000000	98.941091
1604.000000	98.943669
1603.000000	98.946311
1602.000000	98.948930
1601.000000	98.950922
1600.000000	98.952083
1599.000000	98.953092
1598.000000	98.954650
1597.000000	98.956575
1596.000000	98.958216
1595.000000	98.959394
1594.000000	98.960511
1593.000000	98.961908
1592.000000	98.963532
1591.000000	98.965135
1590.000000	98.966528
1589.000000	98.967650
1588.000000	98.968613
1587.000000	98.969654
1586.000000	98.970929
1585.000000	98.972344
1584.000000	98.973644
1583.000000	98.974695
1582.000000	98.975586
1581.000000	98.976489
1580.000000	98.977504
1579.000000	98.978639
1578.000000	98.979878
1577.000000	98.981193
1576.000000	98.982476
1575.000000	98.983598
1574.000000	98.984555
1573.000000	98.985405
1572.000000	98.986188
1571.000000	98.986961
1570.000000	98.987793
1569.000000	98.988714
1568.000000	98.989661
1567.000000	98.990533
1566.000000	98.991276
1565.000000	98.991896
1564.000000	98.992449
1563.000000	98.993009
1562.000000	98.993600
1561.000000	98.994183
1560.000000	98.994705
1559.000000	98.995173
1558.000000	98.995730
1557.000000	98.996491
1556.000000	98.997279
1555.000000	98.997827
1554.000000	98.998017
1553.000000	98.997937
1552.000000	98.997787
1551.000000	98.997732
1550.000000	98.997942
1549.000000	98.998557
1548.000000	98.999571
1547.000000	99.000822
1546.000000	99.002081
1545.000000	99.003074
1544.000000	99.003562
1543.000000	99.003616
1542.000000	99.003717
1541.000000	99.004456
1540.000000	99.005631
1539.000000	99.006182
1538.000000	99.005853
1537.000000	99.005190
1536.000000	99.004489
1535.000000	99.003894
1534.000000	99.003688
1533.000000	99.003817
1532.000000	99.003669
1531.000000	99.002905
1530.000000	99.001985
1529.000000	99.001826
1528.000000	99.002848
1527.000000	99.004271
1526.000000	99.004879
1525.000000	99.004573
1524.000000	99.004287
1523.000000	99.004708
1522.000000	99.005731
1521.000000	99.006811
1520.000000	99.007740
1519.000000	99.008538
1518.000000	99.008919
1517.000000	99.008702
1516.000000	99.008480
1515.000000	99.009124
1514.000000	99.010685
1513.000000	99.012469
1512.000000	99.014037
1511.000000	99.015743
1510.000000	99.018214
1509.000000	99.021350
1508.000000	99.024003
1507.000000	99.024693
1506.000000	99.023676
1505.000000	99.022951
1504.000000	99.022879
1503.000000	99.022320
1502.000000	99.020524
1501.000000	99.017633
1500.000000	99.014694
1499.000000	99.013127
1498.000000	99.013803
1497.000000	99.016278
1496.000000	99.018938
1495.000000	99.020643
1494.000000	99.021768
1493.000000	99.023028
1492.000000	99.024427
1491.000000	99.025395
1490.000000	99.025643
1489.000000	99.025647
1488.000000	99.025883
1487.000000	99.026103
1486.000000	99.025911
1485.000000	99.025464
1484.000000	99.025213
1483.000000	99.025387
1482.000000	99.025825
1481.000000	99.026138
1480.000000	99.026074
1479.000000	99.025757
1478.000000	99.025586
1477.000000	99.025870
1476.000000	99.026458
1475.000000	99.026802
1474.000000	99.026581
1473.000000	99.026060
1472.000000	99.025741
1471.000000	99.025696
1470.000000	99.025645
1469.000000	99.025461
1468.000000	99.025249
1467.000000	99.025160
1466.000000	99.025263
1465.000000	99.025504
1464.000000	99.025695
1463.000000	99.025655
1462.000000	99.025360
1461.000000	99.024920
1460.000000	99.024526
1459.000000	99.024340
1458.000000	99.024372
1457.000000	99.024424
1456.000000	99.024327
1455.000000	99.024104
1454.000000	99.023752
1453.000000	99.023188
1452.000000	99.022416
1451.000000	99.021591
1450.000000	99.020912
1449.000000	99.020524
1448.000000	99.020465
1447.000000	99.020536
1446.000000	99.020416
1445.000000	99.019935
1444.000000	99.019137
1443.000000	99.018163
1442.000000	99.017128
1441.000000	99.016172
1440.000000	99.015516
1439.000000	99.015332
1438.000000	99.015584
1437.000000	99.016028
1436.000000	99.016391
1435.000000	99.016631
1434.000000	99.016781
1433.000000	99.016751
1432.000000	99.016521
1431.000000	99.016303
1430.000000	99.016363
1429.000000	99.016669
1428.000000	99.016825
1427.000000	99.016296
1426.000000	99.014849
1425.000000	99.013002
1424.000000	99.011983
1423.000000	99.012612
1422.000000	99.014273
1421.000000	99.015462
1420.000000	99.015254
1419.000000	99.014531
1418.000000	99.015166
1417.000000	99.017545
1416.000000	99.020315
1415.000000	99.022060
1414.000000	99.022365
1413.000000	99.021732
1412.000000	99.020909
1411.000000	99.020349
1410.000000	99.020215
1409.000000	99.020677
1408.000000	99.021995
1407.000000	99.024156
1406.000000	99.026645
1405.000000	99.028734
1404.000000	99.030088
1403.000000	99.031065
1402.000000	99.032340
1401.000000	99.034397
1400.000000	99.037237
1399.000000	99.040197
1398.000000	99.042364
1397.000000	99.043321
1396.000000	99.043263
1395.000000	99.042807
1394.000000	99.042795
1393.000000	99.043688
1392.000000	99.045178
1391.000000	99.046572
1390.000000	99.047414
1389.000000	99.047772
1388.000000	99.048127
1387.000000	99.049021
1386.000000	99.050796
1385.000000	99.053474
1384.000000	99.056519
1383.000000	99.058785
1382.000000	99.059260
1381.000000	99.058019
1380.000000	99.056320
1379.000000	99.055535
1378.000000	99.055999
1377.000000	99.057110
1376.000000	99.058123
1375.000000	99.058683
1374.000000	99.058926
1373.000000	99.059231
1372.000000	99.059782
1371.000000	99.060351
1370.000000	99.060560
1369.000000	99.060214
1368.000000	99.059384
1367.000000	99.058276
1366.000000	99.057170
1365.000000	99.056520
1364.000000	99.056837
1363.000000	99.058229
1362.000000	99.060110
1361.000000	99.061766
1360.000000	99.063033
1359.000000	99.064014
1358.000000	99.064571
1357.000000	99.064461
1356.000000	99.063792
1355.000000	99.063049
1354.000000	99.062643
1353.000000	99.062589
1352.000000	99.062643
1351.000000	99.062555
1350.000000	99.062259
1349.000000	99.062000
1348.000000	99.062207
1347.000000	99.063080
1346.000000	99.064325
1345.000000	99.065515
1344.000000	99.066637
1343.000000	99.067921
1342.000000	99.069071
1341.000000	99.069099
1340.000000	99.067371
1339.000000	99.064805
1338.000000	99.063360
1337.000000	99.063984
1336.000000	99.065875
1335.000000	99.067581
1334.000000	99.068311
1333.000000	99.068084
1332.000000	99.067153
1331.000000	99.065893
1330.000000	99.065030
1329.000000	99.065278
1328.000000	99.066528
1327.000000	99.067832
1326.000000	99.068510
1325.000000	99.068836
1324.000000	99.069307
1323.000000	99.069646
1322.000000	99.069080
1321.000000	99.067393
1320.000000	99.065222
1319.000000	99.063349
1318.000000	99.062107
1317.000000	99.061508
1316.000000	99.061576
1315.000000	99.062370
1314.000000	99.063873
1313.000000	99.065890
1312.000000	99.067852
1311.000000	99.068819
1310.000000	99.068129
1309.000000	99.066232
1308.000000	99.064682
1307.000000	99.064926
1306.000000	99.066994
1305.000000	99.069440
1304.000000	99.070539
1303.000000	99.069587
1302.000000	99.067251
1301.000000	99.064916
1300.000000	99.063483
1299.000000	99.062821
1298.000000	99.062315
1297.000000	99.061706
1296.000000	99.061185
1295.000000	99.060832
1294.000000	99.060376
1293.000000	99.059638
1292.000000	99.058899
1291.000000	99.058612
1290.000000	99.058863
1289.000000	99.059227
1288.000000	99.059066
1287.000000	99.058032
1286.000000	99.056533
1285.000000	99.055676
1284.000000	99.056295
1283.000000	99.057964
1282.000000	99.059405
1281.000000	99.060036
1280.000000	99.060562
1279.000000	99.061612
1278.000000	99.062531
1277.000000	99.062191
1276.000000	99.060449
1275.000000	99.058153
1274.000000	99.055868
1273.000000	99.053272
1272.000000	99.049903
1271.000000	99.046053
1270.000000	99.042838
1269.000000	99.041509
1268.000000	99.042375
1267.000000	99.044113
1266.000000	99.044511
1265.000000	99.042289
1264.000000	99.037920
1263.000000	99.032686
1262.000000	99.027724
1261.000000	99.024357
1260.000000	99.024144
1259.000000	99.027372
1258.000000	99.032035
1257.000000	99.035442
1256.000000	99.036535
1255.000000	99.035822
1254.000000	99.033708
1253.000000	99.030114
1252.000000	99.025493
1251.000000	99.020795
1250.000000	99.016130
1249.000000	99.010699
1248.000000	99.004633
1247.000000	98.999718
1246.000000	98.997198
1245.000000	98.995566
1244.000000	98.992065
1243.000000	98.986541
1242.000000	98.982301
1241.000000	98.981824
1240.000000	98.982354
1239.000000	98.977943
1238.000000	98.966707
1237.000000	98.954274
1236.000000	98.948017
1235.000000	98.948429
1234.000000	98.948480
1233.000000	98.941686
1232.000000	98.928454
1231.000000	98.914134
1230.000000	98.903273
1229.000000	98.897002
1228.000000	98.893955
1227.000000	98.891259
1226.000000	98.885386
1225.000000	98.874046
1224.000000	98.857326
1223.000000	98.836467
1222.000000	98.812807
1221.000000	98.788885
1220.000000	98.768596
1219.000000	98.753738
1218.000000	98.741235
1217.000000	98.726132
1216.000000	98.706685
1215.000000	98.684398
1214.000000	98.660190
1213.000000	98.633489
1212.000000	98.604967
1211.000000	98.577283
1210.000000	98.552225
1209.000000	98.528977
1208.000000	98.505577
1207.000000	98.480190
1206.000000	98.450947
1205.000000	98.416890
1204.000000	98.379755
1203.000000	98.343139
1202.000000	98.309435
1201.000000	98.278949
1200.000000	98.251680
1199.000000	98.227606
1198.000000	98.205124
1197.000000	98.181568
1196.000000	98.155633
1195.000000	98.127469
1194.000000	98.096753
1193.000000	98.063220
1192.000000	98.029013
1191.000000	97.997584
1190.000000	97.969804
1189.000000	97.943602
1188.000000	97.917309
1187.000000	97.890112
1186.000000	97.859285
1185.000000	97.821279
1184.000000	97.777188
1183.000000	97.733694
1182.000000	97.696300
1181.000000	97.663748
1180.000000	97.630352
1179.000000	97.591095
1178.000000	97.543575
1177.000000	97.488903
1176.000000	97.433224
1175.000000	97.385024
1174.000000	97.347322
1173.000000	97.314089
1172.000000	97.276712
1171.000000	97.232367
1170.000000	97.184295
1169.000000	97.136566
1168.000000	97.091756
1167.000000	97.052170
1166.000000	97.020037
1165.000000	96.996660
1164.000000	96.982837
1163.000000	96.979364
1162.000000	96.986150
1161.000000	97.001717
1160.000000	97.023458
1159.000000	97.046522
1158.000000	97.063013
1157.000000	97.065747
1156.000000	97.053762
1155.000000	97.031905
1154.000000	97.004420
1153.000000	96.971269
1152.000000	96.931559
1151.000000	96.887404
1150.000000	96.842685
1149.000000	96.800531
1148.000000	96.763305
1147.000000	96.731787
1146.000000	96.702466
1145.000000	96.669298
1144.000000	96.631031
1143.000000	96.594000
1142.000000	96.564722
1141.000000	96.542065
1140.000000	96.519731
1139.000000	96.493992
1138.000000	96.465550
1137.000000	96.435570
1136.000000	96.403758
1135.000000	96.370023
1134.000000	96.335143
1133.000000	96.299717
1132.000000	96.264143
1131.000000	96.229067
1130.000000	96.194378
1129.000000	96.158812
1128.000000	96.122116
1127.000000	96.086367
1126.000000	96.053289
1125.000000	96.021094
1124.000000	95.985759
1123.000000	95.945309
1122.000000	95.901983
1121.000000	95.860364
1120.000000	95.823568
1119.000000	95.790639
1118.000000	95.757688
1117.000000	95.722600
1116.000000	95.688045
1115.000000	95.658023
1114.000000	95.632121
1113.000000	95.605717
1112.000000	95.575746
1111.000000	95.543292
1110.000000	95.510560
1109.000000	95.478632
1108.000000	95.448477
1107.000000	95.420573
1106.000000	95.392652
1105.000000	95.361316
1104.000000	95.326984
1103.000000	95.294051
1102.000000	95.265483
1101.000000	95.240638
1100.000000	95.218760
1099.000000	95.200213
1098.000000	95.183061
1097.000000	95.162892
1096.000000	95.137796
1095.000000	95.109685
1094.000000	95.079157
1093.000000	95.043399
1092.000000	95.001725
1091.000000	94.959511
1090.000000	94.923469
1089.000000	94.895333
1088.000000	94.872189
1087.000000	94.850266
1086.000000	94.826492
1085.000000	94.798896
1084.000000	94.767536
1083.000000	94.733874
1082.000000	94.699125
1081.000000	94.665130
1080.000000	94.635732
1079.000000	94.613293
1078.000000	94.594062
1077.000000	94.571515
1076.000000	94.544402
1075.000000	94.516684
1074.000000	94.489305
1073.000000	94.457366
1072.000000	94.416692
1071.000000	94.368087
1070.000000	94.313619
1069.000000	94.253503
1068.000000	94.188930
1067.000000	94.123798
1066.000000	94.060962
1065.000000	93.999862
1064.000000	93.939490
1063.000000	93.880278
1062.000000	93.821901
1061.000000	93.763077
1060.000000	93.704940
1059.000000	93.650871
1058.000000	93.601612
1057.000000	93.553801
1056.000000	93.503939
1055.000000	93.450453
1054.000000	93.392351
1053.000000	93.330437
1052.000000	93.269338
1051.000000	93.212092
1050.000000	93.152418
1049.000000	93.079847
1048.000000	92.993468
1047.000000	92.903141
1046.000000	92.816192
1045.000000	92.730285
1044.000000	92.640825
1043.000000	92.548531
1042.000000	92.457517
1041.000000	92.370769
1040.000000	92.289017
1039.000000	92.209803
1038.000000	92.127572
1037.000000	92.040017
1036.000000	91.954233
1035.000000	91.880716
1034.000000	91.821621
1033.000000	91.771016
1032.000000	91.725714
1031.000000	91.688022
1030.000000	91.657672
1029.000000	91.629804
1028.000000	91.602564
1027.000000	91.578826
1026.000000	91.558662
1025.000000	91.537859
1024.000000	91.515617
1023.000000	91.495998
1022.000000	91.479596
1021.000000	91.461423
1020.000000	91.439554
1019.000000	91.418458
1018.000000	91.400785
1017.000000	91.382778
1016.000000	91.360958
1015.000000	91.337307
1014.000000	91.314898
1013.000000	91.293915
1012.000000	91.274435
1011.000000	91.257893
1010.000000	91.243760
1009.000000	91.229754
1008.000000	91.216693
1007.000000	91.208039
1006.000000	91.203764
1005.000000	91.200013
1004.000000	91.195512
1003.000000	91.192550
1002.000000	91.191226
1001.000000	91.188971
1000.000000	91.186303
999.000000	91.186792
998.000000	91.190566
997.000000	91.194024
996.000000	91.196612
995.000000	91.201629
994.000000	91.209703
993.000000	91.217788
992.000000	91.225393
991.000000	91.235555
990.000000	91.249225
989.000000	91.264959
988.000000	91.283968
987.000000	91.308514
986.000000	91.335386
985.000000	91.358695
984.000000	91.379941
983.000000	91.407360
982.000000	91.444030
981.000000	91.484378
980.000000	91.524079
979.000000	91.565768
978.000000	91.612514
977.000000	91.663055
976.000000	91.716497
975.000000	91.775248
974.000000	91.840260
973.000000	91.909092
972.000000	91.981201
971.000000	92.059376
970.000000	92.143005
969.000000	92.224935
968.000000	92.298157
967.000000	92.362347
966.000000	92.422495
965.000000	92.484866
964.000000	92.554900
963.000000	92.633988
962.000000	92.716355
961.000000	92.793222
960.000000	92.861772
959.000000	92.927012
958.000000	92.994579
957.000000	93.065313
956.000000	93.136725
955.000000	93.205362
954.000000	93.267550
953.000000	93.322417
952.000000	93.374527
951.000000	93.429086
950.000000	93.484209
949.000000	93.532787
948.000000	93.572352
947.000000	93.607865
946.000000	93.643886
945.000000	93.679134
944.000000	93.710506
943.000000	93.737543
942.000000	93.760698
941.000000	93.779521
940.000000	93.795201
939.000000	93.811742
938.000000	93.831836
937.000000	93.853556
936.000000	93.873091
935.000000	93.889436
934.000000	93.905778
933.000000	93.927442
932.000000	93.957711
931.000000	93.993541
930.000000	94.026386
929.000000	94.049877
928.000000	94.065551
927.000000	94.078915
926.000000	94.092556
925.000000	94.106749
924.000000	94.123820
923.000000	94.146060
922.000000	94.170720
921.000000	94.192772
920.000000	94.211855
919.000000	94.230947
918.000000	94.248999
917.000000	94.261187
916.000000	94.266820
915.000000	94.271425
914.000000	94.280354
913.000000	94.295494
912.000000	94.318306
911.000000	94.349963
910.000000	94.387455
909.000000	94.425545
908.000000	94.464554
907.000000	94.511335
906.000000	94.570862
905.000000	94.640647
904.000000	94.713860
903.000000	94.784200
902.000000	94.848382
901.000000	94.908696
900.000000	94.972765
899.000000	95.045832
898.000000	95.123508
897.000000	95.197153
896.000000	95.265969
895.000000	95.337790
894.000000	95.417882
893.000000	95.503041
892.000000	95.587287
891.000000	95.667128
890.000000	95.739890
889.000000	95.803343
888.000000	95.860096
887.000000	95.917746
886.000000	95.981161
885.000000	96.047332
884.000000	96.109912
883.000000	96.165714
882.000000	96.214974
881.000000	96.258693
880.000000	96.298536
879.000000	96.337588
878.000000	96.379020
877.000000	96.424481
876.000000	96.473806
875.000000	96.524864
874.000000	96.574638
873.000000	96.622844
872.000000	96.673372
871.000000	96.729189
870.000000	96.787127
869.000000	96.841337
868.000000	96.890909
867.000000	96.940287
866.000000	96.992884
865.000000	97.048164
864.000000	97.104840
863.000000	97.162987
862.000000	97.222278
861.000000	97.280981
860.000000	97.337424
859.000000	97.390758
858.000000	97.440763
857.000000	97.488493
856.000000	97.535571
855.000000	97.580647
854.000000	97.619008
853.000000	97.649191
852.000000	97.677726
851.000000	97.712457
850.000000	97.752094
849.000000	97.787541
848.000000	97.813424
847.000000	97.833684
846.000000	97.855522
845.000000	97.881696
844.000000	97.909177
843.000000	97.931551
842.000000	97.942271
841.000000	97.939236
840.000000	97.926830
839.000000	97.910948
838.000000	97.892988
837.000000	97.872525
836.000000	97.853984
835.000000	97.844029
834.000000	97.841657
833.000000	97.837513
832.000000	97.825467
831.000000	97.809396
830.000000	97.795971
829.000000	97.786564
828.000000	97.780512
827.000000	97.780869
826.000000	97.790657
825.000000	97.806601
824.000000	97.822377
823.000000	97.835472
822.000000	97.845948
821.000000	97.851777
820.000000	97.851060
819.000000	97.846609
818.000000	97.843162
817.000000	97.840395
816.000000	97.831834
815.000000	97.810699
814.000000	97.774733
813.000000	97.725139
812.000000	97.661933
811.000000	97.580618
810.000000	97.473772
809.000000	97.337506
808.000000	97.176751
807.000000	97.001772
806.000000	96.818283
805.000000	96.624358
804.000000	96.419793
803.000000	96.215304
802.000000	96.028347
801.000000	95.871089
800.000000	95.744951
799.000000	95.644354
798.000000	95.563504
797.000000	95.502208
796.000000	95.466698
795.000000	95.461884
794.000000	95.481877
793.000000	95.511885
792.000000	95.540614
791.000000	95.566587
790.000000	95.591141
789.000000	95.610485
788.000000	95.617783
787.000000	95.609410
786.000000	95.585937
785.000000	95.549349
784.000000	95.501981
783.000000	95.446393
782.000000	95.384206
781.000000	95.317119
780.000000	95.251129
779.000000	95.197667
778.000000	95.168028
777.000000	95.167127
776.000000	95.192529
775.000000	95.236994
774.000000	95.291956
773.000000	95.351774
772.000000	95.415295
771.000000	95.481396
770.000000	95.544640
769.000000	95.599178
768.000000	95.645493
767.000000	95.687798
766.000000	95.725120
765.000000	95.751751
764.000000	95.768690
763.000000	95.788108
762.000000	95.821386
761.000000	95.866321
760.000000	95.910859
759.000000	95.947167
758.000000	95.977644
757.000000	96.008260
756.000000	96.040585
755.000000	96.071432
754.000000	96.097978
753.000000	96.122195
752.000000	96.150629
751.000000	96.188860
750.000000	96.234725
749.000000	96.278119
748.000000	96.310252
747.000000	96.333889
746.000000	96.362411
745.000000	96.406780
744.000000	96.464039
743.000000	96.520282
742.000000	96.565130
741.000000	96.601521
740.000000	96.640767
739.000000	96.691137
738.000000	96.753281
737.000000	96.823250
736.000000	96.894500
735.000000	96.957489
734.000000	97.003871
733.000000	97.034286
732.000000	97.058765
731.000000	97.086548
730.000000	97.117386
729.000000	97.144956
728.000000	97.166086
727.000000	97.183646
726.000000	97.202519
725.000000	97.225795
724.000000	97.253633
723.000000	97.283357
722.000000	97.311903
721.000000	97.340278
720.000000	97.373608
719.000000	97.413978
718.000000	97.455306
717.000000	97.488840
716.000000	97.512445
715.000000	97.531885
714.000000	97.554239
713.000000	97.582175
712.000000	97.612865
711.000000	97.639518
710.000000	97.655453
709.000000	97.659867
708.000000	97.658625
707.000000	97.656290
706.000000	97.649148
705.000000	97.630740
704.000000	97.602478
703.000000	97.571608
702.000000	97.536761
701.000000	97.481995
700.000000	97.390444
699.000000	97.262618
698.000000	97.119039
697.000000	96.986294
696.000000	96.883039
695.000000	96.817506
694.000000	96.792391
693.000000	96.807476
692.000000	96.857077
691.000000	96.928299
690.000000	97.006049
689.000000	97.080717
688.000000	97.149657
687.000000	97.212532
686.000000	97.268490
685.000000	97.317291
684.000000	97.359522
683.000000	97.395758
682.000000	97.428834
681.000000	97.466111
680.000000	97.514006
679.000000	97.568896
678.000000	97.618349
677.000000	97.654096
676.000000	97.680321
675.000000	97.706901
674.000000	97.738404
673.000000	97.771730
672.000000	97.800896
671.000000	97.823507
670.000000	97.845450
669.000000	97.881166
668.000000	97.936878
667.000000	97.992551
666.000000	98.026732
665.000000	98.042815
664.000000	98.055943
663.000000	98.073360
662.000000	98.090054
661.000000	98.101848
660.000000	98.117516
659.000000	98.147551
658.000000	98.187008
657.000000	98.220235
656.000000	98.238976
655.000000	98.246084
654.000000	98.246447
653.000000	98.243754
652.000000	98.243477
651.000000	98.249135
650.000000	98.256022
