4000.000000	97.949505
3999.000000	97.949255
3998.000000	97.948997
3997.000000	97.948727
3996.000000	97.948445
3995.000000	97.948153
3994.000000	97.947857
3993.000000	97.947561
3992.000000	97.947270
3991.000000	97.946988
3990.000000	97.946711
3989.000000	97.946438
3988.000000	97.946166
3987.000000	97.945896
3986.000000	97.945632
3985.000000	97.945374
3984.000000	97.945123
3983.000000	97.944875
3982.000000	97.944628
3981.000000	97.944383
3980.000000	97.944146
3979.000000	97.943927
3978.000000	97.943731
3977.000000	97.943553
3976.000000	97.943382
3975.000000	97.943199
3974.000000	97.942997
3973.000000	97.942778
3972.000000	97.942549
3971.000000	97.942325
3970.000000	97.942125
3969.000000	97.941955
3968.000000	97.941803
3967.000000	97.941646
3966.000000	97.941478
3965.000000	97.941317
3964.000000	97.941181
3963.000000	97.941088
3962.000000	97.941056
3961.000000	97.941102
3960.000000	97.941202
3959.000000	97.941276
3958.000000	97.941244
3957.000000	97.941087
3956.000000	97.940835
3955.000000	97.940535
3954.000000	97.940270
3953.000000	97.940144
3952.000000	97.940216
3951.000000	97.940428
3950.000000	97.940609
3949.000000	97.940598
3948.000000	97.940353
3947.000000	97.939986
3946.000000	97.939661
3945.000000	97.939492
3944.000000	97.939530
3943.000000	97.939798
3942.000000	97.940271
3941.000000	97.940802
3940.000000	97.941141
3939.000000	97.941138
3938.000000	97.940859
3937.000000	97.940407
3936.000000	97.939697
3935.000000	97.938574
3934.000000	97.937267
3933.000000	97.936447
3932.000000	97.936627
3931.000000	97.937691
3930.000000	97.939011
3929.000000	97.940029
3928.000000	97.940456
3927.000000	97.940107
3926.000000	97.939050
3925.000000	97.937989
3924.000000	97.937832
3923.000000	97.938700
3922.000000	97.939873
3921.000000	97.940667
3920.000000	97.940859
3919.000000	97.940319
3918.000000	97.938951
3917.000000	97.937148
3916.000000	97.935687
3915.000000	97.934885
3914.000000	97.934375
3913.000000	97.933888
3912.000000	97.933541
3911.000000	97.933494
3910.000000	97.933590
3909.000000	97.933554
3908.000000	97.933228
3907.000000	97.932537
3906.000000	97.931486
3905.000000	97.930267
3904.000000	97.929319
3903.000000	97.928906
3902.000000	97.928832
3901.000000	97.928803
3900.000000	97.928896
3899.000000	97.929313
3898.000000	97.929907
3897.000000	97.930290
3896.000000	97.930279
3895.000000	97.930017
3894.000000	97.929700
3893.000000	97.929365
3892.000000	97.928966
3891.000000	97.928599
3890.000000	97.928392
3889.000000	97.928282
3888.000000	97.928162
3887.000000	97.928042
3886.000000	97.928002
3885.000000	97.928062
3884.000000	97.928140
3883.000000	97.928160
3882.000000	97.928143
3881.000000	97.928163
3880.000000	97.928273
3879.000000	97.928467
3878.000000	97.928711
3877.000000	97.928978
3876.000000	97.929269
3875.000000	97.929588
3874.000000	97.929935
3873.000000	97.930292
3872.000000	97.930619
3871.000000	97.930893
3870.000000	97.931112
3869.000000	97.931314
3868.000000	97.931527
3867.000000	97.931717
3866.000000	97.931864
3865.000000	97.932069
3864.000000	97.932416
3863.000000	97.932836
3862.000000	97.933155
3861.000000	97.933360
3860.000000	97.933559
3859.000000	97.933837
3858.000000	97.934261
3857.000000	97.934948
3856.000000	97.935932
3855.000000	97.936799
3854.000000	97.936936
3853.000000	97.936724
3852.000000	97.937205
3851.000000	97.937824
3850.000000	97.937671
3849.000000	97.937054
3848.000000	97.936624
3847.000000	97.936402
3846.000000	97.936060
3845.000000	97.935690
3844.000000	97.935757
3843.000000	97.936635
3842.000000	97.938019
3841.000000	97.938977
3840.000000	97.938856
3839.000000	97.938089
3838.000000	97.937641
3837.000000	97.937837
3836.000000	97.938135
3835.000000	97.937820
3834.000000	97.936743
3833.000000	97.935344
3832.000000	97.934319
3831.000000	97.934049
3830.000000	97.934105
3829.000000	97.933656
3828.000000	97.932315
3827.000000	97.930776
3826.000000	97.930349
3825.000000	97.931397
3824.000000	97.932623
3823.000000	97.932640
3822.000000	97.931619
3821.000000	97.931559
3820.000000	97.934055
3819.000000	97.937590
3818.000000	97.939650
3817.000000	97.940110
3816.000000	97.940566
3815.000000	97.941979
3814.000000	97.943016
3813.000000	97.942244
3812.000000	97.940563
3811.000000	97.939770
3810.000000	97.940065
3809.000000	97.940164
3808.000000	97.939249
3807.000000	97.938085
3806.000000	97.937849
3805.000000	97.938256
3804.000000	97.938179
3803.000000	97.937344
3802.000000	97.936320
3801.000000	97.935872
3800.000000	97.936001
3799.000000	97.935977
3798.000000	97.935673
3797.000000	97.935620
3796.000000	97.935995
3795.000000	97.936440
3794.000000	97.936569
3793.000000	97.936422
3792.000000	97.936280
3791.000000	97.936307
3790.000000	97.936463
3789.000000	97.936666
3788.000000	97.936876
3787.000000	97.937062
3786.000000	97.937203
3785.000000	97.937336
3784.000000	97.937508
3783.000000	97.937713
3782.000000	97.937919
3781.000000	97.938112
3780.000000	97.938297
3779.000000	97.938481
3778.000000	97.938652
3777.000000	97.938793
3776.000000	97.938911
3775.000000	97.939041
3774.000000	97.939223
3773.000000	97.939466
3772.000000	97.939756
3771.000000	97.940074
3770.000000	97.940425
3769.000000	97.940828
3768.000000	97.941257
3767.000000	97.941599
3766.000000	97.941816
3765.000000	97.942107
3764.000000	97.942673
3763.000000	97.943279
3762.000000	97.943472
3761.000000	97.943384
3760.000000	97.943514
3759.000000	97.943721
3758.000000	97.943388
3757.000000	97.942759
3756.000000	97.942842
3755.000000	97.943981
3754.000000	97.945655
3753.000000	97.947371
3752.000000	97.948981
3751.000000	97.950004
3750.000000	97.950063
3749.000000	97.949919
3748.000000	97.950223
3747.000000	97.950188
3746.000000	97.948967
3745.000000	97.947079
3744.000000	97.946818
3743.000000	97.948842
3742.000000	97.949604
3741.000000	97.947485
3740.000000	97.945103
3739.000000	97.944649
3738.000000	97.944736
3737.000000	97.943002
3736.000000	97.940086
3735.000000	97.938453
3734.000000	97.938220
3733.000000	97.937373
3732.000000	97.935658
3731.000000	97.934582
3730.000000	97.934368
3729.000000	97.933761
3728.000000	97.932286
3727.000000	97.930841
3726.000000	97.929922
3725.000000	97.928107
3724.000000	97.923930
3723.000000	97.918441
3722.000000	97.913923
3721.000000	97.911097
3720.000000	97.908682
3719.000000	97.905382
3718.000000	97.901515
3717.000000	97.898677
3716.000000	97.897506
3715.000000	97.896532
3714.000000	97.893898
3713.000000	97.889239
3712.000000	97.883672
3711.000000	97.878808
3710.000000	97.875242
3709.000000	97.872285
3708.000000	97.869307
3707.000000	97.866647
3706.000000	97.864717
3705.000000	97.862836
3704.000000	97.859775
3703.000000	97.855079
3702.000000	97.849716
3701.000000	97.845465
3700.000000	97.843083
3699.000000	97.841196
3698.000000	97.838327
3697.000000	97.835200
3696.000000	97.833397
3695.000000	97.832422
3694.000000	97.830441
3693.000000	97.827400
3692.000000	97.824579
3691.000000	97.821969
3690.000000	97.818174
3689.000000	97.813662
3688.000000	97.811075
3687.000000	97.810385
3686.000000	97.807863
3685.000000	97.801543
3684.000000	97.793737
3683.000000	97.787334
3682.000000	97.781980
3681.000000	97.775421
3680.000000	97.768235
3679.000000	97.763215
3678.000000	97.760461
3677.000000	97.756642
3676.000000	97.750122
3675.000000	97.744874
3674.000000	97.743170
3673.000000	97.739504
3672.000000	97.730141
3671.000000	97.718256
3670.000000	97.709019
3669.000000	97.704022
3668.000000	97.699978
3667.000000	97.693511
3666.000000	97.685211
3665.000000	97.677184
3664.000000	97.669895
3663.000000	97.662320
3662.000000	97.653892
3661.000000	97.645284
3660.000000	97.637631
3659.000000	97.630808
3658.000000	97.624074
3657.000000	97.617706
3656.000000	97.613897
3655.000000	97.612983
3654.000000	97.609730
3653.000000	97.599248
3652.000000	97.584284
3651.000000	97.572270
3650.000000	97.566184
3649.000000	97.561685
3648.000000	97.554243
3647.000000	97.544755
3646.000000	97.535629
3645.000000	97.527308
3644.000000	97.519645
3643.000000	97.513592
3642.000000	97.509191
3641.000000	97.503636
3640.000000	97.493579
3639.000000	97.480109
3638.000000	97.469382
3637.000000	97.465020
3636.000000	97.463220
3635.000000	97.458041
3634.000000	97.450138
3633.000000	97.445016
3632.000000	97.444059
3631.000000	97.443627
3630.000000	97.439897
3629.000000	97.433409
3628.000000	97.428787
3627.000000	97.424888
3626.000000	97.416641
3625.000000	97.408506
3624.000000	97.408696
3623.000000	97.417314
3622.000000	97.427291
3621.000000	97.433334
3620.000000	97.436541
3619.000000	97.439741
3618.000000	97.443054
3617.000000	97.444590
3616.000000	97.444264
3615.000000	97.445218
3614.000000	97.450930
3613.000000	97.461233
3612.000000	97.471715
3611.000000	97.477472
3610.000000	97.478025
3609.000000	97.477574
3608.000000	97.479497
3607.000000	97.482635
3606.000000	97.483992
3605.000000	97.484003
3604.000000	97.486988
3603.000000	97.495531
3602.000000	97.506967
3601.000000	97.515804
3600.000000	97.519487
3599.000000	97.519513
3598.000000	97.519974
3597.000000	97.524467
3596.000000	97.533108
3595.000000	97.542266
3594.000000	97.548382
3593.000000	97.550628
3592.000000	97.550412
3591.000000	97.549911
3590.000000	97.550573
3589.000000	97.552532
3588.000000	97.554691
3587.000000	97.556325
3586.000000	97.557473
3585.000000	97.558033
3584.000000	97.558415
3583.000000	97.559521
3582.000000	97.561388
3581.000000	97.563073
3580.000000	97.564109
3579.000000	97.565152
3578.000000	97.567259
3577.000000	97.570906
3576.000000	97.575456
3575.000000	97.579755
3574.000000	97.582949
3573.000000	97.584905
3572.000000	97.585768
3571.000000	97.585517
3570.000000	97.583825
3569.000000	97.580877
3568.000000	97.578299
3567.000000	97.578376
3566.000000	97.581628
3565.000000	97.585912
3564.000000	97.588813
3563.000000	97.590249
3562.000000	97.591612
3561.000000	97.593494
3560.000000	97.594962
3559.000000	97.594987
3558.000000	97.593605
3557.000000	97.591777
3556.000000	97.590295
3555.000000	97.589186
3554.000000	97.588195
3553.000000	97.587501
3552.000000	97.587511
3551.000000	97.588140
3550.000000	97.588719
3549.000000	97.588716
3548.000000	97.588175
3547.000000	97.587413
3546.000000	97.586694
3545.000000	97.586255
3544.000000	97.586194
3543.000000	97.586433
3542.000000	97.586986
3541.000000	97.588132
3540.000000	97.589973
3539.000000	97.591913
3538.000000	97.592969
3537.000000	97.592719
3536.000000	97.591705
3535.000000	97.590844
3534.000000	97.590529
3533.000000	97.590470
3532.000000	97.590335
3531.000000	97.590189
3530.000000	97.590367
3529.000000	97.591072
3528.000000	97.592179
3527.000000	97.593266
3526.000000	97.593877
3525.000000	97.593868
3524.000000	97.593466
3523.000000	97.593058
3522.000000	97.592830
3521.000000	97.592728
3520.000000	97.592700
3519.000000	97.592830
3518.000000	97.593259
3517.000000	97.593999
3516.000000	97.594900
3515.000000	97.595710
3514.000000	97.596216
3513.000000	97.596356
3512.000000	97.596270
3511.000000	97.596235
3510.000000	97.596450
3509.000000	97.596883
3508.000000	97.597318
3507.000000	97.597556
3506.000000	97.597574
3505.000000	97.597525
3504.000000	97.597580
3503.000000	97.597782
3502.000000	97.598055
3501.000000	97.598341
3500.000000	97.598692
3499.000000	97.599204
3498.000000	97.599879
3497.000000	97.600540
3496.000000	97.600911
3495.000000	97.600804
3494.000000	97.600270
3493.000000	97.599611
3492.000000	97.599173
3491.000000	97.599123
3490.000000	97.599326
3489.000000	97.599440
3488.000000	97.599225
3487.000000	97.598782
3486.000000	97.598467
3485.000000	97.598533
3484.000000	97.598942
3483.000000	97.599474
3482.000000	97.599931
3481.000000	97.600200
3480.000000	97.600168
3479.000000	97.599743
3478.000000	97.599006
3477.000000	97.598266
3476.000000	97.597848
3475.000000	97.597859
3474.000000	97.598171
3473.000000	97.598590
3472.000000	97.598979
3471.000000	97.599214
3470.000000	97.599185
3469.000000	97.598942
3468.000000	97.598738
3467.000000	97.598775
3466.000000	97.598867
3465.000000	97.598524
3464.000000	97.597487
3463.000000	97.596112
3462.000000	97.595098
3461.000000	97.594793
3460.000000	97.594937
3459.000000	97.595058
3458.000000	97.595036
3457.000000	97.595133
3456.000000	97.595592
3455.000000	97.596312
3454.000000	97.596900
3453.000000	97.596928
3452.000000	97.596154
3451.000000	97.594634
3450.000000	97.592775
3449.000000	97.591242
3448.000000	97.590548
3447.000000	97.590562
3446.000000	97.590476
3445.000000	97.589521
3444.000000	97.587752
3443.000000	97.586059
3442.000000	97.585323
3441.000000	97.585645
3440.000000	97.586414
3439.000000	97.586960
3438.000000	97.587010
3437.000000	97.586556
3436.000000	97.585643
3435.000000	97.584386
3434.000000	97.583093
3433.000000	97.582234
3432.000000	97.582160
3431.000000	97.582788
3430.000000	97.583622
3429.000000	97.584222
3428.000000	97.584647
3427.000000	97.585333
3426.000000	97.586537
3425.000000	97.587937
3424.000000	97.588753
3423.000000	97.588246
3422.000000	97.586214
3421.000000	97.583203
3420.000000	97.580255
3419.000000	97.578242
3418.000000	97.577384
3417.000000	97.577345
3416.000000	97.577694
3415.000000	97.578187
3414.000000	97.578768
3413.000000	97.579484
3412.000000	97.580405
3411.000000	97.581527
3410.000000	97.582706
3409.000000	97.583682
3408.000000	97.584191
3407.000000	97.584115
3406.000000	97.583627
3405.000000	97.583164
3404.000000	97.583066
3403.000000	97.583209
3402.000000	97.583153
3401.000000	97.582710
3400.000000	97.582273
3399.000000	97.582466
3398.000000	97.583521
3397.000000	97.585014
3396.000000	97.586157
3395.000000	97.586483
3394.000000	97.586184
3393.000000	97.585857
3392.000000	97.585901
3391.000000	97.586176
3390.000000	97.586325
3389.000000	97.586235
3388.000000	97.586093
3387.000000	97.586075
3386.000000	97.586149
3385.000000	97.586180
3384.000000	97.586120
3383.000000	97.586044
3382.000000	97.586076
3381.000000	97.586327
3380.000000	97.586852
3379.000000	97.587591
3378.000000	97.588351
3377.000000	97.588914
3376.000000	97.589216
3375.000000	97.589371
3374.000000	97.589572
3373.000000	97.589927
3372.000000	97.590389
3371.000000	97.590829
3370.000000	97.591169
3369.000000	97.591457
3368.000000	97.591781
3367.000000	97.592169
3366.000000	97.592579
3365.000000	97.592972
3364.000000	97.593350
3363.000000	97.593697
3362.000000	97.593947
3361.000000	97.594057
3360.000000	97.594115
3359.000000	97.594330
3358.000000	97.594813
3357.000000	97.595486
3356.000000	97.596164
3355.000000	97.596768
3354.000000	97.597349
3353.000000	97.597944
3352.000000	97.598490
3351.000000	97.598915
3350.000000	97.599229
3349.000000	97.599509
3348.000000	97.599840
3347.000000	97.600259
3346.000000	97.600758
3345.000000	97.601308
3344.000000	97.601860
3343.000000	97.602366
3342.000000	97.602809
3341.000000	97.603208
3340.000000	97.603600
3339.000000	97.604001
3338.000000	97.604399
3337.000000	97.604782
3336.000000	97.605169
3335.000000	97.605602
3334.000000	97.606092
3333.000000	97.606572
3332.000000	97.606948
3331.000000	97.607181
3330.000000	97.607334
3329.000000	97.607542
3328.000000	97.607890
3327.000000	97.608362
3326.000000	97.608844
3325.000000	97.609199
3324.000000	97.609373
3323.000000	97.609429
3322.000000	97.609506
3321.000000	97.609681
3320.000000	97.609893
3319.000000	97.610032
3318.000000	97.610103
3317.000000	97.610239
3316.000000	97.610532
3315.000000	97.610933
3314.000000	97.611392
3313.000000	97.612006
3312.000000	97.612826
3311.000000	97.613529
3310.000000	97.613624
3309.000000	97.613023
3308.000000	97.612242
3307.000000	97.611773
3306.000000	97.611533
3305.000000	97.611268
3304.000000	97.611191
3303.000000	97.611741
3302.000000	97.612893
3301.000000	97.614139
3300.000000	97.615122
3299.000000	97.615954
3298.000000	97.616887
3297.000000	97.617937
3296.000000	97.618833
3295.000000	97.619204
3294.000000	97.618826
3293.000000	97.617866
3292.000000	97.616830
3291.000000	97.616145
3290.000000	97.615891
3289.000000	97.616121
3288.000000	97.617154
3287.000000	97.619170
3286.000000	97.621624
3285.000000	97.623487
3284.000000	97.624237
3283.000000	97.624197
3282.000000	97.623945
3281.000000	97.623820
3280.000000	97.624149
3279.000000	97.625520
3278.000000	97.628263
3277.000000	97.631725
3276.000000	97.634500
3275.000000	97.635633
3274.000000	97.635354
3273.000000	97.634541
3272.000000	97.633687
3271.000000	97.632683
3270.000000	97.631488
3269.000000	97.630458
3268.000000	97.629824
3267.000000	97.629309
3266.000000	97.628710
3265.000000	97.628529
3264.000000	97.629424
3263.000000	97.631169
3262.000000	97.632763
3261.000000	97.633636
3260.000000	97.634202
3259.000000	97.635028
3258.000000	97.635889
3257.000000	97.636018
3256.000000	97.635025
3255.000000	97.633147
3254.000000	97.630905
3253.000000	97.628965
3252.000000	97.628123
3251.000000	97.628909
3250.000000	97.631089
3249.000000	97.633719
3248.000000	97.635935
3247.000000	97.637501
3246.000000	97.638534
3245.000000	97.639114
3244.000000	97.639290
3243.000000	97.639273
3242.000000	97.639482
3241.000000	97.640356
3240.000000	97.642057
3239.000000	97.644302
3238.000000	97.646420
3237.000000	97.647793
3236.000000	97.648333
3235.000000	97.648446
3234.000000	97.648599
3233.000000	97.648987
3232.000000	97.649597
3231.000000	97.650423
3230.000000	97.651487
3229.000000	97.652711
3228.000000	97.653890
3227.000000	97.654829
3226.000000	97.655492
3225.000000	97.656018
3224.000000	97.656607
3223.000000	97.657379
3222.000000	97.658317
3221.000000	97.659324
3220.000000	97.660307
3219.000000	97.661214
3218.000000	97.662047
3217.000000	97.662840
3216.000000	97.663639
3215.000000	97.664458
3214.000000	97.665275
3213.000000	97.666065
3212.000000	97.666846
3211.000000	97.667655
3210.000000	97.668511
3209.000000	97.669386
3208.000000	97.670214
3207.000000	97.670939
3206.000000	97.671549
3205.000000	97.672098
3204.000000	97.672656
3203.000000	97.673240
3202.000000	97.673814
3201.000000	97.674343
3200.000000	97.674856
3199.000000	97.675432
3198.000000	97.676121
3197.000000	97.676861
3196.000000	97.677495
3195.000000	97.677913
3194.000000	97.678121
3193.000000	97.678233
3192.000000	97.678420
3191.000000	97.678858
3190.000000	97.679642
3189.000000	97.680669
3188.000000	97.681615
3187.000000	97.682199
3186.000000	97.682414
3185.000000	97.682503
3184.000000	97.682715
3183.000000	97.683079
3182.000000	97.683383
3181.000000	97.683372
3180.000000	97.683030
3179.000000	97.682708
3178.000000	97.682855
3177.000000	97.683584
3176.000000	97.684548
3175.000000	97.685218
3174.000000	97.685238
3173.000000	97.684585
3172.000000	97.683694
3171.000000	97.683373
3170.000000	97.684222
3169.000000	97.686010
3168.000000	97.687783
3167.000000	97.688840
3166.000000	97.689395
3165.000000	97.690061
3164.000000	97.691052
3163.000000	97.692128
3162.000000	97.693033
3161.000000	97.693615
3160.000000	97.693752
3159.000000	97.693567
3158.000000	97.693619
3157.000000	97.694450
3156.000000	97.695973
3155.000000	97.697653
3154.000000	97.699304
3153.000000	97.701195
3152.000000	97.703293
3151.000000	97.704876
3150.000000	97.705232
3149.000000	97.704410
3148.000000	97.703141
3147.000000	97.702203
3146.000000	97.701978
3145.000000	97.702430
3144.000000	97.703173
3143.000000	97.703640
3142.000000	97.703519
3141.000000	97.703111
3140.000000	97.703153
3139.000000	97.704190
3138.000000	97.706079
3137.000000	97.708035
3136.000000	97.709228
3135.000000	97.709399
3134.000000	97.708931
3133.000000	97.708347
3132.000000	97.707845
3131.000000	97.707401
3130.000000	97.707127
3129.000000	97.707364
3128.000000	97.708410
3127.000000	97.710162
3126.000000	97.712042
3125.000000	97.713385
3124.000000	97.713994
3123.000000	97.714270
3122.000000	97.714697
3121.000000	97.715247
3120.000000	97.715521
3119.000000	97.715486
3118.000000	97.715756
3117.000000	97.716904
3116.000000	97.718761
3115.000000	97.720587
3114.000000	97.721855
3113.000000	97.722678
3112.000000	97.723507
3111.000000	97.724621
3110.000000	97.725898
3109.000000	97.726942
3108.000000	97.727443
3107.000000	97.727459
3106.000000	97.727424
3105.000000	97.727831
3104.000000	97.728910
3103.000000	97.730597
3102.000000	97.732664
3101.000000	97.734827
3100.000000	97.736770
3099.000000	97.738275
3098.000000	97.739349
3097.000000	97.740092
3096.000000	97.740489
3095.000000	97.740520
3094.000000	97.740448
3093.000000	97.740798
3092.000000	97.741905
3091.000000	97.743605
3090.000000	97.745357
3089.000000	97.746659
3088.000000	97.747339
3087.000000	97.747526
3086.000000	97.747524
3085.000000	97.747667
3084.000000	97.748161
3083.000000	97.749039
3082.000000	97.750252
3081.000000	97.751748
3080.000000	97.753411
3079.000000	97.754985
3078.000000	97.756199
3077.000000	97.757028
3076.000000	97.757748
3075.000000	97.758677
3074.000000	97.759850
3073.000000	97.760993
3072.000000	97.761826
3071.000000	97.762333
3070.000000	97.762718
3069.000000	97.763191
3068.000000	97.763856
3067.000000	97.764721
3066.000000	97.765612
3065.000000	97.766112
3064.000000	97.765882
3063.000000	97.765180
3062.000000	97.764888
3061.000000	97.765746
3060.000000	97.767647
3059.000000	97.769800
3058.000000	97.771490
3057.000000	97.772441
3056.000000	97.772638
3055.000000	97.772221
3054.000000	97.771623
3053.000000	97.771356
3052.000000	97.771495
3051.000000	97.771731
3050.000000	97.772044
3049.000000	97.772856
3048.000000	97.774242
3047.000000	97.775411
3046.000000	97.775465
3045.000000	97.774362
3044.000000	97.772792
3043.000000	97.771338
3042.000000	97.770078
3041.000000	97.768935
3040.000000	97.768009
3039.000000	97.767537
3038.000000	97.767708
3037.000000	97.768419
3036.000000	97.769073
3035.000000	97.768927
3034.000000	97.767982
3033.000000	97.767219
3032.000000	97.767406
3031.000000	97.767925
3030.000000	97.767436
3029.000000	97.765715
3028.000000	97.764020
3027.000000	97.763412
3026.000000	97.763484
3025.000000	97.763311
3024.000000	97.763077
3023.000000	97.763801
3022.000000	97.765599
3021.000000	97.767217
3020.000000	97.767698
3019.000000	97.767929
3018.000000	97.769755
3017.000000	97.773561
3016.000000	97.777301
3015.000000	97.778399
3014.000000	97.776145
3013.000000	97.772003
3012.000000	97.767963
3011.000000	97.765066
3010.000000	97.763477
3009.000000	97.763161
3008.000000	97.763986
3007.000000	97.765458
3006.000000	97.766668
3005.000000	97.766583
3004.000000	97.764661
3003.000000	97.761703
3002.000000	97.759932
3001.000000	97.761398
3000.000000	97.765771
2999.000000	97.770138
2998.000000	97.771618
2997.000000	97.770074
2996.000000	97.767969
2995.000000	97.767956
2994.000000	97.770917
2993.000000	97.775820
2992.000000	97.780632
2991.000000	97.783562
2990.000000	97.784141
2989.000000	97.783493
2988.000000	97.783549
2987.000000	97.785991
2986.000000	97.791570
2985.000000	97.799573
2984.000000	97.807696
2983.000000	97.813543
2982.000000	97.817148
2981.000000	97.821338
2980.000000	97.828484
2979.000000	97.837121
2978.000000	97.843077
2977.000000	97.843912
2976.000000	97.841129
2975.000000	97.838111
2974.000000	97.836881
2973.000000	97.837076
2972.000000	97.836960
2971.000000	97.834732
2970.000000	97.829451
2969.000000	97.821558
2968.000000	97.812560
2967.000000	97.803975
2966.000000	97.796742
2965.000000	97.791382
2964.000000	97.787796
2963.000000	97.784688
2962.000000	97.780109
2961.000000	97.773399
2960.000000	97.766264
2959.000000	97.761493
2958.000000	97.760775
2957.000000	97.763815
2956.000000	97.768793
2955.000000	97.773123
2954.000000	97.774471
2953.000000	97.772102
2952.000000	97.767537
2951.000000	97.763565
2950.000000	97.762384
2949.000000	97.764545
2948.000000	97.769060
2947.000000	97.773922
2946.000000	97.776934
2945.000000	97.776930
2944.000000	97.774552
2943.000000	97.771616
2942.000000	97.769496
2941.000000	97.768298
2940.000000	97.767561
2939.000000	97.767246
2938.000000	97.767592
2937.000000	97.768218
2936.000000	97.768026
2935.000000	97.766405
2934.000000	97.764311
2933.000000	97.763657
2932.000000	97.765492
2931.000000	97.769023
2930.000000	97.772372
2929.000000	97.774235
2928.000000	97.774688
2927.000000	97.774655
2926.000000	97.775001
2925.000000	97.775982
2924.000000	97.777176
2923.000000	97.777866
2922.000000	97.777731
2921.000000	97.777286
2920.000000	97.777496
2919.000000	97.778894
2918.000000	97.781253
2917.000000	97.783960
2916.000000	97.786417
2915.000000	97.788073
2914.000000	97.788523
2913.000000	97.787946
2912.000000	97.787318
2911.000000	97.787704
2910.000000	97.789271
2909.000000	97.791318
2908.000000	97.793166
2907.000000	97.794706
2906.000000	97.796072
2905.000000	97.797266
2904.000000	97.798360
2903.000000	97.799704
2902.000000	97.801619
2901.000000	97.803990
2900.000000	97.806438
2899.000000	97.808705
2898.000000	97.810710
2897.000000	97.812410
2896.000000	97.813879
2895.000000	97.815394
2894.000000	97.817126
2893.000000	97.818751
2892.000000	97.819680
2891.000000	97.819736
2890.000000	97.819418
2889.000000	97.819454
2888.000000	97.820218
2887.000000	97.821502
2886.000000	97.822765
2885.000000	97.823642
2884.000000	97.824380
2883.000000	97.825728
2882.000000	97.828186
2881.000000	97.831264
2880.000000	97.833587
2879.000000	97.833897
2878.000000	97.831998
2877.000000	97.828918
2876.000000	97.826295
2875.000000	97.825328
2874.000000	97.826213
2873.000000	97.828403
2872.000000	97.831196
2871.000000	97.834039
2870.000000	97.836421
2869.000000	97.837851
2868.000000	97.838131
2867.000000	97.837470
2866.000000	97.836100
2865.000000	97.834032
2864.000000	97.831442
2863.000000	97.829107
2862.000000	97.827997
2861.000000	97.828389
2860.000000	97.829605
2859.000000	97.830698
2858.000000	97.831289
2857.000000	97.831692
2856.000000	97.832458
2855.000000	97.833889
2854.000000	97.835794
2853.000000	97.837570
2852.000000	97.838695
2851.000000	97.839340
2850.000000	97.840402
2849.000000	97.842731
2848.000000	97.846241
2847.000000	97.849729
2846.000000	97.851735
2845.000000	97.851668
2844.000000	97.850160
2843.000000	97.848571
2842.000000	97.847990
2841.000000	97.848623
2840.000000	97.849980
2839.000000	97.851458
2838.000000	97.852807
2837.000000	97.854135
2836.000000	97.855537
2835.000000	97.856801
2834.000000	97.857566
2833.000000	97.857776
2832.000000	97.857821
2831.000000	97.858084
2830.000000	97.858431
2829.000000	97.858451
2828.000000	97.858156
2827.000000	97.858154
2826.000000	97.858997
2825.000000	97.860592
2824.000000	97.862346
2823.000000	97.863723
2822.000000	97.864547
2821.000000	97.864923
2820.000000	97.865135
2819.000000	97.865592
2818.000000	97.866592
2817.000000	97.868075
2816.000000	97.869665
2815.000000	97.871020
2814.000000	97.872110
2813.000000	97.873059
2812.000000	97.873886
2811.000000	97.874559
2810.000000	97.875242
2809.000000	97.876238
2808.000000	97.877566
2807.000000	97.878797
2806.000000	97.879461
2805.000000	97.879539
2804.000000	97.879457
2803.000000	97.879673
2802.000000	97.880359
2801.000000	97.881386
2800.000000	97.882467
2799.000000	97.883293
2798.000000	97.883664
2797.000000	97.883582
2796.000000	97.883211
2795.000000	97.882768
2794.000000	97.882484
2793.000000	97.882656
2792.000000	97.883632
2791.000000	97.885560
2790.000000	97.888085
2789.000000	97.890358
2788.000000	97.891537
2787.000000	97.891384
2786.000000	97.890451
2785.000000	97.889743
2784.000000	97.890012
2783.000000	97.891350
2782.000000	97.893382
2781.000000	97.895770
2780.000000	97.898407
2779.000000	97.901073
2778.000000	97.903182
2777.000000	97.904147
2776.000000	97.904011
2775.000000	97.903511
2774.000000	97.903415
2773.000000	97.903907
2772.000000	97.904672
2771.000000	97.905279
2770.000000	97.905359
2769.000000	97.904763
2768.000000	97.903889
2767.000000	97.903653
2766.000000	97.904701
2765.000000	97.906677
2764.000000	97.908569
2763.000000	97.909833
2762.000000	97.910759
2761.000000	97.911576
2760.000000	97.911707
2759.000000	97.910416
2758.000000	97.907938
2757.000000	97.905582
2756.000000	97.904609
2755.000000	97.905222
2754.000000	97.906687
2753.000000	97.908071
2752.000000	97.908877
2751.000000	97.909104
2750.000000	97.908954
2749.000000	97.908590
2748.000000	97.908059
2747.000000	97.907348
2746.000000	97.906457
2745.000000	97.905437
2744.000000	97.904442
2743.000000	97.903802
2742.000000	97.903992
2741.000000	97.905333
2740.000000	97.907612
2739.000000	97.909995
2738.000000	97.911544
2737.000000	97.911969
2736.000000	97.911804
2735.000000	97.911792
2734.000000	97.912075
2733.000000	97.912195
2732.000000	97.911895
2731.000000	97.911602
2730.000000	97.911914
2729.000000	97.912782
2728.000000	97.913513
2727.000000	97.913552
2726.000000	97.913007
2725.000000	97.912365
2724.000000	97.911942
2723.000000	97.911760
2722.000000	97.911811
2721.000000	97.912188
2720.000000	97.912934
2719.000000	97.913884
2718.000000	97.914713
2717.000000	97.915110
2716.000000	97.914993
2715.000000	97.914605
2714.000000	97.914317
2713.000000	97.914269
2712.000000	97.914324
2711.000000	97.914395
2710.000000	97.914612
2709.000000	97.915026
2708.000000	97.915341
2707.000000	97.915189
2706.000000	97.914624
2705.000000	97.914164
2704.000000	97.914233
2703.000000	97.914743
2702.000000	97.915257
2701.000000	97.915435
2700.000000	97.915256
2699.000000	97.914919
2698.000000	97.914722
2697.000000	97.914916
2696.000000	97.915585
2695.000000	97.916524
2694.000000	97.917349
2693.000000	97.917792
2692.000000	97.917803
2691.000000	97.917503
2690.000000	97.917057
2689.000000	97.916591
2688.000000	97.916195
2687.000000	97.915988
2686.000000	97.916093
2685.000000	97.916537
2684.000000	97.917243
2683.000000	97.918090
2682.000000	97.918976
2681.000000	97.919723
2680.000000	97.920114
2679.000000	97.920199
2678.000000	97.920399
2677.000000	97.921098
2676.000000	97.922155
2675.000000	97.922972
2674.000000	97.923182
2673.000000	97.923167
2672.000000	97.923668
2671.000000	97.924916
2670.000000	97.926362
2669.000000	97.927272
2668.000000	97.927370
2667.000000	97.926910
2666.000000	97.926391
2665.000000	97.926161
2664.000000	97.926136
2663.000000	97.925890
2662.000000	97.925191
2661.000000	97.924430
2660.000000	97.924324
2659.000000	97.925114
2658.000000	97.926202
2657.000000	97.926623
2656.000000	97.925858
2655.000000	97.924257
2654.000000	97.922938
2653.000000	97.923112
2652.000000	97.925179
2651.000000	97.928191
2650.000000	97.930407
2649.000000	97.930940
2648.000000	97.930572
2647.000000	97.930755
2646.000000	97.931696
2645.000000	97.932005
2644.000000	97.930473
2643.000000	97.927644
2642.000000	97.925353
2641.000000	97.924685
2640.000000	97.924797
2639.000000	97.923903
2638.000000	97.921223
2637.000000	97.917744
2636.000000	97.915071
2635.000000	97.913857
2634.000000	97.913690
2633.000000	97.914206
2632.000000	97.915732
2631.000000	97.918546
2630.000000	97.922000
2629.000000	97.924786
2628.000000	97.926120
2627.000000	97.926309
2626.000000	97.926072
2625.000000	97.925575
2624.000000	97.924434
2623.000000	97.922614
2622.000000	97.920930
2621.000000	97.920309
2620.000000	97.920718
2619.000000	97.921208
2618.000000	97.921106
2617.000000	97.920822
2616.000000	97.921187
2615.000000	97.922238
2614.000000	97.923065
2613.000000	97.922813
2612.000000	97.921497
2611.000000	97.919801
2610.000000	97.918461
2609.000000	97.917890
2608.000000	97.918082
2607.000000	97.918661
2606.000000	97.919069
2605.000000	97.918980
2604.000000	97.918549
2603.000000	97.918203
2602.000000	97.918241
2601.000000	97.918635
2600.000000	97.919143
2599.000000	97.919552
2598.000000	97.919800
2597.000000	97.919943
2596.000000	97.920044
2595.000000	97.920144
2594.000000	97.920258
2593.000000	97.920375
2592.000000	97.920480
2591.000000	97.920561
2590.000000	97.920612
2589.000000	97.920628
2588.000000	97.920618
2587.000000	97.920598
2586.000000	97.920581
2585.000000	97.920573
2584.000000	97.920572
2583.000000	97.920578
2582.000000	97.920588
2581.000000	97.920604
2580.000000	97.920626
2579.000000	97.920656
2578.000000	97.920695
2577.000000	97.920740
2576.000000	97.920785
2575.000000	97.920815
2574.000000	97.920821
2573.000000	97.920804
2572.000000	97.920776
2571.000000	97.920754
2570.000000	97.920750
2569.000000	97.920765
2568.000000	97.920794
2567.000000	97.920843
2566.000000	97.920897
2565.000000	97.920926
2564.000000	97.920924
2563.000000	97.920916
2562.000000	97.920916
2561.000000	97.920919
2560.000000	97.920913
2559.000000	97.920894
2558.000000	97.920892
2557.000000	97.920970
2556.000000	97.921136
2555.000000	97.921257
2554.000000	97.921186
2553.000000	97.921028
2552.000000	97.921092
2551.000000	97.921399
2550.000000	97.921451
2549.000000	97.920790
2548.000000	97.919630
2547.000000	97.918652
2546.000000	97.918199
2545.000000	97.918082
2544.000000	97.918156
2543.000000	97.918562
2542.000000	97.919247
2541.000000	97.919767
2540.000000	97.919823
2539.000000	97.919656
2538.000000	97.919609
2537.000000	97.919548
2536.000000	97.919009
2535.000000	97.917723
2534.000000	97.915873
2533.000000	97.914101
2532.000000	97.913374
2531.000000	97.914405
2530.000000	97.916850
2529.000000	97.919349
2528.000000	97.920876
2527.000000	97.921761
2526.000000	97.922970
2525.000000	97.924675
2524.000000	97.926002
2523.000000	97.926173
2522.000000	97.925367
2521.000000	97.924377
2520.000000	97.923777
2519.000000	97.923601
2518.000000	97.923666
2517.000000	97.923936
2516.000000	97.924521
2515.000000	97.925421
2514.000000	97.926371
2513.000000	97.927037
2512.000000	97.927308
2511.000000	97.927296
2510.000000	97.927060
2509.000000	97.926572
2508.000000	97.926075
2507.000000	97.926152
2506.000000	97.927156
2505.000000	97.928638
2504.000000	97.929655
2503.000000	97.929722
2502.000000	97.929214
2501.000000	97.928854
2500.000000	97.928978
2499.000000	97.929423
2498.000000	97.929901
2497.000000	97.930275
2496.000000	97.930533
2495.000000	97.930684
2494.000000	97.930743
2493.000000	97.930770
2492.000000	97.930904
2491.000000	97.931292
2490.000000	97.931923
2489.000000	97.932526
2488.000000	97.932769
2487.000000	97.932664
2486.000000	97.932721
2485.000000	97.933569
2484.000000	97.935390
2483.000000	97.937744
2482.000000	97.939862
2481.000000	97.941145
2480.000000	97.941377
2479.000000	97.940652
2478.000000	97.939235
2477.000000	97.937526
2476.000000	97.935960
2475.000000	97.934802
2474.000000	97.934063
2473.000000	97.933682
2472.000000	97.933712
2471.000000	97.934220
2470.000000	97.935082
2469.000000	97.936048
2468.000000	97.936999
2467.000000	97.937956
2466.000000	97.938818
2465.000000	97.939318
2464.000000	97.939304
2463.000000	97.938870
2462.000000	97.938189
2461.000000	97.937427
2460.000000	97.936922
2459.000000	97.937064
2458.000000	97.937792
2457.000000	97.938400
2456.000000	97.938185
2455.000000	97.937170
2454.000000	97.936051
2453.000000	97.935482
2452.000000	97.935578
2451.000000	97.936073
2450.000000	97.936656
2449.000000	97.937096
2448.000000	97.937292
2447.000000	97.937336
2446.000000	97.937423
2445.000000	97.937567
2444.000000	97.937520
2443.000000	97.937038
2442.000000	97.936161
2441.000000	97.935196
2440.000000	97.934501
2439.000000	97.934308
2438.000000	97.934627
2437.000000	97.935178
2436.000000	97.935535
2435.000000	97.935534
2434.000000	97.935472
2433.000000	97.935777
2432.000000	97.936516
2431.000000	97.937315
2430.000000	97.937765
2429.000000	97.937793
2428.000000	97.937643
2427.000000	97.937636
2426.000000	97.937952
2425.000000	97.938580
2424.000000	97.939334
2423.000000	97.939962
2422.000000	97.940330
2421.000000	97.940514
2420.000000	97.940644
2419.000000	97.940649
2418.000000	97.940271
2417.000000	97.939450
2416.000000	97.938644
2415.000000	97.938528
2414.000000	97.939347
2413.000000	97.940784
2412.000000	97.942337
2411.000000	97.943787
2410.000000	97.945103
2409.000000	97.946125
2408.000000	97.946650
2407.000000	97.946760
2406.000000	97.946803
2405.000000	97.947038
2404.000000	97.947447
2403.000000	97.947932
2402.000000	97.948469
2401.000000	97.949033
2400.000000	97.949560
2399.000000	97.950093
2398.000000	97.950835
2397.000000	97.951937
2396.000000	97.953235
2395.000000	97.954303
2394.000000	97.954836
2393.000000	97.954939
2392.000000	97.955023
2391.000000	97.955443
2390.000000	97.956291
2389.000000	97.957429
2388.000000	97.958681
2387.000000	97.959999
2386.000000	97.961421
2385.000000	97.962853
2384.000000	97.964057
2383.000000	97.964922
2382.000000	97.965645
2381.000000	97.966475
2380.000000	97.967371
2379.000000	97.968118
2378.000000	97.968794
2377.000000	97.969874
2376.000000	97.971716
2375.000000	97.973988
2374.000000	97.975771
2373.000000	97.976340
2372.000000	97.975808
2371.000000	97.975080
2370.000000	97.975082
2369.000000	97.975912
2368.000000	97.976936
2367.000000	97.977728
2366.000000	97.978568
2365.000000	97.979743
2364.000000	97.980850
2363.000000	97.981263
2362.000000	97.981138
2361.000000	97.981678
2360.000000	97.983601
2359.000000	97.986157
2358.000000	97.988274
2357.000000	97.989477
2356.000000	97.990046
2355.000000	97.990069
2354.000000	97.989230
2353.000000	97.987638
2352.000000	97.985873
2351.000000	97.984846
2350.000000	97.984627
2349.000000	97.984681
2348.000000	97.984676
2347.000000	97.984301
2346.000000	97.983501
2345.000000	97.982258
2344.000000	97.981257
2343.000000	97.981285
2342.000000	97.982296
2341.000000	97.983646
2340.000000	97.984274
2339.000000	97.983964
2338.000000	97.983193
2337.000000	97.982576
2336.000000	97.982096
2335.000000	97.981302
2334.000000	97.979814
2333.000000	97.977869
2332.000000	97.976116
2331.000000	97.975321
2330.000000	97.975578
2329.000000	97.976242
2328.000000	97.976576
2327.000000	97.976078
2326.000000	97.975132
2325.000000	97.974056
2324.000000	97.972981
2323.000000	97.971659
2322.000000	97.970047
2321.000000	97.968617
2320.000000	97.967658
2319.000000	97.967098
2318.000000	97.966448
2317.000000	97.965537
2316.000000	97.964477
2315.000000	97.963502
2314.000000	97.962763
2313.000000	97.962341
2312.000000	97.962181
2311.000000	97.961877
2310.000000	97.960967
2309.000000	97.959286
2308.000000	97.957275
2307.000000	97.955469
2306.000000	97.954082
2305.000000	97.952987
2304.000000	97.952132
2303.000000	97.951478
2302.000000	97.950892
2301.000000	97.950336
2300.000000	97.950083
2299.000000	97.950297
2298.000000	97.950667
2297.000000	97.950623
2296.000000	97.950044
2295.000000	97.949235
2294.000000	97.948490
2293.000000	97.947762
2292.000000	97.947062
2291.000000	97.946626
2290.000000	97.946637
2289.000000	97.946818
2288.000000	97.946653
2287.000000	97.945971
2286.000000	97.945131
2285.000000	97.944625
2284.000000	97.944586
2283.000000	97.944738
2282.000000	97.944696
2281.000000	97.944310
2280.000000	97.943737
2279.000000	97.943252
2278.000000	97.942974
2277.000000	97.942802
2276.000000	97.942560
2275.000000	97.942163
2274.000000	97.941650
2273.000000	97.941110
2272.000000	97.940630
2271.000000	97.940253
2270.000000	97.939964
2269.000000	97.939715
2268.000000	97.939459
2267.000000	97.939184
2266.000000	97.938916
2265.000000	97.938686
2264.000000	97.938504
2263.000000	97.938338
2262.000000	97.938133
2261.000000	97.937852
2260.000000	97.937504
2259.000000	97.937139
2258.000000	97.936809
2257.000000	97.936526
2256.000000	97.936239
2255.000000	97.935880
2254.000000	97.935430
2253.000000	97.934961
2252.000000	97.934581
2251.000000	97.934335
2250.000000	97.934193
2249.000000	97.934111
2248.000000	97.934065
2247.000000	97.934001
2246.000000	97.933816
2245.000000	97.933448
2244.000000	97.932982
2243.000000	97.932629
2242.000000	97.932523
2241.000000	97.932598
2240.000000	97.932618
2239.000000	97.932391
2238.000000	97.931878
2237.000000	97.931180
2236.000000	97.930456
2235.000000	97.929844
2234.000000	97.929436
2233.000000	97.929287
2232.000000	97.929403
2231.000000	97.929666
2230.000000	97.929812
2229.000000	97.929604
2228.000000	97.929069
2227.000000	97.928515
2226.000000	97.928223
2225.000000	97.928189
2224.000000	97.928272
2223.000000	97.928479
2222.000000	97.928913
2221.000000	97.929481
2220.000000	97.929918
2219.000000	97.930126
2218.000000	97.930304
2217.000000	97.930619
2216.000000	97.930934
2215.000000	97.930988
2214.000000	97.930732
2213.000000	97.930284
2212.000000	97.929676
2211.000000	97.928875
2210.000000	97.928024
2209.000000	97.927455
2208.000000	97.927367
2207.000000	97.927597
2206.000000	97.927795
2205.000000	97.927798
2204.000000	97.927787
2203.000000	97.928053
2202.000000	97.928677
2201.000000	97.929440
2200.000000	97.930004
2199.000000	97.930136
2198.000000	97.929858
2197.000000	97.929439
2196.000000	97.929221
2195.000000	97.929329
2194.000000	97.929550
2193.000000	97.929617
2192.000000	97.929587
2191.000000	97.929800
2190.000000	97.930404
2189.000000	97.931112
2188.000000	97.931543
2187.000000	97.931722
2186.000000	97.932002
2185.000000	97.932523
2184.000000	97.932998
2183.000000	97.933111
2182.000000	97.932969
2181.000000	97.932999
2180.000000	97.933469
2179.000000	97.934213
2178.000000	97.934810
2177.000000	97.934971
2176.000000	97.934736
2175.000000	97.934407
2174.000000	97.934305
2173.000000	97.934590
2172.000000	97.935247
2171.000000	97.936179
2170.000000	97.937209
2169.000000	97.937991
2168.000000	97.938102
2167.000000	97.937334
2166.000000	97.935934
2165.000000	97.934514
2164.000000	97.933663
2163.000000	97.933676
2162.000000	97.934506
2161.000000	97.935788
2160.000000	97.936986
2159.000000	97.937791
2158.000000	97.938439
2157.000000	97.939481
2156.000000	97.941130
2155.000000	97.942921
2154.000000	97.944100
2153.000000	97.944262
2152.000000	97.943539
2151.000000	97.942362
2150.000000	97.941153
2149.000000	97.940165
2148.000000	97.939452
2147.000000	97.938960
2146.000000	97.938679
2145.000000	97.938695
2144.000000	97.939050
2143.000000	97.939615
2142.000000	97.940176
2141.000000	97.940617
2140.000000	97.940973
2139.000000	97.941397
2138.000000	97.942083
2137.000000	97.943088
2136.000000	97.944142
2135.000000	97.944771
2134.000000	97.944764
2133.000000	97.944454
2132.000000	97.944380
2131.000000	97.944693
2130.000000	97.945037
2129.000000	97.944994
2128.000000	97.944546
2127.000000	97.944061
2126.000000	97.943818
2125.000000	97.943565
2124.000000	97.942672
2123.000000	97.940928
2122.000000	97.939129
2121.000000	97.938475
2120.000000	97.939278
2119.000000	97.940687
2118.000000	97.941734
2117.000000	97.942419
2116.000000	97.943250
2115.000000	97.944201
2114.000000	97.944775
2113.000000	97.944914
2112.000000	97.945121
2111.000000	97.945588
2110.000000	97.945853
2109.000000	97.945580
2108.000000	97.945160
2107.000000	97.945199
2106.000000	97.945676
2105.000000	97.946034
2104.000000	97.945955
2103.000000	97.945695
2102.000000	97.945670
2101.000000	97.946001
2100.000000	97.946528
2099.000000	97.947043
2098.000000	97.947426
2097.000000	97.947649
2096.000000	97.947760
2095.000000	97.947855
2094.000000	97.948000
2093.000000	97.948174
2092.000000	97.948307
2091.000000	97.948363
2090.000000	97.948390
2089.000000	97.948455
2088.000000	97.948523
2087.000000	97.948446
2086.000000	97.948138
2085.000000	97.947724
2084.000000	97.947478
2083.000000	97.947558
2082.000000	97.947872
2081.000000	97.948193
2080.000000	97.948406
2079.000000	97.948578
2078.000000	97.948822
2077.000000	97.949151
2076.000000	97.949467
2075.000000	97.949623
2074.000000	97.949536
2073.000000	97.949295
2072.000000	97.949131
2071.000000	97.949205
2070.000000	97.949427
2069.000000	97.949535
2068.000000	97.949339
2067.000000	97.948863
2066.000000	97.948315
2065.000000	97.947962
2064.000000	97.947955
2063.000000	97.948240
2062.000000	97.948569
2061.000000	97.948684
2060.000000	97.948529
2059.000000	97.948244
2058.000000	97.948018
2057.000000	97.947959
2056.000000	97.948079
2055.000000	97.948286
2054.000000	97.948384
2053.000000	97.948217
2052.000000	97.947803
2051.000000	97.947307
2050.000000	97.946880
2049.000000	97.946585
2048.000000	97.946444
2047.000000	97.946460
2046.000000	97.946565
2045.000000	97.946633
2044.000000	97.946602
2043.000000	97.946512
2042.000000	97.946354
2041.000000	97.945959
2040.000000	97.945146
2039.000000	97.943947
2038.000000	97.942638
2037.000000	97.941603
2036.000000	97.941068
2035.000000	97.940909
2034.000000	97.940741
2033.000000	97.940285
2032.000000	97.939623
2031.000000	97.939005
2030.000000	97.938475
2029.000000	97.937893
2028.000000	97.937200
2027.000000	97.936473
2026.000000	97.935622
2025.000000	97.934436
2024.000000	97.932945
2023.000000	97.931569
2022.000000	97.930762
2021.000000	97.930596
2020.000000	97.930808
2019.000000	97.931068
2018.000000	97.931056
2017.000000	97.930517
2016.000000	97.929516
2015.000000	97.928523
2014.000000	97.928008
2013.000000	97.928004
2012.000000	97.928186
2011.000000	97.928285
2010.000000	97.928212
2009.000000	97.927844
2008.000000	97.926981
2007.000000	97.925683
2006.000000	97.924392
2005.000000	97.923614
2004.000000	97.923395
2003.000000	97.923236
2002.000000	97.922559
2001.000000	97.921136
2000.000000	97.919366
1999.000000	97.917883
1998.000000	97.917044
1997.000000	97.916784
1996.000000	97.916763
1995.000000	97.916618
1994.000000	97.916168
1993.000000	97.915442
1992.000000	97.914573
1991.000000	97.913786
1990.000000	97.913431
1989.000000	97.913787
1988.000000	97.914662
1987.000000	97.915394
1986.000000	97.915512
1985.000000	97.915255
1984.000000	97.915137
1983.000000	97.915112
1982.000000	97.914656
1981.000000	97.913611
1980.000000	97.912654
1979.000000	97.912358
1978.000000	97.912499
1977.000000	97.912504
1976.000000	97.912141
1975.000000	97.911493
1974.000000	97.910737
1973.000000	97.910308
1972.000000	97.910776
1971.000000	97.912101
1970.000000	97.913417
1969.000000	97.914008
1968.000000	97.914215
1967.000000	97.914877
1966.000000	97.916069
1965.000000	97.916936
1964.000000	97.916774
1963.000000	97.915785
1962.000000	97.914722
1961.000000	97.914168
1960.000000	97.914198
1959.000000	97.914615
1958.000000	97.915302
1957.000000	97.916226
1956.000000	97.917116
1955.000000	97.917426
1954.000000	97.916903
1953.000000	97.916127
1952.000000	97.915854
1951.000000	97.916115
1950.000000	97.916104
1949.000000	97.915142
1948.000000	97.913558
1947.000000	97.912247
1946.000000	97.911626
1945.000000	97.911435
1944.000000	97.911293
1943.000000	97.910981
1942.000000	97.910327
1941.000000	97.909353
1940.000000	97.908329
1939.000000	97.907405
1938.000000	97.906435
1937.000000	97.905361
1936.000000	97.904532
1935.000000	97.904347
1934.000000	97.904760
1933.000000	97.905478
1932.000000	97.906165
1931.000000	97.906577
1930.000000	97.906288
1929.000000	97.905035
1928.000000	97.903540
1927.000000	97.902719
1926.000000	97.902609
1925.000000	97.902074
1924.000000	97.900435
1923.000000	97.898509
1922.000000	97.897429
1921.000000	97.897157
1920.000000	97.896910
1919.000000	97.896268
1918.000000	97.895313
1917.000000	97.894015
1916.000000	97.892413
1915.000000	97.890826
1914.000000	97.889496
1913.000000	97.888232
1912.000000	97.886637
1911.000000	97.884752
1910.000000	97.882996
1909.000000	97.881702
1908.000000	97.881024
1907.000000	97.880771
1906.000000	97.880624
1905.000000	97.879962
1904.000000	97.878425
1903.000000	97.876462
1902.000000	97.874654
1901.000000	97.873045
1900.000000	97.871498
1899.000000	97.869952
1898.000000	97.868478
1897.000000	97.867040
1896.000000	97.865829
1895.000000	97.865350
1894.000000	97.865423
1893.000000	97.864874
1892.000000	97.862948
1891.000000	97.860523
1890.000000	97.859177
1889.000000	97.859166
1888.000000	97.859308
1887.000000	97.858800
1886.000000	97.858048
1885.000000	97.857844
1884.000000	97.858421
1883.000000	97.859408
1882.000000	97.859944
1881.000000	97.859220
1880.000000	97.857291
1879.000000	97.854890
1878.000000	97.852826
1877.000000	97.851517
1876.000000	97.851020
1875.000000	97.851527
1874.000000	97.853009
1873.000000	97.854458
1872.000000	97.854578
1871.000000	97.853154
1870.000000	97.851261
1869.000000	97.850090
1868.000000	97.850173
1867.000000	97.851617
1866.000000	97.853860
1865.000000	97.855690
1864.000000	97.856392
1863.000000	97.856608
1862.000000	97.857460
1861.000000	97.858922
1860.000000	97.859857
1859.000000	97.859693
1858.000000	97.859355
1857.000000	97.860321
1856.000000	97.863184
1855.000000	97.867190
1854.000000	97.870834
1853.000000	97.872910
1852.000000	97.873897
1851.000000	97.874613
1850.000000	97.875239
1849.000000	97.875586
1848.000000	97.875757
1847.000000	97.876048
1846.000000	97.876315
1845.000000	97.876226
1844.000000	97.876114
1843.000000	97.877225
1842.000000	97.880087
1841.000000	97.883618
1840.000000	97.886566
1839.000000	97.888530
1838.000000	97.890020
1837.000000	97.891219
1836.000000	97.891803
1835.000000	97.891722
1834.000000	97.891450
1833.000000	97.891667
1832.000000	97.892896
1831.000000	97.894795
1830.000000	97.896493
1829.000000	97.897112
1828.000000	97.896185
1827.000000	97.893876
1826.000000	97.891356
1825.000000	97.890418
1824.000000	97.891598
1823.000000	97.893743
1822.000000	97.895330
1821.000000	97.895847
1820.000000	97.895734
1819.000000	97.895667
1818.000000	97.896269
1817.000000	97.897276
1816.000000	97.897925
1815.000000	97.898142
1814.000000	97.898375
1813.000000	97.899018
1812.000000	97.899516
1811.000000	97.899444
1810.000000	97.899330
1809.000000	97.899292
1808.000000	97.898758
1807.000000	97.897468
1806.000000	97.895795
1805.000000	97.894237
1804.000000	97.893135
1803.000000	97.892872
1802.000000	97.893103
1801.000000	97.893484
1800.000000	97.893670
1799.000000	97.893890
1798.000000	97.894262
1797.000000	97.894317
1796.000000	97.894139
1795.000000	97.894687
1794.000000	97.896317
1793.000000	97.898444
1792.000000	97.899876
1791.000000	97.900989
1790.000000	97.902945
1789.000000	97.905265
1788.000000	97.906708
1787.000000	97.906784
1786.000000	97.905462
1785.000000	97.902865
1784.000000	97.900486
1783.000000	97.900893
1782.000000	97.904069
1781.000000	97.908453
1780.000000	97.911741
1779.000000	97.913464
1778.000000	97.914764
1777.000000	97.916163
1776.000000	97.917622
1775.000000	97.918479
1774.000000	97.918537
1773.000000	97.918754
1772.000000	97.919531
1771.000000	97.920336
1770.000000	97.921916
1769.000000	97.924870
1768.000000	97.928533
1767.000000	97.931893
1766.000000	97.934538
1765.000000	97.936727
1764.000000	97.938163
1763.000000	97.938587
1762.000000	97.938145
1761.000000	97.938092
1760.000000	97.938839
1759.000000	97.940122
1758.000000	97.941197
1757.000000	97.941587
1756.000000	97.941233
1755.000000	97.940015
1754.000000	97.938570
1753.000000	97.938122
1752.000000	97.939266
1751.000000	97.940554
1750.000000	97.940819
1749.000000	97.940381
1748.000000	97.940075
1747.000000	97.939702
1746.000000	97.938706
1745.000000	97.937985
1744.000000	97.938276
1743.000000	97.939207
1742.000000	97.939877
1741.000000	97.939711
1740.000000	97.938618
1739.000000	97.937534
1738.000000	97.937426
1737.000000	97.938129
1736.000000	97.938761
1735.000000	97.938538
1734.000000	97.936493
1733.000000	97.933586
1732.000000	97.932471
1731.000000	97.933242
1730.000000	97.934459
1729.000000	97.934844
1728.000000	97.934260
1727.000000	97.933205
1726.000000	97.932220
1725.000000	97.932029
1724.000000	97.932273
1723.000000	97.932560
1722.000000	97.932895
1721.000000	97.932891
1720.000000	97.932054
1719.000000	97.930768
1718.000000	97.930207
1717.000000	97.929729
1716.000000	97.928329
1715.000000	97.927285
1714.000000	97.927640
1713.000000	97.928130
1712.000000	97.927314
1711.000000	97.925623
1710.000000	97.923985
1709.000000	97.922568
1708.000000	97.921227
1707.000000	97.919742
1706.000000	97.918313
1705.000000	97.916408
1704.000000	97.913944
1703.000000	97.911334
1702.000000	97.908670
1701.000000	97.905432
1700.000000	97.900368
1699.000000	97.895496
1698.000000	97.893417
1697.000000	97.892478
1696.000000	97.891182
1695.000000	97.889888
1694.000000	97.889626
1693.000000	97.889686
1692.000000	97.888794
1691.000000	97.887290
1690.000000	97.885811
1689.000000	97.884458
1688.000000	97.883342
1687.000000	97.881509
1686.000000	97.878814
1685.000000	97.875762
1684.000000	97.872975
1683.000000	97.871034
1682.000000	97.869650
1681.000000	97.867883
1680.000000	97.866427
1679.000000	97.865795
1678.000000	97.865151
1677.000000	97.863615
1676.000000	97.861010
1675.000000	97.857539
1674.000000	97.853676
1673.000000	97.851057
1672.000000	97.850122
1671.000000	97.850592
1670.000000	97.850872
1669.000000	97.849440
1668.000000	97.847376
1667.000000	97.845853
1666.000000	97.844282
1665.000000	97.842041
1664.000000	97.839421
1663.000000	97.837745
1662.000000	97.836715
1661.000000	97.835877
1660.000000	97.835461
1659.000000	97.834774
1658.000000	97.832548
1657.000000	97.828856
1656.000000	97.824439
1655.000000	97.820123
1654.000000	97.817762
1653.000000	97.814841
1652.000000	97.809333
1651.000000	97.807689
1650.000000	97.808128
1649.000000	97.807728
1648.000000	97.806766
1647.000000	97.805713
1646.000000	97.804810
1645.000000	97.805328
1644.000000	97.807709
1643.000000	97.810929
1642.000000	97.812529
1641.000000	97.811258
1640.000000	97.808256
1639.000000	97.805320
1638.000000	97.804215
1637.000000	97.805373
1636.000000	97.807861
1635.000000	97.808294
1634.000000	97.807609
1633.000000	97.807666
1632.000000	97.808152
1631.000000	97.809420
1630.000000	97.811881
1629.000000	97.815247
1628.000000	97.818503
1627.000000	97.820547
1626.000000	97.820261
1625.000000	97.818527
1624.000000	97.817802
1623.000000	97.819810
1622.000000	97.823008
1621.000000	97.825524
1620.000000	97.827070
1619.000000	97.827872
1618.000000	97.828824
1617.000000	97.830575
1616.000000	97.833584
1615.000000	97.837698
1614.000000	97.841995
1613.000000	97.846201
1612.000000	97.851395
1611.000000	97.857353
1610.000000	97.861114
1609.000000	97.861168
1608.000000	97.859760
1607.000000	97.859924
1606.000000	97.861581
1605.000000	97.863895
1604.000000	97.866750
1603.000000	97.869543
1602.000000	97.871530
1601.000000	97.873083
1600.000000	97.875543
1599.000000	97.879356
1598.000000	97.883547
1597.000000	97.887015
1596.000000	97.889303
1595.000000	97.890504
1594.000000	97.891019
1593.000000	97.891692
1592.000000	97.893234
1591.000000	97.895301
1590.000000	97.896672
1589.000000	97.896797
1588.000000	97.896471
1587.000000	97.896763
1586.000000	97.897807
1585.000000	97.898974
1584.000000	97.900192
1583.000000	97.901194
1582.000000	97.901708
1581.000000	97.902036
1580.000000	97.902727
1579.000000	97.903667
1578.000000	97.904646
1577.000000	97.905786
1576.000000	97.906985
1575.000000	97.907844
1574.000000	97.908228
1573.000000	97.908337
1572.000000	97.908417
1571.000000	97.908656
1570.000000	97.909052
1569.000000	97.909504
1568.000000	97.910028
1567.000000	97.910521
1566.000000	97.910899
1565.000000	97.911180
1564.000000	97.911430
1563.000000	97.911628
1562.000000	97.911750
1561.000000	97.911846
1560.000000	97.912039
1559.000000	97.912318
1558.000000	97.912466
1557.000000	97.912472
1556.000000	97.912389
1555.000000	97.912233
1554.000000	97.912031
1553.000000	97.911836
1552.000000	97.911674
1551.000000	97.911538
1550.000000	97.911452
1549.000000	97.911432
1548.000000	97.911472
1547.000000	97.911532
1546.000000	97.911561
1545.000000	97.911518
1544.000000	97.911394
1543.000000	97.911231
1542.000000	97.911134
1541.000000	97.911198
1540.000000	97.911375
1539.000000	97.911425
1538.000000	97.911270
1537.000000	97.910986
1536.000000	97.910635
1535.000000	97.910336
1534.000000	97.910188
1533.000000	97.910153
1532.000000	97.910020
1531.000000	97.909701
1530.000000	97.909305
1529.000000	97.908974
1528.000000	97.908826
1527.000000	97.908865
1526.000000	97.908821
1525.000000	97.908475
1524.000000	97.907961
1523.000000	97.907757
1522.000000	97.908224
1521.000000	97.908770
1520.000000	97.908723
1519.000000	97.908476
1518.000000	97.908685
1517.000000	97.909672
1516.000000	97.910943
1515.000000	97.912016
1514.000000	97.912779
1513.000000	97.913275
1512.000000	97.913254
1511.000000	97.912913
1510.000000	97.912960
1509.000000	97.914036
1508.000000	97.916130
1507.000000	97.918150
1506.000000	97.918654
1505.000000	97.918348
1504.000000	97.918294
1503.000000	97.918009
1502.000000	97.917338
1501.000000	97.916769
1500.000000	97.916709
1499.000000	97.916874
1498.000000	97.917074
1497.000000	97.917218
1496.000000	97.916984
1495.000000	97.917318
1494.000000	97.919261
1493.000000	97.922428
1492.000000	97.925356
1491.000000	97.926924
1490.000000	97.927032
1489.000000	97.926363
1488.000000	97.925471
1487.000000	97.925172
1486.000000	97.925779
1485.000000	97.926386
1484.000000	97.926702
1483.000000	97.926564
1482.000000	97.926107
1481.000000	97.925102
1480.000000	97.923214
1479.000000	97.920797
1478.000000	97.919003
1477.000000	97.918700
1476.000000	97.919221
1475.000000	97.919346
1474.000000	97.918415
1473.000000	97.917446
1472.000000	97.917368
1471.000000	97.917819
1470.000000	97.917939
1469.000000	97.917283
1468.000000	97.916104
1467.000000	97.915426
1466.000000	97.916040
1465.000000	97.917939
1464.000000	97.920008
1463.000000	97.920827
1462.000000	97.920508
1461.000000	97.919762
1460.000000	97.919184
1459.000000	97.918430
1458.000000	97.916717
1457.000000	97.913473
1456.000000	97.909892
1455.000000	97.907772
1454.000000	97.906564
1453.000000	97.905424
1452.000000	97.904187
1451.000000	97.903220
1450.000000	97.903262
1449.000000	97.904812
1448.000000	97.906986
1447.000000	97.908228
1446.000000	97.907279
1445.000000	97.905129
1444.000000	97.902979
1443.000000	97.900818
1442.000000	97.898539
1441.000000	97.896450
1440.000000	97.894794
1439.000000	97.893089
1438.000000	97.892094
1437.000000	97.892569
1436.000000	97.893440
1435.000000	97.893106
1434.000000	97.892168
1433.000000	97.891471
1432.000000	97.891070
1431.000000	97.890107
1430.000000	97.888549
1429.000000	97.887368
1428.000000	97.886815
1427.000000	97.886682
1426.000000	97.886163
1425.000000	97.886156
1424.000000	97.887231
1423.000000	97.887985
1422.000000	97.887958
1421.000000	97.888471
1420.000000	97.890257
1419.000000	97.890821
1418.000000	97.889219
1417.000000	97.887987
1416.000000	97.887308
1415.000000	97.884994
1414.000000	97.880778
1413.000000	97.877640
1412.000000	97.877870
1411.000000	97.879963
1410.000000	97.881412
1409.000000	97.881963
1408.000000	97.882606
1407.000000	97.884368
1406.000000	97.886930
1405.000000	97.890319
1404.000000	97.894589
1403.000000	97.898939
1402.000000	97.903390
1401.000000	97.909023
1400.000000	97.916129
1399.000000	97.922026
1398.000000	97.923811
1397.000000	97.921961
1396.000000	97.919448
1395.000000	97.918997
1394.000000	97.921094
1393.000000	97.925241
1392.000000	97.929837
1391.000000	97.932622
1390.000000	97.932676
1389.000000	97.931562
1388.000000	97.931917
1387.000000	97.934824
1386.000000	97.938750
1385.000000	97.942056
1384.000000	97.944512
1383.000000	97.946222
1382.000000	97.947265
1381.000000	97.947609
1380.000000	97.947545
1379.000000	97.947208
1378.000000	97.946237
1377.000000	97.944582
1376.000000	97.943265
1375.000000	97.943507
1374.000000	97.944994
1373.000000	97.946476
1372.000000	97.947356
1371.000000	97.948061
1370.000000	97.948466
1369.000000	97.947992
1368.000000	97.946300
1367.000000	97.943895
1366.000000	97.942037
1365.000000	97.941768
1364.000000	97.943204
1363.000000	97.945527
1362.000000	97.947688
1361.000000	97.949236
1360.000000	97.950104
1359.000000	97.950017
1358.000000	97.948712
1357.000000	97.946740
1356.000000	97.945302
1355.000000	97.945159
1354.000000	97.946003
1353.000000	97.947053
1352.000000	97.947789
1351.000000	97.948585
1350.000000	97.949520
1349.000000	97.950331
1348.000000	97.950585
1347.000000	97.950188
1346.000000	97.949595
1345.000000	97.949395
1344.000000	97.949554
1343.000000	97.949351
1342.000000	97.948244
1341.000000	97.946708
1340.000000	97.945970
1339.000000	97.946785
1338.000000	97.948761
1337.000000	97.950853
1336.000000	97.952127
1335.000000	97.952216
1334.000000	97.951456
1333.000000	97.950504
1332.000000	97.949630
1331.000000	97.948733
1330.000000	97.948042
1329.000000	97.948282
1328.000000	97.949510
1327.000000	97.950607
1326.000000	97.950468
1325.000000	97.949688
1324.000000	97.949782
1323.000000	97.951019
1322.000000	97.952076
1321.000000	97.951623
1320.000000	97.949402
1319.000000	97.946066
1318.000000	97.942941
1317.000000	97.941570
1316.000000	97.942634
1315.000000	97.945323
1314.000000	97.948294
1313.000000	97.950967
1312.000000	97.953100
1311.000000	97.953656
1310.000000	97.951550
1309.000000	97.947649
1308.000000	97.944673
1307.000000	97.944654
1306.000000	97.947055
1305.000000	97.950111
1304.000000	97.952683
1303.000000	97.954337
1302.000000	97.954714
1301.000000	97.953862
1300.000000	97.952551
1299.000000	97.951339
1298.000000	97.949820
1297.000000	97.947480
1296.000000	97.944964
1295.000000	97.943531
1294.000000	97.943531
1293.000000	97.944243
1292.000000	97.945082
1291.000000	97.946163
1290.000000	97.947551
1289.000000	97.948671
1288.000000	97.948848
1287.000000	97.948013
1286.000000	97.946560
1285.000000	97.944765
1284.000000	97.942720
1283.000000	97.940727
1282.000000	97.939369
1281.000000	97.939037
1280.000000	97.939720
1279.000000	97.941288
1278.000000	97.943926
1277.000000	97.947838
1276.000000	97.952433
1275.000000	97.956011
1274.000000	97.956740
1273.000000	97.954107
1272.000000	97.949312
1271.000000	97.944274
1270.000000	97.940388
1269.000000	97.938251
1268.000000	97.938151
1267.000000	97.939991
1266.000000	97.942590
1265.000000	97.943719
1264.000000	97.941849
1263.000000	97.938049
1262.000000	97.935304
1261.000000	97.935160
1260.000000	97.935766
1259.000000	97.934026
1258.000000	97.929309
1257.000000	97.923756
1256.000000	97.919372
1255.000000	97.916316
1254.000000	97.914011
1253.000000	97.912096
1252.000000	97.909562
1251.000000	97.904542
1250.000000	97.896386
1249.000000	97.887211
1248.000000	97.880280
1247.000000	97.877038
1246.000000	97.876158
1245.000000	97.874664
1244.000000	97.869742
1243.000000	97.861053
1242.000000	97.852086
1241.000000	97.847440
1240.000000	97.847370
1239.000000	97.846772
1238.000000	97.841389
1237.000000	97.833144
1236.000000	97.826657
1235.000000	97.822043
1234.000000	97.814903
1233.000000	97.803052
1232.000000	97.789241
1231.000000	97.776569
1230.000000	97.764880
1229.000000	97.753303
1228.000000	97.742990
1227.000000	97.734574
1226.000000	97.724949
1225.000000	97.709407
1224.000000	97.686072
1223.000000	97.656530
1222.000000	97.623558
1221.000000	97.590317
1220.000000	97.560330
1219.000000	97.535040
1218.000000	97.511298
1217.000000	97.483934
1216.000000	97.451256
1215.000000	97.416067
1214.000000	97.380976
1213.000000	97.344744
1212.000000	97.304358
1211.000000	97.259363
1210.000000	97.212917
1209.000000	97.168961
1208.000000	97.128786
1207.000000	97.089915
1206.000000	97.048308
1205.000000	97.002380
1204.000000	96.954658
1203.000000	96.908767
1202.000000	96.865449
1201.000000	96.822837
1200.000000	96.780088
1199.000000	96.738812
1198.000000	96.700636
1197.000000	96.664690
1196.000000	96.627799
1195.000000	96.586633
1194.000000	96.540393
1193.000000	96.492333
1192.000000	96.447426
1191.000000	96.406811
1190.000000	96.365652
1189.000000	96.318557
1188.000000	96.265889
1187.000000	96.212245
1186.000000	96.159849
1185.000000	96.106813
1184.000000	96.051656
1183.000000	95.995636
1182.000000	95.939667
1181.000000	95.881995
1180.000000	95.820178
1179.000000	95.753152
1178.000000	95.680890
1177.000000	95.604857
1176.000000	95.529621
1175.000000	95.460844
1174.000000	95.399627
1173.000000	95.340739
1172.000000	95.277674
1171.000000	95.207970
1170.000000	95.133590
1169.000000	95.058978
1168.000000	94.989649
1167.000000	94.930091
1166.000000	94.881859
1165.000000	94.845612
1164.000000	94.825044
1163.000000	94.825659
1162.000000	94.848702
1161.000000	94.888237
1160.000000	94.933734
1159.000000	94.973152
1158.000000	94.995347
1157.000000	94.994292
1156.000000	94.971987
1155.000000	94.934828
1154.000000	94.886852
1153.000000	94.828826
1152.000000	94.763300
1151.000000	94.696393
1150.000000	94.633385
1149.000000	94.575439
1148.000000	94.521203
1147.000000	94.468287
1146.000000	94.413095
1145.000000	94.353547
1144.000000	94.293049
1143.000000	94.237977
1142.000000	94.190064
1141.000000	94.144769
1140.000000	94.097716
1139.000000	94.048383
1138.000000	93.996679
1137.000000	93.940957
1136.000000	93.881676
1135.000000	93.822871
1134.000000	93.767301
1133.000000	93.713135
1132.000000	93.657328
1131.000000	93.599109
1130.000000	93.538691
1129.000000	93.476095
1128.000000	93.413220
1127.000000	93.353815
1126.000000	93.299032
1125.000000	93.245134
1124.000000	93.187141
1123.000000	93.123194
1122.000000	93.055386
1121.000000	92.988585
1120.000000	92.927669
1119.000000	92.872587
1118.000000	92.816944
1117.000000	92.755578
1116.000000	92.692450
1115.000000	92.635909
1114.000000	92.586900
1113.000000	92.537882
1112.000000	92.483607
1111.000000	92.426659
1110.000000	92.371677
1109.000000	92.320802
1108.000000	92.275578
1107.000000	92.236578
1106.000000	92.199382
1105.000000	92.157191
1104.000000	92.109179
1103.000000	92.060570
1102.000000	92.013739
1101.000000	91.965884
1100.000000	91.916539
1099.000000	91.870086
1098.000000	91.828520
1097.000000	91.788407
1096.000000	91.747155
1095.000000	91.705723
1094.000000	91.662908
1093.000000	91.613671
1092.000000	91.556072
1091.000000	91.494369
1090.000000	91.433112
1089.000000	91.373525
1088.000000	91.317196
1087.000000	91.267116
1086.000000	91.222896
1085.000000	91.180277
1084.000000	91.136672
1083.000000	91.092273
1082.000000	91.046321
1081.000000	90.998790
1080.000000	90.954932
1079.000000	90.920122
1078.000000	90.889994
1077.000000	90.854097
1076.000000	90.809485
1075.000000	90.761978
1074.000000	90.714006
1073.000000	90.661000
1072.000000	90.600809
1071.000000	90.535938
1070.000000	90.463805
1069.000000	90.375327
1068.000000	90.267772
1067.000000	90.150784
1066.000000	90.035326
1065.000000	89.923534
1064.000000	89.813483
1063.000000	89.706087
1062.000000	89.602628
1061.000000	89.502083
1060.000000	89.404651
1059.000000	89.311916
1058.000000	89.221207
1057.000000	89.126629
1056.000000	89.027483
1055.000000	88.928355
1054.000000	88.829248
1053.000000	88.723939
1052.000000	88.610557
1051.000000	88.494799
1050.000000	88.379386
1049.000000	88.259997
1048.000000	88.134697
1047.000000	88.006599
1046.000000	87.874314
1045.000000	87.730581
1044.000000	87.573646
1043.000000	87.411390
1042.000000	87.251745
1041.000000	87.096910
1040.000000	86.948452
1039.000000	86.809255
1038.000000	86.678713
1037.000000	86.554813
1036.000000	86.441810
1035.000000	86.346124
1034.000000	86.264194
1033.000000	86.184983
1032.000000	86.105416
1031.000000	86.032450
1030.000000	85.969447
1029.000000	85.912724
1028.000000	85.862440
1027.000000	85.823806
1026.000000	85.794891
1025.000000	85.765603
1024.000000	85.731822
1023.000000	85.698994
1022.000000	85.669404
1021.000000	85.638020
1020.000000	85.603453
1019.000000	85.570809
1018.000000	85.540636
1017.000000	85.507064
1016.000000	85.470210
1015.000000	85.438570
1014.000000	85.415235
1013.000000	85.392604
1012.000000	85.364437
1011.000000	85.333136
1010.000000	85.302349
1009.000000	85.272595
1008.000000	85.246691
1007.000000	85.229341
1006.000000	85.218892
1005.000000	85.209013
1004.000000	85.199595
1003.000000	85.195729
1002.000000	85.195749
1001.000000	85.192423
1000.000000	85.187175
999.000000	85.190464
998.000000	85.205819
997.000000	85.225532
996.000000	85.244345
995.000000	85.265206
994.000000	85.288877
993.000000	85.310220
992.000000	85.328076
991.000000	85.347193
990.000000	85.367454
989.000000	85.383218
988.000000	85.396768
987.000000	85.420280
986.000000	85.459954
985.000000	85.509082
984.000000	85.560687
983.000000	85.616565
982.000000	85.679874
981.000000	85.749390
980.000000	85.825467
979.000000	85.912013
978.000000	86.008558
977.000000	86.109239
976.000000	86.212717
975.000000	86.324306
974.000000	86.445969
973.000000	86.573362
972.000000	86.704672
971.000000	86.842684
970.000000	86.985810
969.000000	87.126855
968.000000	87.263443
967.000000	87.400744
966.000000	87.541711
965.000000	87.683523
964.000000	87.825171
963.000000	87.968823
962.000000	88.111621
961.000000	88.246064
960.000000	88.371246
959.000000	88.494346
958.000000	88.618463
957.000000	88.738606
956.000000	88.852728
955.000000	88.966454
954.000000	89.082321
953.000000	89.193543
952.000000	89.293835
951.000000	89.385421
950.000000	89.472296
949.000000	89.552737
948.000000	89.623967
947.000000	89.688061
946.000000	89.747935
945.000000	89.802451
944.000000	89.850124
943.000000	89.893267
942.000000	89.934662
941.000000	89.974266
940.000000	90.012155
939.000000	90.049965
938.000000	90.086616
937.000000	90.117898
936.000000	90.143837
935.000000	90.172019
934.000000	90.210093
933.000000	90.258075
932.000000	90.310024
931.000000	90.359506
930.000000	90.402247
929.000000	90.438046
928.000000	90.471908
927.000000	90.509772
926.000000	90.552260
925.000000	90.595779
924.000000	90.638503
923.000000	90.680067
922.000000	90.716832
921.000000	90.744522
920.000000	90.765520
919.000000	90.786608
918.000000	90.809063
917.000000	90.828073
916.000000	90.842598
915.000000	90.858390
914.000000	90.880141
913.000000	90.908481
912.000000	90.946299
911.000000	90.999624
910.000000	91.069078
909.000000	91.147549
908.000000	91.229484
907.000000	91.316477
906.000000	91.411502
905.000000	91.514305
904.000000	91.624733
903.000000	91.744033
902.000000	91.870320
901.000000	91.998579
900.000000	92.126939
899.000000	92.257126
898.000000	92.387693
897.000000	92.513738
896.000000	92.635240
895.000000	92.758820
894.000000	92.888363
893.000000	93.019407
892.000000	93.145202
891.000000	93.263109
890.000000	93.373040
889.000000	93.475221
888.000000	93.572462
887.000000	93.669870
886.000000	93.768813
885.000000	93.864440
884.000000	93.951753
883.000000	94.031217
882.000000	94.106846
881.000000	94.181969
880.000000	94.258447
879.000000	94.336594
878.000000	94.414275
877.000000	94.489457
876.000000	94.564585
875.000000	94.644726
874.000000	94.730450
873.000000	94.816547
872.000000	94.898915
871.000000	94.979021
870.000000	95.060694
869.000000	95.146054
868.000000	95.235369
867.000000	95.327442
866.000000	95.419138
865.000000	95.507291
864.000000	95.591647
863.000000	95.673885
862.000000	95.754493
861.000000	95.833679
860.000000	95.914708
859.000000	96.002202
858.000000	96.095879
857.000000	96.188513
856.000000	96.270910
855.000000	96.337732
854.000000	96.390027
853.000000	96.434868
852.000000	96.481529
851.000000	96.534682
850.000000	96.591047
849.000000	96.644219
848.000000	96.691038
847.000000	96.731199
846.000000	96.764083
845.000000	96.790410
844.000000	96.814391
843.000000	96.838255
842.000000	96.855531
841.000000	96.855810
840.000000	96.836352
839.000000	96.804187
838.000000	96.767635
837.000000	96.731815
836.000000	96.702061
835.000000	96.683125
834.000000	96.671556
833.000000	96.655774
832.000000	96.628522
831.000000	96.594879
830.000000	96.564837
829.000000	96.543653
828.000000	96.534169
827.000000	96.542081
826.000000	96.570257
825.000000	96.610404
824.000000	96.648155
823.000000	96.675886
822.000000	96.695407
821.000000	96.710297
820.000000	96.721565
819.000000	96.729363
818.000000	96.733129
817.000000	96.729168
816.000000	96.711022
815.000000	96.673181
814.000000	96.613554
813.000000	96.532181
812.000000	96.427589
811.000000	96.293409
810.000000	96.118937
809.000000	95.896247
808.000000	95.628816
807.000000	95.331209
806.000000	95.018476
805.000000	94.698599
804.000000	94.377184
803.000000	94.064519
802.000000	93.773613
801.000000	93.515371
800.000000	93.299871
799.000000	93.137355
798.000000	93.032506
797.000000	92.981091
796.000000	92.975841
795.000000	93.011448
794.000000	93.080253
793.000000	93.166921
792.000000	93.251355
791.000000	93.316285
790.000000	93.352999
789.000000	93.363456
788.000000	93.356833
787.000000	93.339933
786.000000	93.309441
785.000000	93.255872
784.000000	93.174667
783.000000	93.070477
782.000000	92.952784
781.000000	92.833533
780.000000	92.728581
779.000000	92.653775
778.000000	92.616759
777.000000	92.617021
776.000000	92.653276
775.000000	92.723418
774.000000	92.817346
773.000000	92.919358
772.000000	93.020774
771.000000	93.123291
770.000000	93.227570
769.000000	93.325505
768.000000	93.406898
767.000000	93.468295
766.000000	93.513053
765.000000	93.548329
764.000000	93.584163
763.000000	93.628841
762.000000	93.680803
761.000000	93.729582
760.000000	93.768147
759.000000	93.800504
758.000000	93.835148
757.000000	93.876006
756.000000	93.922621
755.000000	93.973868
754.000000	94.027478
753.000000	94.079942
752.000000	94.130648
751.000000	94.183191
750.000000	94.240019
749.000000	94.299089
748.000000	94.358442
747.000000	94.420781
746.000000	94.490514
745.000000	94.568591
744.000000	94.652274
743.000000	94.737385
742.000000	94.819324
741.000000	94.895249
740.000000	94.967761
739.000000	95.044105
738.000000	95.129537
737.000000	95.222532
736.000000	95.316626
735.000000	95.404497
734.000000	95.480594
733.000000	95.544035
732.000000	95.600269
731.000000	95.656401
730.000000	95.713047
729.000000	95.763590
728.000000	95.802602
727.000000	95.831582
726.000000	95.855133
725.000000	95.875586
724.000000	95.894749
723.000000	95.918320
722.000000	95.954314
721.000000	96.006574
720.000000	96.070810
719.000000	96.136765
718.000000	96.194517
717.000000	96.240403
716.000000	96.278118
715.000000	96.313716
714.000000	96.349347
713.000000	96.382609
712.000000	96.410709
711.000000	96.432468
710.000000	96.446887
709.000000	96.453898
708.000000	96.457501
707.000000	96.463296
706.000000	96.469996
705.000000	96.466832
704.000000	96.442773
703.000000	96.395574
702.000000	96.327372
701.000000	96.232772
700.000000	96.097301
699.000000	95.911305
698.000000	95.686316
697.000000	95.457987
696.000000	95.271071
695.000000	95.157483
694.000000	95.124435
693.000000	95.159299
692.000000	95.242356
691.000000	95.355395
690.000000	95.483844
689.000000	95.616041
688.000000	95.741763
687.000000	95.851710
686.000000	95.939827
685.000000	96.006443
684.000000	96.057210
683.000000	96.098103
682.000000	96.133996
681.000000	96.172863
680.000000	96.225626
679.000000	96.295340
678.000000	96.368974
677.000000	96.426981
676.000000	96.463728
675.000000	96.492199
674.000000	96.527886
673.000000	96.572585
672.000000	96.616449
671.000000	96.653188
670.000000	96.689548
669.000000	96.741756
668.000000	96.817341
667.000000	96.894500
666.000000	96.948380
665.000000	96.980810
664.000000	97.001478
663.000000	97.013142
662.000000	97.017589
661.000000	97.024716
660.000000	97.048007
659.000000	97.089100
658.000000	97.132417
657.000000	97.161330
656.000000	97.175987
655.000000	97.187425
654.000000	97.199766
653.000000	97.205596
652.000000	97.197026
651.000000	97.174370
650.000000	97.143897
