4000.000000	100.499648
3999.000000	100.497737
3998.000000	100.497511
3997.000000	100.498787
3996.000000	100.500846
3995.000000	100.502623
3994.000000	100.503082
3993.000000	100.501825
3992.000000	100.499473
3991.000000	100.497398
3990.000000	100.496910
3989.000000	100.498555
3988.000000	100.501804
3987.000000	100.505120
3986.000000	100.506721
3985.000000	100.505807
3984.000000	100.503161
3983.000000	100.500445
3982.000000	100.498709
3981.000000	100.497855
3980.000000	100.497577
3979.000000	100.498134
3978.000000	100.499801
3977.000000	100.501854
3976.000000	100.502622
3975.000000	100.500721
3974.000000	100.496122
3973.000000	100.490273
3972.000000	100.485235
3971.000000	100.482293
3970.000000	100.481314
3969.000000	100.481396
3968.000000	100.481999
3967.000000	100.483235
3966.000000	100.485121
3965.000000	100.486970
3964.000000	100.487918
3963.000000	100.487884
3962.000000	100.487668
3961.000000	100.488141
3960.000000	100.489526
3959.000000	100.491365
3958.000000	100.492878
3957.000000	100.493308
3956.000000	100.492244
3955.000000	100.489890
3954.000000	100.487148
3953.000000	100.485251
3952.000000	100.485068
3951.000000	100.486625
3950.000000	100.489161
3949.000000	100.491644
3948.000000	100.493316
3947.000000	100.493939
3946.000000	100.493841
3945.000000	100.493843
3944.000000	100.494720
3943.000000	100.496389
3942.000000	100.497786
3941.000000	100.497865
3940.000000	100.496556
3939.000000	100.494679
3938.000000	100.493019
3937.000000	100.491739
3936.000000	100.490718
3935.000000	100.490084
3934.000000	100.490206
3933.000000	100.491229
3932.000000	100.492744
3931.000000	100.493958
3930.000000	100.494242
3929.000000	100.493494
3928.000000	100.492160
3927.000000	100.491004
3926.000000	100.490563
3925.000000	100.490716
3924.000000	100.490879
3923.000000	100.490648
3922.000000	100.490159
3921.000000	100.489815
3920.000000	100.489830
3919.000000	100.490114
3918.000000	100.490482
3917.000000	100.490861
3916.000000	100.491299
3915.000000	100.491841
3914.000000	100.492398
3913.000000	100.492754
3912.000000	100.492712
3911.000000	100.492262
3910.000000	100.491591
3909.000000	100.490929
3908.000000	100.490432
3907.000000	100.490170
3906.000000	100.490155
3905.000000	100.490325
3904.000000	100.490520
3903.000000	100.490573
3902.000000	100.490407
3901.000000	100.490047
3900.000000	100.489596
3899.000000	100.489203
3898.000000	100.488993
3897.000000	100.488999
3896.000000	100.489150
3895.000000	100.489269
3894.000000	100.489222
3893.000000	100.489024
3892.000000	100.488816
3891.000000	100.488664
3890.000000	100.488473
3889.000000	100.488149
3888.000000	100.487753
3887.000000	100.487451
3886.000000	100.487285
3885.000000	100.487123
3884.000000	100.486859
3883.000000	100.486529
3882.000000	100.486241
3881.000000	100.486056
3880.000000	100.485945
3879.000000	100.485842
3878.000000	100.485678
3877.000000	100.485388
3876.000000	100.484966
3875.000000	100.484464
3874.000000	100.483944
3873.000000	100.483499
3872.000000	100.483279
3871.000000	100.483364
3870.000000	100.483542
3869.000000	100.483482
3868.000000	100.483147
3867.000000	100.482781
3866.000000	100.482601
3865.000000	100.482567
3864.000000	100.482528
3863.000000	100.482481
3862.000000	100.482440
3861.000000	100.482286
3860.000000	100.481959
3859.000000	100.481632
3858.000000	100.481552
3857.000000	100.481776
3856.000000	100.482299
3855.000000	100.483279
3854.000000	100.484337
3853.000000	100.484612
3852.000000	100.484058
3851.000000	100.483351
3850.000000	100.482946
3849.000000	100.482754
3848.000000	100.482497
3847.000000	100.482108
3846.000000	100.481850
3845.000000	100.482128
3844.000000	100.483152
3843.000000	100.484641
3842.000000	100.485962
3841.000000	100.486707
3840.000000	100.486932
3839.000000	100.486784
3838.000000	100.486164
3837.000000	100.484919
3836.000000	100.483296
3835.000000	100.481975
3834.000000	100.481677
3833.000000	100.482669
3832.000000	100.484448
3831.000000	100.486068
3830.000000	100.486932
3829.000000	100.487140
3828.000000	100.487201
3827.000000	100.487348
3826.000000	100.487187
3825.000000	100.486254
3824.000000	100.484863
3823.000000	100.484336
3822.000000	100.485336
3821.000000	100.486169
3820.000000	100.485179
3819.000000	100.483169
3818.000000	100.482303
3817.000000	100.483722
3816.000000	100.485950
3815.000000	100.486966
3814.000000	100.487355
3813.000000	100.489021
3812.000000	100.492326
3811.000000	100.495668
3810.000000	100.497321
3809.000000	100.497547
3808.000000	100.498183
3807.000000	100.500045
3806.000000	100.502225
3805.000000	100.503555
3804.000000	100.503642
3803.000000	100.503064
3802.000000	100.501694
3801.000000	100.498602
3800.000000	100.494532
3799.000000	100.491303
3798.000000	100.489905
3797.000000	100.490017
3796.000000	100.490603
3795.000000	100.490975
3794.000000	100.491031
3793.000000	100.490725
3792.000000	100.489984
3791.000000	100.489154
3790.000000	100.488905
3789.000000	100.489476
3788.000000	100.490413
3787.000000	100.491225
3786.000000	100.492010
3785.000000	100.493203
3784.000000	100.494748
3783.000000	100.495947
3782.000000	100.496035
3781.000000	100.494644
3780.000000	100.491884
3779.000000	100.488442
3778.000000	100.485532
3777.000000	100.484186
3776.000000	100.484542
3775.000000	100.485767
3774.000000	100.486542
3773.000000	100.486085
3772.000000	100.484709
3771.000000	100.483367
3770.000000	100.482659
3769.000000	100.482487
3768.000000	100.482526
3767.000000	100.482695
3766.000000	100.483093
3765.000000	100.483677
3764.000000	100.484184
3763.000000	100.484371
3762.000000	100.484197
3761.000000	100.483862
3760.000000	100.483752
3759.000000	100.484268
3758.000000	100.485355
3757.000000	100.486271
3756.000000	100.486229
3755.000000	100.485142
3754.000000	100.483704
3753.000000	100.482744
3752.000000	100.482478
3751.000000	100.482618
3750.000000	100.483090
3749.000000	100.483951
3748.000000	100.484849
3747.000000	100.485414
3746.000000	100.486004
3745.000000	100.486204
3744.000000	100.484238
3743.000000	100.480171
3742.000000	100.476536
3741.000000	100.475346
3740.000000	100.476629
3739.000000	100.478952
3738.000000	100.480999
3737.000000	100.482321
3736.000000	100.482549
3735.000000	100.481253
3734.000000	100.479066
3733.000000	100.477407
3732.000000	100.476587
3731.000000	100.475489
3730.000000	100.473055
3729.000000	100.469429
3728.000000	100.465706
3727.000000	100.462567
3726.000000	100.459713
3725.000000	100.457011
3724.000000	100.455175
3723.000000	100.454850
3722.000000	100.455451
3721.000000	100.455494
3720.000000	100.454060
3719.000000	100.451791
3718.000000	100.450133
3717.000000	100.449497
3716.000000	100.448935
3715.000000	100.447411
3714.000000	100.444878
3713.000000	100.441893
3712.000000	100.438313
3711.000000	100.433589
3710.000000	100.428064
3709.000000	100.422467
3708.000000	100.416692
3707.000000	100.409951
3706.000000	100.402028
3705.000000	100.394162
3704.000000	100.388405
3703.000000	100.385763
3702.000000	100.384863
3701.000000	100.383089
3700.000000	100.378896
3699.000000	100.372458
3698.000000	100.364846
3697.000000	100.357132
3696.000000	100.350509
3695.000000	100.346776
3694.000000	100.346856
3693.000000	100.348793
3692.000000	100.348435
3691.000000	100.343394
3690.000000	100.336294
3689.000000	100.332516
3688.000000	100.334599
3687.000000	100.340039
3686.000000	100.344739
3685.000000	100.346649
3684.000000	100.345808
3683.000000	100.343114
3682.000000	100.340148
3681.000000	100.338219
3680.000000	100.336180
3679.000000	100.330631
3678.000000	100.320002
3677.000000	100.307507
3676.000000	100.295358
3675.000000	100.282275
3674.000000	100.269301
3673.000000	100.259107
3672.000000	100.253335
3671.000000	100.251384
3670.000000	100.248465
3669.000000	100.240695
3668.000000	100.229571
3667.000000	100.217987
3666.000000	100.206815
3665.000000	100.195574
3664.000000	100.183994
3663.000000	100.172854
3662.000000	100.163365
3661.000000	100.155218
3660.000000	100.146098
3659.000000	100.134046
3658.000000	100.120688
3657.000000	100.110054
3656.000000	100.103313
3655.000000	100.097249
3654.000000	100.087660
3653.000000	100.073008
3652.000000	100.055474
3651.000000	100.038837
3650.000000	100.024816
3649.000000	100.013497
3648.000000	100.005665
3647.000000	100.001522
3646.000000	99.999102
3645.000000	99.995776
3644.000000	99.990178
3643.000000	99.982329
3642.000000	99.972751
3641.000000	99.962273
3640.000000	99.952636
3639.000000	99.945305
3638.000000	99.939222
3637.000000	99.930967
3636.000000	99.918243
3635.000000	99.902660
3634.000000	99.887943
3633.000000	99.875978
3632.000000	99.865581
3631.000000	99.856470
3630.000000	99.850879
3629.000000	99.847790
3628.000000	99.843681
3627.000000	99.837753
3626.000000	99.830819
3625.000000	99.823408
3624.000000	99.815623
3623.000000	99.807581
3622.000000	99.800691
3621.000000	99.797871
3620.000000	99.800945
3619.000000	99.807830
3618.000000	99.814438
3617.000000	99.819274
3616.000000	99.825122
3615.000000	99.836000
3614.000000	99.851824
3613.000000	99.867023
3612.000000	99.876447
3611.000000	99.881496
3610.000000	99.888521
3609.000000	99.901497
3608.000000	99.917378
3607.000000	99.929758
3606.000000	99.935480
3605.000000	99.936048
3604.000000	99.935077
3603.000000	99.935889
3602.000000	99.940375
3601.000000	99.948241
3600.000000	99.957344
3599.000000	99.965229
3598.000000	99.970311
3597.000000	99.972282
3596.000000	99.972574
3595.000000	99.973825
3594.000000	99.977621
3593.000000	99.982746
3592.000000	99.985936
3591.000000	99.985072
3590.000000	99.982088
3589.000000	99.982160
3588.000000	99.988479
3587.000000	99.998500
3586.000000	100.006978
3585.000000	100.010966
3584.000000	100.011019
3583.000000	100.009562
3582.000000	100.008903
3581.000000	100.009608
3580.000000	100.010123
3579.000000	100.008398
3578.000000	100.004097
3577.000000	99.999151
3576.000000	99.996141
3575.000000	99.996417
3574.000000	99.999623
3573.000000	100.004333
3572.000000	100.008691
3571.000000	100.010955
3570.000000	100.010421
3569.000000	100.008027
3568.000000	100.005566
3567.000000	100.004014
3566.000000	100.003370
3565.000000	100.003654
3564.000000	100.005154
3563.000000	100.007765
3562.000000	100.010609
3561.000000	100.012586
3560.000000	100.013168
3559.000000	100.012513
3558.000000	100.011038
3557.000000	100.009207
3556.000000	100.007686
3555.000000	100.007211
3554.000000	100.007918
3553.000000	100.008904
3552.000000	100.008917
3551.000000	100.007620
3550.000000	100.005862
3549.000000	100.004791
3548.000000	100.004840
3547.000000	100.005527
3546.000000	100.005978
3545.000000	100.005690
3544.000000	100.004841
3543.000000	100.004004
3542.000000	100.003674
3541.000000	100.003970
3540.000000	100.004666
3539.000000	100.005418
3538.000000	100.006032
3537.000000	100.006447
3536.000000	100.006497
3535.000000	100.005911
3534.000000	100.004736
3533.000000	100.003618
3532.000000	100.003331
3531.000000	100.003944
3530.000000	100.004641
3529.000000	100.004529
3528.000000	100.003550
3527.000000	100.002487
3526.000000	100.002137
3525.000000	100.002664
3524.000000	100.003695
3523.000000	100.004838
3522.000000	100.006045
3521.000000	100.007419
3520.000000	100.008824
3519.000000	100.009846
3518.000000	100.010160
3517.000000	100.009782
3516.000000	100.008797
3515.000000	100.007026
3514.000000	100.004361
3513.000000	100.001399
3512.000000	99.999297
3511.000000	99.998803
3510.000000	99.999724
3509.000000	100.001424
3508.000000	100.003374
3507.000000	100.004948
3506.000000	100.005116
3505.000000	100.003014
3504.000000	99.998870
3503.000000	99.994112
3502.000000	99.990383
3501.000000	99.988435
3500.000000	99.988008
3499.000000	99.988350
3498.000000	99.988764
3497.000000	99.989051
3496.000000	99.989461
3495.000000	99.989999
3494.000000	99.989936
3493.000000	99.988493
3492.000000	99.986066
3491.000000	99.984210
3490.000000	99.984048
3489.000000	99.985027
3488.000000	99.985593
3487.000000	99.985076
3486.000000	99.984407
3485.000000	99.984880
3484.000000	99.986656
3483.000000	99.988646
3482.000000	99.989666
3481.000000	99.989545
3480.000000	99.989025
3479.000000	99.988863
3478.000000	99.989097
3477.000000	99.989109
3476.000000	99.988178
3475.000000	99.985970
3474.000000	99.982752
3473.000000	99.979316
3472.000000	99.976566
3471.000000	99.974927
3470.000000	99.974192
3469.000000	99.973904
3468.000000	99.973730
3467.000000	99.973394
3466.000000	99.972555
3465.000000	99.971100
3464.000000	99.969487
3463.000000	99.968436
3462.000000	99.968118
3461.000000	99.967873
3460.000000	99.966909
3459.000000	99.965155
3458.000000	99.963277
3457.000000	99.961914
3456.000000	99.961028
3455.000000	99.960054
3454.000000	99.958552
3453.000000	99.956628
3452.000000	99.954775
3451.000000	99.953380
3450.000000	99.952442
3449.000000	99.951724
3448.000000	99.951038
3447.000000	99.950312
3446.000000	99.949483
3445.000000	99.948457
3444.000000	99.947194
3443.000000	99.945782
3442.000000	99.944417
3441.000000	99.943267
3440.000000	99.942339
3439.000000	99.941455
3438.000000	99.940378
3437.000000	99.939006
3436.000000	99.937455
3435.000000	99.936032
3434.000000	99.934991
3433.000000	99.934372
3432.000000	99.934017
3431.000000	99.933694
3430.000000	99.933229
3429.000000	99.932529
3428.000000	99.931616
3427.000000	99.930682
3426.000000	99.929981
3425.000000	99.929618
3424.000000	99.929431
3423.000000	99.929125
3422.000000	99.928561
3421.000000	99.927881
3420.000000	99.927346
3419.000000	99.927044
3418.000000	99.926813
3417.000000	99.926458
3416.000000	99.925971
3415.000000	99.925518
3414.000000	99.925260
3413.000000	99.925258
3412.000000	99.925573
3411.000000	99.926283
3410.000000	99.927255
3409.000000	99.928007
3408.000000	99.928027
3407.000000	99.927244
3406.000000	99.926059
3405.000000	99.924871
3404.000000	99.923756
3403.000000	99.922718
3402.000000	99.922086
3401.000000	99.922338
3400.000000	99.923586
3399.000000	99.925365
3398.000000	99.926937
3397.000000	99.927826
3396.000000	99.928048
3395.000000	99.927931
3394.000000	99.927790
3393.000000	99.927725
3392.000000	99.927744
3391.000000	99.927961
3390.000000	99.928514
3389.000000	99.929293
3388.000000	99.929932
3387.000000	99.930171
3386.000000	99.930165
3385.000000	99.930314
3384.000000	99.930829
3383.000000	99.931506
3382.000000	99.931875
3381.000000	99.931552
3380.000000	99.930619
3379.000000	99.929806
3378.000000	99.930123
3377.000000	99.932084
3376.000000	99.935138
3375.000000	99.937840
3374.000000	99.938853
3373.000000	99.937773
3372.000000	99.935222
3371.000000	99.932403
3370.000000	99.930313
3369.000000	99.929213
3368.000000	99.928761
3367.000000	99.928561
3366.000000	99.928570
3365.000000	99.928872
3364.000000	99.929174
3363.000000	99.928871
3362.000000	99.927791
3361.000000	99.926648
3360.000000	99.926427
3359.000000	99.927344
3358.000000	99.928635
3357.000000	99.929425
3356.000000	99.929722
3355.000000	99.930269
3354.000000	99.931523
3353.000000	99.933139
3352.000000	99.934494
3351.000000	99.935367
3350.000000	99.935976
3349.000000	99.936583
3348.000000	99.937293
3347.000000	99.938098
3346.000000	99.938825
3345.000000	99.939084
3344.000000	99.938548
3343.000000	99.937378
3342.000000	99.936232
3341.000000	99.935704
3340.000000	99.935880
3339.000000	99.936506
3338.000000	99.937424
3337.000000	99.938668
3336.000000	99.940160
3335.000000	99.941533
3334.000000	99.942386
3333.000000	99.942673
3332.000000	99.942707
3331.000000	99.942828
3330.000000	99.943140
3329.000000	99.943537
3328.000000	99.943937
3327.000000	99.944393
3326.000000	99.944983
3325.000000	99.945690
3324.000000	99.946447
3323.000000	99.947250
3322.000000	99.948141
3321.000000	99.949075
3320.000000	99.949879
3319.000000	99.950419
3318.000000	99.950750
3317.000000	99.951044
3316.000000	99.951461
3315.000000	99.952038
3314.000000	99.952718
3313.000000	99.953394
3312.000000	99.953978
3311.000000	99.954470
3310.000000	99.954951
3309.000000	99.955515
3308.000000	99.956183
3307.000000	99.956884
3306.000000	99.957533
3305.000000	99.958117
3304.000000	99.958713
3303.000000	99.959400
3302.000000	99.960184
3301.000000	99.960979
3300.000000	99.961693
3299.000000	99.962335
3298.000000	99.963017
3297.000000	99.963832
3296.000000	99.964764
3295.000000	99.965708
3294.000000	99.966569
3293.000000	99.967341
3292.000000	99.968076
3291.000000	99.968834
3290.000000	99.969634
3289.000000	99.970460
3288.000000	99.971304
3287.000000	99.972230
3286.000000	99.973375
3285.000000	99.974836
3284.000000	99.976566
3283.000000	99.978355
3282.000000	99.979928
3281.000000	99.981082
3280.000000	99.981779
3279.000000	99.982197
3278.000000	99.982690
3277.000000	99.983552
3276.000000	99.984802
3275.000000	99.986148
3274.000000	99.987247
3273.000000	99.988045
3272.000000	99.988819
3271.000000	99.989902
3270.000000	99.991423
3269.000000	99.993230
3268.000000	99.994939
3267.000000	99.996129
3266.000000	99.996601
3265.000000	99.996576
3264.000000	99.996564
3263.000000	99.996984
3262.000000	99.997944
3261.000000	99.999336
3260.000000	100.000945
3259.000000	100.002401
3258.000000	100.003242
3257.000000	100.003289
3256.000000	100.003005
3255.000000	100.003246
3254.000000	100.004516
3253.000000	100.006627
3252.000000	100.009143
3251.000000	100.011915
3250.000000	100.014893
3249.000000	100.017530
3248.000000	100.018944
3247.000000	100.018877
3246.000000	100.018201
3245.000000	100.018118
3244.000000	100.018917
3243.000000	100.019860
3242.000000	100.020115
3241.000000	100.019432
3240.000000	100.018094
3239.000000	100.016674
3238.000000	100.015863
3237.000000	100.016027
3236.000000	100.016780
3235.000000	100.017358
3234.000000	100.017553
3233.000000	100.017926
3232.000000	100.018932
3231.000000	100.020322
3230.000000	100.021660
3229.000000	100.023084
3228.000000	100.025075
3227.000000	100.027717
3226.000000	100.030611
3225.000000	100.033319
3224.000000	100.035470
3223.000000	100.036602
3222.000000	100.036437
3221.000000	100.035483
3220.000000	100.035022
3219.000000	100.036032
3218.000000	100.038170
3217.000000	100.040013
3216.000000	100.040389
3215.000000	100.039423
3214.000000	100.038364
3213.000000	100.038417
3212.000000	100.039819
3211.000000	100.042041
3210.000000	100.044494
3209.000000	100.046869
3208.000000	100.048907
3207.000000	100.050312
3206.000000	100.051089
3205.000000	100.051696
3204.000000	100.052573
3203.000000	100.053611
3202.000000	100.054309
3201.000000	100.054407
3200.000000	100.054108
3199.000000	100.053807
3198.000000	100.053804
3197.000000	100.054277
3196.000000	100.055289
3195.000000	100.056677
3194.000000	100.058153
3193.000000	100.059621
3192.000000	100.061240
3191.000000	100.063112
3190.000000	100.065080
3189.000000	100.066899
3188.000000	100.068512
3187.000000	100.070009
3186.000000	100.071364
3185.000000	100.072348
3184.000000	100.072820
3183.000000	100.073082
3182.000000	100.073806
3181.000000	100.075445
3180.000000	100.077708
3179.000000	100.079708
3178.000000	100.080825
3177.000000	100.081316
3176.000000	100.082077
3175.000000	100.083788
3174.000000	100.086398
3173.000000	100.089281
3172.000000	100.091672
3171.000000	100.093089
3170.000000	100.093488
3169.000000	100.093308
3168.000000	100.093217
3167.000000	100.093646
3166.000000	100.094554
3165.000000	100.095596
3164.000000	100.096483
3163.000000	100.097180
3162.000000	100.097829
3161.000000	100.098516
3160.000000	100.099142
3159.000000	100.099614
3158.000000	100.100227
3157.000000	100.101626
3156.000000	100.104165
3155.000000	100.107373
3154.000000	100.110192
3153.000000	100.111894
3152.000000	100.112682
3151.000000	100.113425
3150.000000	100.114893
3149.000000	100.117213
3148.000000	100.119897
3147.000000	100.122254
3146.000000	100.123867
3145.000000	100.124801
3144.000000	100.125453
3143.000000	100.126113
3142.000000	100.126687
3141.000000	100.126929
3140.000000	100.126889
3139.000000	100.127051
3138.000000	100.127991
3137.000000	100.129879
3136.000000	100.132265
3135.000000	100.134292
3134.000000	100.135235
3133.000000	100.134955
3132.000000	100.134007
3131.000000	100.133334
3130.000000	100.133580
3129.000000	100.134670
3128.000000	100.135998
3127.000000	100.137055
3126.000000	100.137926
3125.000000	100.139077
3124.000000	100.140757
3123.000000	100.142727
3122.000000	100.144526
3121.000000	100.145880
3120.000000	100.146869
3119.000000	100.147828
3118.000000	100.149102
3117.000000	100.150739
3116.000000	100.152359
3115.000000	100.153445
3114.000000	100.153823
3113.000000	100.153822
3112.000000	100.153991
3111.000000	100.154654
3110.000000	100.155828
3109.000000	100.157379
3108.000000	100.159117
3107.000000	100.160838
3106.000000	100.162433
3105.000000	100.163944
3104.000000	100.165383
3103.000000	100.166593
3102.000000	100.167431
3101.000000	100.168022
3100.000000	100.168733
3099.000000	100.169842
3098.000000	100.171326
3097.000000	100.172921
3096.000000	100.174337
3095.000000	100.175451
3094.000000	100.176308
3093.000000	100.177059
3092.000000	100.177875
3091.000000	100.178861
3090.000000	100.180002
3089.000000	100.181194
3088.000000	100.182327
3087.000000	100.183362
3086.000000	100.184338
3085.000000	100.185331
3084.000000	100.186376
3083.000000	100.187435
3082.000000	100.188443
3081.000000	100.189386
3080.000000	100.190305
3079.000000	100.191224
3078.000000	100.192104
3077.000000	100.192892
3076.000000	100.193581
3075.000000	100.194208
3074.000000	100.194854
3073.000000	100.195621
3072.000000	100.196539
3071.000000	100.197491
3070.000000	100.198306
3069.000000	100.198956
3068.000000	100.199599
3067.000000	100.200416
3066.000000	100.201430
3065.000000	100.202516
3064.000000	100.203515
3063.000000	100.204348
3062.000000	100.205018
3061.000000	100.205606
3060.000000	100.206274
3059.000000	100.207165
3058.000000	100.208267
3057.000000	100.209420
3056.000000	100.210518
3055.000000	100.211620
3054.000000	100.212808
3053.000000	100.214040
3052.000000	100.215181
3051.000000	100.216163
3050.000000	100.217047
3049.000000	100.217939
3048.000000	100.218880
3047.000000	100.219848
3046.000000	100.220834
3045.000000	100.221874
3044.000000	100.223001
3043.000000	100.224189
3042.000000	100.225356
3041.000000	100.226425
3040.000000	100.227367
3039.000000	100.228242
3038.000000	100.229205
3037.000000	100.230375
3036.000000	100.231750
3035.000000	100.233217
3034.000000	100.234655
3033.000000	100.236002
3032.000000	100.237243
3031.000000	100.238418
3030.000000	100.239648
3029.000000	100.241076
3028.000000	100.242722
3027.000000	100.244395
3026.000000	100.245849
3025.000000	100.247013
3024.000000	100.248033
3023.000000	100.249089
3022.000000	100.250242
3021.000000	100.251511
3020.000000	100.252994
3019.000000	100.254752
3018.000000	100.256632
3017.000000	100.258297
3016.000000	100.259532
3015.000000	100.260485
3014.000000	100.261563
3013.000000	100.263091
3012.000000	100.265080
3011.000000	100.267316
3010.000000	100.269626
3009.000000	100.272055
3008.000000	100.274725
3007.000000	100.277544
3006.000000	100.280165
3005.000000	100.282262
3004.000000	100.283701
3003.000000	100.284364
3002.000000	100.284074
3001.000000	100.283098
3000.000000	100.282598
2999.000000	100.283997
2998.000000	100.287695
2997.000000	100.292566
2996.000000	100.296927
2995.000000	100.299951
2994.000000	100.301983
2993.000000	100.303969
2992.000000	100.306793
2991.000000	100.310749
2990.000000	100.315126
2989.000000	100.318490
2988.000000	100.319889
2987.000000	100.319814
2986.000000	100.319797
2985.000000	100.320980
2984.000000	100.323417
2983.000000	100.326708
2982.000000	100.330805
2981.000000	100.335926
2980.000000	100.341954
2979.000000	100.348155
2978.000000	100.353392
2977.000000	100.356694
2976.000000	100.357982
2975.000000	100.358341
2974.000000	100.359090
2973.000000	100.360380
2972.000000	100.361223
2971.000000	100.361143
2970.000000	100.361096
2969.000000	100.362153
2968.000000	100.363898
2967.000000	100.365166
2966.000000	100.366250
2965.000000	100.369007
2964.000000	100.374216
2963.000000	100.379927
2962.000000	100.383440
2961.000000	100.384253
2960.000000	100.383924
2959.000000	100.383509
2958.000000	100.382476
2957.000000	100.380399
2956.000000	100.378571
2955.000000	100.379152
2954.000000	100.382912
2953.000000	100.388040
2952.000000	100.390985
2951.000000	100.388860
2950.000000	100.381986
2949.000000	100.374376
2948.000000	100.370809
2947.000000	100.372769
2946.000000	100.377527
2945.000000	100.381519
2944.000000	100.384152
2943.000000	100.387551
2942.000000	100.393272
2941.000000	100.400635
2940.000000	100.408249
2939.000000	100.415772
2938.000000	100.423454
2937.000000	100.430918
2936.000000	100.437456
2935.000000	100.443222
2934.000000	100.449304
2933.000000	100.456633
2932.000000	100.465306
2931.000000	100.474828
2930.000000	100.484458
2929.000000	100.493255
2928.000000	100.500297
2927.000000	100.505109
2926.000000	100.507787
2925.000000	100.508707
2924.000000	100.508107
2923.000000	100.505692
2922.000000	100.500530
2921.000000	100.491835
2920.000000	100.480267
2919.000000	100.468093
2918.000000	100.457393
2917.000000	100.448177
2916.000000	100.438971
2915.000000	100.429293
2914.000000	100.420848
2913.000000	100.415921
2912.000000	100.414986
2911.000000	100.416286
2910.000000	100.417576
2909.000000	100.417977
2908.000000	100.418070
2907.000000	100.418361
2906.000000	100.417984
2905.000000	100.415323
2904.000000	100.409992
2903.000000	100.403608
2902.000000	100.398233
2901.000000	100.394493
2900.000000	100.391683
2899.000000	100.389195
2898.000000	100.386757
2897.000000	100.383702
2896.000000	100.379490
2895.000000	100.375264
2894.000000	100.373420
2893.000000	100.374665
2892.000000	100.376452
2891.000000	100.375379
2890.000000	100.370693
2889.000000	100.364533
2888.000000	100.359349
2887.000000	100.356226
2886.000000	100.355447
2885.000000	100.357216
2884.000000	100.361377
2883.000000	100.367090
2882.000000	100.373113
2881.000000	100.378060
2880.000000	100.380511
2879.000000	100.379660
2878.000000	100.376080
2877.000000	100.371407
2876.000000	100.367128
2875.000000	100.364077
2874.000000	100.362891
2873.000000	100.363962
2872.000000	100.366628
2871.000000	100.369362
2870.000000	100.371381
2869.000000	100.373496
2868.000000	100.376826
2867.000000	100.381187
2866.000000	100.385204
2865.000000	100.387551
2864.000000	100.387789
2863.000000	100.386781
2862.000000	100.386818
2861.000000	100.390346
2860.000000	100.397381
2859.000000	100.404671
2858.000000	100.408579
2857.000000	100.408487
2856.000000	100.406627
2855.000000	100.405148
2854.000000	100.404433
2853.000000	100.403950
2852.000000	100.403095
2851.000000	100.400831
2850.000000	100.395916
2849.000000	100.388408
2848.000000	100.380333
2847.000000	100.374093
2846.000000	100.370410
2845.000000	100.368182
2844.000000	100.365841
2843.000000	100.362403
2842.000000	100.357684
2841.000000	100.352170
2840.000000	100.346666
2839.000000	100.341803
2838.000000	100.337920
2837.000000	100.335437
2836.000000	100.334833
2835.000000	100.335843
2834.000000	100.336942
2833.000000	100.336158
2832.000000	100.332617
2831.000000	100.327295
2830.000000	100.322356
2829.000000	100.319662
2828.000000	100.319580
2827.000000	100.320950
2826.000000	100.322345
2825.000000	100.323575
2824.000000	100.325732
2823.000000	100.329652
2822.000000	100.334692
2821.000000	100.339261
2820.000000	100.342302
2819.000000	100.343820
2818.000000	100.344122
2817.000000	100.343086
2816.000000	100.340357
2815.000000	100.336060
2814.000000	100.331240
2813.000000	100.327554
2812.000000	100.326277
2811.000000	100.327339
2810.000000	100.329292
2809.000000	100.330488
2808.000000	100.330511
2807.000000	100.330363
2806.000000	100.331230
2805.000000	100.333203
2804.000000	100.335133
2803.000000	100.335633
2802.000000	100.334259
2801.000000	100.331906
2800.000000	100.330201
2799.000000	100.330310
2798.000000	100.332312
2797.000000	100.335554
2796.000000	100.339282
2795.000000	100.342766
2794.000000	100.345139
2793.000000	100.345739
2792.000000	100.344819
2791.000000	100.343550
2790.000000	100.342903
2789.000000	100.342791
2788.000000	100.342598
2787.000000	100.342179
2786.000000	100.341926
2785.000000	100.342091
2784.000000	100.342489
2783.000000	100.342861
2782.000000	100.343186
2781.000000	100.343589
2780.000000	100.344092
2779.000000	100.344617
2778.000000	100.345121
2777.000000	100.345627
2776.000000	100.346128
2775.000000	100.346575
2774.000000	100.346949
2773.000000	100.347290
2772.000000	100.347646
2771.000000	100.348039
2770.000000	100.348472
2769.000000	100.348937
2768.000000	100.349409
2767.000000	100.349868
2766.000000	100.350315
2765.000000	100.350763
2764.000000	100.351210
2763.000000	100.351640
2762.000000	100.352053
2761.000000	100.352460
2760.000000	100.352869
2759.000000	100.353286
2758.000000	100.353713
2757.000000	100.354142
2756.000000	100.354563
2755.000000	100.354968
2754.000000	100.355355
2753.000000	100.355730
2752.000000	100.356099
2751.000000	100.356474
2750.000000	100.356864
2749.000000	100.357273
2748.000000	100.357696
2747.000000	100.358130
2746.000000	100.358574
2745.000000	100.359033
2744.000000	100.359509
2743.000000	100.360002
2742.000000	100.360513
2741.000000	100.361041
2740.000000	100.361584
2739.000000	100.362130
2738.000000	100.362667
2737.000000	100.363190
2736.000000	100.363720
2735.000000	100.364274
2734.000000	100.364821
2733.000000	100.365336
2732.000000	100.365886
2731.000000	100.366551
2730.000000	100.367283
2729.000000	100.367948
2728.000000	100.368443
2727.000000	100.368727
2726.000000	100.368855
2725.000000	100.369027
2724.000000	100.369475
2723.000000	100.370204
2722.000000	100.370943
2721.000000	100.371454
2720.000000	100.371820
2719.000000	100.372320
2718.000000	100.373002
2717.000000	100.373520
2716.000000	100.373485
2715.000000	100.373007
2714.000000	100.372775
2713.000000	100.373393
2712.000000	100.374630
2711.000000	100.375498
2710.000000	100.375314
2709.000000	100.374522
2708.000000	100.374261
2707.000000	100.375172
2706.000000	100.376927
2705.000000	100.378841
2704.000000	100.380527
2703.000000	100.381858
2702.000000	100.382711
2701.000000	100.383027
2700.000000	100.382995
2699.000000	100.382768
2698.000000	100.382057
2697.000000	100.380384
2696.000000	100.377719
2695.000000	100.374770
2694.000000	100.372610
2693.000000	100.371998
2692.000000	100.373026
2691.000000	100.375161
2690.000000	100.377512
2689.000000	100.379265
2688.000000	100.380040
2687.000000	100.379957
2686.000000	100.379483
2685.000000	100.379205
2684.000000	100.379577
2683.000000	100.380648
2682.000000	100.381909
2681.000000	100.382548
2680.000000	100.382143
2679.000000	100.381078
2678.000000	100.380188
2677.000000	100.379861
2676.000000	100.379714
2675.000000	100.379252
2674.000000	100.378543
2673.000000	100.378035
2672.000000	100.377896
2671.000000	100.377849
2670.000000	100.377650
2669.000000	100.377399
2668.000000	100.377279
2667.000000	100.377237
2666.000000	100.377120
2665.000000	100.376950
2664.000000	100.376846
2663.000000	100.376743
2662.000000	100.376414
2661.000000	100.375802
2660.000000	100.375096
2659.000000	100.374573
2658.000000	100.374335
2657.000000	100.374285
2656.000000	100.374273
2655.000000	100.374206
2654.000000	100.374094
2653.000000	100.373967
2652.000000	100.373833
2651.000000	100.373688
2650.000000	100.373533
2649.000000	100.373372
2648.000000	100.373208
2647.000000	100.373045
2646.000000	100.372887
2645.000000	100.372736
2644.000000	100.372590
2643.000000	100.372446
2642.000000	100.372295
2641.000000	100.372133
2640.000000	100.371958
2639.000000	100.371778
2638.000000	100.371606
2637.000000	100.371456
2636.000000	100.371335
2635.000000	100.371241
2634.000000	100.371166
2633.000000	100.371089
2632.000000	100.370991
2631.000000	100.370874
2630.000000	100.370759
2629.000000	100.370667
2628.000000	100.370586
2627.000000	100.370483
2626.000000	100.370350
2625.000000	100.370232
2624.000000	100.370196
2623.000000	100.370265
2622.000000	100.370394
2621.000000	100.370501
2620.000000	100.370527
2619.000000	100.370462
2618.000000	100.370345
2617.000000	100.370261
2616.000000	100.370272
2615.000000	100.370376
2614.000000	100.370494
2613.000000	100.370541
2612.000000	100.370520
2611.000000	100.370538
2610.000000	100.370710
2609.000000	100.371017
2608.000000	100.371278
2607.000000	100.371286
2606.000000	100.370979
2605.000000	100.370483
2604.000000	100.370015
2603.000000	100.369702
2602.000000	100.369490
2601.000000	100.369213
2600.000000	100.368809
2599.000000	100.368459
2598.000000	100.368434
2597.000000	100.368800
2596.000000	100.369356
2595.000000	100.369822
2594.000000	100.370055
2593.000000	100.370036
2592.000000	100.369790
2591.000000	100.369407
2590.000000	100.369088
2589.000000	100.369014
2588.000000	100.369162
2587.000000	100.369312
2586.000000	100.369263
2585.000000	100.369007
2584.000000	100.368693
2583.000000	100.368486
2582.000000	100.368486
2581.000000	100.368709
2580.000000	100.369057
2579.000000	100.369351
2578.000000	100.369486
2577.000000	100.369525
2576.000000	100.369617
2575.000000	100.369829
2574.000000	100.370096
2573.000000	100.370302
2572.000000	100.370381
2571.000000	100.370346
2570.000000	100.370261
2569.000000	100.370194
2568.000000	100.370175
2567.000000	100.370202
2566.000000	100.370279
2565.000000	100.370423
2564.000000	100.370632
2563.000000	100.370859
2562.000000	100.371050
2561.000000	100.371189
2560.000000	100.371310
2559.000000	100.371475
2558.000000	100.371722
2557.000000	100.372016
2556.000000	100.372240
2555.000000	100.372284
2554.000000	100.372170
2553.000000	100.372103
2552.000000	100.372268
2551.000000	100.372661
2550.000000	100.373141
2549.000000	100.373643
2548.000000	100.374146
2547.000000	100.374469
2546.000000	100.374390
2545.000000	100.374007
2544.000000	100.373746
2543.000000	100.373884
2542.000000	100.374301
2541.000000	100.374699
2540.000000	100.374889
2539.000000	100.374809
2538.000000	100.374495
2537.000000	100.374146
2536.000000	100.374047
2535.000000	100.374252
2534.000000	100.374463
2533.000000	100.374374
2532.000000	100.374031
2531.000000	100.373739
2530.000000	100.373731
2529.000000	100.374021
2528.000000	100.374457
2527.000000	100.374804
2526.000000	100.374884
2525.000000	100.374736
2524.000000	100.374571
2523.000000	100.374535
2522.000000	100.374632
2521.000000	100.374882
2520.000000	100.375290
2519.000000	100.375667
2518.000000	100.375799
2517.000000	100.375891
2516.000000	100.376456
2515.000000	100.377605
2514.000000	100.378836
2513.000000	100.379725
2512.000000	100.380439
2511.000000	100.381324
2510.000000	100.382258
2509.000000	100.382795
2508.000000	100.382809
2507.000000	100.382663
2506.000000	100.382849
2505.000000	100.383573
2504.000000	100.384631
2503.000000	100.385533
2502.000000	100.385922
2501.000000	100.385940
2500.000000	100.386114
2499.000000	100.386745
2498.000000	100.387596
2497.000000	100.388252
2496.000000	100.388618
2495.000000	100.388930
2494.000000	100.389464
2493.000000	100.390417
2492.000000	100.391872
2491.000000	100.393602
2490.000000	100.395014
2489.000000	100.395674
2488.000000	100.395767
2487.000000	100.395884
2486.000000	100.396311
2485.000000	100.396814
2484.000000	100.397121
2483.000000	100.397240
2482.000000	100.397277
2481.000000	100.397277
2480.000000	100.397356
2479.000000	100.397743
2478.000000	100.398525
2477.000000	100.399466
2476.000000	100.400240
2475.000000	100.400817
2474.000000	100.401465
2473.000000	100.402389
2472.000000	100.403454
2471.000000	100.404257
2470.000000	100.404513
2469.000000	100.404300
2468.000000	100.403991
2467.000000	100.403933
2466.000000	100.404190
2465.000000	100.404620
2464.000000	100.405107
2463.000000	100.405685
2462.000000	100.406425
2461.000000	100.407281
2460.000000	100.408098
2459.000000	100.408749
2458.000000	100.409235
2457.000000	100.409671
2456.000000	100.410168
2455.000000	100.410739
2454.000000	100.411313
2453.000000	100.411832
2452.000000	100.412307
2451.000000	100.412780
2450.000000	100.413285
2449.000000	100.413829
2448.000000	100.414404
2447.000000	100.414991
2446.000000	100.415571
2445.000000	100.416131
2444.000000	100.416671
2443.000000	100.417200
2442.000000	100.417743
2441.000000	100.418319
2440.000000	100.418922
2439.000000	100.419512
2438.000000	100.420040
2437.000000	100.420500
2436.000000	100.420952
2435.000000	100.421485
2434.000000	100.422137
2433.000000	100.422848
2432.000000	100.423491
2431.000000	100.423978
2430.000000	100.424320
2429.000000	100.424627
2428.000000	100.425031
2427.000000	100.425599
2426.000000	100.426276
2425.000000	100.426914
2424.000000	100.427393
2423.000000	100.427667
2422.000000	100.427707
2421.000000	100.427478
2420.000000	100.427047
2419.000000	100.426658
2418.000000	100.426594
2417.000000	100.427001
2416.000000	100.427852
2415.000000	100.429001
2414.000000	100.430181
2413.000000	100.431052
2412.000000	100.431436
2411.000000	100.431502
2410.000000	100.431577
2409.000000	100.431758
2408.000000	100.431817
2407.000000	100.431532
2406.000000	100.431067
2405.000000	100.430857
2404.000000	100.431004
2403.000000	100.430982
2402.000000	100.430183
2401.000000	100.428689
2400.000000	100.427350
2399.000000	100.426952
2398.000000	100.427417
2397.000000	100.427959
2396.000000	100.427907
2395.000000	100.427260
2394.000000	100.426491
2393.000000	100.426011
2392.000000	100.425842
2391.000000	100.425679
2390.000000	100.425186
2389.000000	100.424269
2388.000000	100.423144
2387.000000	100.422107
2386.000000	100.421253
2385.000000	100.420443
2384.000000	100.419515
2383.000000	100.418467
2382.000000	100.417454
2381.000000	100.416642
2380.000000	100.416084
2379.000000	100.415705
2378.000000	100.415371
2377.000000	100.414977
2376.000000	100.414486
2375.000000	100.413915
2374.000000	100.413319
2373.000000	100.412743
2372.000000	100.412188
2371.000000	100.411614
2370.000000	100.411004
2369.000000	100.410395
2368.000000	100.409845
2367.000000	100.409374
2366.000000	100.408956
2365.000000	100.408553
2364.000000	100.408138
2363.000000	100.407710
2362.000000	100.407280
2361.000000	100.406876
2360.000000	100.406510
2359.000000	100.406177
2358.000000	100.405849
2357.000000	100.405499
2356.000000	100.405143
2355.000000	100.404828
2354.000000	100.404580
2353.000000	100.404378
2352.000000	100.404189
2351.000000	100.404015
2350.000000	100.403857
2349.000000	100.403715
2348.000000	100.403593
2347.000000	100.403524
2346.000000	100.403541
2345.000000	100.403584
2344.000000	100.403554
2343.000000	100.403409
2342.000000	100.403248
2341.000000	100.403151
2340.000000	100.403031
2339.000000	100.402766
2338.000000	100.402412
2337.000000	100.402232
2336.000000	100.402360
2335.000000	100.402685
2334.000000	100.402989
2333.000000	100.403276
2332.000000	100.403619
2331.000000	100.404003
2330.000000	100.404242
2329.000000	100.404375
2328.000000	100.404606
2327.000000	100.405095
2326.000000	100.405639
2325.000000	100.405873
2324.000000	100.405700
2323.000000	100.405354
2322.000000	100.405172
2321.000000	100.405224
2320.000000	100.405366
2319.000000	100.405498
2318.000000	100.405629
2317.000000	100.405833
2316.000000	100.406056
2315.000000	100.406211
2314.000000	100.406231
2313.000000	100.406206
2312.000000	100.406238
2311.000000	100.406378
2310.000000	100.406555
2309.000000	100.406693
2308.000000	100.406763
2307.000000	100.406819
2306.000000	100.406916
2305.000000	100.407072
2304.000000	100.407243
2303.000000	100.407378
2302.000000	100.407466
2301.000000	100.407542
2300.000000	100.407638
2299.000000	100.407755
2298.000000	100.407867
2297.000000	100.407947
2296.000000	100.407991
2295.000000	100.408010
2294.000000	100.408009
2293.000000	100.407989
2292.000000	100.407951
2291.000000	100.407899
2290.000000	100.407835
2289.000000	100.407766
2288.000000	100.407699
2287.000000	100.407637
2286.000000	100.407576
2285.000000	100.407507
2284.000000	100.407423
2283.000000	100.407325
2282.000000	100.407220
2281.000000	100.407122
2280.000000	100.407040
2279.000000	100.406950
2278.000000	100.406811
2277.000000	100.406627
2276.000000	100.406467
2275.000000	100.406391
2274.000000	100.406375
2273.000000	100.406341
2272.000000	100.406276
2271.000000	100.406231
2270.000000	100.406220
2269.000000	100.406196
2268.000000	100.406130
2267.000000	100.406015
2266.000000	100.405811
2265.000000	100.405491
2264.000000	100.405107
2263.000000	100.404758
2262.000000	100.404493
2261.000000	100.404280
2260.000000	100.404062
2259.000000	100.403829
2258.000000	100.403596
2257.000000	100.403350
2256.000000	100.403067
2255.000000	100.402768
2254.000000	100.402493
2253.000000	100.402253
2252.000000	100.402031
2251.000000	100.401823
2250.000000	100.401624
2249.000000	100.401398
2248.000000	100.401092
2247.000000	100.400700
2246.000000	100.400278
2245.000000	100.399903
2244.000000	100.399633
2243.000000	100.399506
2242.000000	100.399503
2241.000000	100.399491
2240.000000	100.399301
2239.000000	100.398910
2238.000000	100.398525
2237.000000	100.398399
2236.000000	100.398551
2235.000000	100.398688
2234.000000	100.398457
2233.000000	100.397758
2232.000000	100.396861
2231.000000	100.396210
2230.000000	100.396044
2229.000000	100.396223
2228.000000	100.396358
2227.000000	100.396158
2226.000000	100.395604
2225.000000	100.394828
2224.000000	100.393959
2223.000000	100.393121
2222.000000	100.392496
2221.000000	100.392249
2220.000000	100.392377
2219.000000	100.392706
2218.000000	100.393074
2217.000000	100.393467
2216.000000	100.393901
2215.000000	100.394214
2214.000000	100.394089
2213.000000	100.393358
2212.000000	100.392277
2211.000000	100.391403
2210.000000	100.391155
2209.000000	100.391558
2208.000000	100.392348
2207.000000	100.393178
2206.000000	100.393739
2205.000000	100.393911
2204.000000	100.393989
2203.000000	100.394591
2202.000000	100.396055
2201.000000	100.397916
2200.000000	100.399214
2199.000000	100.399491
2198.000000	100.399205
2197.000000	100.399130
2196.000000	100.399433
2195.000000	100.399589
2194.000000	100.399107
2193.000000	100.398071
2192.000000	100.397025
2191.000000	100.396545
2190.000000	100.396904
2189.000000	100.397958
2188.000000	100.399208
2187.000000	100.400115
2186.000000	100.400472
2185.000000	100.400433
2184.000000	100.400207
2183.000000	100.399857
2182.000000	100.399405
2181.000000	100.398991
2180.000000	100.398837
2179.000000	100.399130
2178.000000	100.400015
2177.000000	100.401522
2176.000000	100.403320
2175.000000	100.404718
2174.000000	100.405224
2173.000000	100.405023
2172.000000	100.404839
2171.000000	100.405234
2170.000000	100.406197
2169.000000	100.407407
2168.000000	100.408603
2167.000000	100.409600
2166.000000	100.410149
2165.000000	100.410067
2164.000000	100.409498
2163.000000	100.408895
2162.000000	100.408643
2161.000000	100.408763
2160.000000	100.408993
2159.000000	100.409115
2158.000000	100.409184
2157.000000	100.409468
2156.000000	100.410149
2155.000000	100.411139
2154.000000	100.412177
2153.000000	100.413035
2152.000000	100.413576
2151.000000	100.413690
2150.000000	100.413396
2149.000000	100.412995
2148.000000	100.412900
2147.000000	100.413196
2146.000000	100.413543
2145.000000	100.413634
2144.000000	100.413605
2143.000000	100.413814
2142.000000	100.414339
2141.000000	100.414950
2140.000000	100.415509
2139.000000	100.416148
2138.000000	100.417055
2137.000000	100.418242
2136.000000	100.419531
2135.000000	100.420607
2134.000000	100.421162
2133.000000	100.421100
2132.000000	100.420716
2131.000000	100.420570
2130.000000	100.420963
2129.000000	100.421712
2128.000000	100.422415
2127.000000	100.422924
2126.000000	100.423446
2125.000000	100.424201
2124.000000	100.425168
2123.000000	100.426159
2122.000000	100.427030
2121.000000	100.427758
2120.000000	100.428387
2119.000000	100.428955
2118.000000	100.429515
2117.000000	100.430156
2116.000000	100.430948
2115.000000	100.431863
2114.000000	100.432772
2113.000000	100.433552
2112.000000	100.434197
2111.000000	100.434792
2110.000000	100.435412
2109.000000	100.436076
2108.000000	100.436759
2107.000000	100.437434
2106.000000	100.438091
2105.000000	100.438746
2104.000000	100.439426
2103.000000	100.440134
2102.000000	100.440843
2101.000000	100.441522
2100.000000	100.442166
2099.000000	100.442792
2098.000000	100.443422
2097.000000	100.444063
2096.000000	100.444712
2095.000000	100.445368
2094.000000	100.446024
2093.000000	100.446664
2092.000000	100.447264
2091.000000	100.447838
2090.000000	100.448466
2089.000000	100.449237
2088.000000	100.450124
2087.000000	100.450913
2086.000000	100.451382
2085.000000	100.451530
2084.000000	100.451644
2083.000000	100.452001
2082.000000	100.452589
2081.000000	100.453168
2080.000000	100.453551
2079.000000	100.453809
2078.000000	100.454148
2077.000000	100.454603
2076.000000	100.454930
2075.000000	100.454946
2074.000000	100.454956
2073.000000	100.455573
2072.000000	100.456972
2071.000000	100.458575
2070.000000	100.459684
2069.000000	100.460258
2068.000000	100.460684
2067.000000	100.461007
2066.000000	100.460952
2065.000000	100.460732
2064.000000	100.461122
2063.000000	100.462394
2062.000000	100.463782
2061.000000	100.464414
2060.000000	100.464327
2059.000000	100.464117
2058.000000	100.464018
2057.000000	100.463894
2056.000000	100.463798
2055.000000	100.463877
2054.000000	100.463960
2053.000000	100.463875
2052.000000	100.463986
2051.000000	100.464755
2050.000000	100.465875
2049.000000	100.466574
2048.000000	100.466766
2047.000000	100.467042
2046.000000	100.467356
2045.000000	100.466608
2044.000000	100.464048
2043.000000	100.460490
2042.000000	100.457614
2041.000000	100.456299
2040.000000	100.456193
2039.000000	100.456522
2038.000000	100.456724
2037.000000	100.456410
2036.000000	100.455319
2035.000000	100.453573
2034.000000	100.451682
2033.000000	100.450122
2032.000000	100.448962
2031.000000	100.447950
2030.000000	100.446865
2029.000000	100.445709
2028.000000	100.444695
2027.000000	100.444166
2026.000000	100.444422
2025.000000	100.445456
2024.000000	100.446773
2023.000000	100.447583
2022.000000	100.447326
2021.000000	100.446054
2020.000000	100.444346
2019.000000	100.442872
2018.000000	100.442017
2017.000000	100.441798
2016.000000	100.441918
2015.000000	100.441882
2014.000000	100.441321
2013.000000	100.440317
2012.000000	100.439297
2011.000000	100.438489
2010.000000	100.437633
2009.000000	100.436437
2008.000000	100.435109
2007.000000	100.434139
2006.000000	100.433628
2005.000000	100.433193
2004.000000	100.432574
2003.000000	100.432032
2002.000000	100.431970
2001.000000	100.432417
2000.000000	100.433023
1999.000000	100.433417
1998.000000	100.433382
1997.000000	100.432818
1996.000000	100.431809
1995.000000	100.430725
1994.000000	100.430028
1993.000000	100.429863
1992.000000	100.429981
1991.000000	100.430118
1990.000000	100.430328
1989.000000	100.430742
1988.000000	100.431137
1987.000000	100.431018
1986.000000	100.430156
1985.000000	100.428863
1984.000000	100.427731
1983.000000	100.427064
1982.000000	100.426682
1981.000000	100.426228
1980.000000	100.425559
1979.000000	100.424828
1978.000000	100.424259
1977.000000	100.423935
1976.000000	100.423786
1975.000000	100.423658
1974.000000	100.423390
1973.000000	100.422909
1972.000000	100.422291
1971.000000	100.421693
1970.000000	100.421195
1969.000000	100.420771
1968.000000	100.420444
1967.000000	100.420342
1966.000000	100.420509
1965.000000	100.420730
1964.000000	100.420716
1963.000000	100.420405
1962.000000	100.420002
1961.000000	100.419699
1960.000000	100.419403
1959.000000	100.418809
1958.000000	100.417734
1957.000000	100.416351
1956.000000	100.415126
1955.000000	100.414436
1954.000000	100.414233
1953.000000	100.414106
1952.000000	100.413732
1951.000000	100.413145
1950.000000	100.412498
1949.000000	100.411775
1948.000000	100.410926
1947.000000	100.410143
1946.000000	100.409708
1945.000000	100.409592
1944.000000	100.409414
1943.000000	100.408867
1942.000000	100.408023
1941.000000	100.407190
1940.000000	100.406582
1939.000000	100.406255
1938.000000	100.406156
1937.000000	100.406045
1936.000000	100.405535
1935.000000	100.404379
1934.000000	100.402657
1933.000000	100.400648
1932.000000	100.398664
1931.000000	100.397020
1930.000000	100.395934
1929.000000	100.395287
1928.000000	100.394557
1927.000000	100.393259
1926.000000	100.391435
1925.000000	100.389602
1924.000000	100.388246
1923.000000	100.387389
1922.000000	100.386607
1921.000000	100.385390
1920.000000	100.383504
1919.000000	100.381271
1918.000000	100.379507
1917.000000	100.378793
1916.000000	100.378795
1915.000000	100.378629
1914.000000	100.377765
1913.000000	100.376206
1912.000000	100.373994
1911.000000	100.371113
1910.000000	100.368069
1909.000000	100.365969
1908.000000	100.365366
1907.000000	100.365389
1906.000000	100.364494
1905.000000	100.361980
1904.000000	100.358460
1903.000000	100.355101
1902.000000	100.352642
1901.000000	100.350956
1900.000000	100.349168
1899.000000	100.346501
1898.000000	100.343259
1897.000000	100.340662
1896.000000	100.339387
1895.000000	100.338693
1894.000000	100.337470
1893.000000	100.335559
1892.000000	100.333265
1891.000000	100.330419
1890.000000	100.327012
1889.000000	100.324286
1888.000000	100.323744
1887.000000	100.325194
1886.000000	100.327033
1885.000000	100.328159
1884.000000	100.328606
1883.000000	100.328461
1882.000000	100.327336
1881.000000	100.325199
1880.000000	100.322820
1879.000000	100.321012
1878.000000	100.319913
1877.000000	100.319088
1876.000000	100.317954
1875.000000	100.316230
1874.000000	100.314535
1873.000000	100.314287
1872.000000	100.316236
1871.000000	100.319254
1870.000000	100.321245
1869.000000	100.321413
1868.000000	100.320846
1867.000000	100.320397
1866.000000	100.319647
1865.000000	100.318638
1864.000000	100.318641
1863.000000	100.320486
1862.000000	100.323409
1861.000000	100.326312
1860.000000	100.329232
1859.000000	100.332549
1858.000000	100.335624
1857.000000	100.337386
1856.000000	100.337726
1855.000000	100.337409
1854.000000	100.337036
1853.000000	100.336903
1852.000000	100.337370
1851.000000	100.338788
1850.000000	100.341212
1849.000000	100.344525
1848.000000	100.348497
1847.000000	100.352399
1846.000000	100.354949
1845.000000	100.355259
1844.000000	100.353990
1843.000000	100.352910
1842.000000	100.352775
1841.000000	100.352932
1840.000000	100.352982
1839.000000	100.353439
1838.000000	100.354752
1837.000000	100.356551
1836.000000	100.358139
1835.000000	100.359144
1834.000000	100.359457
1833.000000	100.359014
1832.000000	100.358018
1831.000000	100.357255
1830.000000	100.357567
1829.000000	100.358932
1828.000000	100.360652
1827.000000	100.362081
1826.000000	100.362822
1825.000000	100.362602
1824.000000	100.361523
1823.000000	100.360321
1822.000000	100.359857
1821.000000	100.360491
1820.000000	100.361904
1819.000000	100.363306
1818.000000	100.363949
1817.000000	100.363634
1816.000000	100.362751
1815.000000	100.361756
1814.000000	100.360851
1813.000000	100.360191
1812.000000	100.360115
1811.000000	100.360758
1810.000000	100.361587
1809.000000	100.361934
1808.000000	100.361774
1807.000000	100.361471
1806.000000	100.361101
1805.000000	100.360522
1804.000000	100.359884
1803.000000	100.359636
1802.000000	100.360127
1801.000000	100.361266
1800.000000	100.362571
1799.000000	100.363216
1798.000000	100.362413
1797.000000	100.360424
1796.000000	100.358879
1795.000000	100.359419
1794.000000	100.362223
1793.000000	100.365701
1792.000000	100.367845
1791.000000	100.368456
1790.000000	100.368870
1789.000000	100.369874
1788.000000	100.371306
1787.000000	100.372716
1786.000000	100.373657
1785.000000	100.373922
1784.000000	100.373915
1783.000000	100.374325
1782.000000	100.375547
1781.000000	100.377484
1780.000000	100.379943
1779.000000	100.383051
1778.000000	100.386955
1777.000000	100.391223
1776.000000	100.394647
1775.000000	100.395976
1774.000000	100.395241
1773.000000	100.394293
1772.000000	100.395138
1771.000000	100.397721
1770.000000	100.400191
1769.000000	100.401264
1768.000000	100.401683
1767.000000	100.402829
1766.000000	100.404531
1765.000000	100.405499
1764.000000	100.406043
1763.000000	100.409006
1762.000000	100.416551
1761.000000	100.426343
1760.000000	100.433997
1759.000000	100.437850
1758.000000	100.439600
1757.000000	100.442194
1756.000000	100.447287
1755.000000	100.454310
1754.000000	100.461298
1753.000000	100.466365
1752.000000	100.468939
1751.000000	100.470469
1750.000000	100.473280
1749.000000	100.478082
1748.000000	100.483734
1747.000000	100.489485
1746.000000	100.495693
1745.000000	100.502036
1744.000000	100.506747
1743.000000	100.508267
1742.000000	100.506807
1741.000000	100.503768
1740.000000	100.500558
1739.000000	100.497935
1738.000000	100.495581
1737.000000	100.491615
1736.000000	100.483771
1735.000000	100.471986
1734.000000	100.460129
1733.000000	100.453124
1732.000000	100.450972
1731.000000	100.449575
1730.000000	100.446584
1729.000000	100.442910
1728.000000	100.440616
1727.000000	100.440659
1726.000000	100.442239
1725.000000	100.443163
1724.000000	100.441047
1723.000000	100.435172
1722.000000	100.427219
1721.000000	100.419792
1720.000000	100.414651
1719.000000	100.412396
1718.000000	100.412068
1717.000000	100.411918
1716.000000	100.412474
1715.000000	100.414605
1714.000000	100.416685
1713.000000	100.416684
1712.000000	100.414465
1711.000000	100.411254
1710.000000	100.408206
1709.000000	100.405783
1708.000000	100.403716
1707.000000	100.401348
1706.000000	100.398178
1705.000000	100.394628
1704.000000	100.391836
1703.000000	100.389679
1702.000000	100.386501
1701.000000	100.380784
1700.000000	100.373408
1699.000000	100.367628
1698.000000	100.363898
1697.000000	100.360251
1696.000000	100.356175
1695.000000	100.352701
1694.000000	100.350317
1693.000000	100.348042
1692.000000	100.344958
1691.000000	100.341254
1690.000000	100.337773
1689.000000	100.334983
1688.000000	100.332593
1687.000000	100.330198
1686.000000	100.327728
1685.000000	100.325195
1684.000000	100.321911
1683.000000	100.317527
1682.000000	100.312882
1681.000000	100.308500
1680.000000	100.304609
1679.000000	100.301466
1678.000000	100.298995
1677.000000	100.296704
1676.000000	100.294066
1675.000000	100.291041
1674.000000	100.288202
1673.000000	100.285868
1672.000000	100.283626
1671.000000	100.280982
1670.000000	100.277915
1669.000000	100.274775
1668.000000	100.271757
1667.000000	100.268644
1666.000000	100.265134
1665.000000	100.261240
1664.000000	100.257446
1663.000000	100.254311
1662.000000	100.251851
1661.000000	100.249688
1660.000000	100.247619
1659.000000	100.245687
1658.000000	100.243830
1657.000000	100.241424
1656.000000	100.237351
1655.000000	100.230874
1654.000000	100.223366
1653.000000	100.218146
1652.000000	100.217122
1651.000000	100.218905
1650.000000	100.220460
1649.000000	100.220156
1648.000000	100.218092
1647.000000	100.215001
1646.000000	100.211656
1645.000000	100.209282
1644.000000	100.208484
1643.000000	100.208491
1642.000000	100.207998
1641.000000	100.206097
1640.000000	100.202793
1639.000000	100.198612
1638.000000	100.193777
1637.000000	100.188630
1636.000000	100.184959
1635.000000	100.185027
1634.000000	100.188573
1633.000000	100.192344
1632.000000	100.193576
1631.000000	100.192384
1630.000000	100.191266
1629.000000	100.192546
1628.000000	100.195586
1627.000000	100.197301
1626.000000	100.195961
1625.000000	100.193018
1624.000000	100.191536
1623.000000	100.193320
1622.000000	100.197382
1621.000000	100.201486
1620.000000	100.204133
1619.000000	100.205268
1618.000000	100.206381
1617.000000	100.209342
1616.000000	100.213657
1615.000000	100.217102
1614.000000	100.218837
1613.000000	100.219770
1612.000000	100.221160
1611.000000	100.223359
1610.000000	100.225957
1609.000000	100.228954
1608.000000	100.232814
1607.000000	100.237430
1606.000000	100.242156
1605.000000	100.246687
1604.000000	100.251026
1603.000000	100.254872
1602.000000	100.257820
1601.000000	100.260084
1600.000000	100.262267
1599.000000	100.264450
1598.000000	100.266447
1597.000000	100.268774
1596.000000	100.272336
1595.000000	100.276873
1594.000000	100.280707
1593.000000	100.282675
1592.000000	100.283446
1591.000000	100.284486
1590.000000	100.286451
1589.000000	100.289104
1588.000000	100.292220
1587.000000	100.295799
1586.000000	100.299557
1585.000000	100.303050
1584.000000	100.306266
1583.000000	100.309636
1582.000000	100.313317
1581.000000	100.316826
1580.000000	100.319618
1579.000000	100.321766
1578.000000	100.323921
1577.000000	100.326663
1576.000000	100.329662
1575.000000	100.332202
1574.000000	100.334273
1573.000000	100.335836
1572.000000	100.336520
1571.000000	100.336284
1570.000000	100.335938
1569.000000	100.336757
1568.000000	100.339126
1567.000000	100.342197
1566.000000	100.344811
1565.000000	100.346426
1564.000000	100.347351
1563.000000	100.348395
1562.000000	100.350220
1561.000000	100.353433
1560.000000	100.358556
1559.000000	100.363129
1558.000000	100.363271
1557.000000	100.361229
1556.000000	100.359988
1555.000000	100.359763
1554.000000	100.360322
1553.000000	100.361074
1552.000000	100.361509
1551.000000	100.361469
1550.000000	100.361206
1549.000000	100.361148
1548.000000	100.361755
1547.000000	100.363217
1546.000000	100.365083
1545.000000	100.366128
1544.000000	100.365239
1543.000000	100.362874
1542.000000	100.360887
1541.000000	100.360669
1540.000000	100.361300
1539.000000	100.360964
1538.000000	100.360303
1537.000000	100.360218
1536.000000	100.360158
1535.000000	100.359589
1534.000000	100.358897
1533.000000	100.358832
1532.000000	100.359431
1531.000000	100.359999
1530.000000	100.359855
1529.000000	100.359028
1528.000000	100.358303
1527.000000	100.358555
1526.000000	100.359926
1525.000000	100.361664
1524.000000	100.362926
1523.000000	100.363648
1522.000000	100.364597
1521.000000	100.366277
1520.000000	100.368321
1519.000000	100.370041
1518.000000	100.370973
1517.000000	100.371205
1516.000000	100.371260
1515.000000	100.371665
1514.000000	100.372551
1513.000000	100.373723
1512.000000	100.374943
1511.000000	100.375853
1510.000000	100.375876
1509.000000	100.374638
1508.000000	100.372772
1507.000000	100.372200
1506.000000	100.373678
1505.000000	100.376338
1504.000000	100.379036
1503.000000	100.381199
1502.000000	100.382970
1501.000000	100.384759
1500.000000	100.386717
1499.000000	100.388645
1498.000000	100.390272
1497.000000	100.391405
1496.000000	100.392126
1495.000000	100.392781
1494.000000	100.393311
1493.000000	100.393201
1492.000000	100.392437
1491.000000	100.392063
1490.000000	100.393126
1489.000000	100.395128
1488.000000	100.396901
1487.000000	100.398107
1486.000000	100.398959
1485.000000	100.399628
1484.000000	100.399989
1483.000000	100.400027
1482.000000	100.400184
1481.000000	100.400844
1480.000000	100.401680
1479.000000	100.401897
1478.000000	100.401100
1477.000000	100.399689
1476.000000	100.398390
1475.000000	100.397512
1474.000000	100.397365
1473.000000	100.399016
1472.000000	100.403163
1471.000000	100.408850
1470.000000	100.414219
1469.000000	100.418116
1468.000000	100.420850
1467.000000	100.423477
1466.000000	100.426202
1465.000000	100.427537
1464.000000	100.426115
1463.000000	100.423164
1462.000000	100.420638
1461.000000	100.418794
1460.000000	100.416965
1459.000000	100.415271
1458.000000	100.414970
1457.000000	100.415481
1456.000000	100.414514
1455.000000	100.412536
1454.000000	100.410710
1453.000000	100.409121
1452.000000	100.408206
1451.000000	100.408581
1450.000000	100.410026
1449.000000	100.410815
1448.000000	100.408777
1447.000000	100.403396
1446.000000	100.396741
1445.000000	100.391367
1444.000000	100.388277
1443.000000	100.387168
1442.000000	100.387285
1441.000000	100.387970
1440.000000	100.388355
1439.000000	100.387129
1438.000000	100.383039
1437.000000	100.376421
1436.000000	100.370179
1435.000000	100.367118
1434.000000	100.366268
1433.000000	100.364881
1432.000000	100.362290
1431.000000	100.360199
1430.000000	100.360025
1429.000000	100.360771
1428.000000	100.360676
1427.000000	100.359474
1426.000000	100.358197
1425.000000	100.357690
1424.000000	100.357849
1423.000000	100.358560
1422.000000	100.360356
1421.000000	100.363627
1420.000000	100.367523
1419.000000	100.370160
1418.000000	100.371242
1417.000000	100.372739
1416.000000	100.375316
1415.000000	100.377474
1414.000000	100.377852
1413.000000	100.376606
1412.000000	100.374967
1411.000000	100.374067
1410.000000	100.374378
1409.000000	100.375758
1408.000000	100.377981
1407.000000	100.381200
1406.000000	100.386293
1405.000000	100.394046
1404.000000	100.403179
1403.000000	100.410731
1402.000000	100.415042
1401.000000	100.417139
1400.000000	100.419070
1399.000000	100.421362
1398.000000	100.423195
1397.000000	100.425081
1396.000000	100.429191
1395.000000	100.436344
1394.000000	100.444400
1393.000000	100.451039
1392.000000	100.456336
1391.000000	100.461387
1390.000000	100.466539
1389.000000	100.471681
1388.000000	100.477010
1387.000000	100.482470
1386.000000	100.487186
1385.000000	100.490482
1384.000000	100.492601
1383.000000	100.493935
1382.000000	100.493984
1381.000000	100.491877
1380.000000	100.488116
1379.000000	100.485104
1378.000000	100.485312
1377.000000	100.488913
1376.000000	100.493459
1375.000000	100.495638
1374.000000	100.493972
1373.000000	100.490356
1372.000000	100.488191
1371.000000	100.488958
1370.000000	100.491577
1369.000000	100.494030
1368.000000	100.494891
1367.000000	100.493929
1366.000000	100.491677
1365.000000	100.488946
1364.000000	100.486784
1363.000000	100.486103
1362.000000	100.486920
1361.000000	100.488463
1360.000000	100.489919
1359.000000	100.490690
1358.000000	100.490566
1357.000000	100.490175
1356.000000	100.490839
1355.000000	100.493381
1354.000000	100.497167
1353.000000	100.500719
1352.000000	100.503164
1351.000000	100.504417
1350.000000	100.504493
1349.000000	100.503426
1348.000000	100.501665
1347.000000	100.499945
1346.000000	100.498676
1345.000000	100.497900
1344.000000	100.497680
1343.000000	100.498027
1342.000000	100.498618
1341.000000	100.499189
1340.000000	100.500131
1339.000000	100.501931
1338.000000	100.503948
1337.000000	100.504759
1336.000000	100.503905
1335.000000	100.502411
1334.000000	100.501276
1333.000000	100.500195
1332.000000	100.498499
1331.000000	100.496810
1330.000000	100.496780
1329.000000	100.499136
1328.000000	100.502596
1327.000000	100.504859
1326.000000	100.504575
1325.000000	100.502453
1324.000000	100.500605
1323.000000	100.500498
1322.000000	100.501400
1321.000000	100.501350
1320.000000	100.499836
1319.000000	100.498716
1318.000000	100.499765
1317.000000	100.502133
1316.000000	100.503552
1315.000000	100.503247
1314.000000	100.502205
1313.000000	100.501076
1312.000000	100.499557
1311.000000	100.497996
1310.000000	100.497719
1309.000000	100.498979
1308.000000	100.500232
1307.000000	100.500528
1306.000000	100.501317
1305.000000	100.504207
1304.000000	100.507689
1303.000000	100.508315
1302.000000	100.505063
1301.000000	100.500829
1300.000000	100.499123
1299.000000	100.500277
1298.000000	100.501922
1297.000000	100.502200
1296.000000	100.501369
1295.000000	100.500733
1294.000000	100.501063
1293.000000	100.502018
1292.000000	100.502467
1291.000000	100.501439
1290.000000	100.499287
1289.000000	100.497704
1288.000000	100.497826
1287.000000	100.498530
1286.000000	100.497586
1285.000000	100.494540
1284.000000	100.491406
1283.000000	100.490218
1282.000000	100.490801
1281.000000	100.491411
1280.000000	100.490673
1279.000000	100.488254
1278.000000	100.484621
1277.000000	100.481206
1276.000000	100.480078
1275.000000	100.482160
1274.000000	100.485893
1273.000000	100.488671
1272.000000	100.489418
1271.000000	100.488865
1270.000000	100.487825
1269.000000	100.486682
1268.000000	100.486496
1267.000000	100.488891
1266.000000	100.494013
1265.000000	100.499558
1264.000000	100.502688
1263.000000	100.502555
1262.000000	100.500678
1261.000000	100.499333
1260.000000	100.499743
1259.000000	100.501323
1258.000000	100.502279
1257.000000	100.500886
1256.000000	100.496208
1255.000000	100.488101
1254.000000	100.477642
1253.000000	100.467822
1252.000000	100.462244
1251.000000	100.461608
1250.000000	100.462204
1249.000000	100.459482
1248.000000	100.452596
1247.000000	100.444026
1246.000000	100.435680
1245.000000	100.427580
1244.000000	100.420043
1243.000000	100.414231
1242.000000	100.409762
1241.000000	100.404305
1240.000000	100.396912
1239.000000	100.389787
1238.000000	100.385151
1237.000000	100.381696
1236.000000	100.375752
1235.000000	100.365113
1234.000000	100.350597
1233.000000	100.334811
1232.000000	100.320513
1231.000000	100.309349
1230.000000	100.300785
1229.000000	100.292482
1228.000000	100.282187
1227.000000	100.268695
1226.000000	100.251066
1225.000000	100.228443
1224.000000	100.201396
1223.000000	100.172010
1222.000000	100.141531
1221.000000	100.109134
1220.000000	100.074115
1219.000000	100.037906
1218.000000	100.002258
1217.000000	99.966505
1216.000000	99.928531
1215.000000	99.887848
1214.000000	99.845973
1213.000000	99.804098
1212.000000	99.761866
1211.000000	99.718279
1210.000000	99.672375
1209.000000	99.622995
1208.000000	99.569289
1207.000000	99.512324
1206.000000	99.455887
1205.000000	99.404889
1204.000000	99.361868
1203.000000	99.324343
1202.000000	99.286302
1201.000000	99.243341
1200.000000	99.195839
1199.000000	99.146308
1198.000000	99.094939
1197.000000	99.039845
1196.000000	98.981065
1195.000000	98.921734
1194.000000	98.864921
1193.000000	98.811045
1192.000000	98.758397
1191.000000	98.704441
1190.000000	98.646929
1189.000000	98.585813
1188.000000	98.523954
1187.000000	98.464076
1186.000000	98.405283
1185.000000	98.344276
1184.000000	98.278957
1183.000000	98.208864
1182.000000	98.133936
1181.000000	98.055966
1180.000000	97.979470
1179.000000	97.906846
1178.000000	97.833607
1177.000000	97.752849
1176.000000	97.663783
1175.000000	97.571480
1174.000000	97.479193
1173.000000	97.386418
1172.000000	97.294252
1171.000000	97.206361
1170.000000	97.123707
1169.000000	97.044135
1168.000000	96.968323
1167.000000	96.900615
1166.000000	96.843286
1165.000000	96.796423
1164.000000	96.764694
1163.000000	96.757092
1162.000000	96.776840
1161.000000	96.816323
1160.000000	96.863196
1159.000000	96.906173
1158.000000	96.934308
1157.000000	96.938302
1156.000000	96.916360
1155.000000	96.874612
1154.000000	96.819477
1153.000000	96.753428
1152.000000	96.679556
1151.000000	96.604232
1150.000000	96.531561
1149.000000	96.459743
1148.000000	96.386354
1147.000000	96.313296
1146.000000	96.243888
1145.000000	96.179173
1144.000000	96.119405
1143.000000	96.064727
1142.000000	96.011932
1141.000000	95.954976
1140.000000	95.891196
1139.000000	95.823416
1138.000000	95.754805
1137.000000	95.686214
1136.000000	95.619435
1135.000000	95.557227
1134.000000	95.498193
1133.000000	95.437252
1132.000000	95.372989
1131.000000	95.308793
1130.000000	95.245198
1129.000000	95.177882
1128.000000	95.105722
1127.000000	95.034134
1126.000000	94.967197
1125.000000	94.902685
1124.000000	94.838213
1123.000000	94.776148
1122.000000	94.718409
1121.000000	94.661669
1120.000000	94.601665
1119.000000	94.538078
1118.000000	94.472348
1117.000000	94.405394
1116.000000	94.339974
1115.000000	94.280007
1114.000000	94.224788
1113.000000	94.169104
1112.000000	94.111406
1111.000000	94.056070
1110.000000	94.005494
1109.000000	93.956094
1108.000000	93.904271
1107.000000	93.850402
1106.000000	93.795397
1105.000000	93.739661
1104.000000	93.686276
1103.000000	93.637751
1102.000000	93.588868
1101.000000	93.531276
1100.000000	93.466657
1099.000000	93.406292
1098.000000	93.355531
1097.000000	93.307920
1096.000000	93.257020
1095.000000	93.204410
1094.000000	93.152811
1093.000000	93.100716
1092.000000	93.047401
1091.000000	92.994502
1090.000000	92.939776
1089.000000	92.878681
1088.000000	92.815312
1087.000000	92.762081
1086.000000	92.724285
1085.000000	92.693183
1084.000000	92.657342
1083.000000	92.612374
1082.000000	92.558180
1081.000000	92.497326
1080.000000	92.439078
1079.000000	92.394081
1078.000000	92.360521
1077.000000	92.325169
1076.000000	92.280915
1075.000000	92.232211
1074.000000	92.180485
1073.000000	92.117120
1072.000000	92.036587
1071.000000	91.945103
1070.000000	91.849650
1069.000000	91.747583
1068.000000	91.633278
1067.000000	91.506616
1066.000000	91.369913
1065.000000	91.225186
1064.000000	91.078897
1063.000000	90.940147
1062.000000	90.809703
1061.000000	90.680293
1060.000000	90.551027
1059.000000	90.430108
1058.000000	90.319503
1057.000000	90.209937
1056.000000	90.096709
1055.000000	89.987320
1054.000000	89.885601
1053.000000	89.779781
1052.000000	89.655659
1051.000000	89.512238
1050.000000	89.355905
1049.000000	89.189631
1048.000000	89.017108
1047.000000	88.846627
1046.000000	88.681660
1045.000000	88.516786
1044.000000	88.348657
1043.000000	88.181300
1042.000000	88.016180
1041.000000	87.847987
1040.000000	87.676005
1039.000000	87.509379
1038.000000	87.355225
1037.000000	87.211388
1036.000000	87.075870
1035.000000	86.952853
1034.000000	86.844181
1033.000000	86.745138
1032.000000	86.653490
1031.000000	86.572604
1030.000000	86.501514
1029.000000	86.432659
1028.000000	86.363604
1027.000000	86.300539
1026.000000	86.246761
1025.000000	86.198712
1024.000000	86.155906
1023.000000	86.122338
1022.000000	86.094490
1021.000000	86.060537
1020.000000	86.015989
1019.000000	85.968881
1018.000000	85.925926
1017.000000	85.884966
1016.000000	85.843836
1015.000000	85.804494
1014.000000	85.765078
1013.000000	85.719805
1012.000000	85.669785
1011.000000	85.622331
1010.000000	85.577602
1009.000000	85.528721
1008.000000	85.477131
1007.000000	85.434084
1006.000000	85.403833
1005.000000	85.379086
1004.000000	85.356571
1003.000000	85.343182
1002.000000	85.342161
1001.000000	85.346340
1000.000000	85.349644
999.000000	85.353059
998.000000	85.355360
997.000000	85.350897
996.000000	85.341252
995.000000	85.336995
994.000000	85.343347
993.000000	85.355326
992.000000	85.370088
991.000000	85.391717
990.000000	85.420258
989.000000	85.448813
988.000000	85.475833
987.000000	85.508347
986.000000	85.548879
985.000000	85.591092
984.000000	85.632651
983.000000	85.680681
982.000000	85.739871
981.000000	85.806266
980.000000	85.877162
979.000000	85.956876
978.000000	86.048747
977.000000	86.150850
976.000000	86.262206
975.000000	86.383554
974.000000	86.510408
973.000000	86.636037
972.000000	86.762905
971.000000	86.900132
970.000000	87.048106
969.000000	87.196970
968.000000	87.342239
967.000000	87.490416
966.000000	87.646483
965.000000	87.806486
964.000000	87.964855
963.000000	88.118980
962.000000	88.265106
961.000000	88.400406
960.000000	88.530842
959.000000	88.666426
958.000000	88.806776
957.000000	88.941706
956.000000	89.067311
955.000000	89.190110
954.000000	89.313594
953.000000	89.432476
952.000000	89.543126
951.000000	89.648090
950.000000	89.746763
949.000000	89.832955
948.000000	89.906563
947.000000	89.977605
946.000000	90.053270
945.000000	90.129081
944.000000	90.197339
943.000000	90.256308
942.000000	90.307531
941.000000	90.352148
940.000000	90.393742
939.000000	90.437732
938.000000	90.484712
937.000000	90.530808
936.000000	90.575867
935.000000	90.623583
934.000000	90.673046
933.000000	90.719595
932.000000	90.765083
931.000000	90.816776
930.000000	90.873924
929.000000	90.926433
928.000000	90.970318
927.000000	91.013802
926.000000	91.063554
925.000000	91.114804
924.000000	91.160435
923.000000	91.201109
922.000000	91.240743
921.000000	91.279218
920.000000	91.314716
919.000000	91.347420
918.000000	91.377385
917.000000	91.404653
916.000000	91.433567
915.000000	91.469987
914.000000	91.512581
913.000000	91.554754
912.000000	91.597042
911.000000	91.648785
910.000000	91.715066
909.000000	91.791435
908.000000	91.874820
907.000000	91.970510
906.000000	92.084101
905.000000	92.214387
904.000000	92.357265
903.000000	92.508558
902.000000	92.660391
901.000000	92.803832
900.000000	92.939150
899.000000	93.076164
898.000000	93.221323
897.000000	93.371480
896.000000	93.522612
895.000000	93.676206
894.000000	93.832891
893.000000	93.986851
892.000000	94.131356
891.000000	94.265092
890.000000	94.390121
889.000000	94.508507
888.000000	94.623483
887.000000	94.738996
886.000000	94.855039
885.000000	94.967123
884.000000	95.072176
883.000000	95.171366
882.000000	95.266573
881.000000	95.358526
880.000000	95.449179
879.000000	95.541465
878.000000	95.636203
877.000000	95.733361
876.000000	95.835202
875.000000	95.942757
874.000000	96.050938
873.000000	96.153893
872.000000	96.253902
871.000000	96.358050
870.000000	96.467441
869.000000	96.576921
868.000000	96.684107
867.000000	96.791090
866.000000	96.898363
865.000000	97.004760
864.000000	97.112592
863.000000	97.224687
862.000000	97.336539
861.000000	97.439826
860.000000	97.534390
859.000000	97.628500
858.000000	97.725625
857.000000	97.818906
856.000000	97.901548
855.000000	97.975661
854.000000	98.047838
853.000000	98.121753
852.000000	98.197811
851.000000	98.274510
850.000000	98.347191
849.000000	98.410270
848.000000	98.463418
847.000000	98.511701
846.000000	98.558103
845.000000	98.600146
844.000000	98.634905
843.000000	98.662579
842.000000	98.683690
841.000000	98.697104
840.000000	98.701678
839.000000	98.695589
838.000000	98.674483
837.000000	98.636402
836.000000	98.589129
835.000000	98.546087
834.000000	98.513160
833.000000	98.485724
832.000000	98.460111
831.000000	98.440357
830.000000	98.430813
829.000000	98.430186
828.000000	98.437472
827.000000	98.456249
826.000000	98.487327
825.000000	98.524115
824.000000	98.561289
823.000000	98.600862
822.000000	98.643184
821.000000	98.679382
820.000000	98.699747
819.000000	98.704016
818.000000	98.698109
817.000000	98.684573
816.000000	98.659654
815.000000	98.616224
814.000000	98.546760
813.000000	98.446612
812.000000	98.316341
811.000000	98.157115
810.000000	97.962437
809.000000	97.720340
808.000000	97.427525
807.000000	97.096177
806.000000	96.742282
805.000000	96.372705
804.000000	95.990219
803.000000	95.606691
802.000000	95.243977
801.000000	94.923807
800.000000	94.660455
799.000000	94.458316
798.000000	94.312413
797.000000	94.215799
796.000000	94.168030
795.000000	94.169862
794.000000	94.209604
793.000000	94.264436
792.000000	94.317426
791.000000	94.364750
790.000000	94.405188
789.000000	94.432552
788.000000	94.440728
787.000000	94.426282
786.000000	94.382949
785.000000	94.303193
784.000000	94.189663
783.000000	94.057215
782.000000	93.920139
781.000000	93.785662
780.000000	93.662830
779.000000	93.567008
778.000000	93.509716
777.000000	93.492161
776.000000	93.512367
775.000000	93.568969
774.000000	93.654070
773.000000	93.753027
772.000000	93.856925
771.000000	93.966739
770.000000	94.081360
769.000000	94.191196
768.000000	94.288376
767.000000	94.373906
766.000000	94.449545
765.000000	94.511863
764.000000	94.560679
763.000000	94.605423
762.000000	94.656273
761.000000	94.714698
760.000000	94.776968
759.000000	94.839654
758.000000	94.897428
757.000000	94.944228
756.000000	94.982988
755.000000	95.027098
754.000000	95.086078
753.000000	95.156210
752.000000	95.230035
751.000000	95.306804
750.000000	95.386961
749.000000	95.464432
748.000000	95.533512
747.000000	95.598861
746.000000	95.670710
745.000000	95.753409
744.000000	95.844985
743.000000	95.944047
742.000000	96.050139
741.000000	96.159893
740.000000	96.269089
739.000000	96.377283
738.000000	96.486199
737.000000	96.595197
736.000000	96.701551
735.000000	96.802941
734.000000	96.897045
733.000000	96.981579
732.000000	97.057154
731.000000	97.126784
730.000000	97.190256
729.000000	97.243004
728.000000	97.283640
727.000000	97.318307
726.000000	97.353672
725.000000	97.389880
724.000000	97.425376
723.000000	97.465272
722.000000	97.519121
721.000000	97.591080
720.000000	97.675653
719.000000	97.762278
718.000000	97.841768
717.000000	97.909868
716.000000	97.967884
715.000000	98.020010
714.000000	98.068436
713.000000	98.111532
712.000000	98.146966
711.000000	98.174006
710.000000	98.192191
709.000000	98.201302
708.000000	98.204186
707.000000	98.205509
706.000000	98.204894
705.000000	98.194928
704.000000	98.168073
703.000000	98.120453
702.000000	98.045498
701.000000	97.929265
700.000000	97.758653
699.000000	97.534561
698.000000	97.276140
697.000000	97.016544
696.000000	96.796409
695.000000	96.652677
694.000000	96.603342
693.000000	96.639914
692.000000	96.735385
691.000000	96.860657
690.000000	96.995412
689.000000	97.128562
688.000000	97.254929
687.000000	97.373817
686.000000	97.487643
685.000000	97.597556
684.000000	97.699296
683.000000	97.785296
682.000000	97.852705
681.000000	97.909458
680.000000	97.970434
679.000000	98.045512
678.000000	98.131431
677.000000	98.214956
676.000000	98.283963
675.000000	98.337056
674.000000	98.383173
673.000000	98.433240
672.000000	98.491714
671.000000	98.555384
670.000000	98.620206
669.000000	98.690014
668.000000	98.774351
667.000000	98.864873
666.000000	98.937792
665.000000	98.987042
664.000000	99.023937
663.000000	99.059799
662.000000	99.097759
661.000000	99.133538
660.000000	99.164940
659.000000	99.195614
658.000000	99.228234
657.000000	99.259185
656.000000	99.283059
655.000000	99.298275
654.000000	99.305636
653.000000	99.305952
652.000000	99.300348
651.000000	99.287992
650.000000	99.265410
