4000.000000	100.491120
3999.000000	100.490448
3998.000000	100.488142
3997.000000	100.485643
3996.000000	100.484173
3995.000000	100.483587
3994.000000	100.482975
3993.000000	100.481897
3992.000000	100.480842
3991.000000	100.480504
3990.000000	100.480940
3989.000000	100.481475
3988.000000	100.481283
3987.000000	100.480037
3986.000000	100.478141
3985.000000	100.476528
3984.000000	100.476039
3983.000000	100.476859
3982.000000	100.478408
3981.000000	100.479716
3980.000000	100.480104
3979.000000	100.479471
3978.000000	100.478229
3977.000000	100.477121
3976.000000	100.476917
3975.000000	100.477947
3974.000000	100.479745
3973.000000	100.481285
3972.000000	100.481821
3971.000000	100.481438
3970.000000	100.480830
3969.000000	100.480569
3968.000000	100.480612
3967.000000	100.480528
3966.000000	100.480122
3965.000000	100.479754
3964.000000	100.480013
3963.000000	100.481125
3962.000000	100.482753
3961.000000	100.484415
3960.000000	100.485855
3959.000000	100.486882
3958.000000	100.487143
3957.000000	100.486350
3956.000000	100.484735
3955.000000	100.483123
3954.000000	100.482321
3953.000000	100.482490
3952.000000	100.483160
3951.000000	100.483718
3950.000000	100.483903
3949.000000	100.483883
3948.000000	100.484008
3947.000000	100.484564
3946.000000	100.485639
3945.000000	100.487040
3944.000000	100.488309
3943.000000	100.488983
3942.000000	100.488875
3941.000000	100.488143
3940.000000	100.487099
3939.000000	100.485961
3938.000000	100.484852
3937.000000	100.483964
3936.000000	100.483542
3935.000000	100.483638
3934.000000	100.483969
3933.000000	100.484089
3932.000000	100.483760
3931.000000	100.483083
3930.000000	100.482306
3929.000000	100.481676
3928.000000	100.481426
3927.000000	100.481686
3926.000000	100.482254
3925.000000	100.482565
3924.000000	100.482139
3923.000000	100.480987
3922.000000	100.479621
3921.000000	100.478677
3920.000000	100.478500
3919.000000	100.478970
3918.000000	100.479598
3917.000000	100.479847
3916.000000	100.479517
3915.000000	100.478827
3914.000000	100.478190
3913.000000	100.477912
3912.000000	100.478021
3911.000000	100.478334
3910.000000	100.478627
3909.000000	100.478811
3908.000000	100.478947
3907.000000	100.479122
3906.000000	100.479332
3905.000000	100.479512
3904.000000	100.479658
3903.000000	100.479888
3902.000000	100.480317
3901.000000	100.480900
3900.000000	100.481456
3899.000000	100.481858
3898.000000	100.482089
3897.000000	100.482198
3896.000000	100.482230
3895.000000	100.482266
3894.000000	100.482467
3893.000000	100.482905
3892.000000	100.483315
3891.000000	100.483244
3890.000000	100.482628
3889.000000	100.481954
3888.000000	100.481704
3887.000000	100.481779
3886.000000	100.481645
3885.000000	100.481161
3884.000000	100.480891
3883.000000	100.481330
3882.000000	100.482197
3881.000000	100.482632
3880.000000	100.482116
3879.000000	100.481161
3878.000000	100.480900
3877.000000	100.481945
3876.000000	100.483685
3875.000000	100.484605
3874.000000	100.483681
3873.000000	100.481397
3872.000000	100.479352
3871.000000	100.478687
3870.000000	100.479170
3869.000000	100.479962
3868.000000	100.480918
3867.000000	100.482464
3866.000000	100.484568
3865.000000	100.486545
3864.000000	100.487638
3863.000000	100.487563
3862.000000	100.486499
3861.000000	100.484714
3860.000000	100.482087
3859.000000	100.478026
3858.000000	100.472291
3857.000000	100.466188
3856.000000	100.462632
3855.000000	100.463662
3854.000000	100.467934
3853.000000	100.471692
3852.000000	100.473168
3851.000000	100.473385
3850.000000	100.473322
3849.000000	100.473177
3848.000000	100.473243
3847.000000	100.474000
3846.000000	100.475651
3845.000000	100.477872
3844.000000	100.479744
3843.000000	100.480272
3842.000000	100.479212
3841.000000	100.477393
3840.000000	100.476262
3839.000000	100.476828
3838.000000	100.478653
3837.000000	100.480180
3836.000000	100.480454
3835.000000	100.480023
3834.000000	100.480200
3833.000000	100.481662
3832.000000	100.483842
3831.000000	100.485763
3830.000000	100.487251
3829.000000	100.488886
3828.000000	100.490776
3827.000000	100.491994
3826.000000	100.491684
3825.000000	100.490330
3824.000000	100.489258
3823.000000	100.488894
3822.000000	100.488161
3821.000000	100.486188
3820.000000	100.483774
3819.000000	100.482403
3818.000000	100.482499
3817.000000	100.482921
3816.000000	100.482376
3815.000000	100.481340
3814.000000	100.481220
3813.000000	100.482165
3812.000000	100.483112
3811.000000	100.483254
3810.000000	100.482780
3809.000000	100.482369
3808.000000	100.482311
3807.000000	100.482375
3806.000000	100.482441
3805.000000	100.482680
3804.000000	100.483109
3803.000000	100.483316
3802.000000	100.482767
3801.000000	100.481590
3800.000000	100.480758
3799.000000	100.480996
3798.000000	100.482186
3797.000000	100.483658
3796.000000	100.484734
3795.000000	100.485189
3794.000000	100.485159
3793.000000	100.484856
3792.000000	100.484459
3791.000000	100.484137
3790.000000	100.483996
3789.000000	100.483994
3788.000000	100.483965
3787.000000	100.483774
3786.000000	100.483463
3785.000000	100.483251
3784.000000	100.483367
3783.000000	100.483862
3782.000000	100.484443
3781.000000	100.484555
3780.000000	100.483817
3779.000000	100.482455
3778.000000	100.481206
3777.000000	100.480613
3776.000000	100.480534
3775.000000	100.480428
3774.000000	100.480091
3773.000000	100.479969
3772.000000	100.480624
3771.000000	100.481949
3770.000000	100.483098
3769.000000	100.483392
3768.000000	100.483000
3767.000000	100.482538
3766.000000	100.482313
3765.000000	100.482313
3764.000000	100.482685
3763.000000	100.483702
3762.000000	100.485071
3761.000000	100.485796
3760.000000	100.485180
3759.000000	100.483607
3758.000000	100.481937
3757.000000	100.480404
3756.000000	100.478624
3755.000000	100.476263
3754.000000	100.473456
3753.000000	100.470942
3752.000000	100.469774
3751.000000	100.470237
3750.000000	100.471028
3749.000000	100.470805
3748.000000	100.470097
3747.000000	100.470507
3746.000000	100.472657
3745.000000	100.474715
3744.000000	100.474279
3743.000000	100.471867
3742.000000	100.469664
3741.000000	100.468575
3740.000000	100.468367
3739.000000	100.468691
3738.000000	100.469098
3737.000000	100.468923
3736.000000	100.468202
3735.000000	100.468218
3734.000000	100.469879
3733.000000	100.472115
3732.000000	100.472830
3731.000000	100.471044
3730.000000	100.467442
3729.000000	100.463357
3728.000000	100.459730
3727.000000	100.456959
3726.000000	100.455255
3725.000000	100.454648
3724.000000	100.454689
3723.000000	100.454626
3722.000000	100.453879
3721.000000	100.452248
3720.000000	100.449837
3719.000000	100.446966
3718.000000	100.444114
3717.000000	100.441831
3716.000000	100.440403
3715.000000	100.439474
3714.000000	100.438126
3713.000000	100.435717
3712.000000	100.432906
3711.000000	100.431228
3710.000000	100.431120
3709.000000	100.431209
3708.000000	100.429762
3707.000000	100.426170
3706.000000	100.421191
3705.000000	100.416260
3704.000000	100.412310
3703.000000	100.409132
3702.000000	100.405738
3701.000000	100.401536
3700.000000	100.397126
3699.000000	100.393619
3698.000000	100.391194
3697.000000	100.388841
3696.000000	100.385665
3695.000000	100.381922
3694.000000	100.378494
3693.000000	100.375950
3692.000000	100.374463
3691.000000	100.374130
3690.000000	100.374431
3689.000000	100.373408
3688.000000	100.369467
3687.000000	100.363769
3686.000000	100.358918
3685.000000	100.356165
3684.000000	100.354993
3683.000000	100.354073
3682.000000	100.352051
3681.000000	100.347861
3680.000000	100.341306
3679.000000	100.333893
3678.000000	100.328206
3677.000000	100.325326
3676.000000	100.323479
3675.000000	100.320453
3674.000000	100.316677
3673.000000	100.314450
3672.000000	100.314665
3671.000000	100.315059
3670.000000	100.312310
3669.000000	100.305611
3668.000000	100.296816
3667.000000	100.287925
3666.000000	100.279563
3665.000000	100.271485
3664.000000	100.263726
3663.000000	100.256760
3662.000000	100.250740
3661.000000	100.244909
3660.000000	100.238264
3659.000000	100.230688
3658.000000	100.223211
3657.000000	100.217096
3656.000000	100.212897
3655.000000	100.210456
3654.000000	100.209184
3653.000000	100.207993
3652.000000	100.205631
3651.000000	100.202104
3650.000000	100.199505
3649.000000	100.198517
3648.000000	100.194998
3647.000000	100.184803
3646.000000	100.169412
3645.000000	100.154503
3644.000000	100.145086
3643.000000	100.142575
3642.000000	100.145027
3641.000000	100.149037
3640.000000	100.151538
3639.000000	100.150704
3638.000000	100.146543
3637.000000	100.140864
3636.000000	100.135413
3635.000000	100.129686
3634.000000	100.121690
3633.000000	100.111225
3632.000000	100.101049
3631.000000	100.094189
3630.000000	100.090573
3629.000000	100.088146
3628.000000	100.086561
3627.000000	100.087431
3626.000000	100.091425
3625.000000	100.096775
3624.000000	100.101040
3623.000000	100.102894
3622.000000	100.101880
3621.000000	100.097655
3620.000000	100.090970
3619.000000	100.084693
3618.000000	100.081964
3617.000000	100.083802
3616.000000	100.088840
3615.000000	100.094492
3614.000000	100.098803
3613.000000	100.101798
3612.000000	100.104779
3611.000000	100.108593
3610.000000	100.113046
3609.000000	100.118080
3608.000000	100.124709
3607.000000	100.133559
3606.000000	100.143488
3605.000000	100.152656
3604.000000	100.160217
3603.000000	100.166485
3602.000000	100.171796
3601.000000	100.175837
3600.000000	100.178546
3599.000000	100.180757
3598.000000	100.183353
3597.000000	100.186107
3596.000000	100.187731
3595.000000	100.187378
3594.000000	100.186041
3593.000000	100.186152
3592.000000	100.189749
3591.000000	100.197065
3590.000000	100.206059
3589.000000	100.213031
3588.000000	100.214761
3587.000000	100.210690
3586.000000	100.203404
3585.000000	100.197321
3584.000000	100.195895
3583.000000	100.199459
3582.000000	100.205169
3581.000000	100.209111
3580.000000	100.209295
3579.000000	100.206891
3578.000000	100.204584
3577.000000	100.204046
3576.000000	100.205079
3575.000000	100.206762
3574.000000	100.208652
3573.000000	100.210793
3572.000000	100.213088
3571.000000	100.215126
3570.000000	100.216552
3569.000000	100.217408
3568.000000	100.218197
3567.000000	100.219369
3566.000000	100.220636
3565.000000	100.221447
3564.000000	100.221823
3563.000000	100.222162
3562.000000	100.222674
3561.000000	100.223329
3560.000000	100.224095
3559.000000	100.224992
3558.000000	100.225873
3557.000000	100.226379
3556.000000	100.226219
3555.000000	100.225416
3554.000000	100.224222
3553.000000	100.222904
3552.000000	100.221731
3551.000000	100.221122
3550.000000	100.221466
3549.000000	100.222625
3548.000000	100.223777
3547.000000	100.224065
3546.000000	100.223343
3545.000000	100.222198
3544.000000	100.221319
3543.000000	100.220882
3542.000000	100.220645
3541.000000	100.220470
3540.000000	100.220557
3539.000000	100.221184
3538.000000	100.222346
3537.000000	100.223673
3536.000000	100.224754
3535.000000	100.225446
3534.000000	100.225760
3533.000000	100.225716
3532.000000	100.225457
3531.000000	100.225369
3530.000000	100.225750
3529.000000	100.226350
3528.000000	100.226583
3527.000000	100.226351
3526.000000	100.226293
3525.000000	100.226978
3524.000000	100.228176
3523.000000	100.229157
3522.000000	100.229625
3521.000000	100.230036
3520.000000	100.230944
3519.000000	100.232324
3518.000000	100.233611
3517.000000	100.234264
3516.000000	100.234136
3515.000000	100.233421
3514.000000	100.232520
3513.000000	100.231900
3512.000000	100.231902
3511.000000	100.232536
3510.000000	100.233432
3509.000000	100.234062
3508.000000	100.234117
3507.000000	100.233686
3506.000000	100.233145
3505.000000	100.232887
3504.000000	100.233161
3503.000000	100.234013
3502.000000	100.235269
3501.000000	100.236612
3500.000000	100.237709
3499.000000	100.238376
3498.000000	100.238656
3497.000000	100.238702
3496.000000	100.238608
3495.000000	100.238362
3494.000000	100.237954
3493.000000	100.237476
3492.000000	100.237113
3491.000000	100.237036
3490.000000	100.237278
3489.000000	100.237646
3488.000000	100.237797
3487.000000	100.237512
3486.000000	100.236889
3485.000000	100.236262
3484.000000	100.235893
3483.000000	100.235783
3482.000000	100.235766
3481.000000	100.235733
3480.000000	100.235708
3479.000000	100.235725
3478.000000	100.235715
3477.000000	100.235563
3476.000000	100.235228
3475.000000	100.234790
3474.000000	100.234404
3473.000000	100.234199
3472.000000	100.234200
3471.000000	100.234333
3470.000000	100.234464
3469.000000	100.234461
3468.000000	100.234230
3467.000000	100.233776
3466.000000	100.233237
3465.000000	100.232833
3464.000000	100.232705
3463.000000	100.232798
3462.000000	100.232837
3461.000000	100.232506
3460.000000	100.231705
3459.000000	100.230642
3458.000000	100.229723
3457.000000	100.229201
3456.000000	100.229001
3455.000000	100.228806
3454.000000	100.228389
3453.000000	100.227808
3452.000000	100.227229
3451.000000	100.226640
3450.000000	100.225914
3449.000000	100.225102
3448.000000	100.224470
3447.000000	100.224181
3446.000000	100.224163
3445.000000	100.224355
3444.000000	100.224796
3443.000000	100.225359
3442.000000	100.225631
3441.000000	100.225233
3440.000000	100.224135
3439.000000	100.222557
3438.000000	100.220734
3437.000000	100.218894
3436.000000	100.217265
3435.000000	100.215958
3434.000000	100.214975
3433.000000	100.214441
3432.000000	100.214645
3431.000000	100.215671
3430.000000	100.217070
3429.000000	100.218105
3428.000000	100.218314
3427.000000	100.217716
3426.000000	100.216670
3425.000000	100.215723
3424.000000	100.215402
3423.000000	100.215865
3422.000000	100.216680
3421.000000	100.217143
3420.000000	100.217031
3419.000000	100.216850
3418.000000	100.217184
3417.000000	100.217883
3416.000000	100.218099
3415.000000	100.217188
3414.000000	100.215426
3413.000000	100.213634
3412.000000	100.212224
3411.000000	100.211038
3410.000000	100.209910
3409.000000	100.208958
3408.000000	100.208342
3407.000000	100.208107
3406.000000	100.208400
3405.000000	100.209392
3404.000000	100.210745
3403.000000	100.211582
3402.000000	100.211349
3401.000000	100.210358
3400.000000	100.209256
3399.000000	100.208203
3398.000000	100.207002
3397.000000	100.205861
3396.000000	100.205417
3395.000000	100.205923
3394.000000	100.206885
3393.000000	100.207631
3392.000000	100.208031
3391.000000	100.208409
3390.000000	100.208948
3389.000000	100.209399
3388.000000	100.209335
3387.000000	100.208568
3386.000000	100.207319
3385.000000	100.206064
3384.000000	100.205197
3383.000000	100.204833
3382.000000	100.204888
3381.000000	100.205232
3380.000000	100.205666
3379.000000	100.205920
3378.000000	100.205879
3377.000000	100.205790
3376.000000	100.206044
3375.000000	100.206729
3374.000000	100.207531
3373.000000	100.208069
3372.000000	100.208259
3371.000000	100.208321
3370.000000	100.208564
3369.000000	100.209165
3368.000000	100.210060
3367.000000	100.210949
3366.000000	100.211469
3365.000000	100.211505
3364.000000	100.211226
3363.000000	100.210958
3362.000000	100.210922
3361.000000	100.211123
3360.000000	100.211437
3359.000000	100.211734
3358.000000	100.211973
3357.000000	100.212219
3356.000000	100.212548
3355.000000	100.212968
3354.000000	100.213417
3353.000000	100.213827
3352.000000	100.214178
3351.000000	100.214489
3350.000000	100.214785
3349.000000	100.215070
3348.000000	100.215347
3347.000000	100.215633
3346.000000	100.215967
3345.000000	100.216379
3344.000000	100.216867
3343.000000	100.217388
3342.000000	100.217883
3341.000000	100.218328
3340.000000	100.218730
3339.000000	100.219108
3338.000000	100.219473
3337.000000	100.219829
3336.000000	100.220202
3335.000000	100.220622
3334.000000	100.221105
3333.000000	100.221628
3332.000000	100.222121
3331.000000	100.222501
3330.000000	100.222713
3329.000000	100.222792
3328.000000	100.222867
3327.000000	100.223064
3326.000000	100.223394
3325.000000	100.223710
3324.000000	100.223846
3323.000000	100.223791
3322.000000	100.223770
3321.000000	100.224075
3320.000000	100.224813
3319.000000	100.225786
3318.000000	100.226643
3317.000000	100.227247
3316.000000	100.227719
3315.000000	100.228212
3314.000000	100.228721
3313.000000	100.229163
3312.000000	100.229505
3311.000000	100.229713
3310.000000	100.229726
3309.000000	100.229649
3308.000000	100.229864
3307.000000	100.230741
3306.000000	100.232203
3305.000000	100.233691
3304.000000	100.234603
3303.000000	100.234693
3302.000000	100.234186
3301.000000	100.233617
3300.000000	100.233397
3299.000000	100.233421
3298.000000	100.233194
3297.000000	100.232458
3296.000000	100.231569
3295.000000	100.231101
3294.000000	100.231242
3293.000000	100.231807
3292.000000	100.232657
3291.000000	100.233756
3290.000000	100.234875
3289.000000	100.235624
3288.000000	100.235883
3287.000000	100.235974
3286.000000	100.236311
3285.000000	100.236999
3284.000000	100.237826
3283.000000	100.238515
3282.000000	100.238972
3281.000000	100.239343
3280.000000	100.239847
3279.000000	100.240525
3278.000000	100.241193
3277.000000	100.241696
3276.000000	100.242095
3275.000000	100.242518
3274.000000	100.242953
3273.000000	100.243353
3272.000000	100.243825
3271.000000	100.244523
3270.000000	100.245398
3269.000000	100.246246
3268.000000	100.246997
3267.000000	100.247772
3266.000000	100.248600
3265.000000	100.249259
3264.000000	100.249539
3263.000000	100.249524
3262.000000	100.249603
3261.000000	100.250137
3260.000000	100.251179
3259.000000	100.252529
3258.000000	100.253892
3257.000000	100.255077
3256.000000	100.256068
3255.000000	100.256942
3254.000000	100.257784
3253.000000	100.258617
3252.000000	100.259425
3251.000000	100.260206
3250.000000	100.260983
3249.000000	100.261763
3248.000000	100.262530
3247.000000	100.263271
3246.000000	100.264003
3245.000000	100.264753
3244.000000	100.265539
3243.000000	100.266373
3242.000000	100.267257
3241.000000	100.268159
3240.000000	100.269013
3239.000000	100.269771
3238.000000	100.270456
3237.000000	100.271142
3236.000000	100.271881
3235.000000	100.272657
3234.000000	100.273417
3233.000000	100.274129
3232.000000	100.274801
3231.000000	100.275457
3230.000000	100.276113
3229.000000	100.276777
3228.000000	100.277452
3227.000000	100.278132
3226.000000	100.278799
3225.000000	100.279438
3224.000000	100.280057
3223.000000	100.280686
3222.000000	100.281356
3221.000000	100.282072
3220.000000	100.282815
3219.000000	100.283560
3218.000000	100.284295
3217.000000	100.285009
3216.000000	100.285681
3215.000000	100.286281
3214.000000	100.286805
3213.000000	100.287326
3212.000000	100.287944
3211.000000	100.288697
3210.000000	100.289536
3209.000000	100.290365
3208.000000	100.291147
3207.000000	100.291907
3206.000000	100.292672
3205.000000	100.293444
3204.000000	100.294221
3203.000000	100.295010
3202.000000	100.295800
3201.000000	100.296544
3200.000000	100.297201
3199.000000	100.297789
3198.000000	100.298402
3197.000000	100.299142
3196.000000	100.300032
3195.000000	100.301002
3194.000000	100.301962
3193.000000	100.302873
3192.000000	100.303750
3191.000000	100.304599
3190.000000	100.305412
3189.000000	100.306205
3188.000000	100.307036
3187.000000	100.307951
3186.000000	100.308921
3185.000000	100.309864
3184.000000	100.310722
3183.000000	100.311530
3182.000000	100.312403
3181.000000	100.313446
3180.000000	100.314665
3179.000000	100.315959
3178.000000	100.317193
3177.000000	100.318303
3176.000000	100.319294
3175.000000	100.320166
3174.000000	100.320902
3173.000000	100.321549
3172.000000	100.322222
3171.000000	100.323003
3170.000000	100.323874
3169.000000	100.324778
3168.000000	100.325651
3167.000000	100.326463
3166.000000	100.327225
3165.000000	100.327967
3164.000000	100.328715
3163.000000	100.329470
3162.000000	100.330222
3161.000000	100.330963
3160.000000	100.331697
3159.000000	100.332432
3158.000000	100.333170
3157.000000	100.333908
3156.000000	100.334643
3155.000000	100.335375
3154.000000	100.336105
3153.000000	100.336827
3152.000000	100.337534
3151.000000	100.338220
3150.000000	100.338885
3149.000000	100.339537
3148.000000	100.340193
3147.000000	100.340864
3146.000000	100.341549
3145.000000	100.342233
3144.000000	100.342892
3143.000000	100.343513
3142.000000	100.344099
3141.000000	100.344666
3140.000000	100.345233
3139.000000	100.345807
3138.000000	100.346380
3137.000000	100.346935
3136.000000	100.347466
3135.000000	100.347990
3134.000000	100.348532
3133.000000	100.349096
3132.000000	100.349662
3131.000000	100.350185
3130.000000	100.350623
3129.000000	100.351005
3128.000000	100.351475
3127.000000	100.352176
3126.000000	100.353081
3125.000000	100.353994
3124.000000	100.354721
3123.000000	100.355232
3122.000000	100.355681
3121.000000	100.356287
3120.000000	100.357174
3119.000000	100.358321
3118.000000	100.359567
3117.000000	100.360680
3116.000000	100.361502
3115.000000	100.362024
3114.000000	100.362391
3113.000000	100.362801
3112.000000	100.363376
3111.000000	100.364108
3110.000000	100.364892
3109.000000	100.365631
3108.000000	100.366334
3107.000000	100.367079
3106.000000	100.367869
3105.000000	100.368570
3104.000000	100.369034
3103.000000	100.369258
3102.000000	100.369409
3101.000000	100.369694
3100.000000	100.370226
3099.000000	100.370967
3098.000000	100.371769
3097.000000	100.372484
3096.000000	100.373068
3095.000000	100.373578
3094.000000	100.374091
3093.000000	100.374635
3092.000000	100.375206
3091.000000	100.375799
3090.000000	100.376411
3089.000000	100.377037
3088.000000	100.377670
3087.000000	100.378310
3086.000000	100.378950
3085.000000	100.379559
3084.000000	100.380103
3083.000000	100.380575
3082.000000	100.381009
3081.000000	100.381457
3080.000000	100.381933
3079.000000	100.382422
3078.000000	100.382895
3077.000000	100.383337
3076.000000	100.383744
3075.000000	100.384124
3074.000000	100.384491
3073.000000	100.384856
3072.000000	100.385226
3071.000000	100.385588
3070.000000	100.385928
3069.000000	100.386247
3068.000000	100.386577
3067.000000	100.386950
3066.000000	100.387378
3065.000000	100.387822
3064.000000	100.388216
3063.000000	100.388521
3062.000000	100.388766
3061.000000	100.389043
3060.000000	100.389434
3059.000000	100.389932
3058.000000	100.390423
3057.000000	100.390755
3056.000000	100.390865
3055.000000	100.390824
3054.000000	100.390779
3053.000000	100.390839
3052.000000	100.391003
3051.000000	100.391195
3050.000000	100.391359
3049.000000	100.391546
3048.000000	100.391923
3047.000000	100.392649
3046.000000	100.393700
3045.000000	100.394746
3044.000000	100.395284
3043.000000	100.395023
3042.000000	100.394197
3041.000000	100.393474
3040.000000	100.393355
3039.000000	100.393693
3038.000000	100.393886
3037.000000	100.393477
3036.000000	100.392438
3035.000000	100.390972
3034.000000	100.389392
3033.000000	100.388188
3032.000000	100.387769
3031.000000	100.387993
3030.000000	100.388306
3029.000000	100.388597
3028.000000	100.389487
3027.000000	100.391324
3026.000000	100.393156
3025.000000	100.393471
3024.000000	100.391915
3023.000000	100.389733
3022.000000	100.388283
3021.000000	100.387576
3020.000000	100.386822
3019.000000	100.385747
3018.000000	100.384597
3017.000000	100.383248
3016.000000	100.381464
3015.000000	100.380024
3014.000000	100.380260
3013.000000	100.381914
3012.000000	100.382471
3011.000000	100.379602
3010.000000	100.373783
3009.000000	100.367894
3008.000000	100.364465
3007.000000	100.364000
3006.000000	100.365704
3005.000000	100.368785
3004.000000	100.372584
3003.000000	100.376072
3002.000000	100.378002
3001.000000	100.377749
3000.000000	100.375764
2999.000000	100.372928
2998.000000	100.369504
2997.000000	100.365104
2996.000000	100.359861
2995.000000	100.355240
2994.000000	100.352941
2993.000000	100.352783
2992.000000	100.352264
2991.000000	100.348850
2990.000000	100.342498
2989.000000	100.335506
2988.000000	100.330089
2987.000000	100.326751
2986.000000	100.324724
2985.000000	100.322919
2984.000000	100.320225
2983.000000	100.316014
2982.000000	100.311091
2981.000000	100.307420
2980.000000	100.306109
2979.000000	100.306153
2978.000000	100.305960
2977.000000	100.305842
2976.000000	100.307823
2975.000000	100.312886
2974.000000	100.319506
2973.000000	100.325391
2972.000000	100.330012
2971.000000	100.334596
2970.000000	100.339893
2969.000000	100.344887
2968.000000	100.348082
2967.000000	100.349692
2966.000000	100.351876
2965.000000	100.356493
2964.000000	100.363020
2963.000000	100.369281
2962.000000	100.374142
2961.000000	100.378621
2960.000000	100.383921
2959.000000	100.389092
2958.000000	100.391581
2957.000000	100.390094
2956.000000	100.386319
2955.000000	100.383810
2954.000000	100.385305
2953.000000	100.390878
2952.000000	100.398013
2951.000000	100.403385
2950.000000	100.405272
2949.000000	100.404696
2948.000000	100.404397
2947.000000	100.406624
2946.000000	100.411663
2945.000000	100.417876
2944.000000	100.422687
2943.000000	100.424021
2942.000000	100.421671
2941.000000	100.417452
2940.000000	100.413576
2939.000000	100.410867
2938.000000	100.409047
2937.000000	100.408356
2936.000000	100.409767
2935.000000	100.413458
2934.000000	100.418039
2933.000000	100.421833
2932.000000	100.424367
2931.000000	100.426289
2930.000000	100.428505
2929.000000	100.431781
2928.000000	100.436409
2927.000000	100.441715
2926.000000	100.446592
2925.000000	100.451054
2924.000000	100.456440
2923.000000	100.463255
2922.000000	100.469570
2921.000000	100.472758
2920.000000	100.472457
2919.000000	100.470848
2918.000000	100.470184
2917.000000	100.470668
2916.000000	100.470651
2915.000000	100.468082
2914.000000	100.461878
2913.000000	100.452795
2912.000000	100.443313
2911.000000	100.436014
2910.000000	100.431599
2909.000000	100.428812
2908.000000	100.426413
2907.000000	100.424742
2906.000000	100.424937
2905.000000	100.426909
2904.000000	100.428692
2903.000000	100.428155
2902.000000	100.425221
2901.000000	100.422134
2900.000000	100.421337
2899.000000	100.423183
2898.000000	100.425808
2897.000000	100.426892
2896.000000	100.425324
2895.000000	100.421499
2894.000000	100.416800
2893.000000	100.413058
2892.000000	100.411860
2891.000000	100.413621
2890.000000	100.417081
2889.000000	100.419893
2888.000000	100.420178
2887.000000	100.417950
2886.000000	100.415219
2885.000000	100.414399
2884.000000	100.416097
2883.000000	100.418449
2882.000000	100.418997
2881.000000	100.417375
2880.000000	100.415618
2879.000000	100.415771
2878.000000	100.417819
2877.000000	100.420166
2876.000000	100.421574
2875.000000	100.422169
2874.000000	100.422881
2873.000000	100.424446
2872.000000	100.426836
2871.000000	100.429268
2870.000000	100.430884
2869.000000	100.431766
2868.000000	100.433105
2867.000000	100.435918
2866.000000	100.439633
2865.000000	100.442414
2864.000000	100.443073
2863.000000	100.442358
2862.000000	100.442230
2861.000000	100.444081
2860.000000	100.447813
2859.000000	100.452435
2858.000000	100.457161
2857.000000	100.461705
2856.000000	100.465606
2855.000000	100.467670
2854.000000	100.466735
2853.000000	100.463062
2852.000000	100.458682
2851.000000	100.456032
2850.000000	100.456029
2849.000000	100.457507
2848.000000	100.458359
2847.000000	100.457211
2846.000000	100.454292
2845.000000	100.450994
2844.000000	100.448625
2843.000000	100.447545
2842.000000	100.447530
2841.000000	100.448553
2840.000000	100.450760
2839.000000	100.453691
2838.000000	100.456096
2837.000000	100.456932
2836.000000	100.456280
2835.000000	100.455019
2834.000000	100.453900
2833.000000	100.453186
2832.000000	100.452972
2831.000000	100.453320
2830.000000	100.454011
2829.000000	100.454542
2828.000000	100.454627
2827.000000	100.454510
2826.000000	100.454593
2825.000000	100.454874
2824.000000	100.454972
2823.000000	100.454694
2822.000000	100.454346
2821.000000	100.454371
2820.000000	100.454792
2819.000000	100.455226
2818.000000	100.455408
2817.000000	100.455499
2816.000000	100.455771
2815.000000	100.456190
2814.000000	100.456560
2813.000000	100.456826
2812.000000	100.457073
2811.000000	100.457348
2810.000000	100.457658
2809.000000	100.458001
2808.000000	100.458380
2807.000000	100.458796
2806.000000	100.459240
2805.000000	100.459705
2804.000000	100.460186
2803.000000	100.460689
2802.000000	100.461221
2801.000000	100.461781
2800.000000	100.462343
2799.000000	100.462866
2798.000000	100.463307
2797.000000	100.463656
2796.000000	100.463985
2795.000000	100.464442
2794.000000	100.465156
2793.000000	100.466094
2792.000000	100.467071
2791.000000	100.467902
2790.000000	100.468505
2789.000000	100.468869
2788.000000	100.469019
2787.000000	100.469099
2786.000000	100.469389
2785.000000	100.470108
2784.000000	100.471168
2783.000000	100.472224
2782.000000	100.473014
2781.000000	100.473559
2780.000000	100.473959
2779.000000	100.474182
2778.000000	100.474195
2777.000000	100.474125
2776.000000	100.474122
2775.000000	100.474147
2774.000000	100.474090
2773.000000	100.474042
2772.000000	100.474246
2771.000000	100.474743
2770.000000	100.475316
2769.000000	100.475845
2768.000000	100.476525
2767.000000	100.477546
2766.000000	100.478664
2765.000000	100.479340
2764.000000	100.479316
2763.000000	100.478890
2762.000000	100.478585
2761.000000	100.478600
2760.000000	100.478673
2759.000000	100.478397
2758.000000	100.477576
2757.000000	100.476372
2756.000000	100.475274
2755.000000	100.474849
2754.000000	100.475348
2753.000000	100.476497
2752.000000	100.477644
2751.000000	100.478304
2750.000000	100.478559
2749.000000	100.478807
2748.000000	100.479254
2747.000000	100.479700
2746.000000	100.479832
2745.000000	100.479602
2744.000000	100.479267
2743.000000	100.479119
2742.000000	100.479221
2741.000000	100.479394
2740.000000	100.479423
2739.000000	100.479266
2738.000000	100.479076
2737.000000	100.479058
2736.000000	100.479276
2735.000000	100.479638
2734.000000	100.479973
2733.000000	100.480157
2732.000000	100.480176
2731.000000	100.480101
2730.000000	100.480035
2729.000000	100.480036
2728.000000	100.480089
2727.000000	100.480140
2726.000000	100.480174
2725.000000	100.480222
2724.000000	100.480296
2723.000000	100.480350
2722.000000	100.480331
2721.000000	100.480245
2720.000000	100.480156
2719.000000	100.480142
2718.000000	100.480235
2717.000000	100.480418
2716.000000	100.480638
2715.000000	100.480842
2714.000000	100.481021
2713.000000	100.481217
2712.000000	100.481478
2711.000000	100.481803
2710.000000	100.482093
2709.000000	100.482242
2708.000000	100.482242
2707.000000	100.482187
2706.000000	100.482162
2705.000000	100.482203
2704.000000	100.482328
2703.000000	100.482503
2702.000000	100.482671
2701.000000	100.482895
2700.000000	100.483330
2699.000000	100.483928
2698.000000	100.484362
2697.000000	100.484379
2696.000000	100.484082
2695.000000	100.483713
2694.000000	100.483313
2693.000000	100.482833
2692.000000	100.482469
2691.000000	100.482525
2690.000000	100.482989
2689.000000	100.483689
2688.000000	100.484738
2687.000000	100.486224
2686.000000	100.487528
2685.000000	100.487739
2684.000000	100.486814
2683.000000	100.485733
2682.000000	100.485259
2681.000000	100.485138
2680.000000	100.484872
2679.000000	100.484722
2678.000000	100.485373
2677.000000	100.486891
2676.000000	100.488553
2675.000000	100.489676
2674.000000	100.490247
2673.000000	100.490655
2672.000000	100.490976
2671.000000	100.490730
2670.000000	100.489473
2669.000000	100.487669
2668.000000	100.486687
2667.000000	100.487430
2666.000000	100.489058
2665.000000	100.489633
2664.000000	100.488287
2663.000000	100.486293
2662.000000	100.485660
2661.000000	100.486815
2660.000000	100.488019
2659.000000	100.486962
2658.000000	100.482693
2657.000000	100.476359
2656.000000	100.470548
2655.000000	100.467402
2654.000000	100.467078
2653.000000	100.467986
2652.000000	100.468755
2651.000000	100.469803
2650.000000	100.472345
2649.000000	100.476328
2648.000000	100.480184
2647.000000	100.482559
2646.000000	100.483480
2645.000000	100.483591
2644.000000	100.483117
2643.000000	100.482120
2642.000000	100.481081
2641.000000	100.480409
2640.000000	100.479667
2639.000000	100.478130
2638.000000	100.476107
2637.000000	100.475028
2636.000000	100.475979
2635.000000	100.478602
2634.000000	100.481496
2633.000000	100.483386
2632.000000	100.483841
2631.000000	100.483319
2630.000000	100.482820
2629.000000	100.483110
2628.000000	100.483946
2627.000000	100.484211
2626.000000	100.483022
2625.000000	100.480530
2624.000000	100.477681
2623.000000	100.475424
2622.000000	100.474208
2621.000000	100.473919
2620.000000	100.474061
2619.000000	100.474228
2618.000000	100.474553
2617.000000	100.475470
2616.000000	100.476933
2615.000000	100.478230
2614.000000	100.478729
2613.000000	100.478356
2612.000000	100.477236
2611.000000	100.475448
2610.000000	100.473426
2609.000000	100.472157
2608.000000	100.472370
2607.000000	100.473627
2606.000000	100.474533
2605.000000	100.474040
2604.000000	100.472273
2603.000000	100.470158
2602.000000	100.468593
2601.000000	100.467991
2600.000000	100.468269
2599.000000	100.469033
2598.000000	100.469964
2597.000000	100.471048
2596.000000	100.472299
2595.000000	100.473440
2594.000000	100.474123
2593.000000	100.474315
2592.000000	100.474196
2591.000000	100.473856
2590.000000	100.473420
2589.000000	100.473287
2588.000000	100.473807
2587.000000	100.474773
2586.000000	100.475587
2585.000000	100.475892
2584.000000	100.475726
2583.000000	100.475184
2582.000000	100.474415
2581.000000	100.473870
2580.000000	100.474031
2579.000000	100.474726
2578.000000	100.475121
2577.000000	100.474632
2576.000000	100.473455
2575.000000	100.472199
2574.000000	100.471269
2573.000000	100.470729
2572.000000	100.470539
2571.000000	100.470627
2570.000000	100.470854
2569.000000	100.471087
2568.000000	100.471218
2567.000000	100.471143
2566.000000	100.470844
2565.000000	100.470492
2564.000000	100.470327
2563.000000	100.470390
2562.000000	100.470483
2561.000000	100.470392
2560.000000	100.470099
2559.000000	100.469726
2558.000000	100.469405
2557.000000	100.469196
2556.000000	100.469095
2555.000000	100.469063
2554.000000	100.469045
2553.000000	100.468993
2552.000000	100.468886
2551.000000	100.468727
2550.000000	100.468549
2549.000000	100.468413
2548.000000	100.468373
2547.000000	100.468417
2546.000000	100.468465
2545.000000	100.468433
2544.000000	100.468303
2543.000000	100.468123
2542.000000	100.467975
2541.000000	100.467936
2540.000000	100.468050
2539.000000	100.468267
2538.000000	100.468433
2537.000000	100.468375
2536.000000	100.468019
2535.000000	100.467418
2534.000000	100.466765
2533.000000	100.466355
2532.000000	100.466435
2531.000000	100.467000
2530.000000	100.467683
2529.000000	100.468029
2528.000000	100.467905
2527.000000	100.467608
2526.000000	100.467626
2525.000000	100.468254
2524.000000	100.469378
2523.000000	100.470504
2522.000000	100.471146
2521.000000	100.471250
2520.000000	100.471208
2519.000000	100.471334
2518.000000	100.471453
2517.000000	100.471220
2516.000000	100.470601
2515.000000	100.469821
2514.000000	100.469021
2513.000000	100.468266
2512.000000	100.467815
2511.000000	100.468027
2510.000000	100.468907
2509.000000	100.469908
2508.000000	100.470340
2507.000000	100.469931
2506.000000	100.468925
2505.000000	100.467846
2504.000000	100.467150
2503.000000	100.467022
2502.000000	100.467411
2501.000000	100.468189
2500.000000	100.469252
2499.000000	100.470461
2498.000000	100.471564
2497.000000	100.472313
2496.000000	100.472658
2495.000000	100.472721
2494.000000	100.472676
2493.000000	100.472659
2492.000000	100.472724
2491.000000	100.472791
2490.000000	100.472715
2489.000000	100.472505
2488.000000	100.472410
2487.000000	100.472673
2486.000000	100.473248
2485.000000	100.473829
2484.000000	100.474186
2483.000000	100.474365
2482.000000	100.474531
2481.000000	100.474736
2480.000000	100.474871
2479.000000	100.474858
2478.000000	100.474774
2477.000000	100.474801
2476.000000	100.475045
2475.000000	100.475456
2474.000000	100.475872
2473.000000	100.476153
2472.000000	100.476292
2471.000000	100.476392
2470.000000	100.476548
2469.000000	100.476753
2468.000000	100.476936
2467.000000	100.477045
2466.000000	100.477096
2465.000000	100.477146
2464.000000	100.477245
2463.000000	100.477406
2462.000000	100.477607
2461.000000	100.477823
2460.000000	100.478026
2459.000000	100.478174
2458.000000	100.478240
2457.000000	100.478282
2456.000000	100.478447
2455.000000	100.478843
2454.000000	100.479406
2453.000000	100.479900
2452.000000	100.480159
2451.000000	100.480205
2450.000000	100.480161
2449.000000	100.480093
2448.000000	100.480027
2447.000000	100.480035
2446.000000	100.480181
2445.000000	100.480399
2444.000000	100.480554
2443.000000	100.480593
2442.000000	100.480548
2441.000000	100.480402
2440.000000	100.480083
2439.000000	100.479654
2438.000000	100.479402
2437.000000	100.479597
2436.000000	100.480187
2435.000000	100.480790
2434.000000	100.481096
2433.000000	100.481162
2432.000000	100.481215
2431.000000	100.481260
2430.000000	100.481095
2429.000000	100.480720
2428.000000	100.480508
2427.000000	100.480852
2426.000000	100.481754
2425.000000	100.482853
2424.000000	100.483755
2423.000000	100.484251
2422.000000	100.484302
2421.000000	100.484009
2420.000000	100.483596
2419.000000	100.483326
2418.000000	100.483369
2417.000000	100.483768
2416.000000	100.484478
2415.000000	100.485376
2414.000000	100.486328
2413.000000	100.487240
2412.000000	100.487990
2411.000000	100.488389
2410.000000	100.488314
2409.000000	100.487945
2408.000000	100.487679
2407.000000	100.487718
2406.000000	100.487920
2405.000000	100.488124
2404.000000	100.488415
2403.000000	100.488902
2402.000000	100.489433
2401.000000	100.489778
2400.000000	100.489960
2399.000000	100.490202
2398.000000	100.490603
2397.000000	100.491057
2396.000000	100.491442
2395.000000	100.491755
2394.000000	100.492098
2393.000000	100.492635
2392.000000	100.493458
2391.000000	100.494394
2390.000000	100.495055
2389.000000	100.495284
2388.000000	100.495441
2387.000000	100.496037
2386.000000	100.497136
2385.000000	100.498361
2384.000000	100.499365
2383.000000	100.500170
2382.000000	100.500943
2381.000000	100.501673
2380.000000	100.502202
2379.000000	100.502511
2378.000000	100.502815
2377.000000	100.503351
2376.000000	100.504129
2375.000000	100.504917
2374.000000	100.505464
2373.000000	100.505710
2372.000000	100.505804
2371.000000	100.505977
2370.000000	100.506356
2369.000000	100.506921
2368.000000	100.507550
2367.000000	100.508088
2366.000000	100.508416
2365.000000	100.508507
2364.000000	100.508434
2363.000000	100.508305
2362.000000	100.508247
2361.000000	100.508352
2360.000000	100.508600
2359.000000	100.508873
2358.000000	100.509031
2357.000000	100.509047
2356.000000	100.509017
2355.000000	100.509022
2354.000000	100.509044
2353.000000	100.509007
2352.000000	100.508903
2351.000000	100.508782
2350.000000	100.508644
2349.000000	100.508450
2348.000000	100.508177
2347.000000	100.507886
2346.000000	100.507667
2345.000000	100.507545
2344.000000	100.507474
2343.000000	100.507357
2342.000000	100.507159
2341.000000	100.506879
2340.000000	100.506529
2339.000000	100.506119
2338.000000	100.505663
2337.000000	100.505175
2336.000000	100.504654
2335.000000	100.504097
2334.000000	100.503540
2333.000000	100.503026
2332.000000	100.502575
2331.000000	100.502156
2330.000000	100.501705
2329.000000	100.501198
2328.000000	100.500642
2327.000000	100.500096
2326.000000	100.499614
2325.000000	100.499198
2324.000000	100.498807
2323.000000	100.498375
2322.000000	100.497874
2321.000000	100.497315
2320.000000	100.496767
2319.000000	100.496284
2318.000000	100.495860
2317.000000	100.495443
2316.000000	100.494995
2315.000000	100.494537
2314.000000	100.494121
2313.000000	100.493803
2312.000000	100.493577
2311.000000	100.493350
2310.000000	100.493030
2309.000000	100.492634
2308.000000	100.492254
2307.000000	100.491911
2306.000000	100.491528
2305.000000	100.491070
2304.000000	100.490616
2303.000000	100.490215
2302.000000	100.489768
2301.000000	100.489162
2300.000000	100.488437
2299.000000	100.487747
2298.000000	100.487184
2297.000000	100.486724
2296.000000	100.486288
2295.000000	100.485831
2294.000000	100.485383
2293.000000	100.484991
2292.000000	100.484621
2291.000000	100.484153
2290.000000	100.483504
2289.000000	100.482769
2288.000000	100.482166
2287.000000	100.481803
2286.000000	100.481566
2285.000000	100.481260
2284.000000	100.480838
2283.000000	100.480377
2282.000000	100.479916
2281.000000	100.479463
2280.000000	100.479090
2279.000000	100.478851
2278.000000	100.478604
2277.000000	100.478103
2276.000000	100.477259
2275.000000	100.476192
2274.000000	100.475062
2273.000000	100.474014
2272.000000	100.473205
2271.000000	100.472716
2270.000000	100.472422
2269.000000	100.472074
2268.000000	100.471583
2267.000000	100.471071
2266.000000	100.470605
2265.000000	100.470032
2264.000000	100.469186
2263.000000	100.468177
2262.000000	100.467354
2261.000000	100.466942
2260.000000	100.466806
2259.000000	100.466541
2258.000000	100.465859
2257.000000	100.464853
2256.000000	100.463953
2255.000000	100.463504
2254.000000	100.463454
2253.000000	100.463487
2252.000000	100.463399
2251.000000	100.463267
2250.000000	100.463249
2249.000000	100.463349
2248.000000	100.463415
2247.000000	100.463312
2246.000000	100.463042
2245.000000	100.462707
2244.000000	100.462421
2243.000000	100.462257
2242.000000	100.462232
2241.000000	100.462286
2240.000000	100.462276
2239.000000	100.462060
2238.000000	100.461638
2237.000000	100.461202
2236.000000	100.460990
2235.000000	100.461047
2234.000000	100.461177
2233.000000	100.461149
2232.000000	100.460944
2231.000000	100.460752
2230.000000	100.460730
2229.000000	100.460836
2228.000000	100.460898
2227.000000	100.460783
2226.000000	100.460495
2225.000000	100.460174
2224.000000	100.460010
2223.000000	100.460100
2222.000000	100.460371
2221.000000	100.460682
2220.000000	100.460961
2219.000000	100.461196
2218.000000	100.461313
2217.000000	100.461222
2216.000000	100.460997
2215.000000	100.460914
2214.000000	100.461197
2213.000000	100.461808
2212.000000	100.462482
2211.000000	100.462946
2210.000000	100.463095
2209.000000	100.462948
2208.000000	100.462555
2207.000000	100.461977
2206.000000	100.461353
2205.000000	100.460867
2204.000000	100.460596
2203.000000	100.460442
2202.000000	100.460293
2201.000000	100.460186
2200.000000	100.460222
2199.000000	100.460348
2198.000000	100.460362
2197.000000	100.460167
2196.000000	100.459906
2195.000000	100.459806
2194.000000	100.459947
2193.000000	100.460249
2192.000000	100.460566
2191.000000	100.460757
2190.000000	100.460741
2189.000000	100.460554
2188.000000	100.460330
2187.000000	100.460197
2186.000000	100.460170
2185.000000	100.460195
2184.000000	100.460224
2183.000000	100.460237
2182.000000	100.460226
2181.000000	100.460187
2180.000000	100.460133
2179.000000	100.460077
2178.000000	100.460027
2177.000000	100.459988
2176.000000	100.459957
2175.000000	100.459935
2174.000000	100.459918
2173.000000	100.459902
2172.000000	100.459885
2171.000000	100.459865
2170.000000	100.459849
2169.000000	100.459843
2168.000000	100.459855
2167.000000	100.459891
2166.000000	100.459952
2165.000000	100.460040
2164.000000	100.460151
2163.000000	100.460284
2162.000000	100.460429
2161.000000	100.460580
2160.000000	100.460730
2159.000000	100.460877
2158.000000	100.461026
2157.000000	100.461180
2156.000000	100.461346
2155.000000	100.461526
2154.000000	100.461718
2153.000000	100.461916
2152.000000	100.462113
2151.000000	100.462309
2150.000000	100.462504
2149.000000	100.462706
2148.000000	100.462926
2147.000000	100.463168
2146.000000	100.463439
2145.000000	100.463746
2144.000000	100.464070
2143.000000	100.464358
2142.000000	100.464575
2141.000000	100.464730
2140.000000	100.464869
2139.000000	100.465049
2138.000000	100.465305
2137.000000	100.465647
2136.000000	100.466073
2135.000000	100.466571
2134.000000	100.467097
2133.000000	100.467561
2132.000000	100.467880
2131.000000	100.468063
2130.000000	100.468260
2129.000000	100.468651
2128.000000	100.469289
2127.000000	100.470064
2126.000000	100.470824
2125.000000	100.471525
2124.000000	100.472201
2123.000000	100.472815
2122.000000	100.473234
2121.000000	100.473402
2120.000000	100.473438
2119.000000	100.473501
2118.000000	100.473616
2117.000000	100.473725
2116.000000	100.473852
2115.000000	100.474105
2114.000000	100.474544
2113.000000	100.475146
2112.000000	100.475868
2111.000000	100.476625
2110.000000	100.477254
2109.000000	100.477621
2108.000000	100.477795
2107.000000	100.477982
2106.000000	100.478304
2105.000000	100.478718
2104.000000	100.479171
2103.000000	100.479690
2102.000000	100.480272
2101.000000	100.480779
2100.000000	100.481072
2099.000000	100.481181
2098.000000	100.481283
2097.000000	100.481523
2096.000000	100.481911
2095.000000	100.482376
2094.000000	100.482847
2093.000000	100.483273
2092.000000	100.483628
2091.000000	100.483916
2090.000000	100.484161
2089.000000	100.484358
2088.000000	100.484454
2087.000000	100.484444
2086.000000	100.484432
2085.000000	100.484569
2084.000000	100.484907
2083.000000	100.485354
2082.000000	100.485767
2081.000000	100.486088
2080.000000	100.486382
2079.000000	100.486762
2078.000000	100.487265
2077.000000	100.487764
2076.000000	100.488040
2075.000000	100.487991
2074.000000	100.487750
2073.000000	100.487599
2072.000000	100.487701
2071.000000	100.487992
2070.000000	100.488286
2069.000000	100.488449
2068.000000	100.488463
2067.000000	100.488356
2066.000000	100.488184
2065.000000	100.488051
2064.000000	100.488061
2063.000000	100.488222
2062.000000	100.488448
2061.000000	100.488659
2060.000000	100.488836
2059.000000	100.488966
2058.000000	100.489029
2057.000000	100.489062
2056.000000	100.489145
2055.000000	100.489276
2054.000000	100.489365
2053.000000	100.489426
2052.000000	100.489644
2051.000000	100.490090
2050.000000	100.490438
2049.000000	100.490228
2048.000000	100.489372
2047.000000	100.488230
2046.000000	100.487305
2045.000000	100.486830
2044.000000	100.486749
2043.000000	100.486859
2042.000000	100.486920
2041.000000	100.486758
2040.000000	100.486368
2039.000000	100.485895
2038.000000	100.485462
2037.000000	100.485050
2036.000000	100.484598
2035.000000	100.484184
2034.000000	100.484001
2033.000000	100.484128
2032.000000	100.484381
2031.000000	100.484436
2030.000000	100.484098
2029.000000	100.483430
2028.000000	100.482698
2027.000000	100.482167
2026.000000	100.481925
2025.000000	100.481846
2024.000000	100.481674
2023.000000	100.481225
2022.000000	100.480517
2021.000000	100.479725
2020.000000	100.479022
2019.000000	100.478447
2018.000000	100.477949
2017.000000	100.477509
2016.000000	100.477156
2015.000000	100.476880
2014.000000	100.476576
2013.000000	100.476129
2012.000000	100.475538
2011.000000	100.474910
2010.000000	100.474318
2009.000000	100.473698
2008.000000	100.472930
2007.000000	100.471989
2006.000000	100.470964
2005.000000	100.470004
2004.000000	100.469222
2003.000000	100.468672
2002.000000	100.468327
2001.000000	100.468062
2000.000000	100.467719
1999.000000	100.467207
1998.000000	100.466537
1997.000000	100.465804
1996.000000	100.465131
1995.000000	100.464595
1994.000000	100.464170
1993.000000	100.463754
1992.000000	100.463272
1991.000000	100.462775
1990.000000	100.462361
1989.000000	100.462039
1988.000000	100.461699
1987.000000	100.461241
1986.000000	100.460678
1985.000000	100.460090
1984.000000	100.459527
1983.000000	100.458991
1982.000000	100.458483
1981.000000	100.458014
1980.000000	100.457566
1979.000000	100.457094
1978.000000	100.456577
1977.000000	100.456036
1976.000000	100.455508
1975.000000	100.455014
1974.000000	100.454551
1973.000000	100.454110
1972.000000	100.453677
1971.000000	100.453246
1970.000000	100.452818
1969.000000	100.452405
1968.000000	100.452015
1967.000000	100.451639
1966.000000	100.451256
1965.000000	100.450855
1964.000000	100.450443
1963.000000	100.450044
1962.000000	100.449669
1961.000000	100.449305
1960.000000	100.448935
1959.000000	100.448562
1958.000000	100.448206
1957.000000	100.447867
1956.000000	100.447498
1955.000000	100.447051
1954.000000	100.446529
1953.000000	100.445983
1952.000000	100.445449
1951.000000	100.444911
1950.000000	100.444346
1949.000000	100.443764
1948.000000	100.443197
1947.000000	100.442659
1946.000000	100.442130
1945.000000	100.441595
1944.000000	100.441045
1943.000000	100.440452
1942.000000	100.439769
1941.000000	100.438990
1940.000000	100.438197
1939.000000	100.437499
1938.000000	100.436947
1937.000000	100.436509
1936.000000	100.436090
1935.000000	100.435587
1934.000000	100.434945
1933.000000	100.434186
1932.000000	100.433394
1931.000000	100.432642
1930.000000	100.431913
1929.000000	100.431120
1928.000000	100.430207
1927.000000	100.429219
1926.000000	100.428263
1925.000000	100.427412
1924.000000	100.426622
1923.000000	100.425772
1922.000000	100.424800
1921.000000	100.423773
1920.000000	100.422777
1919.000000	100.421808
1918.000000	100.420782
1917.000000	100.419666
1916.000000	100.418542
1915.000000	100.417483
1914.000000	100.416458
1913.000000	100.415426
1912.000000	100.414385
1911.000000	100.413285
1910.000000	100.412076
1909.000000	100.410891
1908.000000	100.409945
1907.000000	100.409069
1906.000000	100.407747
1905.000000	100.405929
1904.000000	100.404261
1903.000000	100.403286
1902.000000	100.402757
1901.000000	100.402052
1900.000000	100.401127
1899.000000	100.400496
1898.000000	100.400402
1897.000000	100.400397
1896.000000	100.399644
1895.000000	100.397668
1894.000000	100.394963
1893.000000	100.392733
1892.000000	100.391754
1891.000000	100.391533
1890.000000	100.390889
1889.000000	100.389447
1888.000000	100.387981
1887.000000	100.387056
1886.000000	100.386273
1885.000000	100.385224
1884.000000	100.384275
1883.000000	100.383838
1882.000000	100.383422
1881.000000	100.382108
1880.000000	100.379831
1879.000000	100.377601
1878.000000	100.376543
1877.000000	100.377131
1876.000000	100.378844
1875.000000	100.380214
1874.000000	100.379829
1873.000000	100.377716
1872.000000	100.375415
1871.000000	100.374456
1870.000000	100.375161
1869.000000	100.376986
1868.000000	100.379413
1867.000000	100.381974
1866.000000	100.383879
1865.000000	100.384699
1864.000000	100.385271
1863.000000	100.387013
1862.000000	100.390172
1861.000000	100.393275
1860.000000	100.394627
1859.000000	100.393879
1858.000000	100.391948
1857.000000	100.390087
1856.000000	100.389200
1855.000000	100.389538
1854.000000	100.390785
1853.000000	100.392366
1852.000000	100.393928
1851.000000	100.395409
1850.000000	100.396558
1849.000000	100.397089
1848.000000	100.397149
1847.000000	100.397286
1846.000000	100.397905
1845.000000	100.399047
1844.000000	100.400518
1843.000000	100.401919
1842.000000	100.402965
1841.000000	100.403751
1840.000000	100.404558
1839.000000	100.405307
1838.000000	100.405448
1837.000000	100.404735
1836.000000	100.403863
1835.000000	100.403853
1834.000000	100.404857
1833.000000	100.406115
1832.000000	100.407061
1831.000000	100.407823
1830.000000	100.408566
1829.000000	100.409133
1828.000000	100.409496
1827.000000	100.409769
1826.000000	100.409597
1825.000000	100.408531
1824.000000	100.407082
1823.000000	100.406453
1822.000000	100.407064
1821.000000	100.408125
1820.000000	100.408758
1819.000000	100.408844
1818.000000	100.408553
1817.000000	100.407600
1816.000000	100.405576
1815.000000	100.402972
1814.000000	100.401039
1813.000000	100.400739
1812.000000	100.402127
1811.000000	100.404358
1810.000000	100.406355
1809.000000	100.407563
1808.000000	100.408252
1807.000000	100.409105
1806.000000	100.410332
1805.000000	100.411361
1804.000000	100.411370
1803.000000	100.410019
1802.000000	100.407488
1801.000000	100.404404
1800.000000	100.402108
1799.000000	100.402074
1798.000000	100.404716
1797.000000	100.408823
1796.000000	100.412600
1795.000000	100.415323
1794.000000	100.417294
1793.000000	100.418550
1792.000000	100.418591
1791.000000	100.417706
1790.000000	100.417515
1789.000000	100.419358
1788.000000	100.423170
1787.000000	100.427674
1786.000000	100.431023
1785.000000	100.431869
1784.000000	100.430442
1783.000000	100.428661
1782.000000	100.428230
1781.000000	100.429199
1780.000000	100.430778
1779.000000	100.432493
1778.000000	100.434639
1777.000000	100.437285
1776.000000	100.440003
1775.000000	100.442609
1774.000000	100.445269
1773.000000	100.448098
1772.000000	100.450816
1771.000000	100.453482
1770.000000	100.457240
1769.000000	100.462684
1768.000000	100.468160
1767.000000	100.471354
1766.000000	100.472037
1765.000000	100.472296
1764.000000	100.474165
1763.000000	100.478039
1762.000000	100.482687
1761.000000	100.486747
1760.000000	100.490277
1759.000000	100.493766
1758.000000	100.496338
1757.000000	100.495712
1756.000000	100.491279
1755.000000	100.485703
1754.000000	100.482007
1753.000000	100.480666
1752.000000	100.480341
1751.000000	100.479832
1750.000000	100.479078
1749.000000	100.478450
1748.000000	100.477610
1747.000000	100.476449
1746.000000	100.475401
1745.000000	100.474542
1744.000000	100.473096
1743.000000	100.470429
1742.000000	100.467557
1741.000000	100.466224
1740.000000	100.466212
1739.000000	100.465316
1738.000000	100.462757
1737.000000	100.460025
1736.000000	100.458400
1735.000000	100.458227
1734.000000	100.459455
1733.000000	100.461161
1732.000000	100.462313
1731.000000	100.462048
1730.000000	100.459757
1729.000000	100.456362
1728.000000	100.453782
1727.000000	100.452906
1726.000000	100.452957
1725.000000	100.453239
1724.000000	100.453916
1723.000000	100.454818
1722.000000	100.455042
1721.000000	100.453830
1720.000000	100.451316
1719.000000	100.448415
1718.000000	100.446453
1717.000000	100.445942
1716.000000	100.446098
1715.000000	100.446028
1714.000000	100.445304
1713.000000	100.443978
1712.000000	100.442361
1711.000000	100.440505
1710.000000	100.438123
1709.000000	100.435108
1708.000000	100.432069
1707.000000	100.429776
1706.000000	100.428195
1705.000000	100.426643
1704.000000	100.425026
1703.000000	100.423961
1702.000000	100.423442
1701.000000	100.422323
1700.000000	100.419553
1699.000000	100.415991
1698.000000	100.413341
1697.000000	100.411887
1696.000000	100.411248
1695.000000	100.411341
1694.000000	100.411920
1693.000000	100.412527
1692.000000	100.412659
1691.000000	100.411880
1690.000000	100.410000
1689.000000	100.407187
1688.000000	100.404100
1687.000000	100.401376
1686.000000	100.398989
1685.000000	100.396792
1684.000000	100.395074
1683.000000	100.394245
1682.000000	100.394294
1681.000000	100.394551
1680.000000	100.394222
1679.000000	100.393155
1678.000000	100.391668
1677.000000	100.390140
1676.000000	100.388929
1675.000000	100.388406
1674.000000	100.388465
1673.000000	100.388668
1672.000000	100.388773
1671.000000	100.388677
1670.000000	100.388232
1669.000000	100.387192
1668.000000	100.385706
1667.000000	100.384369
1666.000000	100.383532
1665.000000	100.383076
1664.000000	100.382647
1663.000000	100.382124
1662.000000	100.381767
1661.000000	100.381738
1660.000000	100.381795
1659.000000	100.381531
1658.000000	100.380875
1657.000000	100.380402
1656.000000	100.380865
1655.000000	100.382453
1654.000000	100.384406
1653.000000	100.384994
1652.000000	100.383779
1651.000000	100.382660
1650.000000	100.382595
1649.000000	100.382928
1648.000000	100.382997
1647.000000	100.382582
1646.000000	100.382237
1645.000000	100.382420
1644.000000	100.383048
1643.000000	100.383685
1642.000000	100.384135
1641.000000	100.384522
1640.000000	100.385344
1639.000000	100.386748
1638.000000	100.388010
1637.000000	100.387973
1636.000000	100.386485
1635.000000	100.384943
1634.000000	100.384636
1633.000000	100.385790
1632.000000	100.387963
1631.000000	100.390818
1630.000000	100.394123
1629.000000	100.397672
1628.000000	100.401289
1627.000000	100.404661
1626.000000	100.407018
1625.000000	100.407540
1624.000000	100.406571
1623.000000	100.405874
1622.000000	100.406726
1621.000000	100.408486
1620.000000	100.410022
1619.000000	100.410984
1618.000000	100.411815
1617.000000	100.413194
1616.000000	100.415087
1615.000000	100.417160
1614.000000	100.419778
1613.000000	100.423338
1612.000000	100.427637
1611.000000	100.432178
1610.000000	100.436334
1609.000000	100.439608
1608.000000	100.441813
1607.000000	100.443055
1606.000000	100.443945
1605.000000	100.445563
1604.000000	100.448798
1603.000000	100.452875
1602.000000	100.455663
1601.000000	100.456170
1600.000000	100.455711
1599.000000	100.456089
1598.000000	100.457228
1597.000000	100.457520
1596.000000	100.456219
1595.000000	100.454660
1594.000000	100.454849
1593.000000	100.457217
1592.000000	100.460307
1591.000000	100.462308
1590.000000	100.462509
1589.000000	100.461442
1588.000000	100.460108
1587.000000	100.459199
1586.000000	100.459093
1585.000000	100.459903
1584.000000	100.461457
1583.000000	100.463286
1582.000000	100.464529
1581.000000	100.464560
1580.000000	100.463323
1579.000000	100.460913
1578.000000	100.457333
1577.000000	100.453670
1576.000000	100.451885
1575.000000	100.451994
1574.000000	100.452410
1573.000000	100.452362
1572.000000	100.451768
1571.000000	100.450559
1570.000000	100.449013
1569.000000	100.447919
1568.000000	100.448002
1567.000000	100.448861
1566.000000	100.449172
1565.000000	100.448307
1564.000000	100.447175
1563.000000	100.446910
1562.000000	100.447414
1561.000000	100.447477
1560.000000	100.447256
1559.000000	100.448020
1558.000000	100.448352
1557.000000	100.447801
1556.000000	100.447284
1555.000000	100.446372
1554.000000	100.444820
1553.000000	100.442890
1552.000000	100.441448
1551.000000	100.440782
1550.000000	100.440339
1549.000000	100.439237
1548.000000	100.437238
1547.000000	100.435011
1546.000000	100.433331
1545.000000	100.432460
1544.000000	100.431997
1543.000000	100.431411
1542.000000	100.430862
1541.000000	100.431264
1540.000000	100.432670
1539.000000	100.433377
1538.000000	100.432435
1537.000000	100.430479
1536.000000	100.428099
1535.000000	100.425627
1534.000000	100.423428
1533.000000	100.421705
1532.000000	100.420156
1531.000000	100.418368
1530.000000	100.416344
1529.000000	100.414592
1528.000000	100.413695
1527.000000	100.413594
1526.000000	100.413389
1525.000000	100.412299
1524.000000	100.410684
1523.000000	100.409584
1522.000000	100.409605
1521.000000	100.410026
1520.000000	100.409624
1519.000000	100.408388
1518.000000	100.406981
1517.000000	100.405761
1516.000000	100.404724
1515.000000	100.403877
1514.000000	100.403367
1513.000000	100.403165
1512.000000	100.403023
1511.000000	100.402749
1510.000000	100.402555
1509.000000	100.402835
1508.000000	100.403760
1507.000000	100.404612
1506.000000	100.404184
1505.000000	100.402782
1504.000000	100.401764
1503.000000	100.401489
1502.000000	100.401494
1501.000000	100.401084
1500.000000	100.399909
1499.000000	100.398338
1498.000000	100.397237
1497.000000	100.397290
1496.000000	100.398318
1495.000000	100.399531
1494.000000	100.400280
1493.000000	100.400082
1492.000000	100.398484
1491.000000	100.395693
1490.000000	100.393242
1489.000000	100.392680
1488.000000	100.393940
1487.000000	100.395875
1486.000000	100.397692
1485.000000	100.399152
1484.000000	100.400318
1483.000000	100.401457
1482.000000	100.402772
1481.000000	100.404205
1480.000000	100.405289
1479.000000	100.405629
1478.000000	100.405307
1477.000000	100.404895
1476.000000	100.404869
1475.000000	100.405155
1474.000000	100.405472
1473.000000	100.405910
1472.000000	100.406660
1471.000000	100.407397
1470.000000	100.407895
1469.000000	100.408513
1468.000000	100.409806
1467.000000	100.411944
1466.000000	100.414289
1465.000000	100.415521
1464.000000	100.415001
1463.000000	100.413324
1462.000000	100.411432
1461.000000	100.410023
1460.000000	100.409615
1459.000000	100.410042
1458.000000	100.409719
1457.000000	100.407097
1456.000000	100.403377
1455.000000	100.401172
1454.000000	100.400607
1453.000000	100.399955
1452.000000	100.398111
1451.000000	100.395215
1450.000000	100.392273
1449.000000	100.390464
1448.000000	100.390689
1447.000000	100.392849
1446.000000	100.395439
1445.000000	100.396683
1444.000000	100.396313
1443.000000	100.395217
1442.000000	100.394299
1441.000000	100.393751
1440.000000	100.393393
1439.000000	100.393112
1438.000000	100.392829
1437.000000	100.392371
1436.000000	100.391461
1435.000000	100.390326
1434.000000	100.389615
1433.000000	100.389517
1432.000000	100.389638
1431.000000	100.389432
1430.000000	100.388717
1429.000000	100.388061
1428.000000	100.388274
1427.000000	100.389666
1426.000000	100.391758
1425.000000	100.393636
1424.000000	100.394724
1423.000000	100.394990
1422.000000	100.394693
1421.000000	100.394087
1420.000000	100.393775
1419.000000	100.394887
1418.000000	100.397761
1417.000000	100.401298
1416.000000	100.404062
1415.000000	100.405351
1414.000000	100.405328
1413.000000	100.404832
1412.000000	100.404869
1411.000000	100.405924
1410.000000	100.407748
1409.000000	100.409731
1408.000000	100.411410
1407.000000	100.412772
1406.000000	100.414182
1405.000000	100.415980
1404.000000	100.418171
1403.000000	100.420452
1402.000000	100.422628
1401.000000	100.424756
1400.000000	100.426895
1399.000000	100.428809
1398.000000	100.430107
1397.000000	100.430810
1396.000000	100.431519
1395.000000	100.433049
1394.000000	100.435568
1393.000000	100.438241
1392.000000	100.440206
1391.000000	100.441424
1390.000000	100.442452
1389.000000	100.443583
1388.000000	100.444325
1387.000000	100.444166
1386.000000	100.443882
1385.000000	100.445027
1384.000000	100.448112
1383.000000	100.451935
1382.000000	100.454752
1381.000000	100.455921
1380.000000	100.456027
1379.000000	100.455888
1378.000000	100.456056
1377.000000	100.457046
1376.000000	100.459187
1375.000000	100.461955
1374.000000	100.464068
1373.000000	100.465103
1372.000000	100.466350
1371.000000	100.469280
1370.000000	100.473824
1369.000000	100.478415
1368.000000	100.481653
1367.000000	100.483550
1366.000000	100.485079
1365.000000	100.486866
1364.000000	100.488689
1363.000000	100.490045
1362.000000	100.490930
1361.000000	100.491817
1360.000000	100.492839
1359.000000	100.493386
1358.000000	100.492609
1357.000000	100.490153
1356.000000	100.486524
1355.000000	100.482953
1354.000000	100.480746
1353.000000	100.480422
1352.000000	100.481425
1351.000000	100.482912
1350.000000	100.484665
1349.000000	100.486794
1348.000000	100.488907
1347.000000	100.490013
1346.000000	100.489684
1345.000000	100.488735
1344.000000	100.488362
1343.000000	100.488834
1342.000000	100.489390
1341.000000	100.489092
1340.000000	100.487440
1339.000000	100.484553
1338.000000	100.481291
1337.000000	100.478978
1336.000000	100.478525
1335.000000	100.479907
1334.000000	100.482582
1333.000000	100.486104
1332.000000	100.489936
1331.000000	100.492939
1330.000000	100.493836
1329.000000	100.492399
1328.000000	100.489748
1327.000000	100.487429
1326.000000	100.486433
1325.000000	100.486964
1324.000000	100.488547
1323.000000	100.490063
1322.000000	100.490363
1321.000000	100.489316
1320.000000	100.488092
1319.000000	100.488120
1318.000000	100.489790
1317.000000	100.492178
1316.000000	100.493773
1315.000000	100.493423
1314.000000	100.491128
1313.000000	100.488288
1312.000000	100.486714
1311.000000	100.487056
1310.000000	100.488536
1309.000000	100.490165
1308.000000	100.491603
1307.000000	100.492736
1306.000000	100.493132
1305.000000	100.492440
1304.000000	100.491012
1303.000000	100.489642
1302.000000	100.488830
1301.000000	100.488558
1300.000000	100.488624
1299.000000	100.488924
1298.000000	100.489512
1297.000000	100.490458
1296.000000	100.491469
1295.000000	100.491805
1294.000000	100.490997
1293.000000	100.489632
1292.000000	100.488823
1291.000000	100.488883
1290.000000	100.489153
1289.000000	100.489117
1288.000000	100.488797
1287.000000	100.487915
1286.000000	100.485748
1285.000000	100.482351
1284.000000	100.479134
1283.000000	100.477523
1282.000000	100.477550
1281.000000	100.478272
1280.000000	100.479018
1279.000000	100.479588
1278.000000	100.479734
1277.000000	100.479221
1276.000000	100.478223
1275.000000	100.477262
1274.000000	100.476889
1273.000000	100.477546
1272.000000	100.479200
1271.000000	100.480981
1270.000000	100.482016
1269.000000	100.482912
1268.000000	100.485356
1267.000000	100.489608
1266.000000	100.493410
1265.000000	100.494371
1264.000000	100.492624
1263.000000	100.490183
1262.000000	100.488460
1261.000000	100.487635
1260.000000	100.487854
1259.000000	100.489447
1258.000000	100.491848
1257.000000	100.493617
1256.000000	100.493864
1255.000000	100.492905
1254.000000	100.491116
1253.000000	100.487607
1252.000000	100.480542
1251.000000	100.469187
1250.000000	100.455883
1249.000000	100.445548
1248.000000	100.442156
1247.000000	100.445098
1246.000000	100.449376
1245.000000	100.449882
1244.000000	100.445278
1243.000000	100.437920
1242.000000	100.431050
1241.000000	100.426386
1240.000000	100.423422
1239.000000	100.420186
1238.000000	100.415168
1237.000000	100.409031
1236.000000	100.403914
1235.000000	100.400784
1234.000000	100.398197
1233.000000	100.393933
1232.000000	100.386857
1231.000000	100.376957
1230.000000	100.365055
1229.000000	100.353234
1228.000000	100.344142
1227.000000	100.338557
1226.000000	100.334270
1225.000000	100.328217
1224.000000	100.318876
1223.000000	100.306028
1222.000000	100.289550
1221.000000	100.269601
1220.000000	100.247041
1219.000000	100.222609
1218.000000	100.196471
1217.000000	100.169142
1216.000000	100.141471
1215.000000	100.112864
1214.000000	100.081256
1213.000000	100.046459
1212.000000	100.011896
1211.000000	99.980996
1210.000000	99.952978
1209.000000	99.924112
1208.000000	99.891884
1207.000000	99.856006
1206.000000	99.817066
1205.000000	99.776832
1204.000000	99.738512
1203.000000	99.703762
1202.000000	99.670410
1201.000000	99.635703
1200.000000	99.600599
1199.000000	99.567796
1198.000000	99.536587
1197.000000	99.503329
1196.000000	99.466578
1195.000000	99.428079
1194.000000	99.388530
1193.000000	99.346013
1192.000000	99.299685
1191.000000	99.252064
1190.000000	99.206124
1189.000000	99.162044
1188.000000	99.117893
1187.000000	99.072031
1186.000000	99.024119
1185.000000	98.975035
1184.000000	98.926092
1183.000000	98.877294
1182.000000	98.826639
1181.000000	98.772224
1180.000000	98.714323
1179.000000	98.654200
1178.000000	98.592308
1177.000000	98.529297
1176.000000	98.466807
1175.000000	98.404702
1174.000000	98.339686
1173.000000	98.270227
1172.000000	98.201013
1171.000000	98.138191
1170.000000	98.081575
1169.000000	98.026246
1168.000000	97.970897
1167.000000	97.919474
1166.000000	97.875305
1165.000000	97.839812
1164.000000	97.817642
1163.000000	97.816596
1162.000000	97.839396
1161.000000	97.878603
1160.000000	97.920852
1159.000000	97.953723
1158.000000	97.969022
1157.000000	97.963939
1156.000000	97.940897
1155.000000	97.904365
1154.000000	97.857363
1153.000000	97.802640
1152.000000	97.745742
1151.000000	97.692972
1150.000000	97.646302
1149.000000	97.603554
1148.000000	97.562701
1147.000000	97.522225
1146.000000	97.478927
1145.000000	97.430910
1144.000000	97.382218
1143.000000	97.338936
1142.000000	97.300534
1141.000000	97.260803
1140.000000	97.217761
1139.000000	97.176467
1138.000000	97.140716
1137.000000	97.107780
1136.000000	97.073283
1135.000000	97.036009
1134.000000	96.995893
1133.000000	96.952354
1132.000000	96.907034
1131.000000	96.863898
1130.000000	96.824237
1129.000000	96.785082
1128.000000	96.744113
1127.000000	96.702477
1126.000000	96.661511
1125.000000	96.620405
1124.000000	96.578319
1123.000000	96.535528
1122.000000	96.491809
1121.000000	96.447162
1120.000000	96.404378
1119.000000	96.366755
1118.000000	96.332886
1117.000000	96.298223
1116.000000	96.262159
1115.000000	96.228397
1114.000000	96.197684
1113.000000	96.166056
1112.000000	96.131205
1111.000000	96.094380
1110.000000	96.055413
1109.000000	96.012922
1108.000000	95.970574
1107.000000	95.935612
1106.000000	95.908996
1105.000000	95.883760
1104.000000	95.854785
1103.000000	95.823065
1102.000000	95.788952
1101.000000	95.749485
1100.000000	95.705284
1099.000000	95.662426
1098.000000	95.623773
1097.000000	95.585150
1096.000000	95.543239
1095.000000	95.500654
1094.000000	95.459965
1093.000000	95.419342
1092.000000	95.377986
1091.000000	95.340180
1090.000000	95.310193
1089.000000	95.287582
1088.000000	95.269537
1087.000000	95.252984
1086.000000	95.233486
1085.000000	95.208153
1084.000000	95.180926
1083.000000	95.158912
1082.000000	95.142252
1081.000000	95.123698
1080.000000	95.098938
1079.000000	95.070615
1078.000000	95.041778
1077.000000	95.012844
1076.000000	94.985869
1075.000000	94.963341
1074.000000	94.940630
1073.000000	94.907563
1072.000000	94.859697
1071.000000	94.800978
1070.000000	94.734002
1069.000000	94.655637
1068.000000	94.564723
1067.000000	94.466039
1066.000000	94.363104
1065.000000	94.254143
1064.000000	94.138806
1063.000000	94.022139
1062.000000	93.908298
1061.000000	93.796538
1060.000000	93.686529
1059.000000	93.581360
1058.000000	93.482513
1057.000000	93.387742
1056.000000	93.295558
1055.000000	93.205360
1054.000000	93.112279
1053.000000	93.010174
1052.000000	92.901846
1051.000000	92.797649
1050.000000	92.701170
1049.000000	92.605742
1048.000000	92.507397
1047.000000	92.410213
1046.000000	92.316236
1045.000000	92.220757
1044.000000	92.120197
1043.000000	92.015989
1042.000000	91.909183
1041.000000	91.799759
1040.000000	91.692379
1039.000000	91.593580
1038.000000	91.501912
1037.000000	91.410358
1036.000000	91.319672
1035.000000	91.238694
1034.000000	91.169554
1033.000000	91.103847
1032.000000	91.036845
1031.000000	90.975162
1030.000000	90.926058
1029.000000	90.888302
1028.000000	90.857155
1027.000000	90.829767
1026.000000	90.802486
1025.000000	90.771409
1024.000000	90.738703
1023.000000	90.710634
1022.000000	90.687262
1021.000000	90.661842
1020.000000	90.631643
1019.000000	90.600789
1018.000000	90.571073
1017.000000	90.538687
1016.000000	90.501415
1015.000000	90.460786
1014.000000	90.416652
1013.000000	90.368478
1012.000000	90.322030
1011.000000	90.284987
1010.000000	90.255437
1009.000000	90.224687
1008.000000	90.192061
1007.000000	90.166307
1006.000000	90.151187
1005.000000	90.140394
1004.000000	90.128519
1003.000000	90.117087
1002.000000	90.108003
1001.000000	90.100930
1000.000000	90.098703
999.000000	90.105296
998.000000	90.116561
997.000000	90.122845
996.000000	90.122808
995.000000	90.125319
994.000000	90.135997
993.000000	90.151030
992.000000	90.165347
991.000000	90.177617
990.000000	90.186365
989.000000	90.190949
988.000000	90.197515
987.000000	90.214348
986.000000	90.240360
985.000000	90.267566
984.000000	90.295091
983.000000	90.330193
982.000000	90.374756
981.000000	90.422043
980.000000	90.468546
979.000000	90.518521
978.000000	90.574984
977.000000	90.636573
976.000000	90.705079
975.000000	90.785638
974.000000	90.876933
973.000000	90.970724
972.000000	91.063440
971.000000	91.159422
970.000000	91.261124
969.000000	91.365210
968.000000	91.469749
967.000000	91.576374
966.000000	91.683899
965.000000	91.788208
964.000000	91.889468
963.000000	91.991289
962.000000	92.092684
961.000000	92.189590
960.000000	92.284044
959.000000	92.382148
958.000000	92.482587
957.000000	92.577102
956.000000	92.663165
955.000000	92.746391
954.000000	92.829347
953.000000	92.907860
952.000000	92.980129
951.000000	93.049897
950.000000	93.118518
949.000000	93.182650
948.000000	93.241598
947.000000	93.298186
946.000000	93.350889
945.000000	93.394230
944.000000	93.429231
943.000000	93.465057
942.000000	93.507722
941.000000	93.554445
940.000000	93.600374
939.000000	93.642611
938.000000	93.676872
937.000000	93.699611
936.000000	93.715773
935.000000	93.736243
934.000000	93.765679
933.000000	93.800559
932.000000	93.839261
931.000000	93.883692
930.000000	93.929706
929.000000	93.967306
928.000000	93.994143
927.000000	94.019261
926.000000	94.049791
925.000000	94.082886
924.000000	94.114377
923.000000	94.145776
922.000000	94.177773
921.000000	94.205356
920.000000	94.225126
919.000000	94.241158
918.000000	94.259010
917.000000	94.279390
916.000000	94.300920
915.000000	94.323302
914.000000	94.345337
913.000000	94.366094
912.000000	94.390234
911.000000	94.425640
910.000000	94.474055
909.000000	94.530899
908.000000	94.595191
907.000000	94.671110
906.000000	94.757813
905.000000	94.846771
904.000000	94.932618
903.000000	95.019145
902.000000	95.111880
901.000000	95.212035
900.000000	95.319406
899.000000	95.432760
898.000000	95.544690
897.000000	95.644826
896.000000	95.732027
895.000000	95.816594
894.000000	95.907172
893.000000	96.001541
892.000000	96.092605
891.000000	96.176546
890.000000	96.252269
889.000000	96.319728
888.000000	96.382669
887.000000	96.447835
886.000000	96.518407
885.000000	96.592423
884.000000	96.668341
883.000000	96.745904
882.000000	96.820864
881.000000	96.886958
880.000000	96.945794
879.000000	97.007499
878.000000	97.078295
877.000000	97.153931
876.000000	97.227971
875.000000	97.299448
874.000000	97.369858
873.000000	97.440115
872.000000	97.513499
871.000000	97.594551
870.000000	97.681837
869.000000	97.767932
868.000000	97.849123
867.000000	97.929474
866.000000	98.013500
865.000000	98.100433
864.000000	98.186978
863.000000	98.269755
862.000000	98.344020
861.000000	98.406938
860.000000	98.464102
859.000000	98.526134
858.000000	98.595904
857.000000	98.665040
856.000000	98.725433
855.000000	98.777891
854.000000	98.827275
853.000000	98.875891
852.000000	98.924982
851.000000	98.976445
850.000000	99.028879
849.000000	99.076794
848.000000	99.117073
847.000000	99.151926
846.000000	99.183600
845.000000	99.211713
844.000000	99.237828
843.000000	99.265977
842.000000	99.295007
841.000000	99.316355
840.000000	99.323359
839.000000	99.317792
838.000000	99.304548
837.000000	99.286035
836.000000	99.265657
835.000000	99.250280
834.000000	99.243388
833.000000	99.240467
832.000000	99.236462
831.000000	99.233441
830.000000	99.235750
829.000000	99.242219
828.000000	99.249596
827.000000	99.260229
826.000000	99.279311
825.000000	99.306251
824.000000	99.334590
823.000000	99.358603
822.000000	99.375465
821.000000	99.384151
820.000000	99.387003
819.000000	99.389459
818.000000	99.393852
817.000000	99.395197
816.000000	99.385445
815.000000	99.359236
814.000000	99.313397
813.000000	99.244621
812.000000	99.151241
811.000000	99.034119
810.000000	98.891625
809.000000	98.716464
808.000000	98.502584
807.000000	98.254289
806.000000	97.984986
805.000000	97.708600
804.000000	97.435630
803.000000	97.174486
802.000000	96.931466
801.000000	96.711217
800.000000	96.521027
799.000000	96.371778
798.000000	96.270631
797.000000	96.214750
796.000000	96.194079
795.000000	96.196873
794.000000	96.211565
793.000000	96.228886
792.000000	96.245586
791.000000	96.263182
790.000000	96.281021
789.000000	96.292864
788.000000	96.290832
787.000000	96.269982
786.000000	96.229265
785.000000	96.171522
784.000000	96.102610
783.000000	96.027327
782.000000	95.946525
781.000000	95.861216
780.000000	95.777947
779.000000	95.706330
778.000000	95.653499
777.000000	95.625041
776.000000	95.626879
775.000000	95.658627
774.000000	95.708614
773.000000	95.764857
772.000000	95.828765
771.000000	95.908617
770.000000	96.001990
769.000000	96.094953
768.000000	96.176656
767.000000	96.243679
766.000000	96.292117
765.000000	96.319555
764.000000	96.336934
763.000000	96.364810
762.000000	96.411742
761.000000	96.465518
760.000000	96.510460
759.000000	96.545277
758.000000	96.579781
757.000000	96.622285
756.000000	96.674790
755.000000	96.733084
754.000000	96.787094
753.000000	96.827694
752.000000	96.857280
751.000000	96.888541
750.000000	96.930816
749.000000	96.983530
748.000000	97.043935
747.000000	97.112659
746.000000	97.188320
745.000000	97.264536
744.000000	97.336535
743.000000	97.404298
742.000000	97.466233
741.000000	97.518024
740.000000	97.563107
739.000000	97.616955
738.000000	97.693150
737.000000	97.787823
736.000000	97.882635
735.000000	97.960891
734.000000	98.017969
733.000000	98.060149
732.000000	98.097911
731.000000	98.138631
730.000000	98.182292
729.000000	98.223978
728.000000	98.260028
727.000000	98.289667
726.000000	98.312519
725.000000	98.330145
724.000000	98.349987
723.000000	98.381596
722.000000	98.427279
721.000000	98.481141
720.000000	98.537725
719.000000	98.595324
718.000000	98.649705
717.000000	98.692921
716.000000	98.723064
715.000000	98.749756
714.000000	98.784881
713.000000	98.830260
712.000000	98.877326
711.000000	98.915821
710.000000	98.940346
709.000000	98.951837
708.000000	98.955942
707.000000	98.958369
706.000000	98.959699
705.000000	98.955890
704.000000	98.942831
703.000000	98.916200
702.000000	98.867378
701.000000	98.785083
700.000000	98.663248
699.000000	98.505599
698.000000	98.324805
697.000000	98.142752
696.000000	97.989188
695.000000	97.889528
694.000000	97.850373
693.000000	97.861082
692.000000	97.908324
691.000000	97.983412
690.000000	98.077251
689.000000	98.178286
688.000000	98.278809
687.000000	98.375911
686.000000	98.463550
685.000000	98.532130
684.000000	98.580428
683.000000	98.621162
682.000000	98.669543
681.000000	98.729641
680.000000	98.794193
679.000000	98.854284
678.000000	98.906380
677.000000	98.952460
676.000000	98.997268
675.000000	99.043131
674.000000	99.087837
673.000000	99.128168
672.000000	99.163423
671.000000	99.194014
670.000000	99.221397
669.000000	99.253371
668.000000	99.302216
667.000000	99.368912
666.000000	99.436207
665.000000	99.488034
664.000000	99.528517
663.000000	99.569387
662.000000	99.612478
661.000000	99.649781
660.000000	99.676960
659.000000	99.695050
658.000000	99.701667
657.000000	99.694562
656.000000	99.683651
655.000000	99.682682
654.000000	99.687646
653.000000	99.681087
652.000000	99.662291
651.000000	99.654409
650.000000	99.673555
