4000.000000	100.276236
3999.000000	100.273066
3998.000000	100.271398
3997.000000	100.270194
3996.000000	100.268671
3995.000000	100.267153
3994.000000	100.266420
3993.000000	100.266535
3992.000000	100.266533
3991.000000	100.265204
3990.000000	100.262115
3989.000000	100.258028
3988.000000	100.254499
3987.000000	100.252912
3986.000000	100.253652
3985.000000	100.255963
3984.000000	100.258441
3983.000000	100.259945
3982.000000	100.260128
3981.000000	100.259230
3980.000000	100.257532
3979.000000	100.255044
3978.000000	100.251687
3977.000000	100.247674
3976.000000	100.243577
3975.000000	100.239896
3974.000000	100.236712
3973.000000	100.233850
3972.000000	100.231327
3971.000000	100.229510
3970.000000	100.228752
3969.000000	100.228925
3968.000000	100.229414
3967.000000	100.229591
3966.000000	100.229268
3965.000000	100.228749
3964.000000	100.228560
3963.000000	100.229105
3962.000000	100.230435
3961.000000	100.232164
3960.000000	100.233537
3959.000000	100.233718
3958.000000	100.232252
3957.000000	100.229396
3956.000000	100.226099
3955.000000	100.223497
3954.000000	100.222162
3953.000000	100.221689
3952.000000	100.220978
3951.000000	100.219112
3950.000000	100.216197
3949.000000	100.213437
3948.000000	100.212121
3947.000000	100.212380
3946.000000	100.213027
3945.000000	100.212673
3944.000000	100.211024
3943.000000	100.208963
3942.000000	100.207405
3941.000000	100.206298
3940.000000	100.205048
3939.000000	100.203619
3938.000000	100.202646
3937.000000	100.202511
3936.000000	100.202779
3935.000000	100.202594
3934.000000	100.201557
3933.000000	100.200131
3932.000000	100.199241
3931.000000	100.199494
3930.000000	100.200700
3929.000000	100.202107
3928.000000	100.202907
3927.000000	100.202632
3926.000000	100.201338
3925.000000	100.199539
3924.000000	100.197876
3923.000000	100.196677
3922.000000	100.195937
3921.000000	100.195567
3920.000000	100.195447
3919.000000	100.195368
3918.000000	100.195207
3917.000000	100.195067
3916.000000	100.195087
3915.000000	100.195167
3914.000000	100.194991
3913.000000	100.194361
3912.000000	100.193322
3911.000000	100.192141
3910.000000	100.191109
3909.000000	100.190358
3908.000000	100.189852
3907.000000	100.189429
3906.000000	100.188934
3905.000000	100.188328
3904.000000	100.187663
3903.000000	100.186985
3902.000000	100.186298
3901.000000	100.185617
3900.000000	100.184997
3899.000000	100.184478
3898.000000	100.184031
3897.000000	100.183586
3896.000000	100.183105
3895.000000	100.182591
3894.000000	100.182048
3893.000000	100.181485
3892.000000	100.180951
3891.000000	100.180526
3890.000000	100.180210
3889.000000	100.179882
3888.000000	100.179427
3887.000000	100.178855
3886.000000	100.178307
3885.000000	100.177935
3884.000000	100.177722
3883.000000	100.177495
3882.000000	100.177204
3881.000000	100.177022
3880.000000	100.177117
3879.000000	100.177412
3878.000000	100.177576
3877.000000	100.177364
3876.000000	100.176863
3875.000000	100.176399
3874.000000	100.176175
3873.000000	100.176009
3872.000000	100.175483
3871.000000	100.174510
3870.000000	100.173705
3869.000000	100.173763
3868.000000	100.174585
3867.000000	100.175326
3866.000000	100.175436
3865.000000	100.174929
3864.000000	100.174024
3863.000000	100.173016
3862.000000	100.172195
3861.000000	100.171855
3860.000000	100.172214
3859.000000	100.173291
3858.000000	100.175053
3857.000000	100.177354
3856.000000	100.179685
3855.000000	100.181131
3854.000000	100.181214
3853.000000	100.180738
3852.000000	100.180357
3851.000000	100.179279
3850.000000	100.177645
3849.000000	100.176920
3848.000000	100.177524
3847.000000	100.178683
3846.000000	100.179585
3845.000000	100.180023
3844.000000	100.180203
3843.000000	100.180278
3842.000000	100.180197
3841.000000	100.179827
3840.000000	100.179253
3839.000000	100.178794
3838.000000	100.178689
3837.000000	100.178754
3836.000000	100.178559
3835.000000	100.177856
3834.000000	100.176770
3833.000000	100.175626
3832.000000	100.174738
3831.000000	100.174222
3830.000000	100.173877
3829.000000	100.173346
3828.000000	100.172492
3827.000000	100.171490
3826.000000	100.170584
3825.000000	100.169789
3824.000000	100.168939
3823.000000	100.167938
3822.000000	100.166866
3821.000000	100.165840
3820.000000	100.164834
3819.000000	100.163742
3818.000000	100.162534
3817.000000	100.161243
3816.000000	100.159905
3815.000000	100.158539
3814.000000	100.157153
3813.000000	100.155763
3812.000000	100.154395
3811.000000	100.153071
3810.000000	100.151793
3809.000000	100.150552
3808.000000	100.149346
3807.000000	100.148163
3806.000000	100.146985
3805.000000	100.145794
3804.000000	100.144578
3803.000000	100.143335
3802.000000	100.142081
3801.000000	100.140831
3800.000000	100.139592
3799.000000	100.138358
3798.000000	100.137129
3797.000000	100.135911
3796.000000	100.134714
3795.000000	100.133536
3794.000000	100.132372
3793.000000	100.131223
3792.000000	100.130098
3791.000000	100.129013
3790.000000	100.127977
3789.000000	100.126988
3788.000000	100.126032
3787.000000	100.125092
3786.000000	100.124169
3785.000000	100.123271
3784.000000	100.122405
3783.000000	100.121565
3782.000000	100.120743
3781.000000	100.119940
3780.000000	100.119161
3779.000000	100.118410
3778.000000	100.117687
3777.000000	100.116996
3776.000000	100.116347
3775.000000	100.115746
3774.000000	100.115187
3773.000000	100.114652
3772.000000	100.114120
3771.000000	100.113573
3770.000000	100.112999
3769.000000	100.112393
3768.000000	100.111751
3767.000000	100.111078
3766.000000	100.110387
3765.000000	100.109691
3764.000000	100.108998
3763.000000	100.108311
3762.000000	100.107632
3761.000000	100.106963
3760.000000	100.106301
3759.000000	100.105643
3758.000000	100.104988
3757.000000	100.104337
3756.000000	100.103685
3755.000000	100.103017
3754.000000	100.102316
3753.000000	100.101572
3752.000000	100.100794
3751.000000	100.100003
3750.000000	100.099214
3749.000000	100.098423
3748.000000	100.097610
3747.000000	100.096760
3746.000000	100.095872
3745.000000	100.094959
3744.000000	100.094033
3743.000000	100.093094
3742.000000	100.092126
3741.000000	100.091122
3740.000000	100.090089
3739.000000	100.089031
3738.000000	100.087944
3737.000000	100.086823
3736.000000	100.085666
3735.000000	100.084472
3734.000000	100.083236
3733.000000	100.081954
3732.000000	100.080630
3731.000000	100.079272
3730.000000	100.077894
3729.000000	100.076512
3728.000000	100.075140
3727.000000	100.073781
3726.000000	100.072432
3725.000000	100.071083
3724.000000	100.069726
3723.000000	100.068351
3722.000000	100.066955
3721.000000	100.065535
3720.000000	100.064093
3719.000000	100.062626
3718.000000	100.061136
3717.000000	100.059624
3716.000000	100.058098
3715.000000	100.056567
3714.000000	100.055033
3713.000000	100.053506
3712.000000	100.051993
3711.000000	100.050503
3710.000000	100.049031
3709.000000	100.047557
3708.000000	100.046062
3707.000000	100.044533
3706.000000	100.042975
3705.000000	100.041398
3704.000000	100.039810
3703.000000	100.038215
3702.000000	100.036611
3701.000000	100.034993
3700.000000	100.033354
3699.000000	100.031691
3698.000000	100.030008
3697.000000	100.028317
3696.000000	100.026634
3695.000000	100.024970
3694.000000	100.023325
3693.000000	100.021691
3692.000000	100.020062
3691.000000	100.018437
3690.000000	100.016814
3689.000000	100.015191
3688.000000	100.013562
3687.000000	100.011911
3686.000000	100.010223
3685.000000	100.008491
3684.000000	100.006726
3683.000000	100.004941
3682.000000	100.003146
3681.000000	100.001353
3680.000000	99.999579
3679.000000	99.997833
3678.000000	99.996080
3677.000000	99.994273
3676.000000	99.992422
3675.000000	99.990643
3674.000000	99.989022
3673.000000	99.987425
3672.000000	99.985669
3671.000000	99.983704
3670.000000	99.981613
3669.000000	99.979560
3668.000000	99.977550
3667.000000	99.975449
3666.000000	99.973275
3665.000000	99.971139
3664.000000	99.969046
3663.000000	99.966936
3662.000000	99.964809
3661.000000	99.962750
3660.000000	99.960808
3659.000000	99.958866
3658.000000	99.956720
3657.000000	99.954431
3656.000000	99.952446
3655.000000	99.951008
3654.000000	99.949753
3653.000000	99.948293
3652.000000	99.946704
3651.000000	99.945228
3650.000000	99.943962
3649.000000	99.942752
3648.000000	99.941220
3647.000000	99.939210
3646.000000	99.937013
3645.000000	99.934923
3644.000000	99.932922
3643.000000	99.930905
3642.000000	99.928987
3641.000000	99.927460
3640.000000	99.926521
3639.000000	99.926100
3638.000000	99.925887
3637.000000	99.925360
3636.000000	99.924045
3635.000000	99.921994
3634.000000	99.919946
3633.000000	99.918639
3632.000000	99.917942
3631.000000	99.916987
3630.000000	99.915193
3629.000000	99.913366
3628.000000	99.912856
3627.000000	99.913315
3626.000000	99.913390
3625.000000	99.912977
3624.000000	99.912556
3623.000000	99.911969
3622.000000	99.910775
3621.000000	99.908942
3620.000000	99.907221
3619.000000	99.906711
3618.000000	99.907750
3617.000000	99.909539
3616.000000	99.910973
3615.000000	99.911652
3614.000000	99.911858
3613.000000	99.912093
3612.000000	99.912541
3611.000000	99.912876
3610.000000	99.912729
3609.000000	99.912180
3608.000000	99.911714
3607.000000	99.911721
3606.000000	99.912175
3605.000000	99.912797
3604.000000	99.913322
3603.000000	99.913576
3602.000000	99.913545
3601.000000	99.913406
3600.000000	99.913377
3599.000000	99.913509
3598.000000	99.913708
3597.000000	99.913907
3596.000000	99.914129
3595.000000	99.914433
3594.000000	99.914828
3593.000000	99.915233
3592.000000	99.915522
3591.000000	99.915629
3590.000000	99.915597
3589.000000	99.915555
3588.000000	99.915637
3587.000000	99.915855
3586.000000	99.916110
3585.000000	99.916319
3584.000000	99.916475
3583.000000	99.916605
3582.000000	99.916723
3581.000000	99.916833
3580.000000	99.916931
3579.000000	99.917019
3578.000000	99.917091
3577.000000	99.917135
3576.000000	99.917140
3575.000000	99.917107
3574.000000	99.917049
3573.000000	99.916982
3572.000000	99.916917
3571.000000	99.916858
3570.000000	99.916804
3569.000000	99.916758
3568.000000	99.916721
3567.000000	99.916681
3566.000000	99.916654
3565.000000	99.916688
3564.000000	99.916794
3563.000000	99.916951
3562.000000	99.917145
3561.000000	99.917377
3560.000000	99.917659
3559.000000	99.917964
3558.000000	99.918176
3557.000000	99.918156
3556.000000	99.917867
3555.000000	99.917390
3554.000000	99.916874
3553.000000	99.916547
3552.000000	99.916730
3551.000000	99.917568
3550.000000	99.918697
3549.000000	99.919429
3548.000000	99.919421
3547.000000	99.919115
3546.000000	99.919400
3545.000000	99.920634
3544.000000	99.922185
3543.000000	99.923051
3542.000000	99.922818
3541.000000	99.921860
3540.000000	99.920946
3539.000000	99.920601
3538.000000	99.920723
3537.000000	99.920748
3536.000000	99.920250
3535.000000	99.919407
3534.000000	99.918854
3533.000000	99.919183
3532.000000	99.920583
3531.000000	99.922816
3530.000000	99.925455
3529.000000	99.928110
3528.000000	99.930582
3527.000000	99.932810
3526.000000	99.934610
3525.000000	99.935659
3524.000000	99.935829
3523.000000	99.935474
3522.000000	99.935185
3521.000000	99.935181
3520.000000	99.935124
3519.000000	99.934609
3518.000000	99.933754
3517.000000	99.933273
3516.000000	99.933946
3515.000000	99.935984
3514.000000	99.938774
3513.000000	99.941182
3512.000000	99.942339
3511.000000	99.942248
3510.000000	99.941686
3509.000000	99.941476
3508.000000	99.941783
3507.000000	99.942212
3506.000000	99.942533
3505.000000	99.943117
3504.000000	99.944560
3503.000000	99.946882
3502.000000	99.949177
3501.000000	99.950304
3500.000000	99.949948
3499.000000	99.948888
3498.000000	99.948268
3497.000000	99.948576
3496.000000	99.949461
3495.000000	99.950523
3494.000000	99.952038
3493.000000	99.954578
3492.000000	99.957939
3491.000000	99.960727
3490.000000	99.961482
3489.000000	99.960021
3488.000000	99.957563
3487.000000	99.955578
3486.000000	99.954468
3485.000000	99.953763
3484.000000	99.953075
3483.000000	99.952468
3482.000000	99.952107
3481.000000	99.951976
3480.000000	99.952030
3479.000000	99.952342
3478.000000	99.952924
3477.000000	99.953608
3476.000000	99.954252
3475.000000	99.954885
3474.000000	99.955449
3473.000000	99.955598
3472.000000	99.955079
3471.000000	99.954205
3470.000000	99.953594
3469.000000	99.953410
3468.000000	99.953200
3467.000000	99.952605
3466.000000	99.951922
3465.000000	99.951723
3464.000000	99.952116
3463.000000	99.952588
3462.000000	99.952506
3461.000000	99.951686
3460.000000	99.950626
3459.000000	99.950313
3458.000000	99.951556
3457.000000	99.954229
3456.000000	99.957052
3455.000000	99.958361
3454.000000	99.957379
3453.000000	99.954712
3452.000000	99.951840
3451.000000	99.949890
3450.000000	99.948878
3449.000000	99.948144
3448.000000	99.947351
3447.000000	99.946894
3446.000000	99.947289
3445.000000	99.948557
3444.000000	99.950374
3443.000000	99.952440
3442.000000	99.954452
3441.000000	99.955913
3440.000000	99.956408
3439.000000	99.956168
3438.000000	99.956033
3437.000000	99.956581
3436.000000	99.957432
3435.000000	99.957671
3434.000000	99.956851
3433.000000	99.955365
3432.000000	99.953901
3431.000000	99.952723
3430.000000	99.951561
3429.000000	99.950106
3428.000000	99.948489
3427.000000	99.947204
3426.000000	99.946603
3425.000000	99.946498
3424.000000	99.946295
3423.000000	99.945567
3422.000000	99.944495
3421.000000	99.943702
3420.000000	99.943650
3419.000000	99.944163
3418.000000	99.944525
3417.000000	99.944031
3416.000000	99.942493
3415.000000	99.940331
3414.000000	99.938312
3413.000000	99.937029
3412.000000	99.936628
3411.000000	99.936846
3410.000000	99.937202
3409.000000	99.937261
3408.000000	99.936830
3407.000000	99.936023
3406.000000	99.935139
3405.000000	99.934429
3404.000000	99.933938
3403.000000	99.933557
3402.000000	99.933175
3401.000000	99.932749
3400.000000	99.932269
3399.000000	99.931736
3398.000000	99.931165
3397.000000	99.930587
3396.000000	99.930026
3395.000000	99.929491
3394.000000	99.928975
3393.000000	99.928475
3392.000000	99.927994
3391.000000	99.927529
3390.000000	99.927070
3389.000000	99.926611
3388.000000	99.926153
3387.000000	99.925699
3386.000000	99.925253
3385.000000	99.924813
3384.000000	99.924369
3383.000000	99.923912
3382.000000	99.923436
3381.000000	99.922938
3380.000000	99.922419
3379.000000	99.921882
3378.000000	99.921333
3377.000000	99.920781
3376.000000	99.920230
3375.000000	99.919681
3374.000000	99.919127
3373.000000	99.918557
3372.000000	99.917964
3371.000000	99.917343
3370.000000	99.916695
3369.000000	99.916023
3368.000000	99.915334
3367.000000	99.914633
3366.000000	99.913926
3365.000000	99.913223
3364.000000	99.912524
3363.000000	99.911821
3362.000000	99.911101
3361.000000	99.910339
3360.000000	99.909520
3359.000000	99.908675
3358.000000	99.907885
3357.000000	99.907213
3356.000000	99.906609
3355.000000	99.905916
3354.000000	99.905028
3353.000000	99.904003
3352.000000	99.902997
3351.000000	99.902078
3350.000000	99.901206
3349.000000	99.900353
3348.000000	99.899554
3347.000000	99.898800
3346.000000	99.897984
3345.000000	99.897036
3344.000000	99.896048
3343.000000	99.895188
3342.000000	99.894473
3341.000000	99.893720
3340.000000	99.892708
3339.000000	99.891386
3338.000000	99.889922
3337.000000	99.888598
3336.000000	99.887611
3335.000000	99.886933
3334.000000	99.886319
3333.000000	99.885480
3332.000000	99.884282
3331.000000	99.882826
3330.000000	99.881369
3329.000000	99.880160
3328.000000	99.879327
3327.000000	99.878903
3326.000000	99.878919
3325.000000	99.879364
3324.000000	99.880015
3323.000000	99.880368
3322.000000	99.879949
3321.000000	99.878698
3320.000000	99.877027
3319.000000	99.875549
3318.000000	99.874556
3317.000000	99.873924
3316.000000	99.873362
3315.000000	99.872681
3314.000000	99.871888
3313.000000	99.871086
3312.000000	99.870313
3311.000000	99.869476
3310.000000	99.868455
3309.000000	99.867281
3308.000000	99.866177
3307.000000	99.865352
3306.000000	99.864754
3305.000000	99.864092
3304.000000	99.863156
3303.000000	99.862060
3302.000000	99.861118
3301.000000	99.860472
3300.000000	99.859911
3299.000000	99.859067
3298.000000	99.857799
3297.000000	99.856322
3296.000000	99.855031
3295.000000	99.854146
3294.000000	99.853586
3293.000000	99.853050
3292.000000	99.852265
3291.000000	99.851171
3290.000000	99.849927
3289.000000	99.848753
3288.000000	99.847737
3287.000000	99.846806
3286.000000	99.845853
3285.000000	99.844849
3284.000000	99.843781
3283.000000	99.842555
3282.000000	99.841088
3281.000000	99.839490
3280.000000	99.837974
3279.000000	99.836495
3278.000000	99.834652
3277.000000	99.832098
3276.000000	99.829002
3275.000000	99.826070
3274.000000	99.823940
3273.000000	99.822708
3272.000000	99.822014
3271.000000	99.821444
3270.000000	99.820881
3269.000000	99.820447
3268.000000	99.820116
3267.000000	99.819462
3266.000000	99.817986
3265.000000	99.815777
3264.000000	99.813672
3263.000000	99.812468
3262.000000	99.812043
3261.000000	99.811502
3260.000000	99.810212
3259.000000	99.808437
3258.000000	99.806806
3257.000000	99.805388
3256.000000	99.803656
3255.000000	99.801274
3254.000000	99.798560
3253.000000	99.796168
3252.000000	99.794543
3251.000000	99.793769
3250.000000	99.793687
3249.000000	99.793926
3248.000000	99.793994
3247.000000	99.793571
3246.000000	99.792669
3245.000000	99.791396
3244.000000	99.789669
3243.000000	99.787401
3242.000000	99.784916
3241.000000	99.782869
3240.000000	99.781612
3239.000000	99.780892
3238.000000	99.780256
3237.000000	99.779567
3236.000000	99.778928
3235.000000	99.778293
3234.000000	99.777530
3233.000000	99.776773
3232.000000	99.776325
3231.000000	99.776185
3230.000000	99.776002
3229.000000	99.775525
3228.000000	99.774764
3227.000000	99.773695
3226.000000	99.772171
3225.000000	99.770352
3224.000000	99.768849
3223.000000	99.768129
3222.000000	99.768003
3221.000000	99.767952
3220.000000	99.767742
3219.000000	99.767348
3218.000000	99.766451
3217.000000	99.764592
3216.000000	99.761863
3215.000000	99.759059
3214.000000	99.756922
3213.000000	99.755453
3212.000000	99.754144
3211.000000	99.752635
3210.000000	99.751049
3209.000000	99.749829
3208.000000	99.749374
3207.000000	99.749724
3206.000000	99.750391
3205.000000	99.750546
3204.000000	99.749674
3203.000000	99.747980
3202.000000	99.746122
3201.000000	99.744475
3200.000000	99.742776
3199.000000	99.740602
3198.000000	99.738047
3197.000000	99.735820
3196.000000	99.734583
3195.000000	99.734379
3194.000000	99.734579
3193.000000	99.734388
3192.000000	99.733522
3191.000000	99.732329
3190.000000	99.731349
3189.000000	99.730771
3188.000000	99.730273
3187.000000	99.729373
3186.000000	99.727879
3185.000000	99.726000
3184.000000	99.724117
3183.000000	99.722516
3182.000000	99.721301
3181.000000	99.720403
3180.000000	99.719569
3179.000000	99.718471
3178.000000	99.717008
3177.000000	99.715483
3176.000000	99.714314
3175.000000	99.713540
3174.000000	99.712774
3173.000000	99.711679
3172.000000	99.710353
3171.000000	99.709108
3170.000000	99.708035
3169.000000	99.707009
3168.000000	99.706068
3167.000000	99.705499
3166.000000	99.705499
3165.000000	99.705913
3164.000000	99.706319
3163.000000	99.706331
3162.000000	99.705809
3161.000000	99.704840
3160.000000	99.703585
3159.000000	99.702107
3158.000000	99.700445
3157.000000	99.698847
3156.000000	99.697770
3155.000000	99.697509
3154.000000	99.697868
3153.000000	99.698189
3152.000000	99.697838
3151.000000	99.696635
3150.000000	99.694851
3149.000000	99.693021
3148.000000	99.691583
3147.000000	99.690628
3146.000000	99.689933
3145.000000	99.689275
3144.000000	99.688732
3143.000000	99.688527
3142.000000	99.688626
3141.000000	99.688655
3140.000000	99.688295
3139.000000	99.687598
3138.000000	99.686831
3137.000000	99.686139
3136.000000	99.685495
3135.000000	99.684899
3134.000000	99.684442
3133.000000	99.684150
3132.000000	99.683834
3131.000000	99.683188
3130.000000	99.682116
3129.000000	99.681011
3128.000000	99.680587
3127.000000	99.681250
3126.000000	99.682603
3125.000000	99.683663
3124.000000	99.683705
3123.000000	99.682681
3122.000000	99.680950
3121.000000	99.678950
3120.000000	99.677133
3119.000000	99.675855
3118.000000	99.675112
3117.000000	99.674547
3116.000000	99.673823
3115.000000	99.672800
3114.000000	99.671287
3113.000000	99.669021
3112.000000	99.666161
3111.000000	99.663510
3110.000000	99.661974
3109.000000	99.661841
3108.000000	99.662595
3107.000000	99.663406
3106.000000	99.663737
3105.000000	99.663636
3104.000000	99.663525
3103.000000	99.663593
3102.000000	99.663503
3101.000000	99.662860
3100.000000	99.661793
3099.000000	99.660774
3098.000000	99.659963
3097.000000	99.659106
3096.000000	99.658071
3095.000000	99.657069
3094.000000	99.656260
3093.000000	99.655505
3092.000000	99.654661
3091.000000	99.653845
3090.000000	99.653210
3089.000000	99.652687
3088.000000	99.652109
3087.000000	99.651447
3086.000000	99.650786
3085.000000	99.650152
3084.000000	99.649500
3083.000000	99.648820
3082.000000	99.648147
3081.000000	99.647499
3080.000000	99.646872
3079.000000	99.646268
3078.000000	99.645679
3077.000000	99.645092
3076.000000	99.644495
3075.000000	99.643882
3074.000000	99.643250
3073.000000	99.642609
3072.000000	99.641952
3071.000000	99.641278
3070.000000	99.640643
3069.000000	99.640112
3068.000000	99.639625
3067.000000	99.638997
3066.000000	99.638078
3065.000000	99.636960
3064.000000	99.635964
3063.000000	99.635354
3062.000000	99.635132
3061.000000	99.635063
3060.000000	99.634924
3059.000000	99.634683
3058.000000	99.634444
3057.000000	99.634229
3056.000000	99.633880
3055.000000	99.633218
3054.000000	99.632268
3053.000000	99.631340
3052.000000	99.630903
3051.000000	99.631295
3050.000000	99.632412
3049.000000	99.633647
3048.000000	99.634292
3047.000000	99.634023
3046.000000	99.632949
3045.000000	99.631295
3044.000000	99.629326
3043.000000	99.627619
3042.000000	99.626999
3041.000000	99.627802
3040.000000	99.629233
3039.000000	99.629763
3038.000000	99.628327
3037.000000	99.625028
3036.000000	99.620769
3035.000000	99.616567
3034.000000	99.613441
3033.000000	99.612595
3032.000000	99.614934
3031.000000	99.620051
3030.000000	99.626050
3029.000000	99.630907
3028.000000	99.633891
3027.000000	99.635408
3026.000000	99.635957
3025.000000	99.635755
3024.000000	99.635022
3023.000000	99.633848
3022.000000	99.631916
3021.000000	99.629198
3020.000000	99.626962
3019.000000	99.627211
3018.000000	99.630913
3017.000000	99.637385
3016.000000	99.645350
3015.000000	99.653611
3014.000000	99.660536
3013.000000	99.664376
3012.000000	99.665137
3011.000000	99.665247
3010.000000	99.667212
3009.000000	99.671026
3008.000000	99.674749
3007.000000	99.677067
3006.000000	99.678366
3005.000000	99.679612
3004.000000	99.681180
3003.000000	99.682715
3002.000000	99.683360
3001.000000	99.682293
3000.000000	99.679768
2999.000000	99.677455
2998.000000	99.676930
2997.000000	99.677961
2996.000000	99.679115
2995.000000	99.679831
2994.000000	99.680805
2993.000000	99.682359
2992.000000	99.683892
2991.000000	99.685525
2990.000000	99.689033
2989.000000	99.695947
2988.000000	99.705299
2987.000000	99.714373
2986.000000	99.721624
2985.000000	99.728058
2984.000000	99.735749
2983.000000	99.745934
2982.000000	99.758658
2981.000000	99.773234
2980.000000	99.788433
2979.000000	99.802938
2978.000000	99.816448
2977.000000	99.830063
2976.000000	99.844932
2975.000000	99.860926
2974.000000	99.877647
2973.000000	99.896406
2972.000000	99.919544
2971.000000	99.947068
2970.000000	99.975214
2969.000000	99.999778
2968.000000	100.020407
2967.000000	100.040560
2966.000000	100.063724
2965.000000	100.090988
2964.000000	100.121683
2963.000000	100.154300
2962.000000	100.186326
2961.000000	100.214810
2960.000000	100.237980
2959.000000	100.255512
2958.000000	100.267077
2957.000000	100.272111
2956.000000	100.271628
2955.000000	100.268638
2954.000000	100.265551
2953.000000	100.262250
2952.000000	100.257970
2951.000000	100.254317
2950.000000	100.255184
2949.000000	100.263965
2948.000000	100.281490
2947.000000	100.305896
2946.000000	100.333622
2945.000000	100.361513
2944.000000	100.389499
2943.000000	100.420978
2942.000000	100.459651
2941.000000	100.506530
2940.000000	100.560971
2939.000000	100.623216
2938.000000	100.693559
2937.000000	100.769422
2936.000000	100.846146
2935.000000	100.921572
2934.000000	100.997367
2933.000000	101.074220
2932.000000	101.147732
2931.000000	101.211716
2930.000000	101.264902
2929.000000	101.311770
2928.000000	101.356113
2927.000000	101.395705
2926.000000	101.424577
2925.000000	101.438940
2924.000000	101.438703
2923.000000	101.423860
2922.000000	101.392147
2921.000000	101.341499
2920.000000	101.273598
2919.000000	101.193766
2918.000000	101.107835
2917.000000	101.019824
2916.000000	100.932000
2915.000000	100.846220
2914.000000	100.765162
2913.000000	100.692372
2912.000000	100.630252
2911.000000	100.577346
2910.000000	100.528612
2909.000000	100.479862
2908.000000	100.431914
2907.000000	100.389299
2906.000000	100.355081
2905.000000	100.327988
2904.000000	100.304326
2903.000000	100.281033
2902.000000	100.256693
2901.000000	100.231458
2900.000000	100.207083
2899.000000	100.185746
2898.000000	100.167526
2897.000000	100.149590
2896.000000	100.128725
2895.000000	100.104402
2894.000000	100.079011
2893.000000	100.055962
2892.000000	100.038028
2891.000000	100.026051
2890.000000	100.017927
2889.000000	100.009715
2888.000000	99.999246
2887.000000	99.988281
2886.000000	99.979692
2885.000000	99.972918
2884.000000	99.964025
2883.000000	99.950816
2882.000000	99.936656
2881.000000	99.928267
2880.000000	99.930085
2879.000000	99.940827
2878.000000	99.954904
2877.000000	99.966782
2876.000000	99.974544
2875.000000	99.980226
2874.000000	99.987280
2873.000000	99.997698
2872.000000	100.011020
2871.000000	100.025171
2870.000000	100.037956
2869.000000	100.048426
2868.000000	100.057718
2867.000000	100.068845
2866.000000	100.085315
2865.000000	100.109467
2864.000000	100.141527
2863.000000	100.179935
2862.000000	100.222956
2861.000000	100.270472
2860.000000	100.323541
2859.000000	100.381067
2858.000000	100.437414
2857.000000	100.485157
2856.000000	100.520548
2855.000000	100.544468
2854.000000	100.557354
2853.000000	100.554997
2852.000000	100.531042
2851.000000	100.483047
2850.000000	100.415260
2849.000000	100.336631
2848.000000	100.256968
2847.000000	100.183426
2846.000000	100.118156
2845.000000	100.058819
2844.000000	100.002425
2843.000000	99.949070
2842.000000	99.901400
2841.000000	99.860961
2840.000000	99.826604
2839.000000	99.796748
2838.000000	99.771644
2837.000000	99.752229
2836.000000	99.737386
2835.000000	99.723635
2834.000000	99.708004
2833.000000	99.690818
2832.000000	99.675260
2831.000000	99.664105
2830.000000	99.657087
2829.000000	99.651590
2828.000000	99.645405
2827.000000	99.638251
2826.000000	99.630958
2825.000000	99.624300
2824.000000	99.618825
2823.000000	99.614648
2822.000000	99.610944
2821.000000	99.606715
2820.000000	99.602641
2819.000000	99.600897
2818.000000	99.602110
2817.000000	99.603650
2816.000000	99.602368
2815.000000	99.598340
2814.000000	99.594400
2813.000000	99.592441
2812.000000	99.591697
2811.000000	99.590476
2810.000000	99.588099
2809.000000	99.585079
2808.000000	99.582676
2807.000000	99.582309
2806.000000	99.584018
2805.000000	99.585198
2804.000000	99.582238
2803.000000	99.574300
2802.000000	99.564792
2801.000000	99.558472
2800.000000	99.557544
2799.000000	99.560673
2798.000000	99.564851
2797.000000	99.567635
2796.000000	99.568141
2795.000000	99.566939
2794.000000	99.565496
2793.000000	99.565467
2792.000000	99.567770
2791.000000	99.571653
2790.000000	99.574761
2789.000000	99.575109
2788.000000	99.573301
2787.000000	99.572008
2786.000000	99.572800
2785.000000	99.574362
2784.000000	99.574432
2783.000000	99.572572
2782.000000	99.570143
2781.000000	99.568333
2780.000000	99.567343
2779.000000	99.567082
2778.000000	99.567538
2777.000000	99.568442
2776.000000	99.569233
2775.000000	99.569476
2774.000000	99.569089
2773.000000	99.568282
2772.000000	99.567431
2771.000000	99.566843
2770.000000	99.566542
2769.000000	99.566342
2768.000000	99.566177
2767.000000	99.566223
2766.000000	99.566606
2765.000000	99.567098
2764.000000	99.567266
2763.000000	99.566937
2762.000000	99.566439
2761.000000	99.566353
2760.000000	99.566924
2759.000000	99.567901
2758.000000	99.568750
2757.000000	99.569108
2756.000000	99.569020
2755.000000	99.568866
2754.000000	99.569037
2753.000000	99.569582
2752.000000	99.570256
2751.000000	99.570864
2750.000000	99.571449
2749.000000	99.572099
2748.000000	99.572757
2747.000000	99.573305
2746.000000	99.573730
2745.000000	99.574073
2744.000000	99.574282
2743.000000	99.574257
2742.000000	99.574045
2741.000000	99.573875
2740.000000	99.573999
2739.000000	99.574481
2738.000000	99.575150
2737.000000	99.575757
2736.000000	99.576168
2735.000000	99.576384
2734.000000	99.576416
2733.000000	99.576262
2732.000000	99.576057
2731.000000	99.576109
2730.000000	99.576624
2729.000000	99.577458
2728.000000	99.578230
2727.000000	99.578732
2726.000000	99.579045
2725.000000	99.579294
2724.000000	99.579473
2723.000000	99.579541
2722.000000	99.579504
2721.000000	99.579352
2720.000000	99.579072
2719.000000	99.578796
2718.000000	99.578766
2717.000000	99.579128
2716.000000	99.579857
2715.000000	99.580830
2714.000000	99.581843
2713.000000	99.582579
2712.000000	99.582834
2711.000000	99.582750
2710.000000	99.582695
2709.000000	99.582831
2708.000000	99.582958
2707.000000	99.582849
2706.000000	99.582599
2705.000000	99.582521
2704.000000	99.582786
2703.000000	99.583271
2702.000000	99.583685
2701.000000	99.583765
2700.000000	99.583483
2699.000000	99.583176
2698.000000	99.583391
2697.000000	99.584433
2696.000000	99.585986
2695.000000	99.587256
2694.000000	99.587661
2693.000000	99.587208
2692.000000	99.586323
2691.000000	99.585449
2690.000000	99.584733
2689.000000	99.584067
2688.000000	99.583409
2687.000000	99.582979
2686.000000	99.583034
2685.000000	99.583458
2684.000000	99.583733
2683.000000	99.583447
2682.000000	99.582700
2681.000000	99.581943
2680.000000	99.581514
2679.000000	99.581335
2678.000000	99.580969
2677.000000	99.579951
2676.000000	99.578224
2675.000000	99.576397
2674.000000	99.575384
2673.000000	99.575660
2672.000000	99.576989
2671.000000	99.578631
2670.000000	99.579805
2669.000000	99.580000
2668.000000	99.579074
2667.000000	99.577362
2666.000000	99.575517
2665.000000	99.574020
2664.000000	99.572916
2663.000000	99.572064
2662.000000	99.571355
2661.000000	99.570586
2660.000000	99.569450
2659.000000	99.567944
2658.000000	99.566662
2657.000000	99.566248
2656.000000	99.566684
2655.000000	99.567352
2654.000000	99.567683
2653.000000	99.567534
2652.000000	99.567004
2651.000000	99.566305
2650.000000	99.565829
2649.000000	99.565935
2648.000000	99.566557
2647.000000	99.567150
2646.000000	99.567200
2645.000000	99.566712
2644.000000	99.566113
2643.000000	99.565819
2642.000000	99.565918
2641.000000	99.566280
2640.000000	99.566755
2639.000000	99.567216
2638.000000	99.567479
2637.000000	99.567350
2636.000000	99.566793
2635.000000	99.566013
2634.000000	99.565385
2633.000000	99.565206
2632.000000	99.565513
2631.000000	99.566113
2630.000000	99.566679
2629.000000	99.566988
2628.000000	99.567046
2627.000000	99.567031
2626.000000	99.567132
2625.000000	99.567388
2624.000000	99.567692
2623.000000	99.567927
2622.000000	99.568068
2621.000000	99.568133
2620.000000	99.568096
2619.000000	99.567925
2618.000000	99.567678
2617.000000	99.567472
2616.000000	99.567371
2615.000000	99.567372
2614.000000	99.567481
2613.000000	99.567704
2612.000000	99.567958
2611.000000	99.568119
2610.000000	99.568205
2609.000000	99.568395
2608.000000	99.568783
2607.000000	99.569196
2606.000000	99.569379
2605.000000	99.569313
2604.000000	99.569201
2603.000000	99.569146
2602.000000	99.569024
2601.000000	99.568726
2600.000000	99.568412
2599.000000	99.568413
2598.000000	99.568887
2597.000000	99.569608
2596.000000	99.570105
2595.000000	99.570066
2594.000000	99.569569
2593.000000	99.568960
2592.000000	99.568469
2591.000000	99.568071
2590.000000	99.567752
2589.000000	99.567637
2588.000000	99.567811
2587.000000	99.568155
2586.000000	99.568382
2585.000000	99.568224
2584.000000	99.567579
2583.000000	99.566587
2582.000000	99.565663
2581.000000	99.565194
2580.000000	99.565187
2579.000000	99.565287
2578.000000	99.565145
2577.000000	99.564790
2576.000000	99.564516
2575.000000	99.564484
2574.000000	99.564572
2573.000000	99.564589
2572.000000	99.564485
2571.000000	99.564325
2570.000000	99.564180
2569.000000	99.564102
2568.000000	99.564146
2567.000000	99.564329
2566.000000	99.564573
2565.000000	99.564733
2564.000000	99.564709
2563.000000	99.564533
2562.000000	99.564358
2561.000000	99.564330
2560.000000	99.564443
2559.000000	99.564491
2558.000000	99.564263
2557.000000	99.563789
2556.000000	99.563343
2555.000000	99.563131
2554.000000	99.563104
2553.000000	99.563168
2552.000000	99.563383
2551.000000	99.563820
2550.000000	99.564344
2549.000000	99.564680
2548.000000	99.564751
2547.000000	99.564764
2546.000000	99.564892
2545.000000	99.564993
2544.000000	99.564822
2543.000000	99.564449
2542.000000	99.564295
2541.000000	99.564726
2540.000000	99.565750
2539.000000	99.567072
2538.000000	99.568273
2537.000000	99.568970
2536.000000	99.569018
2535.000000	99.568676
2534.000000	99.568487
2533.000000	99.568781
2532.000000	99.569419
2531.000000	99.570125
2530.000000	99.570869
2529.000000	99.571686
2528.000000	99.572258
2527.000000	99.572074
2526.000000	99.571075
2525.000000	99.569841
2524.000000	99.568995
2523.000000	99.568572
2522.000000	99.568172
2521.000000	99.567553
2520.000000	99.566900
2519.000000	99.566626
2518.000000	99.567076
2517.000000	99.568315
2516.000000	99.569997
2515.000000	99.571401
2514.000000	99.571908
2513.000000	99.571489
2512.000000	99.570675
2511.000000	99.570060
2510.000000	99.569808
2509.000000	99.569742
2508.000000	99.569768
2507.000000	99.570054
2506.000000	99.570776
2505.000000	99.571811
2504.000000	99.572776
2503.000000	99.573346
2502.000000	99.573559
2501.000000	99.573786
2500.000000	99.574379
2499.000000	99.575295
2498.000000	99.576127
2497.000000	99.576513
2496.000000	99.576473
2495.000000	99.576306
2494.000000	99.576282
2493.000000	99.576495
2492.000000	99.576955
2491.000000	99.577660
2490.000000	99.578511
2489.000000	99.579315
2488.000000	99.579956
2487.000000	99.580504
2486.000000	99.581091
2485.000000	99.581741
2484.000000	99.582365
2483.000000	99.582894
2482.000000	99.583334
2481.000000	99.583744
2480.000000	99.584216
2479.000000	99.584851
2478.000000	99.585686
2477.000000	99.586589
2476.000000	99.587313
2475.000000	99.587708
2474.000000	99.587873
2473.000000	99.588062
2472.000000	99.588438
2471.000000	99.588995
2470.000000	99.589616
2469.000000	99.590155
2468.000000	99.590494
2467.000000	99.590614
2466.000000	99.590607
2465.000000	99.590630
2464.000000	99.590803
2463.000000	99.591137
2462.000000	99.591549
2461.000000	99.591914
2460.000000	99.592171
2459.000000	99.592376
2458.000000	99.592639
2457.000000	99.593007
2456.000000	99.593414
2455.000000	99.593747
2454.000000	99.593966
2453.000000	99.594123
2452.000000	99.594281
2451.000000	99.594424
2450.000000	99.594502
2449.000000	99.594513
2448.000000	99.594521
2447.000000	99.594596
2446.000000	99.594757
2445.000000	99.594966
2444.000000	99.595168
2443.000000	99.595345
2442.000000	99.595518
2441.000000	99.595687
2440.000000	99.595782
2439.000000	99.595699
2438.000000	99.595429
2437.000000	99.595172
2436.000000	99.595244
2435.000000	99.595795
2434.000000	99.596640
2433.000000	99.597358
2432.000000	99.597655
2431.000000	99.597554
2430.000000	99.597282
2429.000000	99.597051
2428.000000	99.596983
2427.000000	99.597218
2426.000000	99.597913
2425.000000	99.599059
2424.000000	99.600363
2423.000000	99.601412
2422.000000	99.601933
2421.000000	99.601874
2420.000000	99.601353
2419.000000	99.600639
2418.000000	99.600119
2417.000000	99.600123
2416.000000	99.600686
2415.000000	99.601478
2414.000000	99.602032
2413.000000	99.602181
2412.000000	99.602291
2411.000000	99.602973
2410.000000	99.604463
2409.000000	99.606335
2408.000000	99.607892
2407.000000	99.608916
2406.000000	99.609780
2405.000000	99.610763
2404.000000	99.611543
2403.000000	99.611624
2402.000000	99.611033
2401.000000	99.610323
2400.000000	99.610012
2399.000000	99.610184
2398.000000	99.610604
2397.000000	99.610995
2396.000000	99.611175
2395.000000	99.611131
2394.000000	99.611003
2393.000000	99.610976
2392.000000	99.611128
2391.000000	99.611408
2390.000000	99.611748
2389.000000	99.612125
2388.000000	99.612507
2387.000000	99.612808
2386.000000	99.612959
2385.000000	99.612983
2384.000000	99.612969
2383.000000	99.612960
2382.000000	99.612904
2381.000000	99.612749
2380.000000	99.612535
2379.000000	99.612358
2378.000000	99.612277
2377.000000	99.612280
2376.000000	99.612314
2375.000000	99.612335
2374.000000	99.612320
2373.000000	99.612263
2372.000000	99.612178
2371.000000	99.612075
2370.000000	99.611967
2369.000000	99.611858
2368.000000	99.611746
2367.000000	99.611625
2366.000000	99.611489
2365.000000	99.611341
2364.000000	99.611192
2363.000000	99.611055
2362.000000	99.610943
2361.000000	99.610862
2360.000000	99.610808
2359.000000	99.610768
2358.000000	99.610724
2357.000000	99.610667
2356.000000	99.610593
2355.000000	99.610513
2354.000000	99.610440
2353.000000	99.610386
2352.000000	99.610351
2351.000000	99.610331
2350.000000	99.610325
2349.000000	99.610332
2348.000000	99.610360
2347.000000	99.610407
2346.000000	99.610449
2345.000000	99.610462
2344.000000	99.610456
2343.000000	99.610499
2342.000000	99.610652
2341.000000	99.610929
2340.000000	99.611295
2339.000000	99.611674
2338.000000	99.612019
2337.000000	99.612323
2336.000000	99.612597
2335.000000	99.612793
2334.000000	99.612879
2333.000000	99.612894
2332.000000	99.613014
2331.000000	99.613374
2330.000000	99.614068
2329.000000	99.614988
2328.000000	99.615926
2327.000000	99.616643
2326.000000	99.617064
2325.000000	99.617351
2324.000000	99.617717
2323.000000	99.618290
2322.000000	99.619020
2321.000000	99.619791
2320.000000	99.620481
2319.000000	99.620907
2318.000000	99.620964
2317.000000	99.620654
2316.000000	99.620285
2315.000000	99.620193
2314.000000	99.620668
2313.000000	99.621691
2312.000000	99.623159
2311.000000	99.624812
2310.000000	99.626362
2309.000000	99.627427
2308.000000	99.627834
2307.000000	99.627719
2306.000000	99.627545
2305.000000	99.627627
2304.000000	99.627939
2303.000000	99.628208
2302.000000	99.628401
2301.000000	99.628742
2300.000000	99.629476
2299.000000	99.630448
2298.000000	99.631244
2297.000000	99.631589
2296.000000	99.631696
2295.000000	99.631958
2294.000000	99.632432
2293.000000	99.632730
2292.000000	99.632541
2291.000000	99.632032
2290.000000	99.631645
2289.000000	99.631609
2288.000000	99.631814
2287.000000	99.632110
2286.000000	99.632473
2285.000000	99.632837
2284.000000	99.632979
2283.000000	99.632776
2282.000000	99.632404
2281.000000	99.632135
2280.000000	99.632014
2279.000000	99.631884
2278.000000	99.631636
2277.000000	99.631282
2276.000000	99.630864
2275.000000	99.630460
2274.000000	99.630238
2273.000000	99.630319
2272.000000	99.630581
2271.000000	99.630723
2270.000000	99.630562
2269.000000	99.630119
2268.000000	99.629431
2267.000000	99.628479
2266.000000	99.627349
2265.000000	99.626325
2264.000000	99.625690
2263.000000	99.625496
2262.000000	99.625553
2261.000000	99.625583
2260.000000	99.625387
2259.000000	99.624925
2258.000000	99.624299
2257.000000	99.623684
2256.000000	99.623250
2255.000000	99.623132
2254.000000	99.623397
2253.000000	99.623917
2252.000000	99.624295
2251.000000	99.624092
2250.000000	99.623204
2249.000000	99.621957
2248.000000	99.620820
2247.000000	99.619986
2246.000000	99.619341
2245.000000	99.618709
2244.000000	99.618042
2243.000000	99.617410
2242.000000	99.616949
2241.000000	99.616808
2240.000000	99.617055
2239.000000	99.617542
2238.000000	99.617945
2237.000000	99.617974
2236.000000	99.617574
2235.000000	99.616935
2234.000000	99.616313
2233.000000	99.615848
2232.000000	99.615516
2231.000000	99.615197
2230.000000	99.614821
2229.000000	99.614459
2228.000000	99.614235
2227.000000	99.614126
2226.000000	99.613887
2225.000000	99.613260
2224.000000	99.612305
2223.000000	99.611464
2222.000000	99.611187
2221.000000	99.611538
2220.000000	99.612166
2219.000000	99.612641
2218.000000	99.612797
2217.000000	99.612732
2216.000000	99.612595
2215.000000	99.612446
2214.000000	99.612275
2213.000000	99.612123
2212.000000	99.612121
2211.000000	99.612375
2210.000000	99.612796
2209.000000	99.613095
2208.000000	99.613053
2207.000000	99.612789
2206.000000	99.612698
2205.000000	99.613050
2204.000000	99.613742
2203.000000	99.614468
2202.000000	99.615088
2201.000000	99.615700
2200.000000	99.616347
2199.000000	99.616822
2198.000000	99.616874
2197.000000	99.616503
2196.000000	99.615986
2195.000000	99.615657
2194.000000	99.615664
2193.000000	99.615956
2192.000000	99.616374
2191.000000	99.616748
2190.000000	99.616983
2189.000000	99.617124
2188.000000	99.617313
2187.000000	99.617665
2186.000000	99.618156
2185.000000	99.618655
2184.000000	99.619049
2183.000000	99.619341
2182.000000	99.619612
2181.000000	99.619932
2180.000000	99.620303
2179.000000	99.620683
2178.000000	99.621033
2177.000000	99.621343
2176.000000	99.621632
2175.000000	99.621931
2174.000000	99.622254
2173.000000	99.622597
2172.000000	99.622941
2171.000000	99.623276
2170.000000	99.623603
2169.000000	99.623928
2168.000000	99.624264
2167.000000	99.624621
2166.000000	99.625006
2165.000000	99.625409
2164.000000	99.625816
2163.000000	99.626208
2162.000000	99.626562
2161.000000	99.626872
2160.000000	99.627152
2159.000000	99.627432
2158.000000	99.627748
2157.000000	99.628111
2156.000000	99.628517
2155.000000	99.628952
2154.000000	99.629409
2153.000000	99.629878
2152.000000	99.630331
2151.000000	99.630739
2150.000000	99.631101
2149.000000	99.631442
2148.000000	99.631779
2147.000000	99.632120
2146.000000	99.632482
2145.000000	99.632874
2144.000000	99.633282
2143.000000	99.633681
2142.000000	99.634063
2141.000000	99.634449
2140.000000	99.634864
2139.000000	99.635309
2138.000000	99.635768
2137.000000	99.636223
2136.000000	99.636668
2135.000000	99.637109
2134.000000	99.637561
2133.000000	99.638038
2132.000000	99.638540
2131.000000	99.639055
2130.000000	99.639567
2129.000000	99.640078
2128.000000	99.640597
2127.000000	99.641134
2126.000000	99.641691
2125.000000	99.642260
2124.000000	99.642827
2123.000000	99.643388
2122.000000	99.643951
2121.000000	99.644529
2120.000000	99.645121
2119.000000	99.645708
2118.000000	99.646304
2117.000000	99.646974
2116.000000	99.647751
2115.000000	99.648557
2114.000000	99.649277
2113.000000	99.649906
2112.000000	99.650538
2111.000000	99.651227
2110.000000	99.651955
2109.000000	99.652715
2108.000000	99.653534
2107.000000	99.654390
2106.000000	99.655245
2105.000000	99.656144
2104.000000	99.657129
2103.000000	99.658103
2102.000000	99.658927
2101.000000	99.659648
2100.000000	99.660418
2099.000000	99.661196
2098.000000	99.661790
2097.000000	99.662256
2096.000000	99.663001
2095.000000	99.664348
2094.000000	99.666178
2093.000000	99.668030
2092.000000	99.669473
2091.000000	99.670287
2090.000000	99.670476
2089.000000	99.670345
2088.000000	99.670379
2087.000000	99.670899
2086.000000	99.671900
2085.000000	99.673268
2084.000000	99.674987
2083.000000	99.677034
2082.000000	99.679203
2081.000000	99.681216
2080.000000	99.682908
2079.000000	99.684163
2078.000000	99.684807
2077.000000	99.684822
2076.000000	99.684629
2075.000000	99.684866
2074.000000	99.685807
2073.000000	99.687120
2072.000000	99.688182
2071.000000	99.688577
2070.000000	99.688234
2069.000000	99.687360
2068.000000	99.686431
2067.000000	99.686089
2066.000000	99.686747
2065.000000	99.688178
2064.000000	99.689648
2063.000000	99.690637
2062.000000	99.691318
2061.000000	99.692145
2060.000000	99.693182
2059.000000	99.694089
2058.000000	99.694726
2057.000000	99.695352
2056.000000	99.696138
2055.000000	99.696812
2054.000000	99.697049
2053.000000	99.696939
2052.000000	99.696724
2051.000000	99.696296
2050.000000	99.695360
2049.000000	99.694067
2048.000000	99.693102
2047.000000	99.692983
2046.000000	99.693589
2045.000000	99.694454
2044.000000	99.695230
2043.000000	99.695714
2042.000000	99.695685
2041.000000	99.695068
2040.000000	99.694190
2039.000000	99.693584
2038.000000	99.693458
2037.000000	99.693595
2036.000000	99.693704
2035.000000	99.693716
2034.000000	99.693694
2033.000000	99.693647
2032.000000	99.693517
2031.000000	99.693267
2030.000000	99.692904
2029.000000	99.692470
2028.000000	99.692080
2027.000000	99.691849
2026.000000	99.691738
2025.000000	99.691568
2024.000000	99.691262
2023.000000	99.690963
2022.000000	99.690804
2021.000000	99.690696
2020.000000	99.690457
2019.000000	99.690080
2018.000000	99.689731
2017.000000	99.689521
2016.000000	99.689392
2015.000000	99.689240
2014.000000	99.689038
2013.000000	99.688816
2012.000000	99.688599
2011.000000	99.688389
2010.000000	99.688182
2009.000000	99.687979
2008.000000	99.687784
2007.000000	99.687594
2006.000000	99.687405
2005.000000	99.687213
2004.000000	99.687030
2003.000000	99.686881
2002.000000	99.686796
2001.000000	99.686774
2000.000000	99.686749
1999.000000	99.686640
1998.000000	99.686445
1997.000000	99.686224
1996.000000	99.686012
1995.000000	99.685784
1994.000000	99.685525
1993.000000	99.685268
1992.000000	99.685048
1991.000000	99.684862
1990.000000	99.684681
1989.000000	99.684489
1988.000000	99.684293
1987.000000	99.684101
1986.000000	99.683907
1985.000000	99.683708
1984.000000	99.683508
1983.000000	99.683320
1982.000000	99.683140
1981.000000	99.682949
1980.000000	99.682733
1979.000000	99.682506
1978.000000	99.682312
1977.000000	99.682190
1976.000000	99.682143
1975.000000	99.682107
1974.000000	99.682010
1973.000000	99.681840
1972.000000	99.681639
1971.000000	99.681435
1970.000000	99.681197
1969.000000	99.680886
1968.000000	99.680540
1967.000000	99.680277
1966.000000	99.680163
1965.000000	99.680099
1964.000000	99.679908
1963.000000	99.679545
1962.000000	99.679134
1961.000000	99.678752
1960.000000	99.678296
1959.000000	99.677686
1958.000000	99.677102
1957.000000	99.676841
1956.000000	99.676950
1955.000000	99.677126
1954.000000	99.677039
1953.000000	99.676661
1952.000000	99.676217
1951.000000	99.675894
1950.000000	99.675605
1949.000000	99.675141
1948.000000	99.674446
1947.000000	99.673666
1946.000000	99.672955
1945.000000	99.672294
1944.000000	99.671621
1943.000000	99.671132
1942.000000	99.671205
1941.000000	99.671886
1940.000000	99.672769
1939.000000	99.673478
1938.000000	99.673922
1937.000000	99.674068
1936.000000	99.673768
1935.000000	99.672875
1934.000000	99.671425
1933.000000	99.669564
1932.000000	99.667542
1931.000000	99.665854
1930.000000	99.664930
1929.000000	99.664735
1928.000000	99.664680
1927.000000	99.664209
1926.000000	99.663391
1925.000000	99.662624
1924.000000	99.662243
1923.000000	99.662327
1922.000000	99.662848
1921.000000	99.663631
1920.000000	99.664311
1919.000000	99.664485
1918.000000	99.664033
1917.000000	99.663091
1916.000000	99.661693
1915.000000	99.659952
1914.000000	99.658311
1913.000000	99.657141
1912.000000	99.656394
1911.000000	99.655878
1910.000000	99.655676
1909.000000	99.655964
1908.000000	99.656418
1907.000000	99.656483
1906.000000	99.656144
1905.000000	99.655790
1904.000000	99.655566
1903.000000	99.655054
1902.000000	99.653991
1901.000000	99.652763
1900.000000	99.651851
1899.000000	99.651230
1898.000000	99.650640
1897.000000	99.650066
1896.000000	99.649713
1895.000000	99.649562
1894.000000	99.649375
1893.000000	99.649089
1892.000000	99.648898
1891.000000	99.648894
1890.000000	99.648847
1889.000000	99.648415
1888.000000	99.647461
1887.000000	99.646180
1886.000000	99.644981
1885.000000	99.644179
1884.000000	99.643834
1883.000000	99.643783
1882.000000	99.643842
1881.000000	99.643975
1880.000000	99.644230
1879.000000	99.644662
1878.000000	99.645224
1877.000000	99.645597
1876.000000	99.645355
1875.000000	99.644377
1874.000000	99.643029
1873.000000	99.641928
1872.000000	99.641462
1871.000000	99.641674
1870.000000	99.642495
1869.000000	99.643734
1868.000000	99.644822
1867.000000	99.645154
1866.000000	99.644849
1865.000000	99.644565
1864.000000	99.644621
1863.000000	99.644774
1862.000000	99.644822
1861.000000	99.645015
1860.000000	99.645626
1859.000000	99.646467
1858.000000	99.647166
1857.000000	99.647633
1856.000000	99.647949
1855.000000	99.648077
1854.000000	99.648030
1853.000000	99.648085
1852.000000	99.648420
1851.000000	99.648826
1850.000000	99.649233
1849.000000	99.649891
1848.000000	99.651009
1847.000000	99.652300
1846.000000	99.653221
1845.000000	99.653593
1844.000000	99.653906
1843.000000	99.654613
1842.000000	99.655559
1841.000000	99.656631
1840.000000	99.657797
1839.000000	99.658904
1838.000000	99.659841
1837.000000	99.660505
1836.000000	99.660765
1835.000000	99.660490
1834.000000	99.659809
1833.000000	99.659028
1832.000000	99.658231
1831.000000	99.657489
1830.000000	99.657572
1829.000000	99.659058
1828.000000	99.661104
1827.000000	99.662522
1826.000000	99.663139
1825.000000	99.663692
1824.000000	99.664767
1823.000000	99.665787
1822.000000	99.666139
1821.000000	99.666216
1820.000000	99.666726
1819.000000	99.667987
1818.000000	99.669883
1817.000000	99.672308
1816.000000	99.675062
1815.000000	99.676719
1814.000000	99.675572
1813.000000	99.671681
1812.000000	99.667508
1811.000000	99.666294
1810.000000	99.668667
1809.000000	99.672522
1808.000000	99.675233
1807.000000	99.675279
1806.000000	99.673459
1805.000000	99.672642
1804.000000	99.675071
1803.000000	99.679841
1802.000000	99.684374
1801.000000	99.687480
1800.000000	99.689184
1799.000000	99.689545
1798.000000	99.688545
1797.000000	99.687596
1796.000000	99.688157
1795.000000	99.689712
1794.000000	99.690617
1793.000000	99.690762
1792.000000	99.692101
1791.000000	99.695284
1790.000000	99.698225
1789.000000	99.700259
1788.000000	99.702038
1787.000000	99.703822
1786.000000	99.706332
1785.000000	99.711049
1784.000000	99.717368
1783.000000	99.721941
1782.000000	99.723897
1781.000000	99.726663
1780.000000	99.732577
1779.000000	99.740020
1778.000000	99.745651
1777.000000	99.749472
1776.000000	99.753340
1775.000000	99.757810
1774.000000	99.762352
1773.000000	99.766740
1772.000000	99.771441
1771.000000	99.775752
1770.000000	99.779762
1769.000000	99.787526
1768.000000	99.802949
1767.000000	99.824026
1766.000000	99.844090
1765.000000	99.859255
1764.000000	99.870572
1763.000000	99.881397
1762.000000	99.895727
1761.000000	99.914601
1760.000000	99.933967
1759.000000	99.950625
1758.000000	99.965469
1757.000000	99.983270
1756.000000	100.006970
1755.000000	100.034119
1754.000000	100.061810
1753.000000	100.090019
1752.000000	100.119569
1751.000000	100.150706
1750.000000	100.181676
1749.000000	100.209944
1748.000000	100.235494
1747.000000	100.258530
1746.000000	100.278634
1745.000000	100.294164
1744.000000	100.302530
1743.000000	100.302416
1742.000000	100.293869
1741.000000	100.277661
1740.000000	100.255671
1739.000000	100.231329
1738.000000	100.206500
1737.000000	100.180191
1736.000000	100.147731
1735.000000	100.104104
1734.000000	100.058950
1733.000000	100.027393
1732.000000	100.005054
1731.000000	99.984734
1730.000000	99.964685
1729.000000	99.945178
1728.000000	99.927170
1727.000000	99.911441
1726.000000	99.898829
1725.000000	99.888937
1724.000000	99.880590
1723.000000	99.873207
1722.000000	99.866272
1721.000000	99.860350
1720.000000	99.855696
1719.000000	99.850432
1718.000000	99.843315
1717.000000	99.837270
1716.000000	99.834471
1715.000000	99.833366
1714.000000	99.831676
1713.000000	99.828400
1712.000000	99.824701
1711.000000	99.822027
1710.000000	99.820881
1709.000000	99.821121
1708.000000	99.821846
1707.000000	99.822284
1706.000000	99.823347
1705.000000	99.827092
1704.000000	99.833256
1703.000000	99.839183
1702.000000	99.841565
1701.000000	99.838297
1700.000000	99.836487
1699.000000	99.838785
1698.000000	99.839244
1697.000000	99.839157
1696.000000	99.840411
1695.000000	99.842497
1694.000000	99.842052
1693.000000	99.840456
1692.000000	99.841767
1691.000000	99.845568
1690.000000	99.849419
1689.000000	99.852259
1688.000000	99.853496
1687.000000	99.852608
1686.000000	99.848529
1685.000000	99.842060
1684.000000	99.842611
1683.000000	99.851220
1682.000000	99.857766
1681.000000	99.862347
1680.000000	99.867612
1679.000000	99.873818
1678.000000	99.880468
1677.000000	99.886174
1676.000000	99.889460
1675.000000	99.891832
1674.000000	99.895666
1673.000000	99.900302
1672.000000	99.904203
1671.000000	99.906315
1670.000000	99.907122
1669.000000	99.908744
1668.000000	99.910979
1667.000000	99.912951
1666.000000	99.915299
1665.000000	99.918441
1664.000000	99.922003
1663.000000	99.925664
1662.000000	99.929247
1661.000000	99.932042
1660.000000	99.933257
1659.000000	99.933344
1658.000000	99.933708
1657.000000	99.935438
1656.000000	99.938289
1655.000000	99.940810
1654.000000	99.941817
1653.000000	99.943926
1652.000000	99.947257
1651.000000	99.947999
1650.000000	99.948142
1649.000000	99.949342
1648.000000	99.951023
1647.000000	99.952845
1646.000000	99.954867
1645.000000	99.956497
1644.000000	99.957732
1643.000000	99.958954
1642.000000	99.960142
1641.000000	99.961412
1640.000000	99.963133
1639.000000	99.965501
1638.000000	99.967829
1637.000000	99.968717
1636.000000	99.968059
1635.000000	99.968103
1634.000000	99.969640
1633.000000	99.971468
1632.000000	99.973386
1631.000000	99.975387
1630.000000	99.977254
1629.000000	99.978533
1628.000000	99.978822
1627.000000	99.978498
1626.000000	99.978816
1625.000000	99.980592
1624.000000	99.982970
1623.000000	99.984445
1622.000000	99.984455
1621.000000	99.983745
1620.000000	99.983452
1619.000000	99.984156
1618.000000	99.985466
1617.000000	99.987131
1616.000000	99.988997
1615.000000	99.990024
1614.000000	99.990617
1613.000000	99.991892
1612.000000	99.993277
1611.000000	99.993841
1610.000000	99.994443
1609.000000	99.996753
1608.000000	100.001009
1607.000000	100.006227
1606.000000	100.011629
1605.000000	100.016663
1604.000000	100.020675
1603.000000	100.024399
1602.000000	100.029170
1601.000000	100.034186
1600.000000	100.036873
1599.000000	100.036167
1598.000000	100.034053
1597.000000	100.032993
1596.000000	100.033182
1595.000000	100.033384
1594.000000	100.033307
1593.000000	100.033851
1592.000000	100.035344
1591.000000	100.036984
1590.000000	100.037838
1589.000000	100.037591
1588.000000	100.036438
1587.000000	100.034984
1586.000000	100.034064
1585.000000	100.034315
1584.000000	100.035585
1583.000000	100.037409
1582.000000	100.039640
1581.000000	100.041491
1580.000000	100.042057
1579.000000	100.041899
1578.000000	100.042718
1577.000000	100.044781
1576.000000	100.046620
1575.000000	100.046321
1574.000000	100.044113
1573.000000	100.042243
1572.000000	100.040486
1571.000000	100.036609
1570.000000	100.031294
1569.000000	100.028328
1568.000000	100.027775
1567.000000	100.027315
1566.000000	100.026714
1565.000000	100.026468
1564.000000	100.026571
1563.000000	100.026942
1562.000000	100.027649
1561.000000	100.027099
1560.000000	100.021501
1559.000000	100.018489
1558.000000	100.026156
1557.000000	100.031557
1556.000000	100.032174
1555.000000	100.031478
1554.000000	100.029072
1553.000000	100.024776
1552.000000	100.020248
1551.000000	100.018957
1550.000000	100.022037
1549.000000	100.027105
1548.000000	100.031053
1547.000000	100.033066
1546.000000	100.033899
1545.000000	100.033482
1544.000000	100.031920
1543.000000	100.030384
1542.000000	100.029905
1541.000000	100.029241
1540.000000	100.026710
1539.000000	100.020201
1538.000000	100.008167
1537.000000	99.993681
1536.000000	99.979721
1535.000000	99.965509
1534.000000	99.952984
1533.000000	99.947085
1532.000000	99.945490
1531.000000	99.941771
1530.000000	99.934382
1529.000000	99.925739
1528.000000	99.918606
1527.000000	99.913661
1526.000000	99.910143
1525.000000	99.907065
1524.000000	99.903360
1523.000000	99.897850
1522.000000	99.890799
1521.000000	99.886299
1520.000000	99.884938
1519.000000	99.883043
1518.000000	99.879973
1517.000000	99.876154
1516.000000	99.872145
1515.000000	99.867803
1514.000000	99.863602
1513.000000	99.860907
1512.000000	99.860047
1511.000000	99.860940
1510.000000	99.862165
1509.000000	99.860880
1508.000000	99.852700
1507.000000	99.841494
1506.000000	99.837619
1505.000000	99.838478
1504.000000	99.839505
1503.000000	99.842722
1502.000000	99.848471
1501.000000	99.855224
1500.000000	99.860838
1499.000000	99.863456
1498.000000	99.862836
1497.000000	99.860882
1496.000000	99.860200
1495.000000	99.860158
1494.000000	99.859674
1493.000000	99.860747
1492.000000	99.864634
1491.000000	99.870107
1490.000000	99.875725
1489.000000	99.880876
1488.000000	99.885029
1487.000000	99.888100
1486.000000	99.890545
1485.000000	99.893846
1484.000000	99.898088
1483.000000	99.902682
1482.000000	99.908848
1481.000000	99.917862
1480.000000	99.929088
1479.000000	99.940681
1478.000000	99.952952
1477.000000	99.967709
1476.000000	99.985376
1475.000000	100.003984
1474.000000	100.024441
1473.000000	100.053775
1472.000000	100.095386
1471.000000	100.140992
1470.000000	100.181667
1469.000000	100.216071
1468.000000	100.243973
1467.000000	100.263506
1466.000000	100.273633
1465.000000	100.276951
1464.000000	100.277594
1463.000000	100.278214
1462.000000	100.279701
1461.000000	100.281717
1460.000000	100.282565
1459.000000	100.280183
1458.000000	100.274882
1457.000000	100.271119
1456.000000	100.268745
1455.000000	100.261518
1454.000000	100.250572
1453.000000	100.238589
1452.000000	100.225409
1451.000000	100.212465
1450.000000	100.202841
1449.000000	100.198791
1448.000000	100.199943
1447.000000	100.202698
1446.000000	100.203385
1445.000000	100.201518
1444.000000	100.198573
1443.000000	100.196897
1442.000000	100.197134
1441.000000	100.198320
1440.000000	100.199321
1439.000000	100.199820
1438.000000	100.198682
1437.000000	100.194898
1436.000000	100.189305
1435.000000	100.181503
1434.000000	100.171460
1433.000000	100.160966
1432.000000	100.152014
1431.000000	100.146581
1430.000000	100.145245
1429.000000	100.145677
1428.000000	100.145370
1427.000000	100.143591
1426.000000	100.141483
1425.000000	100.140628
1424.000000	100.142240
1423.000000	100.147307
1422.000000	100.155024
1421.000000	100.162969
1420.000000	100.167730
1419.000000	100.167533
1418.000000	100.162791
1417.000000	100.154876
1416.000000	100.146882
1415.000000	100.141379
1414.000000	100.138909
1413.000000	100.138836
1412.000000	100.140396
1411.000000	100.142706
1410.000000	100.144122
1409.000000	100.143574
1408.000000	100.142950
1407.000000	100.145465
1406.000000	100.151318
1405.000000	100.155790
1404.000000	100.153472
1403.000000	100.145043
1402.000000	100.136182
1401.000000	100.131075
1400.000000	100.129382
1399.000000	100.128471
1398.000000	100.126996
1397.000000	100.126288
1396.000000	100.128515
1395.000000	100.133546
1394.000000	100.138795
1393.000000	100.142141
1392.000000	100.144586
1391.000000	100.148527
1390.000000	100.154353
1389.000000	100.160890
1388.000000	100.167835
1387.000000	100.175913
1386.000000	100.184422
1385.000000	100.191582
1384.000000	100.196966
1383.000000	100.201642
1382.000000	100.206592
1381.000000	100.212176
1380.000000	100.218405
1379.000000	100.224510
1378.000000	100.228614
1377.000000	100.228624
1376.000000	100.223979
1375.000000	100.216535
1374.000000	100.209695
1373.000000	100.205311
1372.000000	100.202922
1371.000000	100.202200
1370.000000	100.203698
1369.000000	100.207206
1368.000000	100.210691
1367.000000	100.212021
1366.000000	100.210580
1365.000000	100.207182
1364.000000	100.203389
1363.000000	100.201273
1362.000000	100.201885
1361.000000	100.203640
1360.000000	100.204107
1359.000000	100.202823
1358.000000	100.201420
1357.000000	100.201618
1356.000000	100.203364
1355.000000	100.204943
1354.000000	100.204736
1353.000000	100.202777
1352.000000	100.200791
1351.000000	100.200419
1350.000000	100.201826
1349.000000	100.203726
1348.000000	100.204574
1347.000000	100.204179
1346.000000	100.203337
1345.000000	100.202536
1344.000000	100.201542
1343.000000	100.200394
1342.000000	100.199936
1341.000000	100.201027
1340.000000	100.203461
1339.000000	100.205883
1338.000000	100.206896
1337.000000	100.206336
1336.000000	100.205297
1335.000000	100.204922
1334.000000	100.205249
1333.000000	100.205251
1332.000000	100.204157
1331.000000	100.202597
1330.000000	100.202037
1329.000000	100.203186
1328.000000	100.205630
1327.000000	100.208768
1326.000000	100.212291
1325.000000	100.215659
1324.000000	100.218013
1323.000000	100.219151
1322.000000	100.219719
1321.000000	100.220255
1320.000000	100.220838
1319.000000	100.222014
1318.000000	100.224907
1317.000000	100.229620
1316.000000	100.234339
1315.000000	100.236928
1314.000000	100.236951
1313.000000	100.235673
1312.000000	100.234559
1311.000000	100.234251
1310.000000	100.234680
1309.000000	100.235317
1308.000000	100.235526
1307.000000	100.235329
1306.000000	100.235706
1305.000000	100.237395
1304.000000	100.239538
1303.000000	100.240351
1302.000000	100.239081
1301.000000	100.236672
1300.000000	100.234502
1299.000000	100.233092
1298.000000	100.232249
1297.000000	100.231814
1296.000000	100.231844
1295.000000	100.232480
1294.000000	100.233990
1293.000000	100.236535
1292.000000	100.239561
1291.000000	100.241761
1290.000000	100.242284
1289.000000	100.241860
1288.000000	100.242201
1287.000000	100.244249
1286.000000	100.247324
1285.000000	100.249983
1284.000000	100.251396
1283.000000	100.251789
1282.000000	100.252071
1281.000000	100.253193
1280.000000	100.255392
1279.000000	100.257746
1278.000000	100.258829
1277.000000	100.258267
1276.000000	100.257395
1275.000000	100.257850
1274.000000	100.259614
1273.000000	100.261077
1272.000000	100.261137
1271.000000	100.260684
1270.000000	100.261627
1269.000000	100.264890
1268.000000	100.269768
1267.000000	100.274818
1266.000000	100.278701
1265.000000	100.280372
1264.000000	100.279365
1263.000000	100.276409
1262.000000	100.273318
1261.000000	100.271610
1260.000000	100.271286
1259.000000	100.271337
1258.000000	100.271263
1257.000000	100.271525
1256.000000	100.272403
1255.000000	100.273012
1254.000000	100.272232
1253.000000	100.270529
1252.000000	100.269925
1251.000000	100.271522
1250.000000	100.273749
1249.000000	100.274202
1248.000000	100.273014
1247.000000	100.272980
1246.000000	100.275660
1245.000000	100.278467
1244.000000	100.276998
1243.000000	100.269858
1242.000000	100.260200
1241.000000	100.252613
1240.000000	100.249119
1239.000000	100.248420
1238.000000	100.248029
1237.000000	100.246558
1236.000000	100.244344
1235.000000	100.242559
1234.000000	100.241997
1233.000000	100.242503
1232.000000	100.243122
1231.000000	100.242487
1230.000000	100.239384
1229.000000	100.233689
1228.000000	100.226989
1227.000000	100.221714
1226.000000	100.219179
1225.000000	100.218678
1224.000000	100.218550
1223.000000	100.217496
1222.000000	100.214670
1221.000000	100.209451
1220.000000	100.202108
1219.000000	100.194335
1218.000000	100.188112
1217.000000	100.183696
1216.000000	100.179181
1215.000000	100.172199
1214.000000	100.161945
1213.000000	100.149646
1212.000000	100.137355
1211.000000	100.126160
1210.000000	100.115443
1209.000000	100.104047
1208.000000	100.091971
1207.000000	100.080443
1206.000000	100.070391
1205.000000	100.061511
1204.000000	100.052821
1203.000000	100.043446
1202.000000	100.032898
1201.000000	100.021418
1200.000000	100.010060
1199.000000	99.999459
1198.000000	99.988545
1197.000000	99.975788
1196.000000	99.961860
1195.000000	99.949534
1194.000000	99.940459
1193.000000	99.933407
1192.000000	99.926346
1191.000000	99.918817
1190.000000	99.911152
1189.000000	99.902483
1188.000000	99.891017
1187.000000	99.876032
1186.000000	99.858799
1185.000000	99.841653
1184.000000	99.826507
1183.000000	99.813864
1182.000000	99.802728
1181.000000	99.791691
1180.000000	99.780026
1179.000000	99.767272
1178.000000	99.752506
1177.000000	99.735530
1176.000000	99.718430
1175.000000	99.703874
1174.000000	99.691397
1173.000000	99.677467
1172.000000	99.660134
1171.000000	99.641635
1170.000000	99.625195
1169.000000	99.611313
1168.000000	99.598888
1167.000000	99.588125
1166.000000	99.580070
1165.000000	99.574395
1164.000000	99.569965
1163.000000	99.567115
1162.000000	99.567530
1161.000000	99.571930
1160.000000	99.578759
1159.000000	99.584434
1158.000000	99.584317
1157.000000	99.575051
1156.000000	99.557787
1155.000000	99.538536
1154.000000	99.523136
1153.000000	99.511802
1152.000000	99.500309
1151.000000	99.485583
1150.000000	99.468137
1149.000000	99.449949
1148.000000	99.432637
1147.000000	99.417683
1146.000000	99.405608
1145.000000	99.393895
1144.000000	99.377883
1143.000000	99.355395
1142.000000	99.329858
1141.000000	99.307790
1140.000000	99.293437
1139.000000	99.286186
1138.000000	99.281901
1137.000000	99.275941
1136.000000	99.265641
1135.000000	99.251134
1134.000000	99.234692
1133.000000	99.219236
1132.000000	99.206812
1131.000000	99.197726
1130.000000	99.190828
1129.000000	99.184805
1128.000000	99.179063
1127.000000	99.173098
1126.000000	99.165957
1125.000000	99.157509
1124.000000	99.149643
1123.000000	99.144533
1122.000000	99.141638
1121.000000	99.137927
1120.000000	99.131375
1119.000000	99.122639
1118.000000	99.113057
1117.000000	99.103039
1116.000000	99.093368
1115.000000	99.085967
1114.000000	99.081589
1113.000000	99.078091
1112.000000	99.072748
1111.000000	99.065235
1110.000000	99.056845
1109.000000	99.047944
1108.000000	99.038204
1107.000000	99.028516
1106.000000	99.020506
1105.000000	99.014466
1104.000000	99.009253
1103.000000	99.003792
1102.000000	98.997450
1101.000000	98.989744
1100.000000	98.981249
1099.000000	98.973932
1098.000000	98.969038
1097.000000	98.965313
1096.000000	98.960602
1095.000000	98.954567
1094.000000	98.948234
1093.000000	98.941413
1092.000000	98.932196
1091.000000	98.919394
1090.000000	98.904872
1089.000000	98.893193
1088.000000	98.888322
1087.000000	98.889338
1086.000000	98.889680
1085.000000	98.882972
1084.000000	98.870029
1083.000000	98.858015
1082.000000	98.851902
1081.000000	98.849178
1080.000000	98.844361
1079.000000	98.835693
1078.000000	98.825129
1077.000000	98.814444
1076.000000	98.804522
1075.000000	98.796774
1074.000000	98.791733
1073.000000	98.786750
1072.000000	98.777804
1071.000000	98.763266
1070.000000	98.743872
1069.000000	98.719753
1068.000000	98.690079
1067.000000	98.655602
1066.000000	98.619244
1065.000000	98.583703
1064.000000	98.550092
1063.000000	98.518991
1062.000000	98.491044
1061.000000	98.466080
1060.000000	98.442868
1059.000000	98.420244
1058.000000	98.398053
1057.000000	98.376754
1056.000000	98.356037
1055.000000	98.333943
1054.000000	98.308565
1053.000000	98.281896
1052.000000	98.260422
1051.000000	98.248430
1050.000000	98.240930
1049.000000	98.227509
1048.000000	98.203857
1047.000000	98.174966
1046.000000	98.146603
1045.000000	98.118679
1044.000000	98.088659
1043.000000	98.056706
1042.000000	98.024435
1041.000000	97.992007
1040.000000	97.960051
1039.000000	97.932030
1038.000000	97.910915
1037.000000	97.895006
1036.000000	97.880127
1035.000000	97.864733
1034.000000	97.849963
1033.000000	97.835977
1032.000000	97.821606
1031.000000	97.807072
1030.000000	97.794029
1029.000000	97.782920
1028.000000	97.772812
1027.000000	97.764035
1026.000000	97.758812
1025.000000	97.758655
1024.000000	97.762336
1023.000000	97.766462
1022.000000	97.767256
1021.000000	97.762168
1020.000000	97.751034
1019.000000	97.736000
1018.000000	97.719794
1017.000000	97.704014
1016.000000	97.689043
1015.000000	97.674452
1014.000000	97.658583
1013.000000	97.638846
1012.000000	97.614077
1011.000000	97.586712
1010.000000	97.561718
1009.000000	97.542910
1008.000000	97.530231
1007.000000	97.520350
1006.000000	97.510089
1005.000000	97.499475
1004.000000	97.490759
1003.000000	97.484079
1002.000000	97.475709
1001.000000	97.462238
1000.000000	97.445268
999.000000	97.429847
998.000000	97.419352
997.000000	97.414341
996.000000	97.415081
995.000000	97.421383
994.000000	97.429927
993.000000	97.435485
992.000000	97.435840
991.000000	97.432830
990.000000	97.428074
989.000000	97.420684
988.000000	97.410161
987.000000	97.398905
986.000000	97.390765
985.000000	97.389124
984.000000	97.396326
983.000000	97.411601
982.000000	97.428764
981.000000	97.439595
980.000000	97.441489
979.000000	97.439629
978.000000	97.440911
977.000000	97.448442
976.000000	97.462309
975.000000	97.481601
974.000000	97.503801
973.000000	97.525597
972.000000	97.546542
971.000000	97.569454
970.000000	97.595489
969.000000	97.621490
968.000000	97.644107
967.000000	97.663985
966.000000	97.683860
965.000000	97.704870
964.000000	97.726916
963.000000	97.750475
962.000000	97.775687
961.000000	97.801148
960.000000	97.825496
959.000000	97.848803
958.000000	97.870965
957.000000	97.890463
956.000000	97.906249
955.000000	97.919236
954.000000	97.930694
953.000000	97.941114
952.000000	97.951967
951.000000	97.965953
950.000000	97.983199
949.000000	97.999515
948.000000	98.011122
947.000000	98.019500
946.000000	98.029228
945.000000	98.042249
944.000000	98.056607
943.000000	98.069516
942.000000	98.079221
941.000000	98.085194
940.000000	98.089402
939.000000	98.096523
938.000000	98.109789
937.000000	98.126489
936.000000	98.140138
935.000000	98.147676
934.000000	98.152625
933.000000	98.160471
932.000000	98.172380
931.000000	98.184508
930.000000	98.192759
929.000000	98.197407
928.000000	98.202959
927.000000	98.213525
926.000000	98.228527
925.000000	98.243513
924.000000	98.255147
923.000000	98.264499
922.000000	98.275235
921.000000	98.289631
920.000000	98.306768
919.000000	98.323396
918.000000	98.335938
917.000000	98.342859
916.000000	98.345959
915.000000	98.348761
914.000000	98.353265
913.000000	98.359056
912.000000	98.365386
911.000000	98.372504
910.000000	98.381082
909.000000	98.392692
908.000000	98.410992
907.000000	98.439144
906.000000	98.474672
905.000000	98.509586
904.000000	98.537836
903.000000	98.560182
902.000000	98.579953
901.000000	98.597853
900.000000	98.614288
899.000000	98.633523
898.000000	98.660083
897.000000	98.691710
896.000000	98.720639
895.000000	98.742796
894.000000	98.762046
893.000000	98.784182
892.000000	98.810091
891.000000	98.836715
890.000000	98.862157
889.000000	98.887317
888.000000	98.913424
887.000000	98.939760
886.000000	98.963830
885.000000	98.983294
884.000000	98.998130
883.000000	99.010953
882.000000	99.024590
881.000000	99.039927
880.000000	99.057348
879.000000	99.078902
878.000000	99.105928
877.000000	99.134908
876.000000	99.159458
875.000000	99.177410
874.000000	99.192655
873.000000	99.209017
872.000000	99.226150
871.000000	99.243336
870.000000	99.262882
869.000000	99.286346
868.000000	99.310960
867.000000	99.333813
866.000000	99.356778
865.000000	99.382521
864.000000	99.407825
863.000000	99.427049
862.000000	99.441959
861.000000	99.461713
860.000000	99.490766
859.000000	99.522124
858.000000	99.546265
857.000000	99.562407
856.000000	99.576484
855.000000	99.591126
854.000000	99.603059
853.000000	99.609901
852.000000	99.614656
851.000000	99.621933
850.000000	99.632707
849.000000	99.644864
848.000000	99.657206
847.000000	99.670861
846.000000	99.687132
845.000000	99.705523
844.000000	99.724489
843.000000	99.743384
842.000000	99.762332
841.000000	99.779577
840.000000	99.790305
839.000000	99.790343
838.000000	99.781187
837.000000	99.769290
836.000000	99.759686
835.000000	99.752403
834.000000	99.746156
833.000000	99.742827
832.000000	99.745525
831.000000	99.753283
830.000000	99.760536
829.000000	99.762211
828.000000	99.757910
827.000000	99.751601
826.000000	99.748959
825.000000	99.753810
824.000000	99.763994
823.000000	99.771270
822.000000	99.769272
821.000000	99.761989
820.000000	99.760990
819.000000	99.773108
818.000000	99.792605
817.000000	99.806004
816.000000	99.803269
815.000000	99.784670
814.000000	99.759204
813.000000	99.736473
812.000000	99.718049
811.000000	99.695989
810.000000	99.660668
809.000000	99.609522
808.000000	99.546353
807.000000	99.473425
806.000000	99.388772
805.000000	99.292803
804.000000	99.193516
803.000000	99.101755
802.000000	99.023744
801.000000	98.961467
800.000000	98.917048
799.000000	98.891041
798.000000	98.877928
797.000000	98.869831
796.000000	98.865383
795.000000	98.869418
794.000000	98.882659
793.000000	98.896804
792.000000	98.902126
791.000000	98.896573
790.000000	98.885530
789.000000	98.875166
788.000000	98.867508
787.000000	98.859833
786.000000	98.847674
785.000000	98.829910
784.000000	98.810526
783.000000	98.793114
782.000000	98.774828
781.000000	98.750035
780.000000	98.719954
779.000000	98.693827
778.000000	98.679123
777.000000	98.675170
776.000000	98.678165
775.000000	98.687777
774.000000	98.705681
773.000000	98.730681
772.000000	98.758311
771.000000	98.783647
770.000000	98.803338
769.000000	98.817730
768.000000	98.832321
767.000000	98.853492
766.000000	98.880548
765.000000	98.905229
764.000000	98.921610
763.000000	98.933087
762.000000	98.946255
761.000000	98.960924
760.000000	98.970456
759.000000	98.970773
758.000000	98.965754
757.000000	98.964427
756.000000	98.975095
755.000000	99.000573
754.000000	99.035633
753.000000	99.069515
752.000000	99.093977
751.000000	99.109264
750.000000	99.121415
749.000000	99.135394
748.000000	99.152673
747.000000	99.173305
746.000000	99.196538
745.000000	99.219576
744.000000	99.239018
743.000000	99.254461
742.000000	99.268876
741.000000	99.285020
740.000000	99.303227
739.000000	99.323018
738.000000	99.345047
737.000000	99.370439
736.000000	99.398961
735.000000	99.428526
734.000000	99.456447
733.000000	99.481182
732.000000	99.503020
731.000000	99.522997
730.000000	99.541267
729.000000	99.557111
728.000000	99.570278
727.000000	99.580934
726.000000	99.588491
725.000000	99.592803
724.000000	99.597335
723.000000	99.608344
722.000000	99.628322
721.000000	99.652052
720.000000	99.671334
719.000000	99.682161
718.000000	99.685491
717.000000	99.683550
716.000000	99.678995
715.000000	99.676487
714.000000	99.681232
713.000000	99.695352
712.000000	99.717203
711.000000	99.743153
710.000000	99.768093
709.000000	99.785832
708.000000	99.792498
707.000000	99.789629
706.000000	99.781880
705.000000	99.772479
704.000000	99.762709
703.000000	99.753388
702.000000	99.743269
701.000000	99.727193
700.000000	99.699847
699.000000	99.662025
698.000000	99.620170
697.000000	99.579661
696.000000	99.541925
695.000000	99.508243
694.000000	99.483279
693.000000	99.472526
692.000000	99.477078
691.000000	99.492013
690.000000	99.509853
689.000000	99.527983
688.000000	99.552851
687.000000	99.592421
686.000000	99.642473
685.000000	99.684850
684.000000	99.705032
683.000000	99.709345
682.000000	99.718410
681.000000	99.743707
680.000000	99.776277
679.000000	99.800155
678.000000	99.811206
677.000000	99.817310
676.000000	99.826246
675.000000	99.841077
674.000000	99.861908
673.000000	99.885560
672.000000	99.905591
671.000000	99.915850
670.000000	99.913290
669.000000	99.898271
668.000000	99.878409
667.000000	99.867918
666.000000	99.873043
665.000000	99.887100
664.000000	99.902808
663.000000	99.918076
662.000000	99.933924
661.000000	99.950622
660.000000	99.965988
659.000000	99.977744
658.000000	99.986080
657.000000	99.993075
656.000000	99.999767
655.000000	100.005760
654.000000	100.010966
653.000000	100.016964
652.000000	100.026289
651.000000	100.039612
650.000000	100.053883
