4000.000000	99.999983
3999.000000	99.998258
3998.000000	99.995839
3997.000000	99.993316
3996.000000	99.991802
3995.000000	99.991990
3994.000000	99.993820
3993.000000	99.996383
3992.000000	99.998297
3991.000000	99.998855
3990.000000	99.998217
3989.000000	99.997142
3988.000000	99.996463
3987.000000	99.996536
3986.000000	99.997251
3985.000000	99.998287
3984.000000	99.999255
3983.000000	99.999737
3982.000000	99.999413
3981.000000	99.998276
3980.000000	99.996649
3979.000000	99.994957
3978.000000	99.993526
3977.000000	99.992615
3976.000000	99.992460
3975.000000	99.993076
3974.000000	99.994032
3973.000000	99.994622
3972.000000	99.994377
3971.000000	99.993384
3970.000000	99.992055
3969.000000	99.990696
3968.000000	99.989433
3967.000000	99.988378
3966.000000	99.987615
3965.000000	99.987029
3964.000000	99.986300
3963.000000	99.985185
3962.000000	99.983796
3961.000000	99.982535
3960.000000	99.981779
3959.000000	99.981668
3958.000000	99.982111
3957.000000	99.982820
3956.000000	99.983305
3955.000000	99.983040
3954.000000	99.981827
3953.000000	99.980007
3952.000000	99.978299
3951.000000	99.977299
3950.000000	99.977137
3949.000000	99.977583
3948.000000	99.978316
3947.000000	99.979070
3946.000000	99.979652
3945.000000	99.979895
3944.000000	99.979696
3943.000000	99.979110
3942.000000	99.978335
3941.000000	99.977590
3940.000000	99.977042
3939.000000	99.976775
3938.000000	99.976807
3937.000000	99.977104
3936.000000	99.977567
3935.000000	99.977995
3934.000000	99.978127
3933.000000	99.977822
3932.000000	99.977179
3931.000000	99.976497
3930.000000	99.976035
3929.000000	99.975844
3928.000000	99.975835
3927.000000	99.975852
3926.000000	99.975749
3925.000000	99.975466
3924.000000	99.975060
3923.000000	99.974659
3922.000000	99.974366
3921.000000	99.974207
3920.000000	99.974147
3919.000000	99.974139
3918.000000	99.974155
3917.000000	99.974163
3916.000000	99.974126
3915.000000	99.974020
3914.000000	99.973875
3913.000000	99.973763
3912.000000	99.973741
3911.000000	99.973798
3910.000000	99.973868
3909.000000	99.973881
3908.000000	99.973805
3907.000000	99.973644
3906.000000	99.973414
3905.000000	99.973134
3904.000000	99.972838
3903.000000	99.972588
3902.000000	99.972444
3901.000000	99.972423
3900.000000	99.972493
3899.000000	99.972564
3898.000000	99.972547
3897.000000	99.972404
3896.000000	99.972154
3895.000000	99.971850
3894.000000	99.971546
3893.000000	99.971285
3892.000000	99.971096
3891.000000	99.970971
3890.000000	99.970847
3889.000000	99.970665
3888.000000	99.970414
3887.000000	99.970148
3886.000000	99.969955
3885.000000	99.969891
3884.000000	99.969947
3883.000000	99.970088
3882.000000	99.970264
3881.000000	99.970387
3880.000000	99.970338
3879.000000	99.970020
3878.000000	99.969435
3877.000000	99.968716
3876.000000	99.968056
3875.000000	99.967603
3874.000000	99.967396
3873.000000	99.967347
3872.000000	99.967280
3871.000000	99.967001
3870.000000	99.966417
3869.000000	99.965645
3868.000000	99.965016
3867.000000	99.964884
3866.000000	99.965354
3865.000000	99.966077
3864.000000	99.966483
3863.000000	99.966340
3862.000000	99.965908
3861.000000	99.965514
3860.000000	99.965188
3859.000000	99.964745
3858.000000	99.964102
3857.000000	99.963418
3856.000000	99.962845
3855.000000	99.962183
3854.000000	99.960973
3853.000000	99.959431
3852.000000	99.958496
3851.000000	99.958689
3850.000000	99.959767
3849.000000	99.960913
3848.000000	99.961308
3847.000000	99.960725
3846.000000	99.959603
3845.000000	99.958560
3844.000000	99.957755
3843.000000	99.956783
3842.000000	99.955190
3841.000000	99.953040
3840.000000	99.951039
3839.000000	99.950072
3838.000000	99.950547
3837.000000	99.952211
3836.000000	99.954576
3835.000000	99.957275
3834.000000	99.959804
3833.000000	99.961333
3832.000000	99.961232
3831.000000	99.959741
3830.000000	99.957999
3829.000000	99.957221
3828.000000	99.957757
3827.000000	99.958962
3826.000000	99.959941
3825.000000	99.960462
3824.000000	99.960949
3823.000000	99.961651
3822.000000	99.962026
3821.000000	99.961381
3820.000000	99.959938
3819.000000	99.958709
3818.000000	99.958591
3817.000000	99.959660
3816.000000	99.961022
3815.000000	99.961686
3814.000000	99.961652
3813.000000	99.961798
3812.000000	99.962914
3811.000000	99.965125
3810.000000	99.967962
3809.000000	99.970588
3808.000000	99.972113
3807.000000	99.972126
3806.000000	99.970948
3805.000000	99.969291
3804.000000	99.967766
3803.000000	99.966675
3802.000000	99.966268
3801.000000	99.966700
3800.000000	99.967550
3799.000000	99.968062
3798.000000	99.967844
3797.000000	99.967138
3796.000000	99.966757
3795.000000	99.967598
3794.000000	99.969935
3793.000000	99.973158
3792.000000	99.976030
3791.000000	99.977526
3790.000000	99.977593
3789.000000	99.977032
3788.000000	99.976569
3787.000000	99.976142
3786.000000	99.975243
3785.000000	99.973763
3784.000000	99.972115
3783.000000	99.970660
3782.000000	99.969427
3781.000000	99.968330
3780.000000	99.967495
3779.000000	99.967231
3778.000000	99.967621
3777.000000	99.968393
3776.000000	99.969309
3775.000000	99.970213
3774.000000	99.970844
3773.000000	99.970922
3772.000000	99.970239
3771.000000	99.968609
3770.000000	99.965920
3769.000000	99.962394
3768.000000	99.958784
3767.000000	99.956132
3766.000000	99.955091
3765.000000	99.955538
3764.000000	99.957010
3763.000000	99.959311
3762.000000	99.962086
3761.000000	99.963984
3760.000000	99.963511
3759.000000	99.960912
3758.000000	99.958050
3757.000000	99.955936
3756.000000	99.953707
3755.000000	99.950151
3754.000000	99.945207
3753.000000	99.940302
3752.000000	99.937577
3751.000000	99.938020
3750.000000	99.940074
3749.000000	99.940993
3748.000000	99.940212
3747.000000	99.939759
3746.000000	99.941601
3745.000000	99.945655
3744.000000	99.949071
3743.000000	99.948907
3742.000000	99.946111
3741.000000	99.943655
3740.000000	99.942760
3739.000000	99.942706
3738.000000	99.942314
3737.000000	99.941149
3736.000000	99.940208
3735.000000	99.941564
3734.000000	99.946111
3733.000000	99.952158
3732.000000	99.956918
3731.000000	99.958859
3730.000000	99.958477
3729.000000	99.957172
3728.000000	99.955680
3727.000000	99.953679
3726.000000	99.950705
3725.000000	99.947208
3724.000000	99.944240
3723.000000	99.942226
3722.000000	99.940480
3721.000000	99.938148
3720.000000	99.935391
3719.000000	99.933082
3718.000000	99.931614
3717.000000	99.930541
3716.000000	99.929483
3715.000000	99.928588
3714.000000	99.927506
3713.000000	99.924442
3712.000000	99.917665
3711.000000	99.908777
3710.000000	99.902310
3709.000000	99.901012
3708.000000	99.903597
3707.000000	99.906477
3706.000000	99.906842
3705.000000	99.904434
3704.000000	99.901211
3703.000000	99.899615
3702.000000	99.900442
3701.000000	99.901968
3700.000000	99.901625
3699.000000	99.898671
3698.000000	99.894657
3697.000000	99.891445
3696.000000	99.889251
3695.000000	99.886729
3694.000000	99.882698
3693.000000	99.877347
3692.000000	99.871903
3691.000000	99.867422
3690.000000	99.863818
3689.000000	99.860287
3688.000000	99.856271
3687.000000	99.851921
3686.000000	99.847967
3685.000000	99.844860
3684.000000	99.842320
3683.000000	99.839800
3682.000000	99.836708
3681.000000	99.832158
3680.000000	99.825141
3679.000000	99.815453
3678.000000	99.804107
3677.000000	99.792884
3676.000000	99.783562
3675.000000	99.776950
3674.000000	99.772316
3673.000000	99.768952
3672.000000	99.766930
3671.000000	99.765251
3670.000000	99.761578
3669.000000	99.754907
3668.000000	99.746729
3667.000000	99.739562
3666.000000	99.735144
3665.000000	99.733307
3664.000000	99.732109
3663.000000	99.729175
3662.000000	99.723215
3661.000000	99.714491
3660.000000	99.704136
3659.000000	99.693353
3658.000000	99.683104
3657.000000	99.674286
3656.000000	99.667325
3655.000000	99.661373
3654.000000	99.654748
3653.000000	99.645855
3652.000000	99.633619
3651.000000	99.619335
3650.000000	99.608386
3649.000000	99.606096
3648.000000	99.610301
3647.000000	99.612825
3646.000000	99.608944
3645.000000	99.600571
3644.000000	99.592473
3643.000000	99.587864
3642.000000	99.586524
3641.000000	99.585558
3640.000000	99.581576
3639.000000	99.572890
3638.000000	99.560534
3637.000000	99.547893
3636.000000	99.538687
3635.000000	99.534465
3634.000000	99.533677
3633.000000	99.533346
3632.000000	99.531277
3631.000000	99.526020
3630.000000	99.516793
3629.000000	99.505567
3628.000000	99.496499
3627.000000	99.491006
3626.000000	99.488302
3625.000000	99.487699
3624.000000	99.488286
3623.000000	99.489490
3622.000000	99.491502
3621.000000	99.494480
3620.000000	99.497912
3619.000000	99.501004
3618.000000	99.502980
3617.000000	99.503523
3616.000000	99.503916
3615.000000	99.506910
3614.000000	99.514751
3613.000000	99.527198
3612.000000	99.541475
3611.000000	99.554700
3610.000000	99.566040
3609.000000	99.575872
3608.000000	99.583755
3607.000000	99.588460
3606.000000	99.589858
3605.000000	99.589540
3604.000000	99.588905
3603.000000	99.587509
3602.000000	99.584062
3601.000000	99.578851
3600.000000	99.574285
3599.000000	99.572798
3598.000000	99.575031
3597.000000	99.580368
3596.000000	99.587731
3595.000000	99.595433
3594.000000	99.601293
3593.000000	99.604291
3592.000000	99.605953
3591.000000	99.608983
3590.000000	99.614272
3589.000000	99.619869
3588.000000	99.623496
3587.000000	99.625402
3586.000000	99.626989
3585.000000	99.628362
3584.000000	99.629134
3583.000000	99.629579
3582.000000	99.630192
3581.000000	99.630799
3580.000000	99.630542
3579.000000	99.628995
3578.000000	99.627087
3577.000000	99.626487
3576.000000	99.627775
3575.000000	99.629447
3574.000000	99.629085
3573.000000	99.625703
3572.000000	99.620865
3571.000000	99.617605
3570.000000	99.617971
3569.000000	99.621308
3568.000000	99.624631
3567.000000	99.625303
3566.000000	99.623183
3565.000000	99.619770
3564.000000	99.616534
3563.000000	99.614237
3562.000000	99.613017
3561.000000	99.612725
3560.000000	99.613226
3559.000000	99.614494
3558.000000	99.616461
3557.000000	99.618649
3556.000000	99.620133
3555.000000	99.620199
3554.000000	99.619176
3553.000000	99.618350
3552.000000	99.618684
3551.000000	99.619770
3550.000000	99.620400
3549.000000	99.619916
3548.000000	99.618705
3547.000000	99.617564
3546.000000	99.616893
3545.000000	99.616583
3544.000000	99.616567
3543.000000	99.617152
3542.000000	99.618683
3541.000000	99.621047
3540.000000	99.623583
3539.000000	99.625445
3538.000000	99.626158
3537.000000	99.625857
3536.000000	99.625128
3535.000000	99.624600
3534.000000	99.624551
3533.000000	99.624894
3532.000000	99.625395
3531.000000	99.625938
3530.000000	99.626656
3529.000000	99.627787
3528.000000	99.629316
3527.000000	99.630773
3526.000000	99.631602
3525.000000	99.631759
3524.000000	99.631867
3523.000000	99.632699
3522.000000	99.634528
3521.000000	99.637035
3520.000000	99.639578
3519.000000	99.641569
3518.000000	99.642739
3517.000000	99.643207
3516.000000	99.643392
3515.000000	99.643716
3514.000000	99.644315
3513.000000	99.645085
3512.000000	99.645932
3511.000000	99.646867
3510.000000	99.647909
3509.000000	99.649006
3508.000000	99.650050
3507.000000	99.650941
3506.000000	99.651641
3505.000000	99.652223
3504.000000	99.652875
3503.000000	99.653745
3502.000000	99.654765
3501.000000	99.655703
3500.000000	99.656381
3499.000000	99.656784
3498.000000	99.657012
3497.000000	99.657230
3496.000000	99.657651
3495.000000	99.658447
3494.000000	99.659574
3493.000000	99.660790
3492.000000	99.661871
3491.000000	99.662780
3490.000000	99.663578
3489.000000	99.664233
3488.000000	99.664631
3487.000000	99.664771
3486.000000	99.664865
3485.000000	99.665150
3484.000000	99.665659
3483.000000	99.666211
3482.000000	99.666590
3481.000000	99.666695
3480.000000	99.666541
3479.000000	99.666238
3478.000000	99.665977
3477.000000	99.665924
3476.000000	99.666101
3475.000000	99.666330
3474.000000	99.666372
3473.000000	99.666128
3472.000000	99.665731
3471.000000	99.665444
3470.000000	99.665456
3469.000000	99.665789
3468.000000	99.666321
3467.000000	99.666820
3466.000000	99.667020
3465.000000	99.666744
3464.000000	99.665993
3463.000000	99.665005
3462.000000	99.664183
3461.000000	99.663830
3460.000000	99.663976
3459.000000	99.664399
3458.000000	99.664829
3457.000000	99.665180
3456.000000	99.665527
3455.000000	99.665887
3454.000000	99.666092
3453.000000	99.665919
3452.000000	99.665271
3451.000000	99.664211
3450.000000	99.662900
3449.000000	99.661705
3448.000000	99.661174
3447.000000	99.661622
3446.000000	99.662693
3445.000000	99.663554
3444.000000	99.663770
3443.000000	99.663699
3442.000000	99.663919
3441.000000	99.664451
3440.000000	99.664808
3439.000000	99.664713
3438.000000	99.664363
3437.000000	99.663950
3436.000000	99.663287
3435.000000	99.662242
3434.000000	99.661355
3433.000000	99.661605
3432.000000	99.663451
3431.000000	99.666234
3430.000000	99.668577
3429.000000	99.669462
3428.000000	99.668851
3427.000000	99.667495
3426.000000	99.666299
3425.000000	99.665764
3424.000000	99.665842
3423.000000	99.666203
3422.000000	99.666689
3421.000000	99.667630
3420.000000	99.669632
3419.000000	99.672924
3418.000000	99.676809
3417.000000	99.679852
3416.000000	99.680801
3415.000000	99.679515
3414.000000	99.677253
3413.000000	99.675810
3412.000000	99.675819
3411.000000	99.675969
3410.000000	99.674258
3409.000000	99.670128
3408.000000	99.665273
3407.000000	99.662144
3406.000000	99.661637
3405.000000	99.662600
3404.000000	99.663256
3403.000000	99.662998
3402.000000	99.662722
3401.000000	99.663681
3400.000000	99.666228
3399.000000	99.669477
3398.000000	99.671908
3397.000000	99.672427
3396.000000	99.671020
3395.000000	99.668555
3394.000000	99.666197
3393.000000	99.664907
3392.000000	99.665173
3391.000000	99.666783
3390.000000	99.668782
3389.000000	99.670089
3388.000000	99.670384
3387.000000	99.670265
3386.000000	99.670548
3385.000000	99.671531
3384.000000	99.672945
3383.000000	99.674313
3382.000000	99.675270
3381.000000	99.675748
3380.000000	99.676027
3379.000000	99.676473
3378.000000	99.677095
3377.000000	99.677529
3376.000000	99.677546
3375.000000	99.677381
3374.000000	99.677393
3373.000000	99.677640
3372.000000	99.677937
3371.000000	99.678162
3370.000000	99.678366
3369.000000	99.678661
3368.000000	99.679114
3367.000000	99.679754
3366.000000	99.680556
3365.000000	99.681410
3364.000000	99.682203
3363.000000	99.682921
3362.000000	99.683642
3361.000000	99.684417
3360.000000	99.685204
3359.000000	99.685932
3358.000000	99.686576
3357.000000	99.687174
3356.000000	99.687784
3355.000000	99.688435
3354.000000	99.689113
3353.000000	99.689783
3352.000000	99.690423
3351.000000	99.691038
3350.000000	99.691640
3349.000000	99.692240
3348.000000	99.692842
3347.000000	99.693442
3346.000000	99.694032
3345.000000	99.694607
3344.000000	99.695164
3343.000000	99.695707
3342.000000	99.696241
3341.000000	99.696765
3340.000000	99.697271
3339.000000	99.697749
3338.000000	99.698198
3337.000000	99.698625
3336.000000	99.699040
3335.000000	99.699455
3334.000000	99.699883
3333.000000	99.700334
3332.000000	99.700807
3331.000000	99.701292
3330.000000	99.701780
3329.000000	99.702266
3328.000000	99.702747
3327.000000	99.703222
3326.000000	99.703686
3325.000000	99.704132
3324.000000	99.704554
3323.000000	99.704947
3322.000000	99.705314
3321.000000	99.705657
3320.000000	99.705981
3319.000000	99.706290
3318.000000	99.706589
3317.000000	99.706885
3316.000000	99.707182
3315.000000	99.707484
3314.000000	99.707786
3313.000000	99.708085
3312.000000	99.708390
3311.000000	99.708721
3310.000000	99.709089
3309.000000	99.709478
3308.000000	99.709844
3307.000000	99.710149
3306.000000	99.710386
3305.000000	99.710585
3304.000000	99.710796
3303.000000	99.711056
3302.000000	99.711375
3301.000000	99.711731
3300.000000	99.712065
3299.000000	99.712330
3298.000000	99.712519
3297.000000	99.712664
3296.000000	99.712801
3295.000000	99.712955
3294.000000	99.713153
3293.000000	99.713425
3292.000000	99.713794
3291.000000	99.714253
3290.000000	99.714755
3289.000000	99.715190
3288.000000	99.715412
3287.000000	99.715339
3286.000000	99.715080
3285.000000	99.714875
3284.000000	99.714881
3283.000000	99.715038
3282.000000	99.715140
3281.000000	99.715044
3280.000000	99.714812
3279.000000	99.714670
3278.000000	99.714811
3277.000000	99.715261
3276.000000	99.715873
3275.000000	99.716455
3274.000000	99.716910
3273.000000	99.717243
3272.000000	99.717476
3271.000000	99.717580
3270.000000	99.717502
3269.000000	99.717251
3268.000000	99.716940
3267.000000	99.716748
3266.000000	99.716823
3265.000000	99.717207
3264.000000	99.717811
3263.000000	99.718417
3262.000000	99.718805
3261.000000	99.718865
3260.000000	99.718641
3259.000000	99.718295
3258.000000	99.718012
3257.000000	99.717912
3256.000000	99.718021
3255.000000	99.718276
3254.000000	99.718584
3253.000000	99.718879
3252.000000	99.719124
3251.000000	99.719288
3250.000000	99.719364
3249.000000	99.719401
3248.000000	99.719483
3247.000000	99.719664
3246.000000	99.719922
3245.000000	99.720187
3244.000000	99.720407
3243.000000	99.720582
3242.000000	99.720737
3241.000000	99.720894
3240.000000	99.721071
3239.000000	99.721289
3238.000000	99.721570
3237.000000	99.721902
3236.000000	99.722207
3235.000000	99.722368
3234.000000	99.722315
3233.000000	99.722107
3232.000000	99.721940
3231.000000	99.722002
3230.000000	99.722353
3229.000000	99.722917
3228.000000	99.723559
3227.000000	99.724167
3226.000000	99.724674
3225.000000	99.725064
3224.000000	99.725348
3223.000000	99.725507
3222.000000	99.725498
3221.000000	99.725339
3220.000000	99.725198
3219.000000	99.725352
3218.000000	99.725956
3217.000000	99.726871
3216.000000	99.727742
3215.000000	99.728243
3214.000000	99.728285
3213.000000	99.728026
3212.000000	99.727738
3211.000000	99.727670
3210.000000	99.727978
3209.000000	99.728632
3208.000000	99.729384
3207.000000	99.729974
3206.000000	99.730468
3205.000000	99.731255
3204.000000	99.732603
3203.000000	99.734287
3202.000000	99.735765
3201.000000	99.736683
3200.000000	99.737051
3199.000000	99.737020
3198.000000	99.736712
3197.000000	99.736331
3196.000000	99.736240
3195.000000	99.736758
3194.000000	99.737963
3193.000000	99.739696
3192.000000	99.741603
3191.000000	99.743171
3190.000000	99.743993
3189.000000	99.744147
3188.000000	99.744179
3187.000000	99.744526
3186.000000	99.745134
3185.000000	99.745860
3184.000000	99.746974
3183.000000	99.748818
3182.000000	99.751027
3181.000000	99.752538
3180.000000	99.752628
3179.000000	99.751631
3178.000000	99.750673
3177.000000	99.750661
3176.000000	99.751607
3175.000000	99.752786
3174.000000	99.753418
3173.000000	99.753415
3172.000000	99.753510
3171.000000	99.754478
3170.000000	99.756161
3169.000000	99.757525
3168.000000	99.757779
3167.000000	99.757129
3166.000000	99.756272
3165.000000	99.755400
3164.000000	99.754125
3163.000000	99.752289
3162.000000	99.750532
3161.000000	99.749891
3160.000000	99.750808
3159.000000	99.752596
3158.000000	99.753903
3157.000000	99.753998
3156.000000	99.753439
3155.000000	99.753333
3154.000000	99.754066
3153.000000	99.755101
3152.000000	99.755994
3151.000000	99.757060
3150.000000	99.758757
3149.000000	99.760807
3148.000000	99.762420
3147.000000	99.763149
3146.000000	99.763067
3145.000000	99.762250
3144.000000	99.760679
3143.000000	99.758743
3142.000000	99.757323
3141.000000	99.757079
3140.000000	99.757884
3139.000000	99.759118
3138.000000	99.760326
3137.000000	99.761354
3136.000000	99.762065
3135.000000	99.762238
3134.000000	99.761811
3133.000000	99.761138
3132.000000	99.760857
3131.000000	99.761432
3130.000000	99.762682
3129.000000	99.763811
3128.000000	99.764152
3127.000000	99.764005
3126.000000	99.764593
3125.000000	99.766977
3124.000000	99.770979
3123.000000	99.775108
3122.000000	99.777730
3121.000000	99.778336
3120.000000	99.777640
3119.000000	99.776624
3118.000000	99.775599
3117.000000	99.774295
3116.000000	99.772588
3115.000000	99.770803
3114.000000	99.769455
3113.000000	99.768919
3112.000000	99.769378
3111.000000	99.770717
3110.000000	99.772334
3109.000000	99.773389
3108.000000	99.773524
3107.000000	99.773185
3106.000000	99.773047
3105.000000	99.773289
3104.000000	99.773693
3103.000000	99.774215
3102.000000	99.775000
3101.000000	99.775886
3100.000000	99.776478
3099.000000	99.776905
3098.000000	99.777906
3097.000000	99.779652
3096.000000	99.780834
3095.000000	99.779720
3094.000000	99.776257
3093.000000	99.772694
3092.000000	99.771595
3091.000000	99.773542
3090.000000	99.777030
3089.000000	99.780198
3088.000000	99.782495
3087.000000	99.784559
3086.000000	99.787102
3085.000000	99.790214
3084.000000	99.793350
3083.000000	99.795597
3082.000000	99.796202
3081.000000	99.795254
3080.000000	99.793683
3079.000000	99.792341
3078.000000	99.791188
3077.000000	99.789714
3076.000000	99.787967
3075.000000	99.786652
3074.000000	99.786316
3073.000000	99.786909
3072.000000	99.788139
3071.000000	99.789692
3070.000000	99.790933
3069.000000	99.790987
3068.000000	99.789511
3067.000000	99.787086
3066.000000	99.784558
3065.000000	99.782329
3064.000000	99.780604
3063.000000	99.779895
3062.000000	99.780639
3061.000000	99.782476
3060.000000	99.784432
3059.000000	99.785897
3058.000000	99.787014
3057.000000	99.788162
3056.000000	99.789538
3055.000000	99.791265
3054.000000	99.793423
3053.000000	99.795696
3052.000000	99.797279
3051.000000	99.797526
3050.000000	99.796723
3049.000000	99.796083
3048.000000	99.796775
3047.000000	99.798849
3046.000000	99.801196
3045.000000	99.802655
3044.000000	99.803287
3043.000000	99.804242
3042.000000	99.806229
3041.000000	99.808478
3040.000000	99.809697
3039.000000	99.809867
3038.000000	99.810391
3037.000000	99.812269
3036.000000	99.814625
3035.000000	99.815577
3034.000000	99.814359
3033.000000	99.812193
3032.000000	99.811176
3031.000000	99.812428
3030.000000	99.815329
3029.000000	99.818171
3028.000000	99.819525
3027.000000	99.819232
3026.000000	99.818292
3025.000000	99.817876
3024.000000	99.818474
3023.000000	99.820005
3022.000000	99.822372
3021.000000	99.825471
3020.000000	99.828659
3019.000000	99.830790
3018.000000	99.831295
3017.000000	99.831060
3016.000000	99.831723
3015.000000	99.834017
3014.000000	99.837172
3013.000000	99.840019
3012.000000	99.842386
3011.000000	99.845174
3010.000000	99.849194
3009.000000	99.854034
3008.000000	99.858037
3007.000000	99.859513
3006.000000	99.858329
3005.000000	99.856396
3004.000000	99.856356
3003.000000	99.859531
3002.000000	99.865243
3001.000000	99.871941
3000.000000	99.878594
2999.000000	99.884719
2998.000000	99.889472
2997.000000	99.891496
2996.000000	99.890089
2995.000000	99.886604
2994.000000	99.884493
2993.000000	99.887425
2992.000000	99.896590
2991.000000	99.909373
2990.000000	99.921088
2989.000000	99.928827
2988.000000	99.933684
2987.000000	99.938998
2986.000000	99.946678
2985.000000	99.955683
2984.000000	99.963854
2983.000000	99.970287
2982.000000	99.975695
2981.000000	99.981357
2980.000000	99.988177
2979.000000	99.996168
2978.000000	100.004083
2977.000000	100.009698
2976.000000	100.011049
2975.000000	100.007614
2974.000000	100.000241
2973.000000	99.990196
2972.000000	99.978582
2971.000000	99.966541
2970.000000	99.955434
2969.000000	99.946350
2968.000000	99.939381
2967.000000	99.933553
2966.000000	99.927792
2965.000000	99.922083
2964.000000	99.917503
2963.000000	99.914880
2962.000000	99.913647
2961.000000	99.912467
2960.000000	99.910817
2959.000000	99.909358
2958.000000	99.908546
2957.000000	99.907622
2956.000000	99.905599
2955.000000	99.902881
2954.000000	99.901161
2953.000000	99.901459
2952.000000	99.902762
2951.000000	99.903015
2950.000000	99.901566
2949.000000	99.900216
2948.000000	99.901329
2947.000000	99.904952
2946.000000	99.908419
2945.000000	99.909358
2944.000000	99.908637
2943.000000	99.909400
2942.000000	99.913352
2941.000000	99.919012
2940.000000	99.923644
2939.000000	99.925988
2938.000000	99.926621
2937.000000	99.926593
2936.000000	99.926506
2935.000000	99.926491
2934.000000	99.926392
2933.000000	99.926129
2932.000000	99.926153
2931.000000	99.927146
2930.000000	99.928950
2929.000000	99.930310
2928.000000	99.930317
2927.000000	99.929852
2926.000000	99.930835
2925.000000	99.933884
2924.000000	99.937284
2923.000000	99.938568
2922.000000	99.936864
2921.000000	99.933533
2920.000000	99.930867
2919.000000	99.930256
2918.000000	99.931469
2917.000000	99.933396
2916.000000	99.935134
2915.000000	99.936441
2914.000000	99.937493
2913.000000	99.938563
2912.000000	99.939891
2911.000000	99.941476
2910.000000	99.942911
2909.000000	99.943719
2908.000000	99.943999
2907.000000	99.944464
2906.000000	99.945635
2905.000000	99.947238
2904.000000	99.948612
2903.000000	99.949523
2902.000000	99.950228
2901.000000	99.950948
2900.000000	99.951623
2899.000000	99.952116
2898.000000	99.952291
2897.000000	99.951950
2896.000000	99.951136
2895.000000	99.950416
2894.000000	99.950425
2893.000000	99.951128
2892.000000	99.952002
2891.000000	99.952868
2890.000000	99.953962
2889.000000	99.955117
2888.000000	99.955638
2887.000000	99.955334
2886.000000	99.954937
2885.000000	99.954953
2884.000000	99.954626
2883.000000	99.952852
2882.000000	99.949875
2881.000000	99.947338
2880.000000	99.946635
2879.000000	99.947591
2878.000000	99.948770
2877.000000	99.948747
2876.000000	99.947145
2875.000000	99.944842
2874.000000	99.943276
2873.000000	99.943158
2872.000000	99.943804
2871.000000	99.943828
2870.000000	99.942581
2869.000000	99.940676
2868.000000	99.939044
2867.000000	99.937710
2866.000000	99.935841
2865.000000	99.932928
2864.000000	99.929615
2863.000000	99.927185
2862.000000	99.926297
2861.000000	99.926427
2860.000000	99.926420
2859.000000	99.925578
2858.000000	99.924139
2857.000000	99.922791
2856.000000	99.921922
2855.000000	99.921374
2854.000000	99.920774
2853.000000	99.919925
2852.000000	99.918890
2851.000000	99.917853
2850.000000	99.916998
2849.000000	99.916462
2848.000000	99.916241
2847.000000	99.916130
2846.000000	99.915858
2845.000000	99.915377
2844.000000	99.914911
2843.000000	99.914643
2842.000000	99.914393
2841.000000	99.913731
2840.000000	99.912462
2839.000000	99.910910
2838.000000	99.909726
2837.000000	99.909342
2836.000000	99.909710
2835.000000	99.910422
2834.000000	99.910955
2833.000000	99.910919
2832.000000	99.910280
2831.000000	99.909426
2830.000000	99.908903
2829.000000	99.908913
2828.000000	99.909209
2827.000000	99.909491
2826.000000	99.909745
2825.000000	99.910079
2824.000000	99.910374
2823.000000	99.910315
2822.000000	99.909761
2821.000000	99.908948
2820.000000	99.908297
2819.000000	99.908079
2818.000000	99.908278
2817.000000	99.908691
2816.000000	99.909080
2815.000000	99.909325
2814.000000	99.909476
2813.000000	99.909661
2812.000000	99.909949
2811.000000	99.910309
2810.000000	99.910692
2809.000000	99.911120
2808.000000	99.911652
2807.000000	99.912291
2806.000000	99.912946
2805.000000	99.913480
2804.000000	99.913782
2803.000000	99.913800
2802.000000	99.913561
2801.000000	99.913183
2800.000000	99.912845
2799.000000	99.912676
2798.000000	99.912669
2797.000000	99.912737
2796.000000	99.912853
2795.000000	99.913105
2794.000000	99.913554
2793.000000	99.914098
2792.000000	99.914518
2791.000000	99.914646
2790.000000	99.914465
2789.000000	99.914115
2788.000000	99.913851
2787.000000	99.913965
2786.000000	99.914616
2785.000000	99.915653
2784.000000	99.916599
2783.000000	99.916986
2782.000000	99.916698
2781.000000	99.916018
2780.000000	99.915421
2779.000000	99.915235
2778.000000	99.915538
2777.000000	99.916240
2776.000000	99.917166
2775.000000	99.918061
2774.000000	99.918649
2773.000000	99.918776
2772.000000	99.918575
2771.000000	99.918475
2770.000000	99.918930
2769.000000	99.920084
2768.000000	99.921664
2767.000000	99.923181
2766.000000	99.924299
2765.000000	99.925018
2764.000000	99.925537
2763.000000	99.925923
2762.000000	99.925945
2761.000000	99.925314
2760.000000	99.924118
2759.000000	99.922991
2758.000000	99.922690
2757.000000	99.923467
2756.000000	99.924908
2755.000000	99.926399
2754.000000	99.927761
2753.000000	99.929305
2752.000000	99.931293
2751.000000	99.933448
2750.000000	99.935055
2749.000000	99.935581
2748.000000	99.935168
2747.000000	99.934544
2746.000000	99.934369
2745.000000	99.934721
2744.000000	99.935229
2743.000000	99.935545
2742.000000	99.935572
2741.000000	99.935348
2740.000000	99.934973
2739.000000	99.934689
2738.000000	99.934799
2737.000000	99.935429
2736.000000	99.936444
2735.000000	99.937645
2734.000000	99.938901
2733.000000	99.939978
2732.000000	99.940425
2731.000000	99.939922
2730.000000	99.938754
2729.000000	99.937743
2728.000000	99.937548
2727.000000	99.938164
2726.000000	99.939100
2725.000000	99.939884
2724.000000	99.940301
2723.000000	99.940249
2722.000000	99.939637
2721.000000	99.938545
2720.000000	99.937370
2719.000000	99.936617
2718.000000	99.936452
2717.000000	99.936605
2716.000000	99.936722
2715.000000	99.936746
2714.000000	99.936831
2713.000000	99.936979
2712.000000	99.936940
2711.000000	99.936539
2710.000000	99.935983
2709.000000	99.935684
2708.000000	99.935763
2707.000000	99.935886
2706.000000	99.935640
2705.000000	99.934981
2704.000000	99.934217
2703.000000	99.933632
2702.000000	99.933285
2701.000000	99.933174
2700.000000	99.933383
2699.000000	99.933908
2698.000000	99.934508
2697.000000	99.934919
2696.000000	99.935180
2695.000000	99.935511
2694.000000	99.935910
2693.000000	99.936097
2692.000000	99.935937
2691.000000	99.935610
2690.000000	99.935248
2689.000000	99.934673
2688.000000	99.933734
2687.000000	99.932692
2686.000000	99.932079
2685.000000	99.932160
2684.000000	99.932747
2683.000000	99.933438
2682.000000	99.933888
2681.000000	99.933898
2680.000000	99.933498
2679.000000	99.933050
2678.000000	99.933041
2677.000000	99.933613
2676.000000	99.934422
2675.000000	99.934992
2674.000000	99.935180
2673.000000	99.935184
2672.000000	99.935270
2671.000000	99.935611
2670.000000	99.936260
2669.000000	99.937065
2668.000000	99.937634
2667.000000	99.937552
2666.000000	99.936710
2665.000000	99.935450
2664.000000	99.934435
2663.000000	99.934260
2662.000000	99.935098
2661.000000	99.936567
2660.000000	99.938014
2659.000000	99.939085
2658.000000	99.939908
2657.000000	99.940700
2656.000000	99.941358
2655.000000	99.941590
2654.000000	99.941337
2653.000000	99.940839
2652.000000	99.940387
2651.000000	99.940232
2650.000000	99.940623
2649.000000	99.941610
2648.000000	99.942804
2647.000000	99.943585
2646.000000	99.943660
2645.000000	99.943239
2644.000000	99.942689
2643.000000	99.942156
2642.000000	99.941553
2641.000000	99.940768
2640.000000	99.939850
2639.000000	99.939089
2638.000000	99.938791
2637.000000	99.938882
2636.000000	99.938928
2635.000000	99.938737
2634.000000	99.938743
2633.000000	99.939504
2632.000000	99.941016
2631.000000	99.942750
2630.000000	99.944236
2629.000000	99.945262
2628.000000	99.945635
2627.000000	99.945226
2626.000000	99.944304
2625.000000	99.943461
2624.000000	99.943027
2623.000000	99.942849
2622.000000	99.942732
2621.000000	99.942849
2620.000000	99.943488
2619.000000	99.944612
2618.000000	99.945823
2617.000000	99.946667
2616.000000	99.946928
2615.000000	99.946702
2614.000000	99.946242
2613.000000	99.945672
2612.000000	99.944863
2611.000000	99.943722
2610.000000	99.942621
2609.000000	99.942259
2608.000000	99.942931
2607.000000	99.944174
2606.000000	99.945126
2605.000000	99.945411
2604.000000	99.945315
2603.000000	99.945263
2602.000000	99.945364
2601.000000	99.945508
2600.000000	99.945699
2599.000000	99.946092
2598.000000	99.946710
2597.000000	99.947266
2596.000000	99.947387
2595.000000	99.946994
2594.000000	99.946447
2593.000000	99.946234
2592.000000	99.946496
2591.000000	99.946946
2590.000000	99.947266
2589.000000	99.947493
2588.000000	99.947846
2587.000000	99.948269
2586.000000	99.948430
2585.000000	99.948238
2584.000000	99.948099
2583.000000	99.948487
2582.000000	99.949387
2581.000000	99.950320
2580.000000	99.950817
2579.000000	99.950703
2578.000000	99.950030
2577.000000	99.948947
2576.000000	99.947664
2575.000000	99.946416
2574.000000	99.945373
2573.000000	99.944617
2572.000000	99.944207
2571.000000	99.944255
2570.000000	99.944940
2569.000000	99.946341
2568.000000	99.948191
2567.000000	99.949937
2566.000000	99.951134
2565.000000	99.951666
2564.000000	99.951556
2563.000000	99.950811
2562.000000	99.949776
2561.000000	99.949344
2560.000000	99.950275
2559.000000	99.952339
2558.000000	99.954405
2557.000000	99.955575
2556.000000	99.955896
2555.000000	99.955872
2554.000000	99.955760
2553.000000	99.955633
2552.000000	99.955705
2551.000000	99.956077
2550.000000	99.956410
2549.000000	99.956350
2548.000000	99.956152
2547.000000	99.956436
2546.000000	99.957318
2545.000000	99.958128
2544.000000	99.958111
2543.000000	99.957141
2542.000000	99.955672
2541.000000	99.954275
2540.000000	99.953282
2539.000000	99.952729
2538.000000	99.952540
2537.000000	99.952740
2536.000000	99.953429
2535.000000	99.954462
2534.000000	99.955283
2533.000000	99.955363
2532.000000	99.954733
2531.000000	99.953916
2530.000000	99.953374
2529.000000	99.953120
2528.000000	99.952981
2527.000000	99.952966
2526.000000	99.953209
2525.000000	99.953653
2524.000000	99.954013
2523.000000	99.954057
2522.000000	99.953807
2521.000000	99.953450
2520.000000	99.953151
2519.000000	99.952953
2518.000000	99.952771
2517.000000	99.952465
2516.000000	99.952047
2515.000000	99.951764
2514.000000	99.951862
2513.000000	99.952269
2512.000000	99.952626
2511.000000	99.952667
2510.000000	99.952454
2509.000000	99.952240
2508.000000	99.952191
2507.000000	99.952290
2506.000000	99.952442
2505.000000	99.952576
2504.000000	99.952682
2503.000000	99.952837
2502.000000	99.953166
2501.000000	99.953718
2500.000000	99.954370
2499.000000	99.954901
2498.000000	99.955193
2497.000000	99.955308
2496.000000	99.955387
2495.000000	99.955480
2494.000000	99.955542
2493.000000	99.955562
2492.000000	99.955641
2491.000000	99.955887
2490.000000	99.956287
2489.000000	99.956709
2488.000000	99.957063
2487.000000	99.957393
2486.000000	99.957759
2485.000000	99.958105
2484.000000	99.958302
2483.000000	99.958322
2482.000000	99.958290
2481.000000	99.958382
2480.000000	99.958655
2479.000000	99.959043
2478.000000	99.959436
2477.000000	99.959768
2476.000000	99.960045
2475.000000	99.960300
2474.000000	99.960532
2473.000000	99.960686
2472.000000	99.960712
2471.000000	99.960668
2470.000000	99.960696
2469.000000	99.960854
2468.000000	99.961019
2467.000000	99.961061
2466.000000	99.961074
2465.000000	99.961278
2464.000000	99.961717
2463.000000	99.962187
2462.000000	99.962501
2461.000000	99.962731
2460.000000	99.963052
2459.000000	99.963432
2458.000000	99.963629
2457.000000	99.963529
2456.000000	99.963330
2455.000000	99.963339
2454.000000	99.963670
2453.000000	99.964206
2452.000000	99.964753
2451.000000	99.965201
2450.000000	99.965580
2449.000000	99.965980
2448.000000	99.966381
2447.000000	99.966608
2446.000000	99.966505
2445.000000	99.966161
2444.000000	99.965868
2443.000000	99.965865
2442.000000	99.966203
2441.000000	99.966798
2440.000000	99.967492
2439.000000	99.968107
2438.000000	99.968553
2437.000000	99.968855
2436.000000	99.969085
2435.000000	99.969318
2434.000000	99.969676
2433.000000	99.970344
2432.000000	99.971441
2431.000000	99.972906
2430.000000	99.974547
2429.000000	99.976077
2428.000000	99.977155
2427.000000	99.977546
2426.000000	99.977382
2425.000000	99.977171
2424.000000	99.977367
2423.000000	99.977957
2422.000000	99.978631
2421.000000	99.979282
2420.000000	99.980074
2419.000000	99.980972
2418.000000	99.981495
2417.000000	99.981192
2416.000000	99.980264
2415.000000	99.979554
2414.000000	99.979784
2413.000000	99.980888
2412.000000	99.982180
2411.000000	99.983150
2410.000000	99.983992
2409.000000	99.985147
2408.000000	99.986483
2407.000000	99.987222
2406.000000	99.986818
2405.000000	99.985592
2404.000000	99.984412
2403.000000	99.983921
2402.000000	99.984231
2401.000000	99.985109
2400.000000	99.986077
2399.000000	99.986481
2398.000000	99.985863
2397.000000	99.984255
2396.000000	99.982072
2395.000000	99.979861
2394.000000	99.978294
2393.000000	99.978131
2392.000000	99.979607
2391.000000	99.981798
2390.000000	99.983146
2389.000000	99.982981
2388.000000	99.982048
2387.000000	99.981407
2386.000000	99.981167
2385.000000	99.980721
2384.000000	99.979772
2383.000000	99.978486
2382.000000	99.976856
2381.000000	99.974565
2380.000000	99.971549
2379.000000	99.968285
2378.000000	99.965416
2377.000000	99.963326
2376.000000	99.962157
2375.000000	99.961936
2374.000000	99.962400
2373.000000	99.962770
2372.000000	99.962168
2371.000000	99.960513
2370.000000	99.958796
2369.000000	99.958018
2368.000000	99.957886
2367.000000	99.957181
2366.000000	99.955483
2365.000000	99.953696
2364.000000	99.952654
2363.000000	99.952005
2362.000000	99.950734
2361.000000	99.948217
2360.000000	99.944301
2359.000000	99.939416
2358.000000	99.935364
2357.000000	99.934375
2356.000000	99.936723
2355.000000	99.940044
2354.000000	99.942066
2353.000000	99.942586
2352.000000	99.942390
2351.000000	99.941790
2350.000000	99.940684
2349.000000	99.939372
2348.000000	99.938594
2347.000000	99.938935
2346.000000	99.939949
2345.000000	99.940323
2344.000000	99.939266
2343.000000	99.936950
2342.000000	99.934019
2341.000000	99.931136
2340.000000	99.929012
2339.000000	99.927747
2338.000000	99.926822
2337.000000	99.925865
2336.000000	99.925287
2335.000000	99.926321
2334.000000	99.929880
2333.000000	99.935562
2332.000000	99.941465
2331.000000	99.946215
2330.000000	99.949518
2329.000000	99.951622
2328.000000	99.952130
2327.000000	99.950952
2326.000000	99.948597
2325.000000	99.946109
2324.000000	99.944203
2323.000000	99.943207
2322.000000	99.942892
2321.000000	99.942713
2320.000000	99.942302
2319.000000	99.942091
2318.000000	99.942725
2317.000000	99.944489
2316.000000	99.946885
2315.000000	99.949435
2314.000000	99.951724
2313.000000	99.953627
2312.000000	99.954920
2311.000000	99.955691
2310.000000	99.956126
2309.000000	99.956585
2308.000000	99.957261
2307.000000	99.958302
2306.000000	99.959516
2305.000000	99.960455
2304.000000	99.960638
2303.000000	99.960203
2302.000000	99.959898
2301.000000	99.960631
2300.000000	99.962619
2299.000000	99.965258
2298.000000	99.967493
2297.000000	99.968744
2296.000000	99.969169
2295.000000	99.969390
2294.000000	99.969865
2293.000000	99.970699
2292.000000	99.971666
2291.000000	99.972356
2290.000000	99.972370
2289.000000	99.971692
2288.000000	99.970884
2287.000000	99.970660
2286.000000	99.971117
2285.000000	99.971633
2284.000000	99.971595
2283.000000	99.971084
2282.000000	99.970768
2281.000000	99.971167
2280.000000	99.972209
2279.000000	99.973434
2278.000000	99.974394
2277.000000	99.974898
2276.000000	99.975000
2275.000000	99.974914
2274.000000	99.974853
2273.000000	99.974830
2272.000000	99.974695
2271.000000	99.974427
2270.000000	99.974260
2269.000000	99.974400
2268.000000	99.974707
2267.000000	99.974852
2266.000000	99.974731
2265.000000	99.974562
2264.000000	99.974543
2263.000000	99.974589
2262.000000	99.974492
2261.000000	99.974244
2260.000000	99.974058
2259.000000	99.974096
2258.000000	99.974305
2257.000000	99.974511
2256.000000	99.974586
2255.000000	99.974509
2254.000000	99.974329
2253.000000	99.974088
2252.000000	99.973787
2251.000000	99.973430
2250.000000	99.973079
2249.000000	99.972820
2248.000000	99.972679
2247.000000	99.972575
2246.000000	99.972392
2245.000000	99.972086
2244.000000	99.971710
2243.000000	99.971363
2242.000000	99.971107
2241.000000	99.970927
2240.000000	99.970748
2239.000000	99.970485
2238.000000	99.970124
2237.000000	99.969741
2236.000000	99.969428
2235.000000	99.969200
2234.000000	99.968998
2233.000000	99.968768
2232.000000	99.968525
2231.000000	99.968320
2230.000000	99.968171
2229.000000	99.968043
2228.000000	99.967896
2227.000000	99.967718
2226.000000	99.967520
2225.000000	99.967318
2224.000000	99.967122
2223.000000	99.966955
2222.000000	99.966849
2221.000000	99.966820
2220.000000	99.966843
2219.000000	99.966870
2218.000000	99.966866
2217.000000	99.966829
2216.000000	99.966771
2215.000000	99.966713
2214.000000	99.966678
2213.000000	99.966689
2212.000000	99.966749
2211.000000	99.966838
2210.000000	99.966917
2209.000000	99.966963
2208.000000	99.966983
2207.000000	99.967009
2206.000000	99.967073
2205.000000	99.967187
2204.000000	99.967347
2203.000000	99.967538
2202.000000	99.967711
2201.000000	99.967802
2200.000000	99.967796
2199.000000	99.967766
2198.000000	99.967801
2197.000000	99.967900
2196.000000	99.967961
2195.000000	99.967898
2194.000000	99.967770
2193.000000	99.967763
2192.000000	99.967991
2191.000000	99.968382
2190.000000	99.968760
2189.000000	99.969053
2188.000000	99.969334
2187.000000	99.969659
2186.000000	99.969958
2185.000000	99.970145
2184.000000	99.970264
2183.000000	99.970442
2182.000000	99.970729
2181.000000	99.971055
2180.000000	99.971295
2179.000000	99.971309
2178.000000	99.971012
2177.000000	99.970498
2176.000000	99.970008
2175.000000	99.969693
2174.000000	99.969485
2173.000000	99.969328
2172.000000	99.969374
2171.000000	99.969753
2170.000000	99.970306
2169.000000	99.970703
2168.000000	99.970791
2167.000000	99.970671
2166.000000	99.970508
2165.000000	99.970434
2164.000000	99.970524
2163.000000	99.970755
2162.000000	99.971015
2161.000000	99.971211
2160.000000	99.971345
2159.000000	99.971454
2158.000000	99.971544
2157.000000	99.971620
2156.000000	99.971707
2155.000000	99.971814
2154.000000	99.971929
2153.000000	99.972045
2152.000000	99.972159
2151.000000	99.972268
2150.000000	99.972365
2149.000000	99.972446
2148.000000	99.972513
2147.000000	99.972570
2146.000000	99.972627
2145.000000	99.972687
2144.000000	99.972751
2143.000000	99.972823
2142.000000	99.972907
2141.000000	99.973009
2140.000000	99.973127
2139.000000	99.973258
2138.000000	99.973400
2137.000000	99.973553
2136.000000	99.973718
2135.000000	99.973894
2134.000000	99.974078
2133.000000	99.974269
2132.000000	99.974468
2131.000000	99.974683
2130.000000	99.974914
2129.000000	99.975160
2128.000000	99.975410
2127.000000	99.975651
2126.000000	99.975875
2125.000000	99.976083
2124.000000	99.976283
2123.000000	99.976485
2122.000000	99.976692
2121.000000	99.976902
2120.000000	99.977115
2119.000000	99.977333
2118.000000	99.977554
2117.000000	99.977780
2116.000000	99.978006
2115.000000	99.978224
2114.000000	99.978433
2113.000000	99.978653
2112.000000	99.978920
2111.000000	99.979235
2110.000000	99.979515
2109.000000	99.979623
2108.000000	99.979513
2107.000000	99.979369
2106.000000	99.979490
2105.000000	99.979997
2104.000000	99.980695
2103.000000	99.981304
2102.000000	99.981812
2101.000000	99.982449
2100.000000	99.983342
2099.000000	99.984285
2098.000000	99.984907
2097.000000	99.985039
2096.000000	99.984841
2095.000000	99.984658
2094.000000	99.984803
2093.000000	99.985500
2092.000000	99.986827
2091.000000	99.988600
2090.000000	99.990360
2089.000000	99.991605
2088.000000	99.992006
2087.000000	99.991433
2086.000000	99.990043
2085.000000	99.988435
2084.000000	99.987430
2083.000000	99.987374
2082.000000	99.987762
2081.000000	99.987919
2080.000000	99.987941
2079.000000	99.988500
2078.000000	99.989807
2077.000000	99.991331
2076.000000	99.992586
2075.000000	99.993703
2074.000000	99.995008
2073.000000	99.996439
2072.000000	99.997738
2071.000000	99.998848
2070.000000	99.999754
2069.000000	100.000204
2068.000000	99.999947
2067.000000	99.998980
2066.000000	99.997309
2065.000000	99.994833
2064.000000	99.991900
2063.000000	99.989682
2062.000000	99.989332
2061.000000	99.990842
2060.000000	99.993062
2059.000000	99.994831
2058.000000	99.995868
2057.000000	99.996435
2056.000000	99.996719
2055.000000	99.996836
2054.000000	99.996986
2053.000000	99.997137
2052.000000	99.996758
2051.000000	99.995325
2050.000000	99.993018
2049.000000	99.990672
2048.000000	99.988996
2047.000000	99.988018
2046.000000	99.987346
2045.000000	99.986705
2044.000000	99.986149
2043.000000	99.985865
2042.000000	99.985849
2041.000000	99.985770
2040.000000	99.985235
2039.000000	99.984238
2038.000000	99.983269
2037.000000	99.982833
2036.000000	99.982886
2035.000000	99.982859
2034.000000	99.982265
2033.000000	99.981138
2032.000000	99.979924
2031.000000	99.979090
2030.000000	99.978852
2029.000000	99.979099
2028.000000	99.979456
2027.000000	99.979512
2026.000000	99.979121
2025.000000	99.978439
2024.000000	99.977700
2023.000000	99.976988
2022.000000	99.976260
2021.000000	99.975527
2020.000000	99.974879
2019.000000	99.974343
2018.000000	99.973832
2017.000000	99.973251
2016.000000	99.972591
2015.000000	99.971904
2014.000000	99.971230
2013.000000	99.970573
2012.000000	99.969923
2011.000000	99.969288
2010.000000	99.968691
2009.000000	99.968148
2008.000000	99.967634
2007.000000	99.967086
2006.000000	99.966450
2005.000000	99.965749
2004.000000	99.965089
2003.000000	99.964548
2002.000000	99.964083
2001.000000	99.963574
2000.000000	99.962978
1999.000000	99.962387
1998.000000	99.961900
1997.000000	99.961467
1996.000000	99.960972
1995.000000	99.960442
1994.000000	99.960074
1993.000000	99.959978
1992.000000	99.959933
1991.000000	99.959546
1990.000000	99.958650
1989.000000	99.957450
1988.000000	99.956354
1987.000000	99.955637
1986.000000	99.955303
1985.000000	99.955147
1984.000000	99.954932
1983.000000	99.954534
1982.000000	99.953993
1981.000000	99.953410
1980.000000	99.952763
1979.000000	99.951879
1978.000000	99.950650
1977.000000	99.949279
1976.000000	99.948235
1975.000000	99.947885
1974.000000	99.948231
1973.000000	99.948946
1972.000000	99.949599
1971.000000	99.949895
1970.000000	99.949790
1969.000000	99.949482
1968.000000	99.949233
1967.000000	99.949143
1966.000000	99.949105
1965.000000	99.949014
1964.000000	99.948915
1963.000000	99.948943
1962.000000	99.949176
1961.000000	99.949507
1960.000000	99.949656
1959.000000	99.949338
1958.000000	99.948536
1957.000000	99.947590
1956.000000	99.946879
1955.000000	99.946522
1954.000000	99.946496
1953.000000	99.946913
1952.000000	99.947837
1951.000000	99.948865
1950.000000	99.949326
1949.000000	99.949043
1948.000000	99.948512
1947.000000	99.948223
1946.000000	99.948040
1945.000000	99.947493
1944.000000	99.946409
1943.000000	99.945053
1942.000000	99.943860
1941.000000	99.943164
1940.000000	99.943020
1939.000000	99.943073
1938.000000	99.942757
1937.000000	99.941812
1936.000000	99.940576
1935.000000	99.939630
1934.000000	99.939215
1933.000000	99.939159
1932.000000	99.939203
1931.000000	99.939141
1930.000000	99.938793
1929.000000	99.938079
1928.000000	99.937191
1927.000000	99.936485
1926.000000	99.936100
1925.000000	99.935854
1924.000000	99.935387
1923.000000	99.934281
1922.000000	99.932248
1921.000000	99.929510
1920.000000	99.926956
1919.000000	99.925641
1918.000000	99.925808
1917.000000	99.926326
1916.000000	99.925762
1915.000000	99.923949
1914.000000	99.921876
1913.000000	99.920459
1912.000000	99.919569
1911.000000	99.918302
1910.000000	99.916052
1909.000000	99.913106
1908.000000	99.910316
1907.000000	99.908332
1906.000000	99.907134
1905.000000	99.906116
1904.000000	99.904526
1903.000000	99.902144
1902.000000	99.899617
1901.000000	99.897859
1900.000000	99.897062
1899.000000	99.896491
1898.000000	99.895207
1897.000000	99.892876
1896.000000	99.889777
1895.000000	99.886439
1894.000000	99.883627
1893.000000	99.882237
1892.000000	99.882686
1891.000000	99.884354
1890.000000	99.885844
1889.000000	99.886203
1888.000000	99.885685
1887.000000	99.884781
1886.000000	99.883173
1885.000000	99.880440
1884.000000	99.877314
1883.000000	99.875322
1882.000000	99.875087
1881.000000	99.875563
1880.000000	99.875282
1879.000000	99.874066
1878.000000	99.873034
1877.000000	99.873205
1876.000000	99.874449
1875.000000	99.875696
1874.000000	99.876087
1873.000000	99.875813
1872.000000	99.875725
1871.000000	99.876322
1870.000000	99.877263
1869.000000	99.877743
1868.000000	99.877303
1867.000000	99.876218
1866.000000	99.874979
1865.000000	99.874030
1864.000000	99.874117
1863.000000	99.875961
1862.000000	99.879417
1861.000000	99.883491
1860.000000	99.887292
1859.000000	99.890482
1858.000000	99.892725
1857.000000	99.893568
1856.000000	99.893262
1855.000000	99.893008
1854.000000	99.893768
1853.000000	99.895203
1852.000000	99.896329
1851.000000	99.896922
1850.000000	99.897548
1849.000000	99.898665
1848.000000	99.900152
1847.000000	99.901583
1846.000000	99.902513
1845.000000	99.902612
1844.000000	99.902054
1843.000000	99.901638
1842.000000	99.901944
1841.000000	99.902725
1840.000000	99.903507
1839.000000	99.904201
1838.000000	99.904990
1837.000000	99.905860
1836.000000	99.906480
1835.000000	99.906645
1834.000000	99.906543
1833.000000	99.906585
1832.000000	99.907045
1831.000000	99.907867
1830.000000	99.908640
1829.000000	99.908977
1828.000000	99.908934
1827.000000	99.908807
1826.000000	99.908777
1825.000000	99.908863
1824.000000	99.909058
1823.000000	99.909386
1822.000000	99.909813
1821.000000	99.910180
1820.000000	99.910294
1819.000000	99.910056
1818.000000	99.909523
1817.000000	99.908928
1816.000000	99.908593
1815.000000	99.908745
1814.000000	99.909353
1813.000000	99.910108
1812.000000	99.910649
1811.000000	99.910764
1810.000000	99.910462
1809.000000	99.909920
1808.000000	99.909309
1807.000000	99.908791
1806.000000	99.908573
1805.000000	99.908754
1804.000000	99.909141
1803.000000	99.909363
1802.000000	99.909193
1801.000000	99.908679
1800.000000	99.908094
1799.000000	99.907636
1798.000000	99.907298
1797.000000	99.906784
1796.000000	99.905647
1795.000000	99.903778
1794.000000	99.901859
1793.000000	99.901245
1792.000000	99.902775
1791.000000	99.905421
1790.000000	99.907487
1789.000000	99.908303
1788.000000	99.908266
1787.000000	99.908235
1786.000000	99.908836
1785.000000	99.909957
1784.000000	99.911075
1783.000000	99.912137
1782.000000	99.913488
1781.000000	99.914983
1780.000000	99.916180
1779.000000	99.916945
1778.000000	99.917522
1777.000000	99.917940
1776.000000	99.918142
1775.000000	99.918564
1774.000000	99.919838
1773.000000	99.921973
1772.000000	99.924088
1771.000000	99.925635
1770.000000	99.927292
1769.000000	99.929451
1768.000000	99.931357
1767.000000	99.932127
1766.000000	99.932016
1765.000000	99.932162
1764.000000	99.933416
1763.000000	99.935558
1762.000000	99.937257
1761.000000	99.937378
1760.000000	99.936529
1759.000000	99.936143
1758.000000	99.936939
1757.000000	99.938412
1756.000000	99.939535
1755.000000	99.939913
1754.000000	99.939729
1753.000000	99.939107
1752.000000	99.938254
1751.000000	99.937821
1750.000000	99.938253
1749.000000	99.939198
1748.000000	99.939960
1747.000000	99.940313
1746.000000	99.940565
1745.000000	99.941116
1744.000000	99.942151
1743.000000	99.943399
1742.000000	99.944315
1741.000000	99.944676
1740.000000	99.944838
1739.000000	99.945292
1738.000000	99.946151
1737.000000	99.947161
1736.000000	99.947858
1735.000000	99.947698
1734.000000	99.946553
1733.000000	99.945050
1732.000000	99.944296
1731.000000	99.944614
1730.000000	99.945286
1729.000000	99.945099
1728.000000	99.943657
1727.000000	99.941856
1726.000000	99.940751
1725.000000	99.940518
1724.000000	99.940581
1723.000000	99.940186
1722.000000	99.939026
1721.000000	99.937345
1720.000000	99.935768
1719.000000	99.935042
1718.000000	99.935448
1717.000000	99.936187
1716.000000	99.936287
1715.000000	99.935806
1714.000000	99.935280
1713.000000	99.934881
1712.000000	99.934493
1711.000000	99.934266
1710.000000	99.934415
1709.000000	99.934580
1708.000000	99.934107
1707.000000	99.932950
1706.000000	99.931564
1705.000000	99.930027
1704.000000	99.927996
1703.000000	99.925369
1702.000000	99.922258
1701.000000	99.919339
1700.000000	99.917615
1699.000000	99.916622
1698.000000	99.915681
1697.000000	99.914628
1696.000000	99.913429
1695.000000	99.912336
1694.000000	99.911688
1693.000000	99.911244
1692.000000	99.910431
1691.000000	99.908817
1690.000000	99.906531
1689.000000	99.904241
1688.000000	99.902549
1687.000000	99.901625
1686.000000	99.901389
1685.000000	99.901848
1684.000000	99.902122
1683.000000	99.900955
1682.000000	99.899294
1681.000000	99.898093
1680.000000	99.897113
1679.000000	99.895693
1678.000000	99.893581
1677.000000	99.891098
1676.000000	99.888863
1675.000000	99.887263
1674.000000	99.885954
1673.000000	99.884412
1672.000000	99.882605
1671.000000	99.880796
1670.000000	99.879238
1669.000000	99.877972
1668.000000	99.877099
1667.000000	99.876679
1666.000000	99.876229
1665.000000	99.875087
1664.000000	99.873176
1663.000000	99.871317
1662.000000	99.870199
1661.000000	99.869231
1660.000000	99.867610
1659.000000	99.865580
1658.000000	99.863978
1657.000000	99.863214
1656.000000	99.863038
1655.000000	99.863009
1654.000000	99.863081
1653.000000	99.862284
1652.000000	99.859241
1651.000000	99.855780
1650.000000	99.852169
1649.000000	99.848791
1648.000000	99.845905
1647.000000	99.844182
1646.000000	99.843965
1645.000000	99.844313
1644.000000	99.843626
1643.000000	99.841750
1642.000000	99.840159
1641.000000	99.839868
1640.000000	99.840887
1639.000000	99.843224
1638.000000	99.847124
1637.000000	99.851783
1636.000000	99.854285
1635.000000	99.852827
1634.000000	99.849974
1633.000000	99.847383
1632.000000	99.843650
1631.000000	99.838248
1630.000000	99.833106
1629.000000	99.830625
1628.000000	99.830531
1627.000000	99.830616
1626.000000	99.830389
1625.000000	99.831266
1624.000000	99.834054
1623.000000	99.837521
1622.000000	99.840153
1621.000000	99.842184
1620.000000	99.844417
1619.000000	99.846667
1618.000000	99.847729
1617.000000	99.846979
1616.000000	99.846009
1615.000000	99.847508
1614.000000	99.851835
1613.000000	99.856690
1612.000000	99.859344
1611.000000	99.859096
1610.000000	99.858040
1609.000000	99.858479
1608.000000	99.860481
1607.000000	99.862920
1606.000000	99.865453
1605.000000	99.868296
1604.000000	99.871370
1603.000000	99.874318
1602.000000	99.877053
1601.000000	99.879734
1600.000000	99.882211
1599.000000	99.884044
1598.000000	99.885025
1597.000000	99.885439
1596.000000	99.885695
1595.000000	99.885924
1594.000000	99.886143
1593.000000	99.886500
1592.000000	99.887250
1591.000000	99.888422
1590.000000	99.889530
1589.000000	99.889911
1588.000000	99.889689
1587.000000	99.889960
1586.000000	99.891541
1585.000000	99.893846
1584.000000	99.895557
1583.000000	99.896238
1582.000000	99.896432
1581.000000	99.896680
1580.000000	99.897005
1579.000000	99.897331
1578.000000	99.897820
1577.000000	99.898822
1576.000000	99.900348
1575.000000	99.901785
1574.000000	99.902740
1573.000000	99.903306
1572.000000	99.903712
1571.000000	99.904225
1570.000000	99.905165
1569.000000	99.906459
1568.000000	99.907714
1567.000000	99.908725
1566.000000	99.909454
1565.000000	99.909987
1564.000000	99.910439
1563.000000	99.910919
1562.000000	99.911420
1561.000000	99.911874
1560.000000	99.912355
1559.000000	99.912900
1558.000000	99.913358
1557.000000	99.913812
1556.000000	99.914280
1555.000000	99.914748
1554.000000	99.915209
1553.000000	99.915664
1552.000000	99.916109
1551.000000	99.916537
1550.000000	99.916940
1549.000000	99.917311
1548.000000	99.917653
1547.000000	99.917976
1546.000000	99.918287
1545.000000	99.918591
1544.000000	99.918880
1543.000000	99.919148
1542.000000	99.919394
1541.000000	99.919623
1540.000000	99.919845
1539.000000	99.920060
1538.000000	99.920269
1537.000000	99.920475
1536.000000	99.920675
1535.000000	99.920873
1534.000000	99.921069
1533.000000	99.921264
1532.000000	99.921459
1531.000000	99.921653
1530.000000	99.921849
1529.000000	99.922043
1528.000000	99.922234
1527.000000	99.922418
1526.000000	99.922597
1525.000000	99.922781
1524.000000	99.922973
1523.000000	99.923172
1522.000000	99.923367
1521.000000	99.923547
1520.000000	99.923711
1519.000000	99.923870
1518.000000	99.924028
1517.000000	99.924186
1516.000000	99.924339
1515.000000	99.924487
1514.000000	99.924632
1513.000000	99.924773
1512.000000	99.924907
1511.000000	99.925032
1510.000000	99.925147
1509.000000	99.925256
1508.000000	99.925366
1507.000000	99.925484
1506.000000	99.925616
1505.000000	99.925766
1504.000000	99.925926
1503.000000	99.926087
1502.000000	99.926247
1501.000000	99.926410
1500.000000	99.926585
1499.000000	99.926781
1498.000000	99.927000
1497.000000	99.927239
1496.000000	99.927487
1495.000000	99.927738
1494.000000	99.927990
1493.000000	99.928257
1492.000000	99.928555
1491.000000	99.928867
1490.000000	99.929115
1489.000000	99.929224
1488.000000	99.929209
1487.000000	99.929137
1486.000000	99.929096
1485.000000	99.929141
1484.000000	99.929241
1483.000000	99.929331
1482.000000	99.929372
1481.000000	99.929381
1480.000000	99.929359
1479.000000	99.929272
1478.000000	99.929185
1477.000000	99.929373
1476.000000	99.930068
1475.000000	99.930938
1474.000000	99.931171
1473.000000	99.930088
1472.000000	99.928063
1471.000000	99.926463
1470.000000	99.926069
1469.000000	99.926511
1468.000000	99.927150
1467.000000	99.927791
1466.000000	99.928802
1465.000000	99.930215
1464.000000	99.931101
1463.000000	99.930779
1462.000000	99.929639
1461.000000	99.928630
1460.000000	99.928589
1459.000000	99.930048
1458.000000	99.933014
1457.000000	99.936350
1456.000000	99.938057
1455.000000	99.937523
1454.000000	99.935297
1453.000000	99.932495
1452.000000	99.929962
1451.000000	99.927726
1450.000000	99.925495
1449.000000	99.923652
1448.000000	99.923249
1447.000000	99.924386
1446.000000	99.925515
1445.000000	99.924747
1444.000000	99.921716
1443.000000	99.917790
1442.000000	99.914789
1441.000000	99.913293
1440.000000	99.912464
1439.000000	99.911300
1438.000000	99.909780
1437.000000	99.909531
1436.000000	99.911718
1435.000000	99.914926
1434.000000	99.917166
1433.000000	99.917978
1432.000000	99.917919
1431.000000	99.917755
1430.000000	99.917638
1429.000000	99.917454
1428.000000	99.917865
1427.000000	99.919775
1426.000000	99.923100
1425.000000	99.926520
1424.000000	99.929032
1423.000000	99.931121
1422.000000	99.933479
1421.000000	99.935296
1420.000000	99.935305
1419.000000	99.934271
1418.000000	99.934034
1417.000000	99.935329
1416.000000	99.937622
1415.000000	99.940334
1414.000000	99.943514
1413.000000	99.947032
1412.000000	99.950123
1411.000000	99.952302
1410.000000	99.953872
1409.000000	99.955041
1408.000000	99.955170
1407.000000	99.953881
1406.000000	99.952666
1405.000000	99.953566
1404.000000	99.956412
1403.000000	99.958783
1402.000000	99.959075
1401.000000	99.958327
1400.000000	99.958979
1399.000000	99.962439
1398.000000	99.967658
1397.000000	99.972835
1396.000000	99.977143
1395.000000	99.980626
1394.000000	99.983523
1393.000000	99.985753
1392.000000	99.987092
1391.000000	99.987391
1390.000000	99.987184
1389.000000	99.987775
1388.000000	99.990349
1387.000000	99.994570
1386.000000	99.998550
1385.000000	100.000799
1384.000000	100.001306
1383.000000	100.001058
1382.000000	100.000964
1381.000000	100.000884
1380.000000	99.999766
1379.000000	99.997220
1378.000000	99.994312
1377.000000	99.992335
1376.000000	99.991643
1375.000000	99.992085
1374.000000	99.993301
1373.000000	99.994173
1372.000000	99.993398
1371.000000	99.990840
1370.000000	99.987868
1369.000000	99.985745
1368.000000	99.984569
1367.000000	99.984151
1366.000000	99.984880
1365.000000	99.986761
1364.000000	99.988373
1363.000000	99.988126
1362.000000	99.986735
1361.000000	99.986588
1360.000000	99.988420
1359.000000	99.990958
1358.000000	99.993257
1357.000000	99.995540
1356.000000	99.998017
1355.000000	100.000065
1354.000000	100.000896
1353.000000	100.000373
1352.000000	99.998908
1351.000000	99.997184
1350.000000	99.996115
1349.000000	99.995967
1348.000000	99.995876
1347.000000	99.994758
1346.000000	99.992774
1345.000000	99.991318
1344.000000	99.991577
1343.000000	99.993600
1342.000000	99.996671
1341.000000	99.999855
1340.000000	100.002080
1339.000000	100.002477
1338.000000	100.001174
1337.000000	99.999257
1336.000000	99.997662
1335.000000	99.996472
1334.000000	99.995355
1333.000000	99.994243
1332.000000	99.993434
1331.000000	99.993293
1330.000000	99.993990
1329.000000	99.995336
1328.000000	99.996849
1327.000000	99.998024
1326.000000	99.998560
1325.000000	99.998232
1324.000000	99.997127
1323.000000	99.996090
1322.000000	99.996425
1321.000000	99.998604
1320.000000	100.001422
1319.000000	100.002914
1318.000000	100.002132
1317.000000	99.999640
1316.000000	99.996527
1315.000000	99.993616
1314.000000	99.991517
1313.000000	99.990705
1312.000000	99.991335
1311.000000	99.993326
1310.000000	99.996457
1309.000000	99.999967
1308.000000	100.002436
1307.000000	100.002870
1306.000000	100.001856
1305.000000	100.000752
1304.000000	99.999902
1303.000000	99.998527
1302.000000	99.996483
1301.000000	99.995063
1300.000000	99.995649
1299.000000	99.998119
1298.000000	100.000924
1297.000000	100.002344
1296.000000	100.001543
1295.000000	99.999035
1294.000000	99.996393
1293.000000	99.994931
1292.000000	99.994447
1291.000000	99.993637
1290.000000	99.991721
1289.000000	99.989034
1288.000000	99.986120
1287.000000	99.983463
1286.000000	99.982351
1285.000000	99.984408
1284.000000	99.989188
1283.000000	99.993294
1282.000000	99.993562
1281.000000	99.990755
1280.000000	99.988773
1279.000000	99.990415
1278.000000	99.994982
1277.000000	99.999830
1276.000000	100.002913
1275.000000	100.003572
1274.000000	100.002027
1273.000000	99.998863
1272.000000	99.994905
1271.000000	99.991378
1270.000000	99.989836
1269.000000	99.991144
1268.000000	99.994233
1267.000000	99.996605
1266.000000	99.996548
1265.000000	99.994403
1264.000000	99.991602
1263.000000	99.989652
1262.000000	99.990231
1261.000000	99.994282
1260.000000	99.999765
1259.000000	100.002276
1258.000000	99.999803
1257.000000	99.995593
1256.000000	99.994354
1255.000000	99.996566
1254.000000	99.998384
1253.000000	99.996401
1252.000000	99.990458
1251.000000	99.982389
1250.000000	99.974215
1249.000000	99.967333
1248.000000	99.961583
1247.000000	99.955141
1246.000000	99.946782
1245.000000	99.937903
1244.000000	99.930600
1243.000000	99.924586
1242.000000	99.918462
1241.000000	99.913396
1240.000000	99.912128
1239.000000	99.913850
1238.000000	99.913343
1237.000000	99.906592
1236.000000	99.894638
1235.000000	99.880790
1234.000000	99.866765
1233.000000	99.853396
1232.000000	99.842519
1231.000000	99.835285
1230.000000	99.830041
1229.000000	99.824289
1228.000000	99.817392
1227.000000	99.808954
1226.000000	99.795951
1225.000000	99.774657
1224.000000	99.745396
1223.000000	99.712961
1222.000000	99.681803
1221.000000	99.652387
1220.000000	99.622579
1219.000000	99.590790
1218.000000	99.557049
1217.000000	99.522309
1216.000000	99.487443
1215.000000	99.452193
1214.000000	99.414857
1213.000000	99.373835
1212.000000	99.329639
1211.000000	99.284788
1210.000000	99.241957
1209.000000	99.202719
1208.000000	99.167101
1207.000000	99.133105
1206.000000	99.097803
1205.000000	99.060684
1204.000000	99.024746
1203.000000	98.992061
1202.000000	98.959288
1201.000000	98.920544
1200.000000	98.874575
1199.000000	98.826595
1198.000000	98.782907
1197.000000	98.745794
1196.000000	98.713320
1195.000000	98.681139
1194.000000	98.644411
1193.000000	98.601148
1192.000000	98.554643
1191.000000	98.510397
1190.000000	98.469862
1189.000000	98.429388
1188.000000	98.385763
1187.000000	98.340089
1186.000000	98.295188
1185.000000	98.251467
1184.000000	98.206655
1183.000000	98.158142
1182.000000	98.105038
1181.000000	98.049528
1180.000000	97.996194
1179.000000	97.947749
1178.000000	97.901154
1177.000000	97.850337
1176.000000	97.793005
1175.000000	97.732248
1174.000000	97.671360
1173.000000	97.610275
1172.000000	97.548068
1171.000000	97.485803
1170.000000	97.425454
1169.000000	97.368538
1168.000000	97.316942
1167.000000	97.272580
1166.000000	97.235444
1165.000000	97.204873
1164.000000	97.183673
1163.000000	97.177818
1162.000000	97.190416
1161.000000	97.217562
1160.000000	97.250117
1159.000000	97.277387
1158.000000	97.290036
1157.000000	97.283685
1156.000000	97.261256
1155.000000	97.229846
1154.000000	97.194112
1153.000000	97.153756
1152.000000	97.107119
1151.000000	97.054716
1150.000000	96.999207
1149.000000	96.944481
1148.000000	96.894756
1147.000000	96.851640
1146.000000	96.811794
1145.000000	96.770213
1144.000000	96.725732
1143.000000	96.680568
1142.000000	96.635350
1141.000000	96.588386
1140.000000	96.539428
1139.000000	96.490069
1138.000000	96.440473
1137.000000	96.389730
1136.000000	96.339180
1135.000000	96.290830
1134.000000	96.242598
1133.000000	96.190213
1132.000000	96.134188
1131.000000	96.079875
1130.000000	96.029926
1129.000000	95.981680
1128.000000	95.932810
1127.000000	95.884161
1126.000000	95.835631
1125.000000	95.784315
1124.000000	95.728372
1123.000000	95.668577
1122.000000	95.605543
1121.000000	95.540474
1120.000000	95.479111
1119.000000	95.428483
1118.000000	95.387847
1117.000000	95.348528
1116.000000	95.304732
1115.000000	95.259144
1114.000000	95.215925
1113.000000	95.174195
1112.000000	95.131023
1111.000000	95.085477
1110.000000	95.037382
1109.000000	94.987071
1108.000000	94.938217
1107.000000	94.895528
1106.000000	94.858005
1105.000000	94.819784
1104.000000	94.778976
1103.000000	94.739674
1102.000000	94.703990
1101.000000	94.668812
1100.000000	94.632310
1099.000000	94.596553
1098.000000	94.561838
1097.000000	94.524688
1096.000000	94.484150
1095.000000	94.444175
1094.000000	94.407747
1093.000000	94.374450
1092.000000	94.345021
1091.000000	94.321574
1090.000000	94.301942
1089.000000	94.280877
1088.000000	94.258108
1087.000000	94.237566
1086.000000	94.217355
1085.000000	94.189328
1084.000000	94.151184
1083.000000	94.110497
1082.000000	94.073606
1081.000000	94.038859
1080.000000	94.004748
1079.000000	93.975733
1078.000000	93.954137
1077.000000	93.933552
1076.000000	93.906542
1075.000000	93.873192
1074.000000	93.836835
1073.000000	93.796560
1072.000000	93.749040
1071.000000	93.693366
1070.000000	93.629650
1069.000000	93.556307
1068.000000	93.472165
1067.000000	93.378387
1066.000000	93.276805
1065.000000	93.170592
1064.000000	93.067475
1063.000000	92.976324
1062.000000	92.898386
1061.000000	92.827685
1060.000000	92.761239
1059.000000	92.701729
1058.000000	92.648721
1057.000000	92.595546
1056.000000	92.537742
1055.000000	92.476867
1054.000000	92.412604
1053.000000	92.338604
1052.000000	92.250712
1051.000000	92.152745
1050.000000	92.049307
1049.000000	91.939308
1048.000000	91.821392
1047.000000	91.698887
1046.000000	91.574964
1045.000000	91.449138
1044.000000	91.321775
1043.000000	91.196368
1042.000000	91.074999
1041.000000	90.956760
1040.000000	90.841798
1039.000000	90.731096
1038.000000	90.622167
1037.000000	90.512478
1036.000000	90.407417
1035.000000	90.316425
1034.000000	90.240550
1033.000000	90.172574
1032.000000	90.109981
1031.000000	90.057802
1030.000000	90.016869
1029.000000	89.979328
1028.000000	89.938782
1027.000000	89.896776
1026.000000	89.857592
1025.000000	89.824819
1024.000000	89.803038
1023.000000	89.792543
1022.000000	89.781424
1021.000000	89.754106
1020.000000	89.710423
1019.000000	89.666128
1018.000000	89.632651
1017.000000	89.606595
1016.000000	89.580795
1015.000000	89.554290
1014.000000	89.527997
1013.000000	89.501111
1012.000000	89.475963
1011.000000	89.457443
1010.000000	89.444369
1009.000000	89.429914
1008.000000	89.412731
1007.000000	89.398560
1006.000000	89.389190
1005.000000	89.379964
1004.000000	89.370325
1003.000000	89.366395
1002.000000	89.370194
1001.000000	89.376200
1000.000000	89.381347
999.000000	89.388466
998.000000	89.397189
997.000000	89.402145
996.000000	89.403946
995.000000	89.411784
994.000000	89.430682
993.000000	89.455226
992.000000	89.479637
991.000000	89.505035
990.000000	89.533073
989.000000	89.561706
988.000000	89.591648
987.000000	89.628321
986.000000	89.673132
985.000000	89.720945
984.000000	89.770192
983.000000	89.827363
982.000000	89.897081
981.000000	89.975376
980.000000	90.057011
979.000000	90.142609
978.000000	90.234567
977.000000	90.332521
976.000000	90.436589
975.000000	90.548530
974.000000	90.666047
973.000000	90.782244
972.000000	90.894415
971.000000	91.007973
970.000000	91.128181
969.000000	91.252853
968.000000	91.376434
967.000000	91.497079
966.000000	91.616627
965.000000	91.736808
964.000000	91.857869
963.000000	91.978605
962.000000	92.096471
961.000000	92.209351
960.000000	92.316970
959.000000	92.418844
958.000000	92.512822
957.000000	92.598871
956.000000	92.682374
955.000000	92.769615
954.000000	92.861139
953.000000	92.952711
952.000000	93.040380
951.000000	93.121036
950.000000	93.191809
949.000000	93.254169
948.000000	93.315397
947.000000	93.379939
946.000000	93.441996
945.000000	93.493067
944.000000	93.533958
943.000000	93.572606
942.000000	93.612640
941.000000	93.651728
940.000000	93.689521
939.000000	93.728937
938.000000	93.770114
937.000000	93.810624
936.000000	93.851282
935.000000	93.894581
934.000000	93.938198
933.000000	93.977876
932.000000	94.016196
931.000000	94.060248
930.000000	94.110355
929.000000	94.159206
928.000000	94.202617
927.000000	94.243107
926.000000	94.282246
925.000000	94.318137
924.000000	94.352281
923.000000	94.390603
922.000000	94.434632
921.000000	94.478553
920.000000	94.517693
919.000000	94.553660
918.000000	94.588763
917.000000	94.621694
916.000000	94.651524
915.000000	94.680677
914.000000	94.711853
913.000000	94.746935
912.000000	94.790099
911.000000	94.846125
910.000000	94.914110
909.000000	94.988507
908.000000	95.067162
907.000000	95.151864
906.000000	95.240534
905.000000	95.327320
904.000000	95.412933
903.000000	95.506694
902.000000	95.614356
901.000000	95.730555
900.000000	95.847215
899.000000	95.963178
898.000000	96.080369
897.000000	96.195404
896.000000	96.301440
895.000000	96.396576
894.000000	96.485776
893.000000	96.574886
892.000000	96.665515
891.000000	96.755366
890.000000	96.841373
889.000000	96.922400
888.000000	96.999992
887.000000	97.076832
886.000000	97.154580
885.000000	97.233263
884.000000	97.311543
883.000000	97.386625
882.000000	97.455562
881.000000	97.518489
880.000000	97.579202
879.000000	97.640922
878.000000	97.703269
877.000000	97.765067
876.000000	97.826920
875.000000	97.887821
874.000000	97.943158
873.000000	97.991417
872.000000	98.040190
871.000000	98.099270
870.000000	98.168570
869.000000	98.239022
868.000000	98.305508
867.000000	98.372636
866.000000	98.445931
865.000000	98.522209
864.000000	98.592109
863.000000	98.649962
862.000000	98.698836
861.000000	98.746863
860.000000	98.799826
859.000000	98.856425
858.000000	98.909827
857.000000	98.954351
856.000000	98.990940
855.000000	99.025959
854.000000	99.065086
853.000000	99.108927
852.000000	99.153487
851.000000	99.192897
850.000000	99.222028
849.000000	99.239213
848.000000	99.247979
847.000000	99.255192
846.000000	99.265931
845.000000	99.279561
844.000000	99.290784
843.000000	99.294196
842.000000	99.287596
841.000000	99.271577
840.000000	99.247771
839.000000	99.219294
838.000000	99.191599
837.000000	99.168699
836.000000	99.146758
835.000000	99.115252
834.000000	99.068937
833.000000	99.016965
832.000000	98.974914
831.000000	98.948042
830.000000	98.928175
829.000000	98.908603
828.000000	98.895079
827.000000	98.897203
826.000000	98.914513
825.000000	98.938084
824.000000	98.962153
823.000000	98.986714
822.000000	99.011554
821.000000	99.034985
820.000000	99.056363
819.000000	99.073749
818.000000	99.080724
817.000000	99.070494
816.000000	99.042327
815.000000	99.000824
814.000000	98.949823
813.000000	98.888862
812.000000	98.812873
811.000000	98.711783
810.000000	98.573072
809.000000	98.389884
808.000000	98.166644
807.000000	97.914437
806.000000	97.642980
805.000000	97.361139
804.000000	97.083102
803.000000	96.826750
802.000000	96.604421
801.000000	96.420198
800.000000	96.275883
799.000000	96.173068
798.000000	96.109668
797.000000	96.081839
796.000000	96.089349
795.000000	96.131852
794.000000	96.200606
793.000000	96.281469
792.000000	96.364709
791.000000	96.443513
790.000000	96.505258
789.000000	96.535833
788.000000	96.534080
787.000000	96.512224
786.000000	96.479044
785.000000	96.430521
784.000000	96.360165
783.000000	96.270861
782.000000	96.172746
781.000000	96.076780
780.000000	95.995563
779.000000	95.944165
778.000000	95.933234
777.000000	95.963177
776.000000	96.027163
775.000000	96.116026
774.000000	96.219352
773.000000	96.327463
772.000000	96.435050
771.000000	96.539402
770.000000	96.634642
769.000000	96.712554
768.000000	96.770285
767.000000	96.812752
766.000000	96.846005
765.000000	96.872309
764.000000	96.893198
763.000000	96.912941
762.000000	96.936262
761.000000	96.965375
760.000000	97.000805
759.000000	97.042303
758.000000	97.087719
757.000000	97.133549
756.000000	97.177339
755.000000	97.217580
754.000000	97.252171
753.000000	97.280742
752.000000	97.308376
751.000000	97.343011
750.000000	97.388177
749.000000	97.441003
748.000000	97.497176
747.000000	97.554127
746.000000	97.609158
745.000000	97.659043
744.000000	97.704108
743.000000	97.750819
742.000000	97.808243
741.000000	97.881341
740.000000	97.966529
739.000000	98.052861
738.000000	98.129584
737.000000	98.194695
736.000000	98.254699
735.000000	98.315104
734.000000	98.374116
733.000000	98.426653
732.000000	98.469613
731.000000	98.500243
730.000000	98.514996
729.000000	98.515957
728.000000	98.515586
727.000000	98.527715
726.000000	98.554092
725.000000	98.586349
724.000000	98.619729
723.000000	98.657287
722.000000	98.700749
721.000000	98.745377
720.000000	98.786520
719.000000	98.824935
718.000000	98.862393
717.000000	98.897668
716.000000	98.930547
715.000000	98.965389
714.000000	99.005891
713.000000	99.047698
712.000000	99.080038
711.000000	99.095198
710.000000	99.096087
709.000000	99.094501
708.000000	99.101153
707.000000	99.115401
706.000000	99.123850
705.000000	99.111884
704.000000	99.076771
703.000000	99.026673
702.000000	98.968077
701.000000	98.897542
700.000000	98.804962
699.000000	98.683238
698.000000	98.536143
697.000000	98.382336
696.000000	98.252168
695.000000	98.173761
694.000000	98.159485
693.000000	98.203429
692.000000	98.287320
691.000000	98.388598
690.000000	98.487486
689.000000	98.573404
688.000000	98.645001
687.000000	98.701846
686.000000	98.740988
685.000000	98.765005
684.000000	98.787444
683.000000	98.822986
682.000000	98.872313
681.000000	98.921596
680.000000	98.957406
679.000000	98.979566
678.000000	98.998270
677.000000	99.019772
676.000000	99.039747
675.000000	99.054196
674.000000	99.066055
673.000000	99.082535
672.000000	99.110838
671.000000	99.154076
670.000000	99.207819
669.000000	99.256648
668.000000	99.280426
667.000000	99.286044
666.000000	99.300277
665.000000	99.328895
664.000000	99.367627
663.000000	99.407043
662.000000	99.431117
661.000000	99.429557
660.000000	99.412676
659.000000	99.403909
658.000000	99.412780
657.000000	99.422142
656.000000	99.411241
655.000000	99.383865
654.000000	99.358753
653.000000	99.345448
652.000000	99.343159
651.000000	99.349019
650.000000	99.355545
