4000.000000	101.396237
3999.000000	101.396058
3998.000000	101.395883
3997.000000	101.395694
3996.000000	101.395487
3995.000000	101.395274
3994.000000	101.395063
3993.000000	101.394854
3992.000000	101.394645
3991.000000	101.394429
3990.000000	101.394199
3989.000000	101.393950
3988.000000	101.393685
3987.000000	101.393413
3986.000000	101.393148
3985.000000	101.392898
3984.000000	101.392663
3983.000000	101.392426
3982.000000	101.392156
3981.000000	101.391827
3980.000000	101.391445
3979.000000	101.391047
3978.000000	101.390673
3977.000000	101.390358
3976.000000	101.390117
3975.000000	101.389898
3974.000000	101.389593
3973.000000	101.389129
3972.000000	101.388540
3971.000000	101.387968
3970.000000	101.387569
3969.000000	101.387377
3968.000000	101.387163
3967.000000	101.386592
3966.000000	101.385546
3965.000000	101.384285
3964.000000	101.383218
3963.000000	101.382510
3962.000000	101.381948
3961.000000	101.381160
3960.000000	101.379994
3959.000000	101.378712
3958.000000	101.377864
3957.000000	101.377936
3956.000000	101.378954
3955.000000	101.380304
3954.000000	101.381027
3953.000000	101.380521
3952.000000	101.378998
3951.000000	101.377252
3950.000000	101.375969
3949.000000	101.375422
3948.000000	101.375789
3947.000000	101.377368
3946.000000	101.380198
3945.000000	101.383650
3944.000000	101.386649
3943.000000	101.388329
3942.000000	101.388353
3941.000000	101.386880
3940.000000	101.384445
3939.000000	101.381714
3938.000000	101.379213
3937.000000	101.377241
3936.000000	101.376056
3935.000000	101.376004
3934.000000	101.376937
3933.000000	101.377572
3932.000000	101.375958
3931.000000	101.371346
3930.000000	101.365484
3929.000000	101.361394
3928.000000	101.361115
3927.000000	101.364671
3926.000000	101.370713
3925.000000	101.377511
3924.000000	101.383462
3923.000000	101.387808
3922.000000	101.391243
3921.000000	101.395014
3920.000000	101.399283
3919.000000	101.402537
3918.000000	101.402980
3917.000000	101.400292
3916.000000	101.395908
3915.000000	101.391629
3914.000000	101.388384
3913.000000	101.386054
3912.000000	101.384158
3911.000000	101.382667
3910.000000	101.382310
3909.000000	101.383772
3908.000000	101.386681
3907.000000	101.389623
3906.000000	101.391198
3905.000000	101.391306
3904.000000	101.390858
3903.000000	101.390439
3902.000000	101.389858
3901.000000	101.388689
3900.000000	101.386715
3899.000000	101.384038
3898.000000	101.381225
3897.000000	101.379307
3896.000000	101.379041
3895.000000	101.380011
3894.000000	101.381002
3893.000000	101.381410
3892.000000	101.381999
3891.000000	101.383507
3890.000000	101.385309
3889.000000	101.386204
3888.000000	101.385759
3887.000000	101.384621
3886.000000	101.383872
3885.000000	101.383863
3884.000000	101.384102
3883.000000	101.384144
3882.000000	101.384004
3881.000000	101.383921
3880.000000	101.383958
3879.000000	101.383914
3878.000000	101.383599
3877.000000	101.382999
3876.000000	101.382255
3875.000000	101.381668
3874.000000	101.381515
3873.000000	101.381786
3872.000000	101.382104
3871.000000	101.382203
3870.000000	101.382232
3869.000000	101.382194
3868.000000	101.381743
3867.000000	101.380886
3866.000000	101.380229
3865.000000	101.380215
3864.000000	101.380454
3863.000000	101.380231
3862.000000	101.379599
3861.000000	101.379094
3860.000000	101.378989
3859.000000	101.379336
3858.000000	101.380298
3857.000000	101.381724
3856.000000	101.382487
3855.000000	101.381532
3854.000000	101.380645
3853.000000	101.381722
3852.000000	101.383211
3851.000000	101.383852
3850.000000	101.384453
3849.000000	101.385295
3848.000000	101.385416
3847.000000	101.383701
3846.000000	101.380235
3845.000000	101.376320
3844.000000	101.373356
3843.000000	101.371652
3842.000000	101.370380
3841.000000	101.368612
3840.000000	101.366620
3839.000000	101.365506
3838.000000	101.365789
3837.000000	101.367095
3836.000000	101.368858
3835.000000	101.370833
3834.000000	101.372940
3833.000000	101.375027
3832.000000	101.376838
3831.000000	101.378014
3830.000000	101.378361
3829.000000	101.378026
3828.000000	101.377376
3827.000000	101.376742
3826.000000	101.376155
3825.000000	101.375366
3824.000000	101.374269
3823.000000	101.373195
3822.000000	101.372871
3821.000000	101.373398
3820.000000	101.373771
3819.000000	101.373340
3818.000000	101.372605
3817.000000	101.372431
3816.000000	101.373069
3815.000000	101.373934
3814.000000	101.374300
3813.000000	101.374093
3812.000000	101.373628
3811.000000	101.373160
3810.000000	101.372749
3809.000000	101.372395
3808.000000	101.372159
3807.000000	101.372084
3806.000000	101.372111
3805.000000	101.372174
3804.000000	101.372272
3803.000000	101.372409
3802.000000	101.372552
3801.000000	101.372681
3800.000000	101.372791
3799.000000	101.372876
3798.000000	101.372947
3797.000000	101.373022
3796.000000	101.373107
3795.000000	101.373198
3794.000000	101.373287
3793.000000	101.373368
3792.000000	101.373439
3791.000000	101.373504
3790.000000	101.373568
3789.000000	101.373637
3788.000000	101.373718
3787.000000	101.373817
3786.000000	101.373937
3785.000000	101.374078
3784.000000	101.374236
3783.000000	101.374406
3782.000000	101.374585
3781.000000	101.374779
3780.000000	101.374983
3779.000000	101.375188
3778.000000	101.375377
3777.000000	101.375547
3776.000000	101.375704
3775.000000	101.375859
3774.000000	101.376019
3773.000000	101.376193
3772.000000	101.376385
3771.000000	101.376585
3770.000000	101.376794
3769.000000	101.377000
3768.000000	101.377108
3767.000000	101.377073
3766.000000	101.377070
3765.000000	101.377351
3764.000000	101.377867
3763.000000	101.378218
3762.000000	101.378052
3761.000000	101.377392
3760.000000	101.376608
3759.000000	101.376014
3758.000000	101.375674
3757.000000	101.375559
3756.000000	101.375640
3755.000000	101.375940
3754.000000	101.376574
3753.000000	101.377572
3752.000000	101.378541
3751.000000	101.378807
3750.000000	101.378120
3749.000000	101.377112
3748.000000	101.376475
3747.000000	101.376249
3746.000000	101.376563
3745.000000	101.378505
3744.000000	101.381168
3743.000000	101.381086
3742.000000	101.377527
3741.000000	101.373203
3740.000000	101.370325
3739.000000	101.368437
3738.000000	101.365790
3737.000000	101.362343
3736.000000	101.360556
3735.000000	101.362537
3734.000000	101.367351
3733.000000	101.371966
3732.000000	101.373649
3731.000000	101.371124
3730.000000	101.364966
3729.000000	101.357305
3728.000000	101.350576
3727.000000	101.346191
3726.000000	101.343728
3725.000000	101.341775
3724.000000	101.339789
3723.000000	101.338295
3722.000000	101.337462
3721.000000	101.336440
3720.000000	101.334467
3719.000000	101.331635
3718.000000	101.328569
3717.000000	101.325554
3716.000000	101.322090
3715.000000	101.317574
3714.000000	101.311889
3713.000000	101.305515
3712.000000	101.299346
3711.000000	101.293251
3710.000000	101.286406
3709.000000	101.279268
3708.000000	101.273131
3707.000000	101.268217
3706.000000	101.262873
3705.000000	101.255231
3704.000000	101.245785
3703.000000	101.238269
3702.000000	101.236499
3701.000000	101.239089
3700.000000	101.239617
3699.000000	101.233152
3698.000000	101.220738
3697.000000	101.208027
3696.000000	101.200279
3695.000000	101.198602
3694.000000	101.200295
3693.000000	101.200928
3692.000000	101.196923
3691.000000	101.187845
3690.000000	101.177114
3689.000000	101.167862
3688.000000	101.158787
3687.000000	101.147701
3686.000000	101.135585
3685.000000	101.124910
3684.000000	101.116017
3683.000000	101.106380
3682.000000	101.093799
3681.000000	101.080027
3680.000000	101.068837
3679.000000	101.060013
3678.000000	101.047965
3677.000000	101.029097
3676.000000	101.009466
3675.000000	100.995156
3674.000000	100.982516
3673.000000	100.967249
3672.000000	100.950934
3671.000000	100.937159
3670.000000	100.926693
3669.000000	100.913808
3668.000000	100.893279
3667.000000	100.867907
3666.000000	100.844171
3665.000000	100.825880
3664.000000	100.812570
3663.000000	100.801027
3662.000000	100.788025
3661.000000	100.772218
3660.000000	100.753924
3659.000000	100.734429
3658.000000	100.715418
3657.000000	100.698539
3656.000000	100.682830
3655.000000	100.664477
3654.000000	100.641694
3653.000000	100.616491
3652.000000	100.592546
3651.000000	100.574017
3650.000000	100.564113
3649.000000	100.559961
3648.000000	100.553585
3647.000000	100.540535
3646.000000	100.522559
3645.000000	100.503884
3644.000000	100.488011
3643.000000	100.476077
3642.000000	100.466545
3641.000000	100.456386
3640.000000	100.443024
3639.000000	100.426014
3638.000000	100.406702
3637.000000	100.387357
3636.000000	100.370931
3635.000000	100.360331
3634.000000	100.356056
3633.000000	100.354756
3632.000000	100.351572
3631.000000	100.343960
3630.000000	100.334488
3629.000000	100.326871
3628.000000	100.316411
3627.000000	100.297645
3626.000000	100.275965
3625.000000	100.260213
3624.000000	100.252925
3623.000000	100.250101
3622.000000	100.247190
3621.000000	100.245646
3620.000000	100.253070
3619.000000	100.273783
3618.000000	100.300677
3617.000000	100.321736
3616.000000	100.331689
3615.000000	100.334861
3614.000000	100.340077
3613.000000	100.352425
3612.000000	100.369135
3611.000000	100.384681
3610.000000	100.398102
3609.000000	100.413189
3608.000000	100.431462
3607.000000	100.447212
3606.000000	100.452770
3605.000000	100.446772
3604.000000	100.435313
3603.000000	100.427394
3602.000000	100.428842
3601.000000	100.438692
3600.000000	100.450617
3599.000000	100.458829
3598.000000	100.462758
3597.000000	100.465913
3596.000000	100.471325
3595.000000	100.479415
3594.000000	100.489315
3593.000000	100.500633
3592.000000	100.512681
3591.000000	100.522115
3590.000000	100.523581
3589.000000	100.515166
3588.000000	100.502662
3587.000000	100.493843
3586.000000	100.489378
3585.000000	100.484986
3584.000000	100.478508
3583.000000	100.471146
3582.000000	100.464382
3581.000000	100.458183
3580.000000	100.451851
3579.000000	100.445675
3578.000000	100.441103
3577.000000	100.439297
3576.000000	100.439922
3575.000000	100.441247
3574.000000	100.441522
3573.000000	100.440238
3572.000000	100.438347
3571.000000	100.436828
3570.000000	100.435060
3569.000000	100.431096
3568.000000	100.423999
3567.000000	100.415182
3566.000000	100.406951
3565.000000	100.401062
3564.000000	100.398400
3563.000000	100.398513
3562.000000	100.399702
3561.000000	100.399830
3560.000000	100.397234
3559.000000	100.391469
3558.000000	100.383683
3557.000000	100.375838
3556.000000	100.368985
3555.000000	100.362510
3554.000000	100.355737
3553.000000	100.349916
3552.000000	100.347356
3551.000000	100.348717
3550.000000	100.352284
3549.000000	100.355729
3548.000000	100.357782
3547.000000	100.358125
3546.000000	100.356624
3545.000000	100.353346
3544.000000	100.348820
3543.000000	100.343703
3542.000000	100.338231
3541.000000	100.332456
3540.000000	100.326974
3539.000000	100.322932
3538.000000	100.320992
3537.000000	100.320517
3536.000000	100.319995
3535.000000	100.318463
3534.000000	100.316269
3533.000000	100.314316
3532.000000	100.312719
3531.000000	100.310564
3530.000000	100.307250
3529.000000	100.303909
3528.000000	100.302801
3527.000000	100.305014
3526.000000	100.309141
3525.000000	100.312358
3524.000000	100.312762
3523.000000	100.310461
3522.000000	100.306890
3521.000000	100.303726
3520.000000	100.302135
3519.000000	100.302390
3518.000000	100.303712
3517.000000	100.304756
3516.000000	100.304663
3515.000000	100.303677
3514.000000	100.302709
3513.000000	100.302373
3512.000000	100.302396
3511.000000	100.301794
3510.000000	100.299854
3509.000000	100.297224
3508.000000	100.295839
3507.000000	100.297210
3506.000000	100.300726
3505.000000	100.303833
3504.000000	100.304257
3503.000000	100.301919
3502.000000	100.298568
3501.000000	100.296063
3500.000000	100.295252
3499.000000	100.296030
3498.000000	100.297564
3497.000000	100.298504
3496.000000	100.297734
3495.000000	100.295105
3494.000000	100.291265
3493.000000	100.286932
3492.000000	100.282700
3491.000000	100.279290
3490.000000	100.277222
3489.000000	100.276089
3488.000000	100.274618
3487.000000	100.271734
3486.000000	100.267443
3485.000000	100.262748
3484.000000	100.259028
3483.000000	100.257301
3482.000000	100.257406
3481.000000	100.257635
3480.000000	100.255894
3479.000000	100.251631
3478.000000	100.246223
3477.000000	100.241475
3476.000000	100.238028
3475.000000	100.235469
3474.000000	100.233402
3473.000000	100.231664
3472.000000	100.229744
3471.000000	100.226830
3470.000000	100.222663
3469.000000	100.217816
3468.000000	100.212939
3467.000000	100.208182
3466.000000	100.203598
3465.000000	100.199694
3464.000000	100.197111
3463.000000	100.195892
3462.000000	100.195466
3461.000000	100.195230
3460.000000	100.194908
3459.000000	100.194397
3458.000000	100.193450
3457.000000	100.191691
3456.000000	100.188823
3455.000000	100.184882
3454.000000	100.180447
3453.000000	100.176551
3452.000000	100.173878
3451.000000	100.171909
3450.000000	100.169250
3449.000000	100.165040
3448.000000	100.159756
3447.000000	100.154363
3446.000000	100.149101
3445.000000	100.143761
3444.000000	100.138752
3443.000000	100.134906
3442.000000	100.132100
3441.000000	100.128954
3440.000000	100.124488
3439.000000	100.119660
3438.000000	100.116602
3437.000000	100.116409
3436.000000	100.117998
3435.000000	100.119159
3434.000000	100.118538
3433.000000	100.116560
3432.000000	100.114685
3431.000000	100.113863
3430.000000	100.113616
3429.000000	100.112392
3428.000000	100.108815
3427.000000	100.102711
3426.000000	100.095251
3425.000000	100.088372
3424.000000	100.083887
3423.000000	100.082725
3422.000000	100.084463
3421.000000	100.087456
3420.000000	100.089725
3419.000000	100.090024
3418.000000	100.088154
3417.000000	100.084753
3416.000000	100.081240
3415.000000	100.079526
3414.000000	100.080833
3413.000000	100.084446
3412.000000	100.088069
3411.000000	100.089988
3410.000000	100.090562
3409.000000	100.091242
3408.000000	100.092618
3407.000000	100.094040
3406.000000	100.094799
3405.000000	100.094757
3404.000000	100.093736
3403.000000	100.091252
3402.000000	100.087480
3401.000000	100.084012
3400.000000	100.082889
3399.000000	100.084834
3398.000000	100.088787
3397.000000	100.093082
3396.000000	100.096919
3395.000000	100.100502
3394.000000	100.103970
3393.000000	100.106671
3392.000000	100.107651
3391.000000	100.106684
3390.000000	100.104564
3389.000000	100.102386
3388.000000	100.100804
3387.000000	100.100062
3386.000000	100.100358
3385.000000	100.101751
3384.000000	100.103832
3383.000000	100.105910
3382.000000	100.107654
3381.000000	100.109375
3380.000000	100.111577
3379.000000	100.114332
3378.000000	100.117111
3377.000000	100.119175
3376.000000	100.120204
3375.000000	100.120613
3374.000000	100.121258
3373.000000	100.122770
3372.000000	100.125207
3371.000000	100.128261
3370.000000	100.131673
3369.000000	100.135266
3368.000000	100.138666
3367.000000	100.141326
3366.000000	100.142911
3365.000000	100.143625
3364.000000	100.144137
3363.000000	100.145167
3362.000000	100.147039
3361.000000	100.149570
3360.000000	100.152307
3359.000000	100.154901
3358.000000	100.157273
3357.000000	100.159475
3356.000000	100.161558
3355.000000	100.163611
3354.000000	100.165797
3353.000000	100.168184
3352.000000	100.170593
3351.000000	100.172744
3350.000000	100.174570
3349.000000	100.176267
3348.000000	100.178020
3347.000000	100.179809
3346.000000	100.181573
3345.000000	100.183461
3344.000000	100.185774
3343.000000	100.188623
3342.000000	100.191751
3341.000000	100.194670
3340.000000	100.197019
3339.000000	100.198780
3338.000000	100.200251
3337.000000	100.201851
3336.000000	100.203836
3335.000000	100.206238
3334.000000	100.209031
3333.000000	100.212224
3332.000000	100.215732
3331.000000	100.219214
3330.000000	100.222186
3329.000000	100.224391
3328.000000	100.226024
3327.000000	100.227580
3326.000000	100.229404
3325.000000	100.231453
3324.000000	100.233523
3323.000000	100.235600
3322.000000	100.237915
3321.000000	100.240639
3320.000000	100.243609
3319.000000	100.246421
3318.000000	100.248802
3317.000000	100.250824
3316.000000	100.252767
3315.000000	100.254826
3314.000000	100.256967
3313.000000	100.259082
3312.000000	100.261235
3311.000000	100.263705
3310.000000	100.266782
3309.000000	100.270495
3308.000000	100.274526
3307.000000	100.278357
3306.000000	100.281572
3305.000000	100.284015
3304.000000	100.285774
3303.000000	100.287136
3302.000000	100.288536
3301.000000	100.290392
3300.000000	100.292847
3299.000000	100.295712
3298.000000	100.298715
3297.000000	100.301768
3296.000000	100.304867
3295.000000	100.307773
3294.000000	100.310023
3293.000000	100.311398
3292.000000	100.312402
3291.000000	100.314072
3290.000000	100.317082
3289.000000	100.321069
3288.000000	100.324883
3287.000000	100.327763
3286.000000	100.330057
3285.000000	100.332638
3284.000000	100.335801
3283.000000	100.339048
3282.000000	100.341961
3281.000000	100.344865
3280.000000	100.348379
3279.000000	100.352585
3278.000000	100.356943
3277.000000	100.360874
3276.000000	100.364116
3275.000000	100.366525
3274.000000	100.367973
3273.000000	100.368615
3272.000000	100.369102
3271.000000	100.370270
3270.000000	100.372556
3269.000000	100.375693
3268.000000	100.378867
3267.000000	100.381300
3266.000000	100.382902
3265.000000	100.384364
3264.000000	100.386449
3263.000000	100.389156
3262.000000	100.391741
3261.000000	100.393602
3260.000000	100.395009
3259.000000	100.396869
3258.000000	100.399769
3257.000000	100.403263
3256.000000	100.406166
3255.000000	100.407724
3254.000000	100.408500
3253.000000	100.409915
3252.000000	100.412632
3251.000000	100.415678
3250.000000	100.417544
3249.000000	100.418006
3248.000000	100.418444
3247.000000	100.420382
3246.000000	100.424089
3245.000000	100.428588
3244.000000	100.432478
3243.000000	100.434666
3242.000000	100.434776
3241.000000	100.433431
3240.000000	100.432004
3239.000000	100.431611
3238.000000	100.432317
3237.000000	100.433487
3236.000000	100.434701
3235.000000	100.436101
3234.000000	100.438024
3233.000000	100.440673
3232.000000	100.444164
3231.000000	100.448608
3230.000000	100.453970
3229.000000	100.459785
3228.000000	100.465086
3227.000000	100.468913
3226.000000	100.471390
3225.000000	100.474174
3224.000000	100.479127
3223.000000	100.486148
3222.000000	100.492776
3221.000000	100.496571
3220.000000	100.497539
3219.000000	100.497746
3218.000000	100.498919
3217.000000	100.501036
3216.000000	100.503252
3215.000000	100.505050
3214.000000	100.506212
3213.000000	100.506686
3212.000000	100.507224
3211.000000	100.509422
3210.000000	100.514251
3209.000000	100.520783
3208.000000	100.526906
3207.000000	100.531424
3206.000000	100.534868
3205.000000	100.538321
3204.000000	100.542180
3203.000000	100.546193
3202.000000	100.550081
3201.000000	100.553704
3200.000000	100.556944
3199.000000	100.559769
3198.000000	100.562299
3197.000000	100.564615
3196.000000	100.566714
3195.000000	100.568749
3194.000000	100.571064
3193.000000	100.573799
3192.000000	100.576622
3191.000000	100.579024
3190.000000	100.580885
3189.000000	100.582687
3188.000000	100.585159
3187.000000	100.588668
3186.000000	100.592901
3185.000000	100.597073
3184.000000	100.600572
3183.000000	100.603479
3182.000000	100.606328
3181.000000	100.609456
3180.000000	100.612712
3179.000000	100.615849
3178.000000	100.618900
3177.000000	100.622004
3176.000000	100.625055
3175.000000	100.627834
3174.000000	100.630418
3173.000000	100.633168
3172.000000	100.636273
3171.000000	100.639548
3170.000000	100.642765
3169.000000	100.645995
3168.000000	100.649425
3167.000000	100.652931
3166.000000	100.656073
3165.000000	100.658555
3164.000000	100.660500
3163.000000	100.662319
3162.000000	100.664410
3161.000000	100.666981
3160.000000	100.670049
3159.000000	100.673437
3158.000000	100.676811
3157.000000	100.679909
3156.000000	100.682694
3155.000000	100.685313
3154.000000	100.687949
3153.000000	100.690692
3152.000000	100.693522
3151.000000	100.696374
3150.000000	100.699227
3149.000000	100.702149
3148.000000	100.705224
3147.000000	100.708417
3146.000000	100.711556
3145.000000	100.714485
3144.000000	100.717220
3143.000000	100.719951
3142.000000	100.722860
3141.000000	100.725955
3140.000000	100.729064
3139.000000	100.731975
3138.000000	100.734607
3137.000000	100.737064
3136.000000	100.739564
3135.000000	100.742263
3134.000000	100.745144
3133.000000	100.748049
3132.000000	100.750849
3131.000000	100.753566
3130.000000	100.756311
3129.000000	100.759094
3128.000000	100.761755
3127.000000	100.764123
3126.000000	100.766213
3125.000000	100.768241
3124.000000	100.770459
3123.000000	100.772966
3122.000000	100.775722
3121.000000	100.778676
3120.000000	100.781840
3119.000000	100.785138
3118.000000	100.788234
3117.000000	100.790716
3116.000000	100.792466
3115.000000	100.793815
3114.000000	100.795386
3113.000000	100.797536
3112.000000	100.800133
3111.000000	100.802765
3110.000000	100.805193
3109.000000	100.807538
3108.000000	100.810034
3107.000000	100.812758
3106.000000	100.815627
3105.000000	100.818521
3104.000000	100.821305
3103.000000	100.823798
3102.000000	100.825874
3101.000000	100.827602
3100.000000	100.829191
3099.000000	100.830800
3098.000000	100.832511
3097.000000	100.834472
3096.000000	100.836900
3095.000000	100.839873
3094.000000	100.843215
3093.000000	100.846625
3092.000000	100.849814
3091.000000	100.852509
3090.000000	100.854489
3089.000000	100.855783
3088.000000	100.856760
3087.000000	100.857873
3086.000000	100.859345
3085.000000	100.861205
3084.000000	100.863483
3083.000000	100.866121
3082.000000	100.868765
3081.000000	100.870950
3080.000000	100.872629
3079.000000	100.874303
3078.000000	100.876505
3077.000000	100.879318
3076.000000	100.882531
3075.000000	100.885983
3074.000000	100.889404
3073.000000	100.892124
3072.000000	100.893486
3071.000000	100.893535
3070.000000	100.893235
3069.000000	100.893638
3068.000000	100.894965
3067.000000	100.896783
3066.000000	100.898674
3065.000000	100.900558
3064.000000	100.902475
3063.000000	100.904447
3062.000000	100.906638
3061.000000	100.909286
3060.000000	100.912230
3059.000000	100.914766
3058.000000	100.916310
3057.000000	100.917083
3056.000000	100.917903
3055.000000	100.919328
3054.000000	100.921282
3053.000000	100.923483
3052.000000	100.925870
3051.000000	100.928439
3050.000000	100.930913
3049.000000	100.932882
3048.000000	100.934172
3047.000000	100.934931
3046.000000	100.935499
3045.000000	100.936255
3044.000000	100.937444
3043.000000	100.938935
3042.000000	100.940265
3041.000000	100.941135
3040.000000	100.941810
3039.000000	100.942791
3038.000000	100.944116
3037.000000	100.945267
3036.000000	100.945893
3035.000000	100.946328
3034.000000	100.947179
3033.000000	100.948440
3032.000000	100.949348
3031.000000	100.949205
3030.000000	100.948162
3029.000000	100.947130
3028.000000	100.946879
3027.000000	100.947441
3026.000000	100.948472
3025.000000	100.949964
3024.000000	100.952257
3023.000000	100.955224
3022.000000	100.957820
3021.000000	100.958816
3020.000000	100.957879
3019.000000	100.955750
3018.000000	100.953572
3017.000000	100.952399
3016.000000	100.953156
3015.000000	100.956284
3014.000000	100.960902
3013.000000	100.964640
3012.000000	100.965015
3011.000000	100.961263
3010.000000	100.955062
3009.000000	100.949494
3008.000000	100.946989
3007.000000	100.947911
3006.000000	100.950681
3005.000000	100.953058
3004.000000	100.953598
3003.000000	100.952315
3002.000000	100.950289
3001.000000	100.948624
3000.000000	100.947490
2999.000000	100.946197
2998.000000	100.944326
2997.000000	100.942570
2996.000000	100.941982
2995.000000	100.942514
2994.000000	100.942967
2993.000000	100.942573
2992.000000	100.941846
2991.000000	100.941457
2990.000000	100.941056
2989.000000	100.939910
2988.000000	100.938172
2987.000000	100.936570
2986.000000	100.935183
2985.000000	100.933528
2984.000000	100.931689
2983.000000	100.930194
2982.000000	100.928664
2981.000000	100.925587
2980.000000	100.919807
2979.000000	100.911542
2978.000000	100.901794
2977.000000	100.891612
2976.000000	100.882238
2975.000000	100.875007
2974.000000	100.870323
2973.000000	100.867169
2972.000000	100.864035
2971.000000	100.859882
2970.000000	100.853883
2969.000000	100.845049
2968.000000	100.832854
2967.000000	100.817865
2966.000000	100.801280
2965.000000	100.784365
2964.000000	100.768730
2963.000000	100.756127
2962.000000	100.746681
2961.000000	100.737767
2960.000000	100.726349
2959.000000	100.713043
2958.000000	100.702802
2957.000000	100.700629
2956.000000	100.706846
2955.000000	100.716902
2954.000000	100.725406
2953.000000	100.729847
2952.000000	100.730764
2951.000000	100.729534
2950.000000	100.726757
2949.000000	100.722399
2948.000000	100.716511
2947.000000	100.709257
2946.000000	100.700494
2945.000000	100.689709
2944.000000	100.676363
2943.000000	100.660238
2942.000000	100.641731
2941.000000	100.621853
2940.000000	100.601326
2939.000000	100.579136
2938.000000	100.552494
2937.000000	100.519211
2936.000000	100.480348
2935.000000	100.440208
2934.000000	100.403701
2933.000000	100.373716
2932.000000	100.349846
2931.000000	100.328482
2930.000000	100.304899
2929.000000	100.277325
2928.000000	100.249627
2927.000000	100.228727
2926.000000	100.218975
2925.000000	100.219810
2924.000000	100.228720
2923.000000	100.244589
2922.000000	100.267281
2921.000000	100.295617
2920.000000	100.327398
2919.000000	100.360831
2918.000000	100.395032
2917.000000	100.430022
2916.000000	100.467138
2915.000000	100.508190
2914.000000	100.552509
2913.000000	100.595506
2912.000000	100.631968
2911.000000	100.660754
2910.000000	100.684946
2909.000000	100.707536
2908.000000	100.728395
2907.000000	100.745606
2906.000000	100.758142
2905.000000	100.766495
2904.000000	100.771852
2903.000000	100.776050
2902.000000	100.781827
2901.000000	100.792154
2900.000000	100.808209
2899.000000	100.827852
2898.000000	100.846585
2897.000000	100.860669
2896.000000	100.869902
2895.000000	100.877158
2894.000000	100.885065
2893.000000	100.893659
2892.000000	100.901774
2891.000000	100.909691
2890.000000	100.918971
2889.000000	100.929689
2888.000000	100.939287
2887.000000	100.944986
2886.000000	100.946641
2885.000000	100.946690
2884.000000	100.947707
2883.000000	100.950597
2882.000000	100.954909
2881.000000	100.959990
2880.000000	100.965146
2879.000000	100.968742
2878.000000	100.968082
2877.000000	100.961403
2876.000000	100.950310
2875.000000	100.939344
2874.000000	100.932340
2873.000000	100.929577
2872.000000	100.929019
2871.000000	100.929354
2870.000000	100.930399
2869.000000	100.931052
2868.000000	100.928881
2867.000000	100.922444
2866.000000	100.912741
2865.000000	100.901477
2864.000000	100.888841
2863.000000	100.873912
2862.000000	100.856488
2861.000000	100.837312
2860.000000	100.816941
2859.000000	100.795696
2858.000000	100.774754
2857.000000	100.756171
2856.000000	100.741393
2855.000000	100.730603
2854.000000	100.724136
2853.000000	100.724020
2852.000000	100.733307
2851.000000	100.753594
2850.000000	100.783304
2849.000000	100.818324
2848.000000	100.854175
2847.000000	100.887786
2846.000000	100.918091
2845.000000	100.945823
2844.000000	100.972550
2843.000000	100.998763
2842.000000	101.022611
2841.000000	101.041488
2840.000000	101.055340
2839.000000	101.067256
2838.000000	101.079778
2837.000000	101.091652
2836.000000	101.099880
2835.000000	101.104490
2834.000000	101.109169
2833.000000	101.116760
2832.000000	101.125970
2831.000000	101.133743
2830.000000	101.139584
2829.000000	101.145920
2828.000000	101.154670
2827.000000	101.164847
2826.000000	101.173578
2825.000000	101.178432
2824.000000	101.178644
2823.000000	101.175304
2822.000000	101.171134
2821.000000	101.169367
2820.000000	101.171557
2819.000000	101.176010
2818.000000	101.178901
2817.000000	101.177731
2816.000000	101.174034
2815.000000	101.172444
2814.000000	101.176654
2813.000000	101.186211
2812.000000	101.197196
2811.000000	101.205673
2810.000000	101.210214
2809.000000	101.211553
2808.000000	101.210957
2807.000000	101.209423
2806.000000	101.207983
2805.000000	101.207989
2804.000000	101.210585
2803.000000	101.215772
2802.000000	101.222026
2801.000000	101.227153
2800.000000	101.229853
2799.000000	101.230452
2798.000000	101.230195
2797.000000	101.230152
2796.000000	101.230880
2795.000000	101.232389
2794.000000	101.233793
2793.000000	101.233633
2792.000000	101.231601
2791.000000	101.229651
2790.000000	101.230235
2789.000000	101.233497
2788.000000	101.237342
2787.000000	101.240290
2786.000000	101.242943
2785.000000	101.246223
2784.000000	101.249583
2783.000000	101.251841
2782.000000	101.252823
2781.000000	101.253316
2780.000000	101.254045
2779.000000	101.255262
2778.000000	101.256987
2777.000000	101.259135
2776.000000	101.261351
2775.000000	101.263108
2774.000000	101.264182
2773.000000	101.264936
2772.000000	101.265949
2771.000000	101.267352
2770.000000	101.268772
2769.000000	101.269892
2768.000000	101.270817
2767.000000	101.271885
2766.000000	101.273280
2765.000000	101.274836
2764.000000	101.276151
2763.000000	101.276894
2762.000000	101.277104
2761.000000	101.277271
2760.000000	101.277996
2759.000000	101.279518
2758.000000	101.281557
2757.000000	101.283491
2756.000000	101.284794
2755.000000	101.285316
2754.000000	101.285298
2753.000000	101.285197
2752.000000	101.285339
2751.000000	101.285709
2750.000000	101.286096
2749.000000	101.286424
2748.000000	101.286849
2747.000000	101.287476
2746.000000	101.288157
2745.000000	101.288718
2744.000000	101.289286
2743.000000	101.290175
2742.000000	101.291478
2741.000000	101.292927
2740.000000	101.294131
2739.000000	101.294834
2738.000000	101.294974
2737.000000	101.294685
2736.000000	101.294305
2735.000000	101.294206
2734.000000	101.294561
2733.000000	101.295391
2732.000000	101.296787
2731.000000	101.298852
2730.000000	101.301364
2729.000000	101.303719
2728.000000	101.305367
2727.000000	101.306133
2726.000000	101.306065
2725.000000	101.305257
2724.000000	101.304059
2723.000000	101.303202
2722.000000	101.303305
2721.000000	101.304261
2720.000000	101.305300
2719.000000	101.305707
2718.000000	101.305403
2717.000000	101.304899
2716.000000	101.304888
2715.000000	101.305801
2714.000000	101.307556
2713.000000	101.309570
2712.000000	101.311230
2711.000000	101.312424
2710.000000	101.313411
2709.000000	101.314241
2708.000000	101.314621
2707.000000	101.314431
2706.000000	101.314042
2705.000000	101.313898
2704.000000	101.314019
2703.000000	101.314164
2702.000000	101.314283
2701.000000	101.314526
2700.000000	101.314886
2699.000000	101.315111
2698.000000	101.314996
2697.000000	101.314601
2696.000000	101.314175
2695.000000	101.313987
2694.000000	101.314192
2693.000000	101.314693
2692.000000	101.315129
2691.000000	101.315155
2690.000000	101.314832
2689.000000	101.314650
2688.000000	101.315026
2687.000000	101.315876
2686.000000	101.316732
2685.000000	101.317240
2684.000000	101.317468
2683.000000	101.317720
2682.000000	101.318156
2681.000000	101.318622
2680.000000	101.318841
2679.000000	101.318728
2678.000000	101.318477
2677.000000	101.318352
2676.000000	101.318467
2675.000000	101.318762
2674.000000	101.319096
2673.000000	101.319331
2672.000000	101.319395
2671.000000	101.319317
2670.000000	101.319206
2669.000000	101.319156
2668.000000	101.319177
2667.000000	101.319214
2666.000000	101.319229
2665.000000	101.319231
2664.000000	101.319266
2663.000000	101.319371
2662.000000	101.319552
2661.000000	101.319773
2660.000000	101.319970
2659.000000	101.320091
2658.000000	101.320126
2657.000000	101.320120
2656.000000	101.320148
2655.000000	101.320262
2654.000000	101.320451
2653.000000	101.320652
2652.000000	101.320806
2651.000000	101.320923
2650.000000	101.321069
2649.000000	101.321308
2648.000000	101.321633
2647.000000	101.321973
2646.000000	101.322258
2645.000000	101.322469
2644.000000	101.322645
2643.000000	101.322852
2642.000000	101.323135
2641.000000	101.323487
2640.000000	101.323869
2639.000000	101.324243
2638.000000	101.324585
2637.000000	101.324857
2636.000000	101.325014
2635.000000	101.325077
2634.000000	101.325185
2633.000000	101.325505
2632.000000	101.326088
2631.000000	101.326856
2630.000000	101.327673
2629.000000	101.328396
2628.000000	101.328915
2627.000000	101.329214
2626.000000	101.329424
2625.000000	101.329723
2624.000000	101.330143
2623.000000	101.330591
2622.000000	101.331021
2621.000000	101.331487
2620.000000	101.331982
2619.000000	101.332372
2618.000000	101.332581
2617.000000	101.332704
2616.000000	101.332891
2615.000000	101.333174
2614.000000	101.333523
2613.000000	101.333973
2612.000000	101.334555
2611.000000	101.335141
2610.000000	101.335521
2609.000000	101.335653
2608.000000	101.335706
2607.000000	101.335829
2606.000000	101.335977
2605.000000	101.336061
2604.000000	101.336125
2603.000000	101.336272
2602.000000	101.336505
2601.000000	101.336748
2600.000000	101.336975
2599.000000	101.337220
2598.000000	101.337470
2597.000000	101.337639
2596.000000	101.337657
2595.000000	101.337533
2594.000000	101.337335
2593.000000	101.337117
2592.000000	101.336885
2591.000000	101.336641
2590.000000	101.336439
2589.000000	101.336362
2588.000000	101.336423
2587.000000	101.336517
2586.000000	101.336499
2585.000000	101.336339
2584.000000	101.336126
2583.000000	101.335961
2582.000000	101.335882
2581.000000	101.335885
2580.000000	101.335951
2579.000000	101.336025
2578.000000	101.336022
2577.000000	101.335898
2576.000000	101.335704
2575.000000	101.335550
2574.000000	101.335487
2573.000000	101.335473
2572.000000	101.335455
2571.000000	101.335447
2570.000000	101.335491
2569.000000	101.335592
2568.000000	101.335714
2567.000000	101.335840
2566.000000	101.335982
2565.000000	101.336152
2564.000000	101.336318
2563.000000	101.336422
2562.000000	101.336439
2561.000000	101.336406
2560.000000	101.336415
2559.000000	101.336535
2558.000000	101.336764
2557.000000	101.337043
2556.000000	101.337308
2555.000000	101.337532
2554.000000	101.337746
2553.000000	101.338023
2552.000000	101.338425
2551.000000	101.338945
2550.000000	101.339507
2549.000000	101.340011
2548.000000	101.340393
2547.000000	101.340628
2546.000000	101.340748
2545.000000	101.340853
2544.000000	101.341074
2543.000000	101.341489
2542.000000	101.342061
2541.000000	101.342663
2540.000000	101.343204
2539.000000	101.343661
2538.000000	101.344036
2537.000000	101.344338
2536.000000	101.344616
2535.000000	101.344938
2534.000000	101.345288
2533.000000	101.345551
2532.000000	101.345646
2531.000000	101.345653
2530.000000	101.345786
2529.000000	101.346243
2528.000000	101.347085
2527.000000	101.348167
2526.000000	101.349172
2525.000000	101.349793
2524.000000	101.349897
2523.000000	101.349571
2522.000000	101.349051
2521.000000	101.348616
2520.000000	101.348477
2519.000000	101.348683
2518.000000	101.349172
2517.000000	101.349965
2516.000000	101.351170
2515.000000	101.352690
2514.000000	101.354017
2513.000000	101.354548
2512.000000	101.354083
2511.000000	101.352905
2510.000000	101.351490
2509.000000	101.350264
2508.000000	101.349570
2507.000000	101.349578
2506.000000	101.350156
2505.000000	101.350902
2504.000000	101.351436
2503.000000	101.351619
2502.000000	101.351580
2501.000000	101.351691
2500.000000	101.352352
2499.000000	101.353588
2498.000000	101.354919
2497.000000	101.355818
2496.000000	101.356235
2495.000000	101.356473
2494.000000	101.356680
2493.000000	101.356794
2492.000000	101.356956
2491.000000	101.357574
2490.000000	101.358825
2489.000000	101.360324
2488.000000	101.361476
2487.000000	101.362053
2486.000000	101.362259
2485.000000	101.362363
2484.000000	101.362433
2483.000000	101.362447
2482.000000	101.362505
2481.000000	101.362797
2480.000000	101.363383
2479.000000	101.364075
2478.000000	101.364611
2477.000000	101.364957
2476.000000	101.365362
2475.000000	101.366044
2474.000000	101.366939
2473.000000	101.367779
2472.000000	101.368392
2471.000000	101.368827
2470.000000	101.369215
2469.000000	101.369646
2468.000000	101.370146
2467.000000	101.370707
2466.000000	101.371307
2465.000000	101.371928
2464.000000	101.372568
2463.000000	101.373228
2462.000000	101.373881
2461.000000	101.374476
2460.000000	101.374989
2459.000000	101.375467
2458.000000	101.375989
2457.000000	101.376603
2456.000000	101.377295
2455.000000	101.377993
2454.000000	101.378583
2453.000000	101.378967
2452.000000	101.379167
2451.000000	101.379357
2450.000000	101.379714
2449.000000	101.380264
2448.000000	101.380927
2447.000000	101.381669
2446.000000	101.382486
2445.000000	101.383248
2444.000000	101.383715
2443.000000	101.383800
2442.000000	101.383660
2441.000000	101.383518
2440.000000	101.383468
2439.000000	101.383518
2438.000000	101.383723
2437.000000	101.384166
2436.000000	101.384826
2435.000000	101.385520
2434.000000	101.385987
2433.000000	101.386099
2432.000000	101.386077
2431.000000	101.386417
2430.000000	101.387406
2429.000000	101.388739
2428.000000	101.389759
2427.000000	101.390226
2426.000000	101.390596
2425.000000	101.391419
2424.000000	101.392563
2423.000000	101.393303
2422.000000	101.393142
2421.000000	101.392246
2420.000000	101.391193
2419.000000	101.390478
2418.000000	101.390246
2417.000000	101.390341
2416.000000	101.390474
2415.000000	101.390495
2414.000000	101.390577
2413.000000	101.391036
2412.000000	101.391880
2411.000000	101.392711
2410.000000	101.393117
2409.000000	101.393089
2408.000000	101.392987
2407.000000	101.393152
2406.000000	101.393621
2405.000000	101.394170
2404.000000	101.394592
2403.000000	101.394886
2402.000000	101.395233
2401.000000	101.395795
2400.000000	101.396550
2399.000000	101.397271
2398.000000	101.397687
2397.000000	101.397697
2396.000000	101.397460
2395.000000	101.397309
2394.000000	101.397504
2393.000000	101.398040
2392.000000	101.398672
2391.000000	101.399155
2390.000000	101.399413
2389.000000	101.399459
2388.000000	101.399274
2387.000000	101.398915
2386.000000	101.398682
2385.000000	101.398943
2384.000000	101.399709
2383.000000	101.400573
2382.000000	101.401164
2381.000000	101.401559
2380.000000	101.402094
2379.000000	101.402876
2378.000000	101.403700
2377.000000	101.404375
2376.000000	101.404922
2375.000000	101.405360
2374.000000	101.405500
2373.000000	101.405208
2372.000000	101.404698
2371.000000	101.404377
2370.000000	101.404428
2369.000000	101.404676
2368.000000	101.404834
2367.000000	101.404793
2366.000000	101.404660
2365.000000	101.404604
2364.000000	101.404702
2363.000000	101.404921
2362.000000	101.405170
2361.000000	101.405337
2360.000000	101.405350
2359.000000	101.405198
2358.000000	101.404948
2357.000000	101.404694
2356.000000	101.404474
2355.000000	101.404263
2354.000000	101.404035
2353.000000	101.403787
2352.000000	101.403508
2351.000000	101.403190
2350.000000	101.402840
2349.000000	101.402476
2348.000000	101.402109
2347.000000	101.401735
2346.000000	101.401346
2345.000000	101.400936
2344.000000	101.400500
2343.000000	101.400037
2342.000000	101.399550
2341.000000	101.399047
2340.000000	101.398537
2339.000000	101.398022
2338.000000	101.397497
2337.000000	101.396955
2336.000000	101.396397
2335.000000	101.395832
2334.000000	101.395269
2333.000000	101.394706
2332.000000	101.394139
2331.000000	101.393561
2330.000000	101.392971
2329.000000	101.392369
2328.000000	101.391761
2327.000000	101.391154
2326.000000	101.390558
2325.000000	101.389959
2324.000000	101.389329
2323.000000	101.388650
2322.000000	101.387925
2321.000000	101.387164
2320.000000	101.386395
2319.000000	101.385697
2318.000000	101.385136
2317.000000	101.384700
2316.000000	101.384306
2315.000000	101.383891
2314.000000	101.383432
2313.000000	101.382924
2312.000000	101.382384
2311.000000	101.381851
2310.000000	101.381371
2309.000000	101.380962
2308.000000	101.380612
2307.000000	101.380284
2306.000000	101.379924
2305.000000	101.379486
2304.000000	101.378973
2303.000000	101.378462
2302.000000	101.378044
2301.000000	101.377749
2300.000000	101.377513
2299.000000	101.377230
2298.000000	101.376831
2297.000000	101.376305
2296.000000	101.375717
2295.000000	101.375154
2294.000000	101.374675
2293.000000	101.374272
2292.000000	101.373901
2291.000000	101.373526
2290.000000	101.373137
2289.000000	101.372741
2288.000000	101.372363
2287.000000	101.372032
2286.000000	101.371756
2285.000000	101.371497
2284.000000	101.371192
2283.000000	101.370828
2282.000000	101.370455
2281.000000	101.370136
2280.000000	101.369859
2279.000000	101.369531
2278.000000	101.369079
2277.000000	101.368539
2276.000000	101.368001
2275.000000	101.367515
2274.000000	101.367071
2273.000000	101.366645
2272.000000	101.366222
2271.000000	101.365800
2270.000000	101.365382
2269.000000	101.364962
2268.000000	101.364531
2267.000000	101.364080
2266.000000	101.363611
2265.000000	101.363127
2264.000000	101.362637
2263.000000	101.362152
2262.000000	101.361677
2261.000000	101.361216
2260.000000	101.360762
2259.000000	101.360302
2258.000000	101.359820
2257.000000	101.359307
2256.000000	101.358774
2255.000000	101.358263
2254.000000	101.357811
2253.000000	101.357425
2252.000000	101.357068
2251.000000	101.356699
2250.000000	101.356302
2249.000000	101.355892
2248.000000	101.355506
2247.000000	101.355173
2246.000000	101.354877
2245.000000	101.354565
2244.000000	101.354213
2243.000000	101.353870
2242.000000	101.353592
2241.000000	101.353363
2240.000000	101.353109
2239.000000	101.352788
2238.000000	101.352400
2237.000000	101.351955
2236.000000	101.351502
2235.000000	101.351181
2234.000000	101.351119
2233.000000	101.351233
2232.000000	101.351211
2231.000000	101.350833
2230.000000	101.350210
2229.000000	101.349637
2228.000000	101.349200
2227.000000	101.348715
2226.000000	101.348026
2225.000000	101.347227
2224.000000	101.346566
2223.000000	101.346220
2222.000000	101.346247
2221.000000	101.346614
2220.000000	101.347210
2219.000000	101.347819
2218.000000	101.348195
2217.000000	101.348192
2216.000000	101.347849
2215.000000	101.347355
2214.000000	101.346912
2213.000000	101.346630
2212.000000	101.346537
2211.000000	101.346626
2210.000000	101.346851
2209.000000	101.347181
2208.000000	101.347678
2207.000000	101.348432
2206.000000	101.349320
2205.000000	101.349912
2204.000000	101.349829
2203.000000	101.349191
2202.000000	101.348576
2201.000000	101.348408
2200.000000	101.348497
2199.000000	101.348345
2198.000000	101.347801
2197.000000	101.347262
2196.000000	101.347201
2195.000000	101.347621
2194.000000	101.348059
2193.000000	101.348111
2192.000000	101.347859
2191.000000	101.347751
2190.000000	101.348097
2189.000000	101.348831
2188.000000	101.349646
2187.000000	101.350316
2186.000000	101.350833
2185.000000	101.351267
2184.000000	101.351570
2183.000000	101.351596
2182.000000	101.351315
2181.000000	101.350943
2180.000000	101.350813
2179.000000	101.351076
2178.000000	101.351585
2177.000000	101.352069
2176.000000	101.352405
2175.000000	101.352667
2174.000000	101.352954
2173.000000	101.353271
2172.000000	101.353612
2171.000000	101.354004
2170.000000	101.354435
2169.000000	101.354834
2168.000000	101.355161
2167.000000	101.355462
2166.000000	101.355776
2165.000000	101.356058
2164.000000	101.356254
2163.000000	101.356401
2162.000000	101.356603
2161.000000	101.356913
2160.000000	101.357283
2159.000000	101.357620
2158.000000	101.357880
2157.000000	101.358105
2156.000000	101.358384
2155.000000	101.358763
2154.000000	101.359215
2153.000000	101.359672
2152.000000	101.360097
2151.000000	101.360497
2150.000000	101.360889
2149.000000	101.361288
2148.000000	101.361706
2147.000000	101.362143
2146.000000	101.362586
2145.000000	101.363025
2144.000000	101.363466
2143.000000	101.363922
2142.000000	101.364397
2141.000000	101.364889
2140.000000	101.365393
2139.000000	101.365901
2138.000000	101.366402
2137.000000	101.366882
2136.000000	101.367338
2135.000000	101.367774
2134.000000	101.368198
2133.000000	101.368611
2132.000000	101.369012
2131.000000	101.369403
2130.000000	101.369791
2129.000000	101.370187
2128.000000	101.370594
2127.000000	101.371012
2126.000000	101.371433
2125.000000	101.371853
2124.000000	101.372274
2123.000000	101.372695
2122.000000	101.373120
2121.000000	101.373547
2120.000000	101.373972
2119.000000	101.374394
2118.000000	101.374813
2117.000000	101.375228
2116.000000	101.375640
2115.000000	101.376044
2114.000000	101.376441
2113.000000	101.376832
2112.000000	101.377224
2111.000000	101.377625
2110.000000	101.378047
2109.000000	101.378494
2108.000000	101.378940
2107.000000	101.379338
2106.000000	101.379698
2105.000000	101.380102
2104.000000	101.380607
2103.000000	101.381151
2102.000000	101.381599
2101.000000	101.381892
2100.000000	101.382093
2099.000000	101.382267
2098.000000	101.382385
2097.000000	101.382402
2096.000000	101.382374
2095.000000	101.382425
2094.000000	101.382582
2093.000000	101.382738
2092.000000	101.382825
2091.000000	101.382949
2090.000000	101.383313
2089.000000	101.384112
2088.000000	101.385462
2087.000000	101.387256
2086.000000	101.389037
2085.000000	101.390199
2084.000000	101.390519
2083.000000	101.390365
2082.000000	101.390330
2081.000000	101.390714
2080.000000	101.391426
2079.000000	101.392210
2078.000000	101.392748
2077.000000	101.392719
2076.000000	101.392106
2075.000000	101.391399
2074.000000	101.391227
2073.000000	101.391780
2072.000000	101.392823
2071.000000	101.394241
2070.000000	101.396110
2069.000000	101.398024
2068.000000	101.398915
2067.000000	101.398101
2066.000000	101.396233
2065.000000	101.394864
2064.000000	101.394877
2063.000000	101.395714
2062.000000	101.396268
2061.000000	101.396073
2060.000000	101.395422
2059.000000	101.394774
2058.000000	101.394440
2057.000000	101.394661
2056.000000	101.395535
2055.000000	101.396730
2054.000000	101.397559
2053.000000	101.397531
2052.000000	101.396712
2051.000000	101.395580
2050.000000	101.394639
2049.000000	101.394174
2048.000000	101.394226
2047.000000	101.394687
2046.000000	101.395371
2045.000000	101.395977
2044.000000	101.395984
2043.000000	101.394791
2042.000000	101.392279
2041.000000	101.389296
2040.000000	101.387161
2039.000000	101.386341
2038.000000	101.386000
2037.000000	101.385071
2036.000000	101.383632
2035.000000	101.382711
2034.000000	101.382870
2033.000000	101.383607
2032.000000	101.384192
2031.000000	101.384486
2030.000000	101.384678
2029.000000	101.384755
2028.000000	101.384644
2027.000000	101.384514
2026.000000	101.384493
2025.000000	101.384280
2024.000000	101.383463
2023.000000	101.382182
2022.000000	101.381114
2021.000000	101.380780
2020.000000	101.381125
2019.000000	101.381676
2018.000000	101.381797
2017.000000	101.380896
2016.000000	101.378837
2015.000000	101.376236
2014.000000	101.374108
2013.000000	101.373045
2012.000000	101.372901
2011.000000	101.373158
2010.000000	101.373352
2009.000000	101.373169
2008.000000	101.372446
2007.000000	101.371212
2006.000000	101.369608
2005.000000	101.367684
2004.000000	101.365408
2003.000000	101.363032
2002.000000	101.361211
2001.000000	101.360521
2000.000000	101.360826
1999.000000	101.361236
1998.000000	101.360990
1997.000000	101.360295
1996.000000	101.360040
1995.000000	101.360794
1994.000000	101.362250
1993.000000	101.363490
1992.000000	101.363802
1991.000000	101.363208
1990.000000	101.362200
1989.000000	101.361163
1988.000000	101.360209
1987.000000	101.359393
1986.000000	101.358764
1985.000000	101.358267
1984.000000	101.357850
1983.000000	101.357672
1982.000000	101.357910
1981.000000	101.358353
1980.000000	101.358474
1979.000000	101.358062
1978.000000	101.357598
1977.000000	101.357646
1976.000000	101.358074
1975.000000	101.358278
1974.000000	101.358069
1973.000000	101.357909
1972.000000	101.358190
1971.000000	101.358653
1970.000000	101.358692
1969.000000	101.358081
1968.000000	101.357327
1967.000000	101.357316
1966.000000	101.358541
1965.000000	101.360621
1964.000000	101.362647
1963.000000	101.364086
1962.000000	101.365098
1961.000000	101.365887
1960.000000	101.366038
1959.000000	101.364955
1958.000000	101.362799
1957.000000	101.360532
1956.000000	101.359019
1955.000000	101.358477
1954.000000	101.358769
1953.000000	101.359619
1952.000000	101.360439
1951.000000	101.360647
1950.000000	101.360369
1949.000000	101.360453
1948.000000	101.361435
1947.000000	101.362665
1946.000000	101.362975
1945.000000	101.362041
1944.000000	101.360655
1943.000000	101.359718
1942.000000	101.359312
1941.000000	101.358897
1940.000000	101.358043
1939.000000	101.356697
1938.000000	101.355126
1937.000000	101.353846
1936.000000	101.353402
1935.000000	101.353915
1934.000000	101.354843
1933.000000	101.355284
1932.000000	101.354841
1931.000000	101.353999
1930.000000	101.353276
1929.000000	101.352637
1928.000000	101.351931
1927.000000	101.351444
1926.000000	101.351551
1925.000000	101.351864
1924.000000	101.351608
1923.000000	101.350705
1922.000000	101.349961
1921.000000	101.350117
1920.000000	101.351027
1919.000000	101.351882
1918.000000	101.351624
1917.000000	101.349193
1916.000000	101.344191
1915.000000	101.337514
1914.000000	101.331373
1913.000000	101.327959
1912.000000	101.327447
1911.000000	101.327751
1910.000000	101.326581
1909.000000	101.323720
1908.000000	101.320571
1907.000000	101.318054
1906.000000	101.315855
1905.000000	101.313252
1904.000000	101.310059
1903.000000	101.306435
1902.000000	101.302558
1901.000000	101.299004
1900.000000	101.296310
1899.000000	101.294121
1898.000000	101.291623
1897.000000	101.288648
1896.000000	101.286043
1895.000000	101.284609
1894.000000	101.284119
1893.000000	101.283761
1892.000000	101.282743
1891.000000	101.280358
1890.000000	101.276520
1889.000000	101.272586
1888.000000	101.270410
1887.000000	101.270117
1886.000000	101.269922
1885.000000	101.268169
1884.000000	101.264832
1883.000000	101.261053
1882.000000	101.258028
1881.000000	101.256836
1880.000000	101.257895
1879.000000	101.260134
1878.000000	101.261820
1877.000000	101.262209
1876.000000	101.261907
1875.000000	101.261653
1874.000000	101.261476
1873.000000	101.261521
1872.000000	101.262624
1871.000000	101.265052
1870.000000	101.267233
1869.000000	101.267111
1868.000000	101.265345
1867.000000	101.264710
1866.000000	101.266136
1865.000000	101.268139
1864.000000	101.269368
1863.000000	101.270223
1862.000000	101.272326
1861.000000	101.276803
1860.000000	101.283096
1859.000000	101.289201
1858.000000	101.293309
1857.000000	101.295684
1856.000000	101.298482
1855.000000	101.303416
1854.000000	101.310059
1853.000000	101.316762
1852.000000	101.322120
1851.000000	101.325245
1850.000000	101.326113
1849.000000	101.325874
1848.000000	101.326303
1847.000000	101.328285
1846.000000	101.331221
1845.000000	101.333955
1844.000000	101.335749
1843.000000	101.336382
1842.000000	101.336032
1841.000000	101.335354
1840.000000	101.334853
1839.000000	101.334532
1838.000000	101.334287
1837.000000	101.334420
1836.000000	101.335729
1835.000000	101.338689
1834.000000	101.342936
1833.000000	101.347494
1832.000000	101.350871
1831.000000	101.351774
1830.000000	101.350689
1829.000000	101.349533
1828.000000	101.349087
1827.000000	101.348248
1826.000000	101.346106
1825.000000	101.343697
1824.000000	101.343059
1823.000000	101.344767
1822.000000	101.347440
1821.000000	101.349474
1820.000000	101.350086
1819.000000	101.349093
1818.000000	101.346415
1817.000000	101.342506
1816.000000	101.339155
1815.000000	101.338063
1814.000000	101.338957
1813.000000	101.340065
1812.000000	101.340234
1811.000000	101.340118
1810.000000	101.340316
1809.000000	101.340192
1808.000000	101.339740
1807.000000	101.340133
1806.000000	101.341757
1805.000000	101.343458
1804.000000	101.344291
1803.000000	101.344607
1802.000000	101.345052
1801.000000	101.345424
1800.000000	101.345287
1799.000000	101.344879
1798.000000	101.343939
1797.000000	101.341656
1796.000000	101.338347
1795.000000	101.335330
1794.000000	101.333843
1793.000000	101.334872
1792.000000	101.339420
1791.000000	101.347376
1790.000000	101.355983
1789.000000	101.361792
1788.000000	101.363469
1787.000000	101.361871
1786.000000	101.358767
1785.000000	101.356085
1784.000000	101.355653
1783.000000	101.357714
1782.000000	101.360772
1781.000000	101.363346
1780.000000	101.364936
1779.000000	101.366231
1778.000000	101.368039
1777.000000	101.371041
1776.000000	101.375339
1775.000000	101.379108
1774.000000	101.379738
1773.000000	101.377049
1772.000000	101.374314
1771.000000	101.374370
1770.000000	101.376354
1769.000000	101.378051
1768.000000	101.379495
1767.000000	101.381958
1766.000000	101.384376
1765.000000	101.383928
1764.000000	101.380074
1763.000000	101.376114
1762.000000	101.375318
1761.000000	101.375106
1760.000000	101.370076
1759.000000	101.359684
1758.000000	101.347669
1757.000000	101.337658
1756.000000	101.329591
1755.000000	101.321096
1754.000000	101.311286
1753.000000	101.300745
1752.000000	101.289537
1751.000000	101.276535
1750.000000	101.261034
1749.000000	101.244897
1748.000000	101.232385
1747.000000	101.226517
1746.000000	101.226739
1745.000000	101.229677
1744.000000	101.232062
1743.000000	101.233471
1742.000000	101.235270
1741.000000	101.238059
1740.000000	101.242420
1739.000000	101.249854
1738.000000	101.260166
1737.000000	101.269770
1736.000000	101.274525
1735.000000	101.274128
1734.000000	101.275314
1733.000000	101.283339
1732.000000	101.293948
1731.000000	101.301613
1730.000000	101.305253
1729.000000	101.306597
1728.000000	101.306978
1727.000000	101.306562
1726.000000	101.305902
1725.000000	101.306192
1724.000000	101.307886
1723.000000	101.310749
1722.000000	101.314047
1721.000000	101.317023
1720.000000	101.318976
1719.000000	101.320035
1718.000000	101.321177
1717.000000	101.321627
1716.000000	101.321112
1715.000000	101.321681
1714.000000	101.324059
1713.000000	101.327436
1712.000000	101.330897
1711.000000	101.333185
1710.000000	101.333130
1709.000000	101.330837
1708.000000	101.327155
1707.000000	101.322185
1706.000000	101.315504
1705.000000	101.308349
1704.000000	101.304427
1703.000000	101.305205
1702.000000	101.308263
1701.000000	101.309629
1700.000000	101.308522
1699.000000	101.307855
1698.000000	101.307063
1697.000000	101.302629
1696.000000	101.295127
1695.000000	101.289563
1694.000000	101.287018
1693.000000	101.284134
1692.000000	101.278937
1691.000000	101.271748
1690.000000	101.264049
1689.000000	101.257948
1688.000000	101.254765
1687.000000	101.253339
1686.000000	101.250311
1685.000000	101.241861
1684.000000	101.230137
1683.000000	101.221855
1682.000000	101.217869
1681.000000	101.215213
1680.000000	101.212484
1679.000000	101.210307
1678.000000	101.209164
1677.000000	101.208205
1676.000000	101.205553
1675.000000	101.200317
1674.000000	101.194041
1673.000000	101.188581
1672.000000	101.183918
1671.000000	101.179193
1670.000000	101.174017
1669.000000	101.169281
1668.000000	101.165874
1667.000000	101.163356
1666.000000	101.160822
1665.000000	101.157600
1664.000000	101.153534
1663.000000	101.149110
1662.000000	101.145021
1661.000000	101.141722
1660.000000	101.139100
1659.000000	101.136772
1658.000000	101.134328
1657.000000	101.131805
1656.000000	101.129111
1655.000000	101.125834
1654.000000	101.121086
1653.000000	101.115604
1652.000000	101.111918
1651.000000	101.110391
1650.000000	101.110124
1649.000000	101.110109
1648.000000	101.109119
1647.000000	101.105699
1646.000000	101.100504
1645.000000	101.095896
1644.000000	101.093348
1643.000000	101.092633
1642.000000	101.092857
1641.000000	101.093025
1640.000000	101.092592
1639.000000	101.091181
1638.000000	101.088092
1637.000000	101.082940
1636.000000	101.077983
1635.000000	101.076699
1634.000000	101.078823
1633.000000	101.081180
1632.000000	101.082165
1631.000000	101.081946
1630.000000	101.080909
1629.000000	101.079384
1628.000000	101.077774
1627.000000	101.076344
1626.000000	101.075160
1625.000000	101.074636
1624.000000	101.075716
1623.000000	101.078810
1622.000000	101.082617
1621.000000	101.085645
1620.000000	101.087340
1619.000000	101.087451
1618.000000	101.085790
1617.000000	101.083633
1616.000000	101.083618
1615.000000	101.086153
1614.000000	101.089632
1613.000000	101.093090
1612.000000	101.096427
1611.000000	101.099395
1610.000000	101.101666
1609.000000	101.103882
1608.000000	101.107148
1607.000000	101.111324
1606.000000	101.115262
1605.000000	101.118372
1604.000000	101.120702
1603.000000	101.122602
1602.000000	101.124989
1601.000000	101.128982
1600.000000	101.134485
1599.000000	101.139636
1598.000000	101.142560
1597.000000	101.143369
1596.000000	101.144111
1595.000000	101.146788
1594.000000	101.151664
1593.000000	101.157621
1592.000000	101.163309
1591.000000	101.167758
1590.000000	101.170760
1589.000000	101.173119
1588.000000	101.175888
1587.000000	101.179181
1586.000000	101.182240
1585.000000	101.184664
1584.000000	101.186711
1583.000000	101.188586
1582.000000	101.190420
1581.000000	101.192560
1580.000000	101.195208
1579.000000	101.198018
1578.000000	101.200569
1577.000000	101.203103
1576.000000	101.206190
1575.000000	101.209169
1574.000000	101.211166
1573.000000	101.212756
1572.000000	101.215031
1571.000000	101.218622
1570.000000	101.222709
1569.000000	101.225509
1568.000000	101.226328
1567.000000	101.226069
1566.000000	101.226077
1565.000000	101.227262
1564.000000	101.229626
1563.000000	101.232680
1562.000000	101.235867
1561.000000	101.238861
1560.000000	101.241515
1559.000000	101.243542
1558.000000	101.244867
1557.000000	101.246411
1556.000000	101.248439
1555.000000	101.250099
1554.000000	101.251970
1553.000000	101.254344
1552.000000	101.257444
1551.000000	101.261168
1550.000000	101.265392
1549.000000	101.269143
1548.000000	101.271382
1547.000000	101.271827
1546.000000	101.271087
1545.000000	101.270120
1544.000000	101.269733
1543.000000	101.270432
1542.000000	101.272438
1541.000000	101.274987
1540.000000	101.277118
1539.000000	101.278848
1538.000000	101.280594
1537.000000	101.282437
1536.000000	101.284396
1535.000000	101.287306
1534.000000	101.292463
1533.000000	101.299762
1532.000000	101.306531
1531.000000	101.311183
1530.000000	101.313942
1529.000000	101.315731
1528.000000	101.318197
1527.000000	101.322845
1526.000000	101.329309
1525.000000	101.334679
1524.000000	101.335974
1523.000000	101.332868
1522.000000	101.328539
1521.000000	101.327852
1520.000000	101.332325
1519.000000	101.339809
1518.000000	101.348922
1517.000000	101.358693
1516.000000	101.366672
1515.000000	101.370978
1514.000000	101.372534
1513.000000	101.373181
1512.000000	101.373784
1511.000000	101.374705
1510.000000	101.376102
1509.000000	101.378052
1508.000000	101.381126
1507.000000	101.387227
1506.000000	101.394328
1505.000000	101.397608
1504.000000	101.397485
1503.000000	101.396878
1502.000000	101.397600
1501.000000	101.398637
1500.000000	101.397873
1499.000000	101.394827
1498.000000	101.392375
1497.000000	101.392784
1496.000000	101.394710
1495.000000	101.395552
1494.000000	101.393677
1493.000000	101.389025
1492.000000	101.383534
1491.000000	101.380878
1490.000000	101.382656
1489.000000	101.384335
1488.000000	101.381718
1487.000000	101.377490
1486.000000	101.375467
1485.000000	101.376273
1484.000000	101.377483
1483.000000	101.375650
1482.000000	101.369947
1481.000000	101.362888
1480.000000	101.357696
1479.000000	101.354580
1478.000000	101.351071
1477.000000	101.345422
1476.000000	101.338941
1475.000000	101.332839
1474.000000	101.323463
1473.000000	101.305391
1472.000000	101.280693
1471.000000	101.258383
1470.000000	101.242019
1469.000000	101.228704
1468.000000	101.216198
1467.000000	101.205160
1466.000000	101.197565
1465.000000	101.195058
1464.000000	101.197509
1463.000000	101.202894
1462.000000	101.208637
1461.000000	101.212875
1460.000000	101.214706
1459.000000	101.213285
1458.000000	101.207886
1457.000000	101.200130
1456.000000	101.195036
1455.000000	101.195590
1454.000000	101.199844
1453.000000	101.203694
1452.000000	101.204792
1451.000000	101.204366
1450.000000	101.205615
1449.000000	101.208582
1448.000000	101.209892
1447.000000	101.207647
1446.000000	101.204096
1445.000000	101.202059
1444.000000	101.201153
1443.000000	101.199110
1442.000000	101.194680
1441.000000	101.189093
1440.000000	101.184562
1439.000000	101.182451
1438.000000	101.183353
1437.000000	101.187143
1436.000000	101.192089
1435.000000	101.195722
1434.000000	101.196963
1433.000000	101.195813
1432.000000	101.193518
1431.000000	101.192319
1430.000000	101.193529
1429.000000	101.195503
1428.000000	101.195744
1427.000000	101.194262
1426.000000	101.193260
1425.000000	101.195059
1424.000000	101.199416
1423.000000	101.204182
1422.000000	101.208397
1421.000000	101.212683
1420.000000	101.217183
1419.000000	101.220896
1418.000000	101.223332
1417.000000	101.224749
1416.000000	101.225553
1415.000000	101.226182
1414.000000	101.227139
1413.000000	101.228990
1412.000000	101.232360
1411.000000	101.237533
1410.000000	101.243805
1409.000000	101.248957
1408.000000	101.251212
1407.000000	101.251585
1406.000000	101.253317
1405.000000	101.259238
1404.000000	101.268931
1403.000000	101.279592
1402.000000	101.288886
1401.000000	101.295729
1400.000000	101.300123
1399.000000	101.303315
1398.000000	101.307072
1397.000000	101.311679
1396.000000	101.316078
1395.000000	101.319875
1394.000000	101.324357
1393.000000	101.330689
1392.000000	101.338223
1391.000000	101.346130
1390.000000	101.353959
1389.000000	101.360219
1388.000000	101.362435
1387.000000	101.360088
1386.000000	101.356479
1385.000000	101.355459
1384.000000	101.357501
1383.000000	101.360511
1382.000000	101.362457
1381.000000	101.362616
1380.000000	101.361556
1379.000000	101.360372
1378.000000	101.360197
1377.000000	101.361975
1376.000000	101.366099
1375.000000	101.371591
1374.000000	101.375916
1373.000000	101.376951
1372.000000	101.375189
1371.000000	101.373020
1370.000000	101.372194
1369.000000	101.372726
1368.000000	101.373433
1367.000000	101.373852
1366.000000	101.374878
1365.000000	101.377154
1364.000000	101.380097
1363.000000	101.382927
1362.000000	101.385974
1361.000000	101.390182
1360.000000	101.395363
1359.000000	101.399801
1358.000000	101.401711
1357.000000	101.400747
1356.000000	101.398155
1355.000000	101.395689
1354.000000	101.394308
1353.000000	101.393766
1352.000000	101.393603
1351.000000	101.393794
1350.000000	101.394208
1349.000000	101.394630
1348.000000	101.394998
1347.000000	101.395629
1346.000000	101.396806
1345.000000	101.398201
1344.000000	101.398961
1343.000000	101.398346
1342.000000	101.396167
1341.000000	101.393042
1340.000000	101.390466
1339.000000	101.389972
1338.000000	101.391622
1337.000000	101.393754
1336.000000	101.394856
1335.000000	101.395240
1334.000000	101.396212
1333.000000	101.398078
1332.000000	101.399979
1331.000000	101.401423
1330.000000	101.402661
1329.000000	101.403222
1328.000000	101.401497
1327.000000	101.396832
1326.000000	101.391363
1325.000000	101.388685
1324.000000	101.390390
1323.000000	101.394889
1322.000000	101.399289
1321.000000	101.401626
1320.000000	101.401464
1319.000000	101.399351
1318.000000	101.396047
1317.000000	101.392018
1316.000000	101.387901
1315.000000	101.385379
1314.000000	101.386495
1313.000000	101.391230
1312.000000	101.396482
1311.000000	101.398757
1310.000000	101.397711
1309.000000	101.396147
1308.000000	101.396843
1307.000000	101.399814
1306.000000	101.402562
1305.000000	101.402626
1304.000000	101.399639
1303.000000	101.395573
1302.000000	101.393006
1301.000000	101.392793
1300.000000	101.393576
1299.000000	101.393657
1298.000000	101.392763
1297.000000	101.391800
1296.000000	101.391680
1295.000000	101.392839
1294.000000	101.395081
1293.000000	101.397017
1292.000000	101.396392
1291.000000	101.392191
1290.000000	101.386077
1289.000000	101.380607
1288.000000	101.376148
1287.000000	101.370850
1286.000000	101.363687
1285.000000	101.356213
1284.000000	101.350816
1283.000000	101.348252
1282.000000	101.347389
1281.000000	101.346741
1280.000000	101.345883
1279.000000	101.345813
1278.000000	101.348488
1277.000000	101.355429
1276.000000	101.365808
1275.000000	101.375772
1274.000000	101.380558
1273.000000	101.377949
1272.000000	101.369777
1271.000000	101.360183
1270.000000	101.352389
1269.000000	101.347090
1268.000000	101.343424
1267.000000	101.340531
1266.000000	101.337883
1265.000000	101.334810
1264.000000	101.330715
1263.000000	101.325911
1262.000000	101.321614
1261.000000	101.318769
1260.000000	101.317045
1259.000000	101.315108
1258.000000	101.312003
1257.000000	101.308204
1256.000000	101.305163
1255.000000	101.303402
1254.000000	101.300944
1253.000000	101.294402
1252.000000	101.282291
1251.000000	101.266865
1250.000000	101.252154
1249.000000	101.240634
1248.000000	101.232444
1247.000000	101.226976
1246.000000	101.223563
1245.000000	101.220402
1244.000000	101.214236
1243.000000	101.202298
1242.000000	101.184830
1241.000000	101.165662
1240.000000	101.150066
1239.000000	101.140836
1238.000000	101.135466
1237.000000	101.128042
1236.000000	101.115056
1235.000000	101.098777
1234.000000	101.083831
1233.000000	101.071194
1232.000000	101.057220
1231.000000	101.038138
1230.000000	101.013416
1229.000000	100.984542
1228.000000	100.952536
1227.000000	100.917792
1226.000000	100.881201
1225.000000	100.844329
1224.000000	100.808569
1223.000000	100.773911
1222.000000	100.737929
1221.000000	100.696465
1220.000000	100.646304
1219.000000	100.587198
1218.000000	100.521119
1217.000000	100.450624
1216.000000	100.378859
1215.000000	100.309442
1214.000000	100.243861
1213.000000	100.179560
1212.000000	100.112580
1211.000000	100.041683
1210.000000	99.968436
1209.000000	99.894338
1208.000000	99.819912
1207.000000	99.745807
1206.000000	99.672679
1205.000000	99.600478
1204.000000	99.529235
1203.000000	99.459475
1202.000000	99.390661
1201.000000	99.320911
1200.000000	99.249857
1199.000000	99.180043
1198.000000	99.113736
1197.000000	99.050104
1196.000000	98.987035
1195.000000	98.923276
1194.000000	98.856922
1193.000000	98.784892
1192.000000	98.707073
1191.000000	98.628752
1190.000000	98.555267
1189.000000	98.485423
1188.000000	98.413543
1187.000000	98.336971
1186.000000	98.258165
1185.000000	98.179881
1184.000000	98.101680
1183.000000	98.021519
1182.000000	97.938117
1181.000000	97.850976
1180.000000	97.759683
1179.000000	97.664012
1178.000000	97.564322
1177.000000	97.461914
1176.000000	97.358818
1175.000000	97.256117
1174.000000	97.152472
1173.000000	97.046014
1172.000000	96.937641
1171.000000	96.830127
1170.000000	96.723968
1169.000000	96.617168
1168.000000	96.509919
1167.000000	96.406915
1166.000000	96.314945
1165.000000	96.241553
1164.000000	96.195819
1163.000000	96.185133
1162.000000	96.208589
1161.000000	96.255721
1160.000000	96.311692
1159.000000	96.361215
1158.000000	96.390329
1157.000000	96.391148
1156.000000	96.365834
1155.000000	96.321765
1154.000000	96.262777
1153.000000	96.189493
1152.000000	96.107307
1151.000000	96.026360
1150.000000	95.950992
1149.000000	95.875709
1148.000000	95.795020
1147.000000	95.711653
1146.000000	95.631581
1145.000000	95.556137
1144.000000	95.483064
1143.000000	95.410665
1142.000000	95.336848
1141.000000	95.258119
1140.000000	95.173668
1139.000000	95.087514
1138.000000	95.003471
1137.000000	94.920915
1136.000000	94.837808
1135.000000	94.754044
1134.000000	94.669123
1133.000000	94.580371
1132.000000	94.486487
1131.000000	94.389781
1130.000000	94.292633
1129.000000	94.194677
1128.000000	94.095060
1127.000000	93.994141
1126.000000	93.891900
1125.000000	93.788531
1124.000000	93.687140
1123.000000	93.590978
1122.000000	93.497124
1121.000000	93.398239
1120.000000	93.291900
1119.000000	93.183195
1118.000000	93.077504
1117.000000	92.976574
1116.000000	92.881781
1115.000000	92.793816
1114.000000	92.707918
1113.000000	92.616745
1112.000000	92.519477
1111.000000	92.421374
1110.000000	92.324456
1109.000000	92.226492
1108.000000	92.128901
1107.000000	92.036439
1106.000000	91.948275
1105.000000	91.858933
1104.000000	91.769067
1103.000000	91.684977
1102.000000	91.606237
1101.000000	91.524765
1100.000000	91.438347
1099.000000	91.353788
1098.000000	91.272973
1097.000000	91.188254
1096.000000	91.096417
1095.000000	91.006738
1094.000000	90.928928
1093.000000	90.861553
1092.000000	90.796952
1091.000000	90.729703
1090.000000	90.656826
1089.000000	90.578099
1088.000000	90.499710
1087.000000	90.429790
1086.000000	90.367905
1085.000000	90.307003
1084.000000	90.246367
1083.000000	90.192147
1082.000000	90.143843
1081.000000	90.092357
1080.000000	90.034610
1079.000000	89.978477
1078.000000	89.929167
1077.000000	89.881088
1076.000000	89.827200
1075.000000	89.766139
1074.000000	89.696244
1073.000000	89.612361
1072.000000	89.512405
1071.000000	89.398559
1070.000000	89.269781
1069.000000	89.122469
1068.000000	88.960452
1067.000000	88.794252
1066.000000	88.628572
1065.000000	88.461407
1064.000000	88.297119
1063.000000	88.146856
1062.000000	88.011688
1061.000000	87.878111
1060.000000	87.735694
1059.000000	87.588439
1058.000000	87.444861
1057.000000	87.307699
1056.000000	87.177023
1055.000000	87.051790
1054.000000	86.923632
1053.000000	86.779724
1052.000000	86.616487
1051.000000	86.441117
1050.000000	86.257454
1049.000000	86.062635
1048.000000	85.859386
1047.000000	85.656583
1046.000000	85.455269
1045.000000	85.247731
1044.000000	85.030835
1043.000000	84.807310
1042.000000	84.575805
1041.000000	84.335644
1040.000000	84.100874
1039.000000	83.891204
1038.000000	83.706707
1037.000000	83.529165
1036.000000	83.351016
1035.000000	83.184476
1034.000000	83.038628
1033.000000	82.907207
1032.000000	82.783924
1031.000000	82.671034
1030.000000	82.566895
1029.000000	82.463485
1028.000000	82.362777
1027.000000	82.278294
1026.000000	82.214033
1025.000000	82.157856
1024.000000	82.100696
1023.000000	82.045886
1022.000000	81.994941
1021.000000	81.941393
1020.000000	81.884049
1019.000000	81.829901
1018.000000	81.779125
1017.000000	81.723633
1016.000000	81.664466
1015.000000	81.613312
1014.000000	81.572468
1013.000000	81.531045
1012.000000	81.485709
1011.000000	81.447100
1010.000000	81.420090
1009.000000	81.395520
1008.000000	81.367836
1007.000000	81.343937
1006.000000	81.327864
1005.000000	81.313042
1004.000000	81.296673
1003.000000	81.286809
1002.000000	81.288650
1001.000000	81.297838
1000.000000	81.312473
999.000000	81.337373
998.000000	81.371240
997.000000	81.403549
996.000000	81.429075
995.000000	81.452726
994.000000	81.477277
993.000000	81.500713
992.000000	81.528406
991.000000	81.572137
990.000000	81.632697
989.000000	81.698227
988.000000	81.764057
987.000000	81.839944
986.000000	81.933341
985.000000	82.039669
984.000000	82.153360
983.000000	82.275188
982.000000	82.404953
981.000000	82.539931
980.000000	82.683839
979.000000	82.844758
978.000000	83.021342
977.000000	83.203029
976.000000	83.385708
975.000000	83.574976
974.000000	83.772928
973.000000	83.974647
972.000000	84.178929
971.000000	84.389680
970.000000	84.605544
969.000000	84.820647
968.000000	85.036234
967.000000	85.258609
966.000000	85.484666
965.000000	85.702361
964.000000	85.906974
963.000000	86.104959
962.000000	86.300990
961.000000	86.492937
960.000000	86.680088
959.000000	86.864104
958.000000	87.040951
957.000000	87.203752
956.000000	87.354823
955.000000	87.504252
954.000000	87.656170
953.000000	87.806680
952.000000	87.953988
951.000000	88.098359
950.000000	88.233295
949.000000	88.350214
948.000000	88.452044
947.000000	88.549817
946.000000	88.645788
945.000000	88.733298
944.000000	88.813370
943.000000	88.896008
942.000000	88.982471
941.000000	89.060838
940.000000	89.123971
939.000000	89.179884
938.000000	89.240204
937.000000	89.308843
936.000000	89.385045
935.000000	89.466239
934.000000	89.544454
933.000000	89.611156
932.000000	89.669607
931.000000	89.732868
930.000000	89.806923
929.000000	89.885707
928.000000	89.964415
927.000000	90.045848
926.000000	90.130459
925.000000	90.211898
924.000000	90.286966
923.000000	90.359856
922.000000	90.432334
921.000000	90.499506
920.000000	90.559882
919.000000	90.620580
918.000000	90.687398
917.000000	90.756787
916.000000	90.821738
915.000000	90.879992
914.000000	90.934640
913.000000	90.992810
912.000000	91.064643
911.000000	91.156846
910.000000	91.266836
909.000000	91.389100
908.000000	91.524619
907.000000	91.675257
906.000000	91.833134
905.000000	91.988645
904.000000	92.147626
903.000000	92.326512
902.000000	92.529604
901.000000	92.743172
900.000000	92.953111
899.000000	93.156632
898.000000	93.354622
897.000000	93.544973
896.000000	93.727547
895.000000	93.906187
894.000000	94.082043
893.000000	94.252357
892.000000	94.417327
891.000000	94.580049
890.000000	94.738613
889.000000	94.886860
888.000000	95.024271
887.000000	95.156916
886.000000	95.287797
885.000000	95.415103
884.000000	95.541013
883.000000	95.672075
882.000000	95.808158
881.000000	95.940435
880.000000	96.063581
879.000000	96.181406
878.000000	96.297815
877.000000	96.411760
876.000000	96.525102
875.000000	96.646080
874.000000	96.779328
873.000000	96.919201
872.000000	97.057344
871.000000	97.191098
870.000000	97.322097
869.000000	97.453061
868.000000	97.588225
867.000000	97.729857
866.000000	97.871029
865.000000	97.998151
864.000000	98.105103
863.000000	98.201297
862.000000	98.302645
861.000000	98.416909
860.000000	98.539854
859.000000	98.662357
858.000000	98.778191
857.000000	98.886437
856.000000	98.988703
855.000000	99.084650
854.000000	99.171285
853.000000	99.247334
852.000000	99.316128
851.000000	99.382036
850.000000	99.445581
849.000000	99.503700
848.000000	99.552467
847.000000	99.587691
846.000000	99.606514
845.000000	99.611904
844.000000	99.612370
843.000000	99.613407
842.000000	99.611905
841.000000	99.601937
840.000000	99.581314
839.000000	99.548292
838.000000	99.498278
837.000000	99.431310
836.000000	99.358304
835.000000	99.291608
834.000000	99.232730
833.000000	99.178043
832.000000	99.132464
831.000000	99.105261
830.000000	99.093643
829.000000	99.084780
828.000000	99.076877
827.000000	99.084545
826.000000	99.117225
825.000000	99.163626
824.000000	99.204057
823.000000	99.227880
822.000000	99.234007
821.000000	99.225977
820.000000	99.212229
819.000000	99.200669
818.000000	99.186886
817.000000	99.154990
816.000000	99.093791
815.000000	99.005203
814.000000	98.893684
813.000000	98.755097
812.000000	98.580681
811.000000	98.364627
810.000000	98.101808
809.000000	97.784530
808.000000	97.408628
807.000000	96.979338
806.000000	96.507224
805.000000	96.004564
804.000000	95.490932
803.000000	94.994905
802.000000	94.543057
801.000000	94.152897
800.000000	93.840033
799.000000	93.621006
798.000000	93.501521
797.000000	93.470641
796.000000	93.511618
795.000000	93.608726
794.000000	93.740138
793.000000	93.877478
792.000000	94.000508
791.000000	94.104393
790.000000	94.188208
789.000000	94.244896
788.000000	94.266314
787.000000	94.248379
786.000000	94.185947
785.000000	94.072433
784.000000	93.912365
783.000000	93.727504
782.000000	93.543478
781.000000	93.376083
780.000000	93.235859
779.000000	93.137672
778.000000	93.097457
777.000000	93.124173
776.000000	93.218752
775.000000	93.373008
774.000000	93.564865
773.000000	93.763373
772.000000	93.946333
771.000000	94.110324
770.000000	94.261205
769.000000	94.400019
768.000000	94.520714
767.000000	94.615884
766.000000	94.681263
765.000000	94.719416
764.000000	94.742636
763.000000	94.768298
762.000000	94.807668
761.000000	94.861187
760.000000	94.924901
759.000000	94.996496
758.000000	95.074032
757.000000	95.154535
756.000000	95.236536
755.000000	95.320653
754.000000	95.406665
753.000000	95.492759
752.000000	95.576542
751.000000	95.653591
750.000000	95.718669
749.000000	95.775099
748.000000	95.840189
747.000000	95.932292
746.000000	96.051848
745.000000	96.182234
744.000000	96.309362
743.000000	96.432756
742.000000	96.557567
741.000000	96.685407
740.000000	96.815730
739.000000	96.948520
738.000000	97.082670
737.000000	97.217038
736.000000	97.353181
735.000000	97.490163
734.000000	97.616934
733.000000	97.718368
732.000000	97.790648
731.000000	97.843873
730.000000	97.888380
729.000000	97.926278
728.000000	97.958419
727.000000	97.990725
726.000000	98.028440
725.000000	98.070258
724.000000	98.113367
723.000000	98.160424
722.000000	98.217949
721.000000	98.290778
720.000000	98.379315
719.000000	98.477806
718.000000	98.574132
717.000000	98.656350
716.000000	98.721982
715.000000	98.778377
714.000000	98.833033
713.000000	98.886296
712.000000	98.933363
711.000000	98.968706
710.000000	98.988075
709.000000	98.991944
708.000000	98.988454
707.000000	98.987355
706.000000	98.988474
705.000000	98.980069
704.000000	98.949507
703.000000	98.889910
702.000000	98.794594
701.000000	98.651928
700.000000	98.451562
699.000000	98.195520
698.000000	97.905066
697.000000	97.621174
696.000000	97.394770
695.000000	97.265290
694.000000	97.242834
693.000000	97.311146
692.000000	97.443918
691.000000	97.613907
690.000000	97.792764
689.000000	97.956174
688.000000	98.095309
687.000000	98.216859
686.000000	98.327818
685.000000	98.426639
684.000000	98.510976
683.000000	98.584811
682.000000	98.653572
681.000000	98.717979
680.000000	98.776126
679.000000	98.827470
678.000000	98.873580
677.000000	98.919650
676.000000	98.974480
675.000000	99.043431
674.000000	99.119588
673.000000	99.187977
672.000000	99.240238
671.000000	99.280372
670.000000	99.317356
669.000000	99.363032
668.000000	99.434869
667.000000	99.533225
666.000000	99.633061
665.000000	99.718968
664.000000	99.788723
663.000000	99.846275
662.000000	99.897754
661.000000	99.944363
660.000000	99.977589
659.000000	99.984568
658.000000	99.961277
657.000000	99.920550
656.000000	99.883234
655.000000	99.861434
654.000000	99.850378
653.000000	99.838893
652.000000	99.824772
651.000000	99.812424
650.000000	99.800953
