4000.000000	101.165601
3999.000000	101.164731
3998.000000	101.167406
3997.000000	101.171385
3996.000000	101.174138
3995.000000	101.174897
3994.000000	101.174717
3993.000000	101.174857
3992.000000	101.175279
3991.000000	101.174899
3990.000000	101.172930
3989.000000	101.169684
3988.000000	101.166270
3987.000000	101.163577
3986.000000	101.161681
3985.000000	101.160267
3984.000000	101.159171
3983.000000	101.158133
3982.000000	101.156294
3981.000000	101.152712
3980.000000	101.147699
3979.000000	101.143163
3978.000000	101.141106
3977.000000	101.141915
3976.000000	101.144192
3975.000000	101.146048
3974.000000	101.146424
3973.000000	101.145420
3972.000000	101.143903
3971.000000	101.142887
3970.000000	101.142855
3969.000000	101.143297
3968.000000	101.142992
3967.000000	101.140973
3966.000000	101.137330
3965.000000	101.133110
3964.000000	101.129260
3963.000000	101.125622
3962.000000	101.121157
3961.000000	101.115405
3960.000000	101.109482
3959.000000	101.105285
3958.000000	101.103770
3957.000000	101.104430
3956.000000	101.106291
3955.000000	101.108816
3954.000000	101.111534
3953.000000	101.113314
3952.000000	101.112798
3951.000000	101.109734
3950.000000	101.105400
3949.000000	101.101473
3948.000000	101.098455
3947.000000	101.095541
3946.000000	101.091976
3945.000000	101.088163
3944.000000	101.085406
3943.000000	101.084512
3942.000000	101.084914
3941.000000	101.085252
3940.000000	101.084694
3939.000000	101.083375
3938.000000	101.081817
3937.000000	101.080301
3936.000000	101.078763
3935.000000	101.077077
3934.000000	101.075258
3933.000000	101.073432
3932.000000	101.071670
3931.000000	101.069900
3930.000000	101.068013
3929.000000	101.066041
3928.000000	101.064226
3927.000000	101.062847
3926.000000	101.061947
3925.000000	101.061196
3924.000000	101.060113
3923.000000	101.058512
3922.000000	101.056593
3921.000000	101.054713
3920.000000	101.053089
3919.000000	101.051702
3918.000000	101.050354
3917.000000	101.048961
3916.000000	101.047732
3915.000000	101.046935
3914.000000	101.046449
3913.000000	101.045677
3912.000000	101.044167
3911.000000	101.042295
3910.000000	101.041056
3909.000000	101.040969
3908.000000	101.041337
3907.000000	101.040764
3906.000000	101.038502
3905.000000	101.035259
3904.000000	101.032526
3903.000000	101.030961
3902.000000	101.030130
3901.000000	101.029571
3900.000000	101.029249
3899.000000	101.028876
3898.000000	101.027595
3897.000000	101.024910
3896.000000	101.021468
3895.000000	101.018613
3894.000000	101.017277
3893.000000	101.017345
3892.000000	101.018042
3891.000000	101.018910
3890.000000	101.020186
3889.000000	101.022063
3888.000000	101.023866
3887.000000	101.024658
3886.000000	101.024450
3885.000000	101.023822
3884.000000	101.022411
3883.000000	101.019034
3882.000000	101.013237
3881.000000	101.006589
3880.000000	101.001910
3879.000000	101.000524
3878.000000	101.001016
3877.000000	101.000551
3876.000000	100.997887
3875.000000	100.995100
3874.000000	100.995464
3873.000000	101.000060
3872.000000	101.007214
3871.000000	101.014081
3870.000000	101.018520
3869.000000	101.019866
3868.000000	101.018827
3867.000000	101.016761
3866.000000	101.014888
3865.000000	101.014082
3864.000000	101.014272
3863.000000	101.014159
3862.000000	101.012527
3861.000000	101.009524
3860.000000	101.006591
3859.000000	101.005546
3858.000000	101.007369
3857.000000	101.011191
3856.000000	101.014166
3855.000000	101.013864
3854.000000	101.012191
3853.000000	101.012494
3852.000000	101.013322
3851.000000	101.011988
3850.000000	101.008380
3849.000000	101.003769
3848.000000	100.999394
3847.000000	100.995780
3846.000000	100.992982
3845.000000	100.990953
3844.000000	100.989785
3843.000000	100.989708
3842.000000	100.990800
3841.000000	100.992514
3840.000000	100.993646
3839.000000	100.993014
3838.000000	100.990422
3837.000000	100.986907
3836.000000	100.983827
3835.000000	100.981714
3834.000000	100.980019
3833.000000	100.977763
3832.000000	100.974544
3831.000000	100.970981
3830.000000	100.968116
3829.000000	100.966442
3828.000000	100.965595
3827.000000	100.964742
3826.000000	100.963249
3825.000000	100.960960
3824.000000	100.957974
3823.000000	100.954573
3822.000000	100.951545
3821.000000	100.949787
3820.000000	100.949362
3819.000000	100.949734
3818.000000	100.950122
3817.000000	100.949598
3816.000000	100.947712
3815.000000	100.944838
3814.000000	100.941838
3813.000000	100.939330
3812.000000	100.937430
3811.000000	100.935930
3810.000000	100.934517
3809.000000	100.932918
3808.000000	100.931046
3807.000000	100.929045
3806.000000	100.927123
3805.000000	100.925408
3804.000000	100.923919
3803.000000	100.922486
3802.000000	100.920848
3801.000000	100.918754
3800.000000	100.915989
3799.000000	100.912659
3798.000000	100.909175
3797.000000	100.905934
3796.000000	100.903219
3795.000000	100.901161
3794.000000	100.899669
3793.000000	100.898408
3792.000000	100.896983
3791.000000	100.895294
3790.000000	100.893713
3789.000000	100.892851
3788.000000	100.893059
3787.000000	100.893938
3786.000000	100.894399
3785.000000	100.893545
3784.000000	100.891697
3783.000000	100.890272
3782.000000	100.890168
3781.000000	100.890532
3780.000000	100.889461
3779.000000	100.885837
3778.000000	100.880638
3777.000000	100.876322
3776.000000	100.874740
3775.000000	100.875939
3774.000000	100.878312
3773.000000	100.879494
3772.000000	100.878020
3771.000000	100.874917
3770.000000	100.872763
3769.000000	100.872115
3768.000000	100.870376
3767.000000	100.864846
3766.000000	100.855835
3765.000000	100.846498
3764.000000	100.839632
3763.000000	100.835662
3762.000000	100.833891
3761.000000	100.834466
3760.000000	100.838253
3759.000000	100.844462
3758.000000	100.850323
3757.000000	100.854084
3756.000000	100.856487
3755.000000	100.859295
3754.000000	100.863493
3753.000000	100.868950
3752.000000	100.874803
3751.000000	100.878913
3750.000000	100.878780
3749.000000	100.875452
3748.000000	100.873138
3747.000000	100.873616
3746.000000	100.872967
3745.000000	100.865615
3744.000000	100.851890
3743.000000	100.837873
3742.000000	100.828330
3741.000000	100.824526
3740.000000	100.825765
3739.000000	100.829491
3738.000000	100.832171
3737.000000	100.831701
3736.000000	100.828712
3735.000000	100.825246
3734.000000	100.822284
3733.000000	100.819086
3732.000000	100.814097
3731.000000	100.806461
3730.000000	100.796920
3729.000000	100.787257
3728.000000	100.779381
3727.000000	100.774845
3726.000000	100.774199
3725.000000	100.776106
3724.000000	100.777508
3723.000000	100.775578
3722.000000	100.769853
3721.000000	100.762475
3720.000000	100.756348
3719.000000	100.752685
3718.000000	100.750579
3717.000000	100.748470
3716.000000	100.745548
3715.000000	100.741857
3714.000000	100.737606
3713.000000	100.732930
3712.000000	100.728072
3711.000000	100.723167
3710.000000	100.718237
3709.000000	100.713673
3708.000000	100.709790
3707.000000	100.706109
3706.000000	100.701724
3705.000000	100.696131
3704.000000	100.689838
3703.000000	100.684167
3702.000000	100.680018
3701.000000	100.676648
3700.000000	100.672612
3699.000000	100.667547
3698.000000	100.662304
3697.000000	100.658075
3696.000000	100.655515
3695.000000	100.654335
3694.000000	100.653716
3693.000000	100.653089
3692.000000	100.652308
3691.000000	100.650916
3690.000000	100.647610
3689.000000	100.641348
3688.000000	100.633055
3687.000000	100.625038
3686.000000	100.618347
3685.000000	100.612144
3684.000000	100.604894
3683.000000	100.595424
3682.000000	100.584059
3681.000000	100.572912
3680.000000	100.564911
3679.000000	100.562205
3678.000000	100.565029
3677.000000	100.571476
3676.000000	100.578082
3675.000000	100.580139
3674.000000	100.575861
3673.000000	100.568269
3672.000000	100.559084
3671.000000	100.547044
3670.000000	100.531988
3669.000000	100.515438
3668.000000	100.499146
3667.000000	100.484528
3666.000000	100.471903
3665.000000	100.461241
3664.000000	100.453101
3663.000000	100.447685
3662.000000	100.443715
3661.000000	100.438796
3660.000000	100.430997
3659.000000	100.420222
3658.000000	100.408486
3657.000000	100.398828
3656.000000	100.392608
3655.000000	100.387984
3654.000000	100.382291
3653.000000	100.374791
3652.000000	100.367036
3651.000000	100.362195
3650.000000	100.362420
3649.000000	100.364354
3648.000000	100.361386
3647.000000	100.351889
3646.000000	100.339562
3645.000000	100.327735
3644.000000	100.316793
3643.000000	100.305563
3642.000000	100.293752
3641.000000	100.282636
3640.000000	100.273774
3639.000000	100.267407
3638.000000	100.262183
3637.000000	100.256275
3636.000000	100.248677
3635.000000	100.239837
3634.000000	100.231376
3633.000000	100.225097
3632.000000	100.222176
3631.000000	100.222980
3630.000000	100.227203
3629.000000	100.232508
3628.000000	100.233117
3627.000000	100.225794
3626.000000	100.213365
3625.000000	100.200650
3624.000000	100.191288
3623.000000	100.186627
3622.000000	100.185842
3621.000000	100.187305
3620.000000	100.189805
3619.000000	100.192025
3618.000000	100.192082
3617.000000	100.189268
3616.000000	100.184925
3615.000000	100.181471
3614.000000	100.180901
3613.000000	100.183279
3612.000000	100.186779
3611.000000	100.189504
3610.000000	100.190862
3609.000000	100.191725
3608.000000	100.193358
3607.000000	100.195701
3606.000000	100.197372
3605.000000	100.196874
3604.000000	100.193666
3603.000000	100.188938
3602.000000	100.185275
3601.000000	100.185055
3600.000000	100.188620
3599.000000	100.193914
3598.000000	100.197743
3597.000000	100.197941
3596.000000	100.194878
3595.000000	100.191197
3594.000000	100.189169
3593.000000	100.188318
3592.000000	100.186411
3591.000000	100.182285
3590.000000	100.177355
3589.000000	100.174594
3588.000000	100.175507
3587.000000	100.178067
3586.000000	100.179177
3585.000000	100.178404
3584.000000	100.177293
3583.000000	100.176856
3582.000000	100.176833
3581.000000	100.176397
3580.000000	100.175015
3579.000000	100.172853
3578.000000	100.170593
3577.000000	100.168886
3576.000000	100.167813
3575.000000	100.166851
3574.000000	100.165386
3573.000000	100.163204
3572.000000	100.160444
3571.000000	100.157322
3570.000000	100.154128
3569.000000	100.151530
3568.000000	100.150364
3567.000000	100.150452
3566.000000	100.150288
3565.000000	100.148830
3564.000000	100.146312
3563.000000	100.143224
3562.000000	100.139711
3561.000000	100.135785
3560.000000	100.131609
3559.000000	100.127474
3558.000000	100.123657
3557.000000	100.120351
3556.000000	100.117676
3555.000000	100.115646
3554.000000	100.114107
3553.000000	100.112709
3552.000000	100.110984
3551.000000	100.108546
3550.000000	100.105291
3549.000000	100.101467
3548.000000	100.097671
3547.000000	100.094604
3546.000000	100.092637
3545.000000	100.091539
3544.000000	100.090715
3543.000000	100.089614
3542.000000	100.087839
3541.000000	100.085268
3540.000000	100.082221
3539.000000	100.079417
3538.000000	100.077590
3537.000000	100.077057
3536.000000	100.077464
3535.000000	100.077871
3534.000000	100.077301
3533.000000	100.075293
3532.000000	100.072102
3531.000000	100.068541
3530.000000	100.065436
3529.000000	100.063085
3528.000000	100.061150
3527.000000	100.058973
3526.000000	100.056141
3525.000000	100.052819
3524.000000	100.049643
3523.000000	100.047213
3522.000000	100.045680
3521.000000	100.044806
3520.000000	100.044241
3519.000000	100.043661
3518.000000	100.042721
3517.000000	100.041118
3516.000000	100.038839
3515.000000	100.036275
3514.000000	100.033978
3513.000000	100.032192
3512.000000	100.030740
3511.000000	100.029322
3510.000000	100.027833
3509.000000	100.026334
3508.000000	100.024786
3507.000000	100.022981
3506.000000	100.020794
3505.000000	100.018414
3504.000000	100.016266
3503.000000	100.014627
3502.000000	100.013391
3501.000000	100.012203
3500.000000	100.010779
3499.000000	100.009108
3498.000000	100.007411
3497.000000	100.005981
3496.000000	100.004938
3495.000000	100.003994
3494.000000	100.002523
3493.000000	100.000047
3492.000000	99.996633
3491.000000	99.992972
3490.000000	99.989919
3489.000000	99.987840
3488.000000	99.986545
3487.000000	99.985629
3486.000000	99.984905
3485.000000	99.984419
3484.000000	99.984139
3483.000000	99.983717
3482.000000	99.982596
3481.000000	99.980379
3480.000000	99.977166
3479.000000	99.973574
3478.000000	99.970283
3477.000000	99.967591
3476.000000	99.965478
3475.000000	99.963960
3474.000000	99.963122
3473.000000	99.962712
3472.000000	99.961981
3471.000000	99.960187
3470.000000	99.957309
3469.000000	99.954142
3468.000000	99.951613
3467.000000	99.949963
3466.000000	99.948544
3465.000000	99.946448
3464.000000	99.943410
3463.000000	99.940074
3462.000000	99.937288
3461.000000	99.935298
3460.000000	99.933859
3459.000000	99.932958
3458.000000	99.932929
3457.000000	99.933772
3456.000000	99.934901
3455.000000	99.935753
3454.000000	99.936167
3453.000000	99.935879
3452.000000	99.934166
3451.000000	99.930540
3450.000000	99.925593
3449.000000	99.920611
3448.000000	99.916340
3447.000000	99.912691
3446.000000	99.909405
3445.000000	99.906281
3444.000000	99.902868
3443.000000	99.898684
3442.000000	99.893945
3441.000000	99.889560
3440.000000	99.886210
3439.000000	99.883856
3438.000000	99.882253
3437.000000	99.881473
3436.000000	99.881603
3435.000000	99.882180
3434.000000	99.882270
3433.000000	99.881110
3432.000000	99.878510
3431.000000	99.874792
3430.000000	99.870658
3429.000000	99.866980
3428.000000	99.864370
3427.000000	99.862773
3426.000000	99.861494
3425.000000	99.859705
3424.000000	99.857112
3423.000000	99.854150
3422.000000	99.851558
3421.000000	99.849631
3420.000000	99.847958
3419.000000	99.845892
3418.000000	99.843261
3417.000000	99.840461
3416.000000	99.837997
3415.000000	99.835981
3414.000000	99.834156
3413.000000	99.832245
3412.000000	99.830224
3411.000000	99.828225
3410.000000	99.826319
3409.000000	99.824479
3408.000000	99.822644
3407.000000	99.820773
3406.000000	99.818856
3405.000000	99.816911
3404.000000	99.814994
3403.000000	99.813157
3402.000000	99.811415
3401.000000	99.809739
3400.000000	99.808093
3399.000000	99.806470
3398.000000	99.804879
3397.000000	99.803316
3396.000000	99.801761
3395.000000	99.800196
3394.000000	99.798622
3393.000000	99.797048
3392.000000	99.795456
3391.000000	99.793800
3390.000000	99.792051
3389.000000	99.790290
3388.000000	99.788714
3387.000000	99.787505
3386.000000	99.786654
3385.000000	99.785871
3384.000000	99.784811
3383.000000	99.783442
3382.000000	99.782086
3381.000000	99.781053
3380.000000	99.780254
3379.000000	99.779299
3378.000000	99.777943
3377.000000	99.776280
3376.000000	99.774524
3375.000000	99.772793
3374.000000	99.771175
3373.000000	99.769882
3372.000000	99.769131
3371.000000	99.768876
3370.000000	99.768788
3369.000000	99.768413
3368.000000	99.767431
3367.000000	99.765840
3366.000000	99.764017
3365.000000	99.762493
3364.000000	99.761594
3363.000000	99.761286
3362.000000	99.761342
3361.000000	99.761549
3360.000000	99.761718
3359.000000	99.761698
3358.000000	99.761508
3357.000000	99.761303
3356.000000	99.761065
3355.000000	99.760477
3354.000000	99.759280
3353.000000	99.757673
3352.000000	99.756171
3351.000000	99.755064
3350.000000	99.754220
3349.000000	99.753420
3348.000000	99.752617
3347.000000	99.751805
3346.000000	99.750855
3345.000000	99.749778
3344.000000	99.749043
3343.000000	99.749282
3342.000000	99.750618
3341.000000	99.752358
3340.000000	99.753480
3339.000000	99.753587
3338.000000	99.753121
3337.000000	99.752699
3336.000000	99.752385
3335.000000	99.751817
3334.000000	99.750887
3333.000000	99.749938
3332.000000	99.749288
3331.000000	99.748793
3330.000000	99.748110
3329.000000	99.747222
3328.000000	99.746508
3327.000000	99.746274
3326.000000	99.746407
3325.000000	99.746515
3324.000000	99.746350
3323.000000	99.745988
3322.000000	99.745643
3321.000000	99.745436
3320.000000	99.745328
3319.000000	99.745200
3318.000000	99.744971
3317.000000	99.744670
3316.000000	99.744394
3315.000000	99.744179
3314.000000	99.743948
3313.000000	99.743596
3312.000000	99.743127
3311.000000	99.742650
3310.000000	99.742258
3309.000000	99.741920
3308.000000	99.741543
3307.000000	99.741087
3306.000000	99.740588
3305.000000	99.740104
3304.000000	99.739650
3303.000000	99.739205
3302.000000	99.738740
3301.000000	99.738243
3300.000000	99.737718
3299.000000	99.737173
3298.000000	99.736604
3297.000000	99.736007
3296.000000	99.735389
3295.000000	99.734768
3294.000000	99.734168
3293.000000	99.733600
3292.000000	99.733051
3291.000000	99.732500
3290.000000	99.731940
3289.000000	99.731377
3288.000000	99.730791
3287.000000	99.730133
3286.000000	99.729372
3285.000000	99.728545
3284.000000	99.727732
3283.000000	99.726975
3282.000000	99.726233
3281.000000	99.725431
3280.000000	99.724542
3279.000000	99.723565
3278.000000	99.722482
3277.000000	99.721325
3276.000000	99.720254
3275.000000	99.719451
3274.000000	99.718886
3273.000000	99.718263
3272.000000	99.717287
3271.000000	99.715952
3270.000000	99.714552
3269.000000	99.713415
3268.000000	99.712634
3267.000000	99.712063
3266.000000	99.711472
3265.000000	99.710688
3264.000000	99.709597
3263.000000	99.708122
3262.000000	99.706314
3261.000000	99.704490
3260.000000	99.703135
3259.000000	99.702551
3258.000000	99.702632
3257.000000	99.702971
3256.000000	99.703196
3255.000000	99.703121
3254.000000	99.702584
3253.000000	99.701357
3252.000000	99.699346
3251.000000	99.696860
3250.000000	99.694575
3249.000000	99.693062
3248.000000	99.692385
3247.000000	99.692120
3246.000000	99.691733
3245.000000	99.690948
3244.000000	99.689804
3243.000000	99.688526
3242.000000	99.687480
3241.000000	99.687133
3240.000000	99.687784
3239.000000	99.689256
3238.000000	99.690866
3237.000000	99.691811
3236.000000	99.691685
3235.000000	99.690586
3234.000000	99.688938
3233.000000	99.687305
3232.000000	99.686217
3231.000000	99.685975
3230.000000	99.686462
3229.000000	99.687154
3228.000000	99.687475
3227.000000	99.687229
3226.000000	99.686632
3225.000000	99.686022
3224.000000	99.685559
3223.000000	99.685202
3222.000000	99.684857
3221.000000	99.684477
3220.000000	99.684080
3219.000000	99.683720
3218.000000	99.683453
3217.000000	99.683280
3216.000000	99.683117
3215.000000	99.682844
3214.000000	99.682426
3213.000000	99.681965
3212.000000	99.681612
3211.000000	99.681391
3210.000000	99.681176
3209.000000	99.680842
3208.000000	99.680429
3207.000000	99.680071
3206.000000	99.679827
3205.000000	99.679633
3204.000000	99.679408
3203.000000	99.679153
3202.000000	99.678919
3201.000000	99.678733
3200.000000	99.678563
3199.000000	99.678351
3198.000000	99.678051
3197.000000	99.677666
3196.000000	99.677278
3195.000000	99.677009
3194.000000	99.676933
3193.000000	99.676994
3192.000000	99.677035
3191.000000	99.676956
3190.000000	99.676779
3189.000000	99.676527
3188.000000	99.676082
3187.000000	99.675301
3186.000000	99.674250
3185.000000	99.673293
3184.000000	99.672818
3183.000000	99.672939
3182.000000	99.673464
3181.000000	99.674005
3180.000000	99.674236
3179.000000	99.674066
3178.000000	99.673660
3177.000000	99.673259
3176.000000	99.672925
3175.000000	99.672566
3174.000000	99.672170
3173.000000	99.671857
3172.000000	99.671658
3171.000000	99.671481
3170.000000	99.671390
3169.000000	99.671692
3168.000000	99.672485
3167.000000	99.673258
3166.000000	99.673351
3165.000000	99.672772
3164.000000	99.672245
3163.000000	99.672363
3162.000000	99.672875
3161.000000	99.673028
3160.000000	99.672425
3159.000000	99.671295
3158.000000	99.670117
3157.000000	99.669155
3156.000000	99.668380
3155.000000	99.667675
3154.000000	99.666985
3153.000000	99.666327
3152.000000	99.665729
3151.000000	99.665199
3150.000000	99.664783
3149.000000	99.664592
3148.000000	99.664654
3147.000000	99.664796
3146.000000	99.664798
3145.000000	99.664642
3144.000000	99.664494
3143.000000	99.664418
3142.000000	99.664260
3141.000000	99.663871
3140.000000	99.663332
3139.000000	99.662811
3138.000000	99.662320
3137.000000	99.661716
3136.000000	99.660919
3135.000000	99.660016
3134.000000	99.659197
3133.000000	99.658613
3132.000000	99.658319
3131.000000	99.658271
3130.000000	99.658281
3129.000000	99.658047
3128.000000	99.657369
3127.000000	99.656303
3126.000000	99.655142
3125.000000	99.654173
3124.000000	99.653453
3123.000000	99.652862
3122.000000	99.652262
3121.000000	99.651613
3120.000000	99.650944
3119.000000	99.650275
3118.000000	99.649612
3117.000000	99.648975
3116.000000	99.648402
3115.000000	99.647905
3114.000000	99.647468
3113.000000	99.647085
3112.000000	99.646756
3111.000000	99.646424
3110.000000	99.645952
3109.000000	99.645223
3108.000000	99.644260
3107.000000	99.643234
3106.000000	99.642330
3105.000000	99.641631
3104.000000	99.641113
3103.000000	99.640691
3102.000000	99.640260
3101.000000	99.639695
3100.000000	99.638892
3099.000000	99.637813
3098.000000	99.636544
3097.000000	99.635325
3096.000000	99.634433
3095.000000	99.634002
3094.000000	99.633913
3093.000000	99.633867
3092.000000	99.633624
3091.000000	99.633151
3090.000000	99.632546
3089.000000	99.631900
3088.000000	99.631240
3087.000000	99.630572
3086.000000	99.629938
3085.000000	99.629361
3084.000000	99.628806
3083.000000	99.628233
3082.000000	99.627675
3081.000000	99.627205
3080.000000	99.626816
3079.000000	99.626397
3078.000000	99.625842
3077.000000	99.625158
3076.000000	99.624427
3075.000000	99.623706
3074.000000	99.622999
3073.000000	99.622304
3072.000000	99.621637
3071.000000	99.621014
3070.000000	99.620432
3069.000000	99.619865
3068.000000	99.619295
3067.000000	99.618712
3066.000000	99.618119
3065.000000	99.617520
3064.000000	99.616920
3063.000000	99.616330
3062.000000	99.615754
3061.000000	99.615192
3060.000000	99.614636
3059.000000	99.614079
3058.000000	99.613522
3057.000000	99.612972
3056.000000	99.612439
3055.000000	99.611930
3054.000000	99.611437
3053.000000	99.610948
3052.000000	99.610459
3051.000000	99.609971
3050.000000	99.609498
3049.000000	99.609057
3048.000000	99.608667
3047.000000	99.608338
3046.000000	99.608067
3045.000000	99.607822
3044.000000	99.607552
3043.000000	99.607227
3042.000000	99.606860
3041.000000	99.606506
3040.000000	99.606230
3039.000000	99.606086
3038.000000	99.606061
3037.000000	99.606020
3036.000000	99.605741
3035.000000	99.605043
3034.000000	99.603970
3033.000000	99.602837
3032.000000	99.602080
3031.000000	99.602085
3030.000000	99.603014
3029.000000	99.604565
3028.000000	99.605922
3027.000000	99.606174
3026.000000	99.604901
3025.000000	99.602410
3024.000000	99.599715
3023.000000	99.598338
3022.000000	99.599381
3021.000000	99.602124
3020.000000	99.603931
3019.000000	99.602517
3018.000000	99.598558
3017.000000	99.595558
3016.000000	99.596776
3015.000000	99.602376
3014.000000	99.609479
3013.000000	99.614765
3012.000000	99.616997
3011.000000	99.617373
3010.000000	99.617890
3009.000000	99.619580
3008.000000	99.622212
3007.000000	99.625183
3006.000000	99.628164
3005.000000	99.630831
3004.000000	99.632566
3003.000000	99.632862
3002.000000	99.631815
3001.000000	99.629896
3000.000000	99.627479
2999.000000	99.624957
2998.000000	99.622951
2997.000000	99.621694
2996.000000	99.620416
2995.000000	99.618321
2994.000000	99.616437
2993.000000	99.617405
2992.000000	99.622532
2991.000000	99.629521
2990.000000	99.633953
2989.000000	99.633041
2988.000000	99.627608
2987.000000	99.620969
2986.000000	99.616829
2985.000000	99.617795
2984.000000	99.624190
2983.000000	99.633440
2982.000000	99.641628
2981.000000	99.646690
2980.000000	99.649931
2979.000000	99.654070
2978.000000	99.660460
2977.000000	99.668695
2976.000000	99.678197
2975.000000	99.689510
2974.000000	99.704447
2973.000000	99.725357
2972.000000	99.753370
2971.000000	99.786572
2970.000000	99.820717
2969.000000	99.853122
2968.000000	99.885164
2967.000000	99.919417
2966.000000	99.954638
2965.000000	99.985696
2964.000000	100.008961
2963.000000	100.026203
2962.000000	100.042501
2961.000000	100.061437
2960.000000	100.082856
2959.000000	100.103822
2958.000000	100.120759
2957.000000	100.131705
2956.000000	100.137678
2955.000000	100.141351
2954.000000	100.143895
2953.000000	100.144236
2952.000000	100.142231
2951.000000	100.141033
2950.000000	100.144412
2949.000000	100.152277
2948.000000	100.161164
2947.000000	100.169633
2946.000000	100.181558
2945.000000	100.202768
2944.000000	100.235236
2943.000000	100.275772
2942.000000	100.320175
2941.000000	100.367433
2940.000000	100.419266
2939.000000	100.476484
2938.000000	100.537092
2937.000000	100.598133
2936.000000	100.658244
2935.000000	100.717851
2934.000000	100.778031
2933.000000	100.840421
2932.000000	100.907080
2931.000000	100.977994
2930.000000	101.048424
2929.000000	101.110787
2928.000000	101.160188
2927.000000	101.196746
2926.000000	101.221859
2925.000000	101.233994
2924.000000	101.229670
2923.000000	101.207318
2922.000000	101.168482
2921.000000	101.115880
2920.000000	101.051604
2919.000000	100.976816
2918.000000	100.892379
2917.000000	100.800625
2916.000000	100.707413
2915.000000	100.621079
2914.000000	100.546980
2913.000000	100.483447
2912.000000	100.424870
2911.000000	100.368956
2910.000000	100.319075
2909.000000	100.279316
2908.000000	100.249189
2907.000000	100.224223
2906.000000	100.200058
2905.000000	100.174845
2904.000000	100.148991
2903.000000	100.124291
2902.000000	100.102606
2901.000000	100.083853
2900.000000	100.065096
2899.000000	100.043173
2898.000000	100.018154
2897.000000	99.993646
2896.000000	99.973535
2895.000000	99.958859
2894.000000	99.947543
2893.000000	99.936405
2892.000000	99.923403
2891.000000	99.908757
2890.000000	99.894218
2889.000000	99.881201
2888.000000	99.869805
2887.000000	99.859859
2886.000000	99.852289
2885.000000	99.848499
2884.000000	99.848445
2883.000000	99.850212
2882.000000	99.851779
2881.000000	99.852678
2880.000000	99.853713
2879.000000	99.855752
2878.000000	99.859454
2877.000000	99.865796
2876.000000	99.875854
2875.000000	99.889538
2874.000000	99.904930
2873.000000	99.919650
2872.000000	99.933066
2871.000000	99.946637
2870.000000	99.961583
2869.000000	99.976741
2868.000000	99.989795
2867.000000	100.000813
2866.000000	100.013560
2865.000000	100.032517
2864.000000	100.059218
2863.000000	100.092492
2862.000000	100.131745
2861.000000	100.178264
2860.000000	100.232539
2859.000000	100.291306
2858.000000	100.348404
2857.000000	100.398333
2856.000000	100.438272
2855.000000	100.466799
2854.000000	100.481750
2853.000000	100.479977
2852.000000	100.458994
2851.000000	100.418869
2850.000000	100.363004
2849.000000	100.297329
2848.000000	100.227840
2847.000000	100.157955
2846.000000	100.088366
2845.000000	100.020128
2844.000000	99.957509
2843.000000	99.906437
2842.000000	99.869267
2841.000000	99.841883
2840.000000	99.817274
2839.000000	99.792184
2838.000000	99.769238
2837.000000	99.752304
2836.000000	99.741045
2835.000000	99.731126
2834.000000	99.719172
2833.000000	99.706130
2832.000000	99.695464
2831.000000	99.688996
2830.000000	99.685170
2829.000000	99.680956
2828.000000	99.674668
2827.000000	99.666928
2826.000000	99.659523
2825.000000	99.653814
2824.000000	99.649944
2823.000000	99.646936
2822.000000	99.643480
2821.000000	99.639218
2820.000000	99.635694
2819.000000	99.635417
2818.000000	99.639077
2817.000000	99.643727
2816.000000	99.644764
2815.000000	99.640434
2814.000000	99.633899
2813.000000	99.630330
2812.000000	99.631994
2811.000000	99.636530
2810.000000	99.639639
2809.000000	99.639018
2808.000000	99.635773
2807.000000	99.632579
2806.000000	99.630809
2805.000000	99.629380
2804.000000	99.626296
2803.000000	99.621273
2802.000000	99.616564
2801.000000	99.614964
2800.000000	99.617302
2799.000000	99.622262
2798.000000	99.628276
2797.000000	99.634570
2796.000000	99.640114
2795.000000	99.642795
2794.000000	99.640920
2793.000000	99.635473
2792.000000	99.629854
2791.000000	99.627008
2790.000000	99.627288
2789.000000	99.629285
2788.000000	99.631814
2787.000000	99.634409
2786.000000	99.636564
2785.000000	99.637756
2784.000000	99.638421
2783.000000	99.639958
2782.000000	99.643266
2781.000000	99.647649
2780.000000	99.651368
2779.000000	99.652967
2778.000000	99.652116
2777.000000	99.649693
2776.000000	99.647397
2775.000000	99.646760
2774.000000	99.648089
2773.000000	99.650410
2772.000000	99.652474
2771.000000	99.653906
2770.000000	99.655124
2769.000000	99.656472
2768.000000	99.657925
2767.000000	99.659483
2766.000000	99.661341
2765.000000	99.663533
2764.000000	99.665745
2763.000000	99.667632
2762.000000	99.669139
2761.000000	99.670394
2760.000000	99.671502
2759.000000	99.672616
2758.000000	99.674025
2757.000000	99.675952
2756.000000	99.678248
2755.000000	99.680464
2754.000000	99.682270
2753.000000	99.683713
2752.000000	99.684985
2751.000000	99.686101
2750.000000	99.686952
2749.000000	99.687606
2748.000000	99.688390
2747.000000	99.689611
2746.000000	99.691274
2745.000000	99.693050
2744.000000	99.694529
2743.000000	99.695541
2742.000000	99.696264
2741.000000	99.697097
2740.000000	99.698351
2739.000000	99.700044
2738.000000	99.701851
2737.000000	99.703319
2736.000000	99.704271
2735.000000	99.705037
2734.000000	99.706161
2733.000000	99.707770
2732.000000	99.709361
2731.000000	99.710331
2730.000000	99.710625
2729.000000	99.710764
2728.000000	99.711295
2727.000000	99.712268
2726.000000	99.713332
2725.000000	99.714150
2724.000000	99.714710
2723.000000	99.715290
2722.000000	99.716207
2721.000000	99.717562
2720.000000	99.719195
2719.000000	99.720863
2718.000000	99.722454
2717.000000	99.723953
2716.000000	99.725283
2715.000000	99.726331
2714.000000	99.727136
2713.000000	99.727869
2712.000000	99.728620
2711.000000	99.729362
2710.000000	99.730184
2709.000000	99.731366
2708.000000	99.733133
2707.000000	99.735469
2706.000000	99.738223
2705.000000	99.741127
2704.000000	99.743545
2703.000000	99.744665
2702.000000	99.744189
2701.000000	99.742818
2700.000000	99.741862
2699.000000	99.742006
2698.000000	99.742964
2697.000000	99.744147
2696.000000	99.745294
2695.000000	99.746453
2694.000000	99.747602
2693.000000	99.748556
2692.000000	99.749204
2691.000000	99.749704
2690.000000	99.750436
2689.000000	99.751771
2688.000000	99.753824
2687.000000	99.756311
2686.000000	99.758687
2685.000000	99.760497
2684.000000	99.761619
2683.000000	99.762223
2682.000000	99.762572
2681.000000	99.762893
2680.000000	99.763342
2679.000000	99.763983
2678.000000	99.764767
2677.000000	99.765560
2676.000000	99.766240
2675.000000	99.766816
2674.000000	99.767417
2673.000000	99.768165
2672.000000	99.769046
2671.000000	99.769940
2670.000000	99.770757
2669.000000	99.771511
2668.000000	99.772257
2667.000000	99.773010
2666.000000	99.773749
2665.000000	99.774463
2664.000000	99.775144
2663.000000	99.775772
2662.000000	99.776349
2661.000000	99.776906
2660.000000	99.777486
2659.000000	99.778121
2658.000000	99.778813
2657.000000	99.779546
2656.000000	99.780285
2655.000000	99.781002
2654.000000	99.781688
2653.000000	99.782341
2652.000000	99.782964
2651.000000	99.783568
2650.000000	99.784168
2649.000000	99.784768
2648.000000	99.785366
2647.000000	99.785956
2646.000000	99.786530
2645.000000	99.787082
2644.000000	99.787608
2643.000000	99.788114
2642.000000	99.788614
2641.000000	99.789122
2640.000000	99.789648
2639.000000	99.790202
2638.000000	99.790793
2637.000000	99.791423
2636.000000	99.792055
2635.000000	99.792638
2634.000000	99.793176
2633.000000	99.793763
2632.000000	99.794483
2631.000000	99.795260
2630.000000	99.795903
2629.000000	99.796320
2628.000000	99.796640
2627.000000	99.797039
2626.000000	99.797474
2625.000000	99.797721
2624.000000	99.797747
2623.000000	99.797916
2622.000000	99.798661
2621.000000	99.800050
2620.000000	99.801763
2619.000000	99.803435
2618.000000	99.804912
2617.000000	99.806119
2616.000000	99.806887
2615.000000	99.807153
2614.000000	99.807200
2613.000000	99.807460
2612.000000	99.808115
2611.000000	99.808976
2610.000000	99.809754
2609.000000	99.810381
2608.000000	99.811054
2607.000000	99.812014
2606.000000	99.813305
2605.000000	99.814693
2604.000000	99.815834
2603.000000	99.816523
2602.000000	99.816790
2601.000000	99.816815
2600.000000	99.816889
2599.000000	99.817456
2598.000000	99.818925
2597.000000	99.821262
2596.000000	99.823838
2595.000000	99.825870
2594.000000	99.827146
2593.000000	99.828105
2592.000000	99.829269
2591.000000	99.830697
2590.000000	99.832026
2589.000000	99.832941
2588.000000	99.833493
2587.000000	99.834017
2586.000000	99.834817
2585.000000	99.835926
2584.000000	99.837159
2583.000000	99.838341
2582.000000	99.839432
2581.000000	99.840452
2580.000000	99.841378
2579.000000	99.842188
2578.000000	99.842965
2577.000000	99.843856
2576.000000	99.844933
2575.000000	99.846128
2574.000000	99.847297
2573.000000	99.848310
2572.000000	99.849116
2571.000000	99.849778
2570.000000	99.850467
2569.000000	99.851330
2568.000000	99.852346
2567.000000	99.853337
2566.000000	99.854159
2565.000000	99.854855
2564.000000	99.855560
2563.000000	99.856298
2562.000000	99.856963
2561.000000	99.857493
2560.000000	99.857955
2559.000000	99.858463
2558.000000	99.859082
2557.000000	99.859814
2556.000000	99.860636
2555.000000	99.861507
2554.000000	99.862354
2553.000000	99.863110
2552.000000	99.863754
2551.000000	99.864321
2550.000000	99.864872
2549.000000	99.865465
2548.000000	99.866127
2547.000000	99.866857
2546.000000	99.867626
2545.000000	99.868387
2544.000000	99.869116
2543.000000	99.869823
2542.000000	99.870543
2541.000000	99.871297
2540.000000	99.872079
2539.000000	99.872870
2538.000000	99.873670
2537.000000	99.874493
2536.000000	99.875336
2535.000000	99.876169
2534.000000	99.876964
2533.000000	99.877717
2532.000000	99.878455
2531.000000	99.879203
2530.000000	99.879977
2529.000000	99.880781
2528.000000	99.881610
2527.000000	99.882466
2526.000000	99.883357
2525.000000	99.884292
2524.000000	99.885270
2523.000000	99.886271
2522.000000	99.887259
2521.000000	99.888202
2520.000000	99.889080
2519.000000	99.889906
2518.000000	99.890740
2517.000000	99.891649
2516.000000	99.892653
2515.000000	99.893717
2514.000000	99.894800
2513.000000	99.895889
2512.000000	99.896965
2511.000000	99.897973
2510.000000	99.898830
2509.000000	99.899508
2508.000000	99.900145
2507.000000	99.901008
2506.000000	99.902301
2505.000000	99.903945
2504.000000	99.905589
2503.000000	99.906986
2502.000000	99.908228
2501.000000	99.909500
2500.000000	99.910723
2499.000000	99.911642
2498.000000	99.912262
2497.000000	99.912934
2496.000000	99.913976
2495.000000	99.915352
2494.000000	99.916735
2493.000000	99.917788
2492.000000	99.918410
2491.000000	99.918854
2490.000000	99.919588
2489.000000	99.920820
2488.000000	99.922196
2487.000000	99.923161
2486.000000	99.923661
2485.000000	99.924221
2484.000000	99.925216
2483.000000	99.926365
2482.000000	99.927148
2481.000000	99.927522
2480.000000	99.927957
2479.000000	99.928854
2478.000000	99.930222
2477.000000	99.931842
2476.000000	99.933583
2475.000000	99.935527
2474.000000	99.937856
2473.000000	99.940563
2472.000000	99.943242
2471.000000	99.945259
2470.000000	99.946269
2469.000000	99.946493
2468.000000	99.946495
2467.000000	99.946790
2466.000000	99.947635
2465.000000	99.949022
2464.000000	99.950711
2463.000000	99.952349
2462.000000	99.953726
2461.000000	99.954851
2460.000000	99.955774
2459.000000	99.956513
2458.000000	99.957208
2457.000000	99.958167
2456.000000	99.959561
2455.000000	99.961169
2454.000000	99.962560
2453.000000	99.963584
2452.000000	99.964544
2451.000000	99.965843
2450.000000	99.967540
2449.000000	99.969320
2448.000000	99.970841
2447.000000	99.972072
2446.000000	99.973261
2445.000000	99.974589
2444.000000	99.975927
2443.000000	99.977018
2442.000000	99.977794
2441.000000	99.978432
2440.000000	99.979164
2439.000000	99.980119
2438.000000	99.981336
2437.000000	99.982794
2436.000000	99.984377
2435.000000	99.985898
2434.000000	99.987249
2433.000000	99.988459
2432.000000	99.989552
2431.000000	99.990469
2430.000000	99.991219
2429.000000	99.992056
2428.000000	99.993283
2427.000000	99.994940
2426.000000	99.996775
2425.000000	99.998487
2424.000000	99.999924
2423.000000	100.001082
2422.000000	100.002100
2421.000000	100.003215
2420.000000	100.004531
2419.000000	100.005799
2418.000000	100.006634
2417.000000	100.006963
2416.000000	100.007162
2415.000000	100.007689
2414.000000	100.008695
2413.000000	100.010023
2412.000000	100.011430
2411.000000	100.012746
2410.000000	100.013939
2409.000000	100.015090
2408.000000	100.016285
2407.000000	100.017497
2406.000000	100.018672
2405.000000	100.019908
2404.000000	100.021408
2403.000000	100.023200
2402.000000	100.025055
2401.000000	100.026732
2400.000000	100.028154
2399.000000	100.029376
2398.000000	100.030450
2397.000000	100.031420
2396.000000	100.032382
2395.000000	100.033435
2394.000000	100.034620
2393.000000	100.035910
2392.000000	100.037223
2391.000000	100.038460
2390.000000	100.039591
2389.000000	100.040673
2388.000000	100.041783
2387.000000	100.042944
2386.000000	100.044124
2385.000000	100.045292
2384.000000	100.046437
2383.000000	100.047566
2382.000000	100.048686
2381.000000	100.049802
2380.000000	100.050916
2379.000000	100.052032
2378.000000	100.053152
2377.000000	100.054281
2376.000000	100.055425
2375.000000	100.056586
2374.000000	100.057758
2373.000000	100.058925
2372.000000	100.060074
2371.000000	100.061197
2370.000000	100.062294
2369.000000	100.063364
2368.000000	100.064405
2367.000000	100.065416
2366.000000	100.066395
2365.000000	100.067345
2364.000000	100.068268
2363.000000	100.069167
2362.000000	100.070047
2361.000000	100.070915
2360.000000	100.071774
2359.000000	100.072625
2358.000000	100.073463
2357.000000	100.074289
2356.000000	100.075114
2355.000000	100.075946
2354.000000	100.076790
2353.000000	100.077634
2352.000000	100.078458
2351.000000	100.079252
2350.000000	100.080019
2349.000000	100.080771
2348.000000	100.081524
2347.000000	100.082286
2346.000000	100.083057
2345.000000	100.083828
2344.000000	100.084590
2343.000000	100.085344
2342.000000	100.086094
2341.000000	100.086847
2340.000000	100.087603
2339.000000	100.088360
2338.000000	100.089111
2337.000000	100.089854
2336.000000	100.090581
2335.000000	100.091285
2334.000000	100.091960
2333.000000	100.092605
2332.000000	100.093224
2331.000000	100.093820
2330.000000	100.094401
2329.000000	100.094984
2328.000000	100.095596
2327.000000	100.096246
2326.000000	100.096920
2325.000000	100.097600
2324.000000	100.098273
2323.000000	100.098927
2322.000000	100.099545
2321.000000	100.100118
2320.000000	100.100673
2319.000000	100.101253
2318.000000	100.101882
2317.000000	100.102534
2316.000000	100.103180
2315.000000	100.103808
2314.000000	100.104428
2313.000000	100.105000
2312.000000	100.105477
2311.000000	100.105842
2310.000000	100.106163
2309.000000	100.106521
2308.000000	100.106984
2307.000000	100.107559
2306.000000	100.108194
2305.000000	100.108766
2304.000000	100.109197
2303.000000	100.109498
2302.000000	100.109764
2301.000000	100.110067
2300.000000	100.110408
2299.000000	100.110738
2298.000000	100.111035
2297.000000	100.111317
2296.000000	100.111610
2295.000000	100.111902
2294.000000	100.112175
2293.000000	100.112452
2292.000000	100.112796
2291.000000	100.113229
2290.000000	100.113690
2289.000000	100.114076
2288.000000	100.114337
2287.000000	100.114519
2286.000000	100.114714
2285.000000	100.114968
2284.000000	100.115258
2283.000000	100.115538
2282.000000	100.115786
2281.000000	100.115999
2280.000000	100.116181
2279.000000	100.116369
2278.000000	100.116618
2277.000000	100.116949
2276.000000	100.117313
2275.000000	100.117619
2274.000000	100.117843
2273.000000	100.118055
2272.000000	100.118367
2271.000000	100.118831
2270.000000	100.119405
2269.000000	100.119972
2268.000000	100.120439
2267.000000	100.120805
2266.000000	100.121146
2265.000000	100.121538
2264.000000	100.121985
2263.000000	100.122442
2262.000000	100.122880
2261.000000	100.123301
2260.000000	100.123708
2259.000000	100.124078
2258.000000	100.124390
2257.000000	100.124661
2256.000000	100.124956
2255.000000	100.125332
2254.000000	100.125799
2253.000000	100.126318
2252.000000	100.126838
2251.000000	100.127331
2250.000000	100.127798
2249.000000	100.128257
2248.000000	100.128739
2247.000000	100.129285
2246.000000	100.129906
2245.000000	100.130577
2244.000000	100.131255
2243.000000	100.131913
2242.000000	100.132554
2241.000000	100.133188
2240.000000	100.133823
2239.000000	100.134467
2238.000000	100.135132
2237.000000	100.135828
2236.000000	100.136553
2235.000000	100.137299
2234.000000	100.138056
2233.000000	100.138811
2232.000000	100.139559
2231.000000	100.140301
2230.000000	100.141042
2229.000000	100.141791
2228.000000	100.142557
2227.000000	100.143346
2226.000000	100.144159
2225.000000	100.144988
2224.000000	100.145824
2223.000000	100.146665
2222.000000	100.147513
2221.000000	100.148376
2220.000000	100.149262
2219.000000	100.150174
2218.000000	100.151115
2217.000000	100.152087
2216.000000	100.153088
2215.000000	100.154112
2214.000000	100.155149
2213.000000	100.156194
2212.000000	100.157249
2211.000000	100.158320
2210.000000	100.159412
2209.000000	100.160528
2208.000000	100.161665
2207.000000	100.162811
2206.000000	100.163952
2205.000000	100.165069
2204.000000	100.166145
2203.000000	100.167175
2202.000000	100.168179
2201.000000	100.169204
2200.000000	100.170293
2199.000000	100.171452
2198.000000	100.172641
2197.000000	100.173798
2196.000000	100.174894
2195.000000	100.175954
2194.000000	100.177023
2193.000000	100.178107
2192.000000	100.179171
2191.000000	100.180192
2190.000000	100.181189
2189.000000	100.182200
2188.000000	100.183233
2187.000000	100.184261
2186.000000	100.185276
2185.000000	100.186307
2184.000000	100.187360
2183.000000	100.188393
2182.000000	100.189378
2181.000000	100.190374
2180.000000	100.191469
2179.000000	100.192667
2178.000000	100.193891
2177.000000	100.195062
2176.000000	100.196166
2175.000000	100.197231
2174.000000	100.198267
2173.000000	100.199261
2172.000000	100.200204
2171.000000	100.201117
2170.000000	100.202032
2169.000000	100.202959
2168.000000	100.203898
2167.000000	100.204875
2166.000000	100.205939
2165.000000	100.207117
2164.000000	100.208361
2163.000000	100.209554
2162.000000	100.210612
2161.000000	100.211527
2160.000000	100.212378
2159.000000	100.213275
2158.000000	100.214279
2157.000000	100.215405
2156.000000	100.216644
2155.000000	100.217952
2154.000000	100.219244
2153.000000	100.220424
2152.000000	100.221429
2151.000000	100.222269
2150.000000	100.223074
2149.000000	100.224035
2148.000000	100.225248
2147.000000	100.226619
2146.000000	100.227969
2145.000000	100.229283
2144.000000	100.230706
2143.000000	100.232271
2142.000000	100.233780
2141.000000	100.235051
2140.000000	100.236167
2139.000000	100.237344
2138.000000	100.238627
2137.000000	100.239889
2136.000000	100.241110
2135.000000	100.242455
2134.000000	100.244023
2133.000000	100.245710
2132.000000	100.247375
2131.000000	100.249015
2130.000000	100.250677
2129.000000	100.252317
2128.000000	100.253827
2127.000000	100.255150
2126.000000	100.256292
2125.000000	100.257290
2124.000000	100.258193
2123.000000	100.259034
2122.000000	100.259813
2121.000000	100.260601
2120.000000	100.261639
2119.000000	100.263166
2118.000000	100.265129
2117.000000	100.267216
2116.000000	100.269137
2115.000000	100.270728
2114.000000	100.271861
2113.000000	100.272492
2112.000000	100.272894
2111.000000	100.273632
2110.000000	100.275103
2109.000000	100.277245
2108.000000	100.279736
2107.000000	100.282293
2106.000000	100.284665
2105.000000	100.286525
2104.000000	100.287648
2103.000000	100.288153
2102.000000	100.288444
2101.000000	100.288881
2100.000000	100.289593
2099.000000	100.290584
2098.000000	100.291836
2097.000000	100.293318
2096.000000	100.294997
2095.000000	100.296845
2094.000000	100.298758
2093.000000	100.300507
2092.000000	100.301890
2091.000000	100.302895
2090.000000	100.303693
2089.000000	100.304488
2088.000000	100.305449
2087.000000	100.306694
2086.000000	100.308198
2085.000000	100.309725
2084.000000	100.311022
2083.000000	100.312082
2082.000000	100.313070
2081.000000	100.314043
2080.000000	100.314919
2079.000000	100.315764
2078.000000	100.316851
2077.000000	100.318324
2076.000000	100.320009
2075.000000	100.321665
2074.000000	100.323183
2073.000000	100.324412
2072.000000	100.325088
2071.000000	100.325215
2070.000000	100.325335
2069.000000	100.326073
2068.000000	100.327545
2067.000000	100.329408
2066.000000	100.331280
2065.000000	100.332887
2064.000000	100.333977
2063.000000	100.334552
2062.000000	100.335100
2061.000000	100.336158
2060.000000	100.337645
2059.000000	100.339030
2058.000000	100.340106
2057.000000	100.341102
2056.000000	100.342021
2055.000000	100.342478
2054.000000	100.342370
2053.000000	100.342196
2052.000000	100.342469
2051.000000	100.343229
2050.000000	100.344359
2049.000000	100.345920
2048.000000	100.347768
2047.000000	100.349176
2046.000000	100.349344
2045.000000	100.348205
2044.000000	100.346521
2043.000000	100.345249
2042.000000	100.344902
2041.000000	100.345356
2040.000000	100.345986
2039.000000	100.346140
2038.000000	100.345723
2037.000000	100.345182
2036.000000	100.344803
2035.000000	100.344272
2034.000000	100.343244
2033.000000	100.342083
2032.000000	100.341627
2031.000000	100.342239
2030.000000	100.343461
2029.000000	100.344620
2028.000000	100.345458
2027.000000	100.346025
2026.000000	100.346231
2025.000000	100.345841
2024.000000	100.344981
2023.000000	100.344331
2022.000000	100.344574
2021.000000	100.345607
2020.000000	100.346486
2019.000000	100.346346
2018.000000	100.345225
2017.000000	100.343766
2016.000000	100.342216
2015.000000	100.340261
2014.000000	100.337899
2013.000000	100.335862
2012.000000	100.334875
2011.000000	100.334949
2010.000000	100.335719
2009.000000	100.337005
2008.000000	100.338497
2007.000000	100.339246
2006.000000	100.338252
2005.000000	100.335623
2004.000000	100.332761
2003.000000	100.331154
2002.000000	100.331262
2001.000000	100.332654
2000.000000	100.334722
1999.000000	100.337107
1998.000000	100.339588
1997.000000	100.341892
1996.000000	100.343719
1995.000000	100.344844
1994.000000	100.345166
1993.000000	100.344771
1992.000000	100.344006
1991.000000	100.343392
1990.000000	100.343390
1989.000000	100.344183
1988.000000	100.345507
1987.000000	100.346758
1986.000000	100.347479
1985.000000	100.347767
1984.000000	100.348066
1983.000000	100.348613
1982.000000	100.349270
1981.000000	100.349868
1980.000000	100.350489
1979.000000	100.351347
1978.000000	100.352442
1977.000000	100.353490
1976.000000	100.354136
1975.000000	100.354238
1974.000000	100.354021
1973.000000	100.354024
1972.000000	100.354751
1971.000000	100.356284
1970.000000	100.358303
1969.000000	100.360456
1968.000000	100.362564
1967.000000	100.364359
1966.000000	100.365353
1965.000000	100.365298
1964.000000	100.364603
1963.000000	100.364063
1962.000000	100.364082
1961.000000	100.364419
1960.000000	100.364745
1959.000000	100.365102
1958.000000	100.365748
1957.000000	100.366721
1956.000000	100.367725
1955.000000	100.368416
1954.000000	100.368698
1953.000000	100.368769
1952.000000	100.368977
1951.000000	100.369598
1950.000000	100.370646
1949.000000	100.371785
1948.000000	100.372522
1947.000000	100.372699
1946.000000	100.372761
1945.000000	100.373343
1944.000000	100.374503
1943.000000	100.375506
1942.000000	100.375605
1941.000000	100.374927
1940.000000	100.374359
1939.000000	100.374613
1938.000000	100.375677
1937.000000	100.377092
1936.000000	100.378510
1935.000000	100.379816
1934.000000	100.380790
1933.000000	100.381039
1932.000000	100.380374
1931.000000	100.379116
1930.000000	100.377965
1929.000000	100.377307
1928.000000	100.376746
1927.000000	100.375599
1926.000000	100.373861
1925.000000	100.372526
1924.000000	100.372524
1923.000000	100.373643
1922.000000	100.374656
1921.000000	100.374676
1920.000000	100.373934
1919.000000	100.373161
1918.000000	100.372706
1917.000000	100.372427
1916.000000	100.372163
1915.000000	100.372101
1914.000000	100.372463
1913.000000	100.373067
1912.000000	100.373361
1911.000000	100.372878
1910.000000	100.371601
1909.000000	100.369793
1908.000000	100.367661
1907.000000	100.365285
1906.000000	100.362757
1905.000000	100.360361
1904.000000	100.358313
1903.000000	100.356752
1902.000000	100.356039
1901.000000	100.356498
1900.000000	100.357879
1899.000000	100.359357
1898.000000	100.360083
1897.000000	100.359761
1896.000000	100.358385
1895.000000	100.355885
1894.000000	100.352490
1893.000000	100.349211
1892.000000	100.347416
1891.000000	100.347683
1890.000000	100.349107
1889.000000	100.350117
1888.000000	100.350335
1887.000000	100.351071
1886.000000	100.353325
1885.000000	100.355808
1884.000000	100.355907
1883.000000	100.352788
1882.000000	100.348584
1881.000000	100.345886
1880.000000	100.345115
1879.000000	100.345122
1878.000000	100.345122
1877.000000	100.345193
1876.000000	100.345397
1875.000000	100.345435
1874.000000	100.345331
1873.000000	100.345562
1872.000000	100.346365
1871.000000	100.347643
1870.000000	100.349577
1869.000000	100.352707
1868.000000	100.356889
1867.000000	100.361111
1866.000000	100.365026
1865.000000	100.368924
1864.000000	100.372438
1863.000000	100.374766
1862.000000	100.375888
1861.000000	100.376433
1860.000000	100.376449
1859.000000	100.375628
1858.000000	100.374889
1857.000000	100.376272
1856.000000	100.380692
1855.000000	100.386879
1854.000000	100.392942
1853.000000	100.398001
1852.000000	100.402013
1851.000000	100.405192
1850.000000	100.407756
1849.000000	100.410156
1848.000000	100.412912
1847.000000	100.416250
1846.000000	100.420009
1845.000000	100.423490
1844.000000	100.425553
1843.000000	100.425477
1842.000000	100.423765
1841.000000	100.421825
1840.000000	100.421077
1839.000000	100.422196
1838.000000	100.424907
1837.000000	100.428358
1836.000000	100.431400
1835.000000	100.433111
1834.000000	100.433438
1833.000000	100.433242
1832.000000	100.433567
1831.000000	100.434706
1830.000000	100.436149
1829.000000	100.437670
1828.000000	100.439784
1827.000000	100.442886
1826.000000	100.446159
1825.000000	100.447921
1824.000000	100.447519
1823.000000	100.446175
1822.000000	100.445635
1821.000000	100.446573
1820.000000	100.448510
1819.000000	100.450576
1818.000000	100.452219
1817.000000	100.453314
1816.000000	100.453623
1815.000000	100.452971
1814.000000	100.452094
1813.000000	100.452597
1812.000000	100.455549
1811.000000	100.459801
1810.000000	100.463046
1809.000000	100.464225
1808.000000	100.463583
1807.000000	100.461733
1806.000000	100.459923
1805.000000	100.459931
1804.000000	100.462180
1803.000000	100.464946
1802.000000	100.466654
1801.000000	100.468111
1800.000000	100.470882
1799.000000	100.473638
1798.000000	100.473925
1797.000000	100.471988
1796.000000	100.470408
1795.000000	100.470988
1794.000000	100.473227
1793.000000	100.475542
1792.000000	100.477621
1791.000000	100.479716
1790.000000	100.481450
1789.000000	100.483084
1788.000000	100.485756
1787.000000	100.489958
1786.000000	100.494723
1785.000000	100.498492
1784.000000	100.500476
1783.000000	100.501674
1782.000000	100.504370
1781.000000	100.510067
1780.000000	100.518263
1779.000000	100.525654
1778.000000	100.528754
1777.000000	100.526969
1776.000000	100.523620
1775.000000	100.524341
1774.000000	100.532540
1773.000000	100.545581
1772.000000	100.557249
1771.000000	100.564478
1770.000000	100.569119
1769.000000	100.574916
1768.000000	100.583698
1767.000000	100.593703
1766.000000	100.601999
1765.000000	100.608247
1764.000000	100.614942
1763.000000	100.624363
1762.000000	100.636067
1761.000000	100.647866
1760.000000	100.659800
1759.000000	100.675273
1758.000000	100.698754
1757.000000	100.731047
1756.000000	100.767169
1755.000000	100.800401
1754.000000	100.827852
1753.000000	100.850117
1752.000000	100.868676
1751.000000	100.886202
1750.000000	100.906117
1749.000000	100.929278
1748.000000	100.953112
1747.000000	100.975556
1746.000000	100.996682
1745.000000	101.016643
1744.000000	101.033976
1743.000000	101.045949
1742.000000	101.050337
1741.000000	101.045490
1740.000000	101.030179
1739.000000	101.006823
1738.000000	100.981968
1737.000000	100.959795
1736.000000	100.938972
1735.000000	100.913810
1734.000000	100.882925
1733.000000	100.855872
1732.000000	100.837886
1731.000000	100.825595
1730.000000	100.815085
1729.000000	100.804844
1728.000000	100.795432
1727.000000	100.788068
1726.000000	100.782092
1725.000000	100.774658
1724.000000	100.764016
1723.000000	100.751913
1722.000000	100.742453
1721.000000	100.738319
1720.000000	100.738988
1719.000000	100.740641
1718.000000	100.737871
1717.000000	100.730032
1716.000000	100.720848
1715.000000	100.712780
1714.000000	100.706838
1713.000000	100.703219
1712.000000	100.700808
1711.000000	100.698288
1710.000000	100.695485
1709.000000	100.693114
1708.000000	100.691360
1707.000000	100.688649
1706.000000	100.682820
1705.000000	100.674537
1704.000000	100.666510
1703.000000	100.660606
1702.000000	100.657942
1701.000000	100.657148
1700.000000	100.656823
1699.000000	100.657786
1698.000000	100.660103
1697.000000	100.662562
1696.000000	100.661681
1695.000000	100.655903
1694.000000	100.649545
1693.000000	100.646415
1692.000000	100.645858
1691.000000	100.645768
1690.000000	100.644867
1689.000000	100.642357
1688.000000	100.637554
1687.000000	100.631362
1686.000000	100.627098
1685.000000	100.628306
1684.000000	100.635681
1683.000000	100.644172
1682.000000	100.648565
1681.000000	100.649863
1680.000000	100.650265
1679.000000	100.650551
1678.000000	100.651113
1677.000000	100.652750
1676.000000	100.655811
1675.000000	100.659385
1674.000000	100.661752
1673.000000	100.662224
1672.000000	100.662148
1671.000000	100.663152
1670.000000	100.666092
1669.000000	100.669954
1668.000000	100.672882
1667.000000	100.675013
1666.000000	100.677753
1665.000000	100.681503
1664.000000	100.684524
1663.000000	100.684156
1662.000000	100.680593
1661.000000	100.676818
1660.000000	100.675340
1659.000000	100.676534
1658.000000	100.678498
1657.000000	100.678490
1656.000000	100.675538
1655.000000	100.671582
1654.000000	100.668570
1653.000000	100.667300
1652.000000	100.666463
1651.000000	100.665633
1650.000000	100.666749
1649.000000	100.669522
1648.000000	100.671805
1647.000000	100.671593
1646.000000	100.669964
1645.000000	100.669506
1644.000000	100.670818
1643.000000	100.672527
1642.000000	100.673245
1641.000000	100.672444
1640.000000	100.670504
1639.000000	100.668576
1638.000000	100.668351
1637.000000	100.671129
1636.000000	100.675707
1635.000000	100.678651
1634.000000	100.677804
1633.000000	100.675089
1632.000000	100.672794
1631.000000	100.671597
1630.000000	100.671230
1629.000000	100.671388
1628.000000	100.672488
1627.000000	100.675442
1626.000000	100.680184
1625.000000	100.684937
1624.000000	100.687492
1623.000000	100.687851
1622.000000	100.688508
1621.000000	100.690354
1620.000000	100.692224
1619.000000	100.693520
1618.000000	100.695354
1617.000000	100.699070
1616.000000	100.704151
1615.000000	100.709109
1614.000000	100.713702
1613.000000	100.718177
1612.000000	100.721769
1611.000000	100.723294
1610.000000	100.723186
1609.000000	100.723671
1608.000000	100.726726
1607.000000	100.732540
1606.000000	100.739770
1605.000000	100.746662
1604.000000	100.752548
1603.000000	100.757910
1602.000000	100.763092
1601.000000	100.767553
1600.000000	100.770707
1599.000000	100.773095
1598.000000	100.776098
1597.000000	100.780708
1596.000000	100.786832
1595.000000	100.793557
1594.000000	100.800027
1593.000000	100.806011
1592.000000	100.811747
1591.000000	100.817304
1590.000000	100.822257
1589.000000	100.826116
1588.000000	100.829132
1587.000000	100.832230
1586.000000	100.836045
1585.000000	100.840366
1584.000000	100.845014
1583.000000	100.850977
1582.000000	100.859005
1581.000000	100.867722
1580.000000	100.874699
1579.000000	100.878980
1578.000000	100.881057
1577.000000	100.881855
1576.000000	100.883796
1575.000000	100.890207
1574.000000	100.899977
1573.000000	100.908627
1572.000000	100.913418
1571.000000	100.914715
1570.000000	100.915607
1569.000000	100.918747
1568.000000	100.922758
1567.000000	100.926823
1566.000000	100.932717
1565.000000	100.941217
1564.000000	100.949660
1563.000000	100.954949
1562.000000	100.957176
1561.000000	100.958850
1560.000000	100.959784
1559.000000	100.963499
1558.000000	100.976460
1557.000000	100.986223
1556.000000	100.989318
1555.000000	100.989801
1554.000000	100.990238
1553.000000	100.990474
1552.000000	100.989790
1551.000000	100.988718
1550.000000	100.989745
1549.000000	100.994921
1548.000000	101.002016
1547.000000	101.006709
1546.000000	101.006218
1545.000000	101.001438
1544.000000	100.996499
1543.000000	100.993908
1542.000000	100.991745
1541.000000	100.987805
1540.000000	100.982072
1539.000000	100.974047
1538.000000	100.962864
1537.000000	100.951663
1536.000000	100.943137
1535.000000	100.938262
1534.000000	100.936688
1533.000000	100.936475
1532.000000	100.933968
1531.000000	100.926431
1530.000000	100.915258
1529.000000	100.904354
1528.000000	100.896573
1527.000000	100.891224
1526.000000	100.884998
1525.000000	100.876516
1524.000000	100.867700
1523.000000	100.860103
1522.000000	100.853170
1521.000000	100.847293
1520.000000	100.843582
1519.000000	100.841023
1518.000000	100.837032
1517.000000	100.830332
1516.000000	100.823228
1515.000000	100.818279
1514.000000	100.815222
1513.000000	100.812300
1512.000000	100.808730
1511.000000	100.805386
1510.000000	100.804124
1509.000000	100.805591
1508.000000	100.807903
1507.000000	100.808147
1506.000000	100.806992
1505.000000	100.804482
1504.000000	100.801765
1503.000000	100.799152
1502.000000	100.796496
1501.000000	100.795171
1500.000000	100.796454
1499.000000	100.798828
1498.000000	100.798688
1497.000000	100.795690
1496.000000	100.794075
1495.000000	100.796040
1494.000000	100.799638
1493.000000	100.802249
1492.000000	100.802401
1491.000000	100.800264
1490.000000	100.799362
1489.000000	100.803966
1488.000000	100.812399
1487.000000	100.819706
1486.000000	100.825323
1485.000000	100.831496
1484.000000	100.838380
1483.000000	100.844528
1482.000000	100.848815
1481.000000	100.851948
1480.000000	100.855271
1479.000000	100.860340
1478.000000	100.869809
1477.000000	100.886459
1476.000000	100.909780
1475.000000	100.936291
1474.000000	100.965738
1473.000000	101.001350
1472.000000	101.042023
1471.000000	101.079382
1470.000000	101.109069
1469.000000	101.133012
1468.000000	101.152552
1467.000000	101.166163
1466.000000	101.172653
1465.000000	101.174190
1464.000000	101.174936
1463.000000	101.176035
1462.000000	101.175747
1461.000000	101.173357
1460.000000	101.169986
1459.000000	101.168496
1458.000000	101.171219
1457.000000	101.176807
1456.000000	101.179004
1455.000000	101.173668
1454.000000	101.162774
1453.000000	101.149974
1452.000000	101.139916
1451.000000	101.135515
1450.000000	101.134336
1449.000000	101.130729
1448.000000	101.121969
1447.000000	101.111112
1446.000000	101.103396
1445.000000	101.100935
1444.000000	101.102612
1443.000000	101.104875
1442.000000	101.103882
1441.000000	101.099381
1440.000000	101.095651
1439.000000	101.096613
1438.000000	101.099585
1437.000000	101.096232
1436.000000	101.084040
1435.000000	101.070950
1434.000000	101.062821
1433.000000	101.058892
1432.000000	101.056382
1431.000000	101.053899
1430.000000	101.051359
1429.000000	101.049001
1428.000000	101.047107
1427.000000	101.046117
1426.000000	101.046366
1425.000000	101.047207
1424.000000	101.048635
1423.000000	101.051696
1422.000000	101.056714
1421.000000	101.062740
1420.000000	101.067181
1419.000000	101.067278
1418.000000	101.063865
1417.000000	101.060964
1416.000000	101.061524
1415.000000	101.065029
1414.000000	101.068258
1413.000000	101.068418
1412.000000	101.065885
1411.000000	101.062922
1410.000000	101.060214
1409.000000	101.056940
1408.000000	101.053558
1407.000000	101.052082
1406.000000	101.053693
1405.000000	101.056792
1404.000000	101.059085
1403.000000	101.060502
1402.000000	101.062793
1401.000000	101.067298
1400.000000	101.073541
1399.000000	101.079426
1398.000000	101.082397
1397.000000	101.081399
1396.000000	101.077827
1395.000000	101.074915
1394.000000	101.075139
1393.000000	101.077757
1392.000000	101.081270
1391.000000	101.085909
1390.000000	101.092935
1389.000000	101.102696
1388.000000	101.113230
1387.000000	101.121323
1386.000000	101.126012
1385.000000	101.129547
1384.000000	101.134508
1383.000000	101.141118
1382.000000	101.147428
1381.000000	101.151692
1380.000000	101.153612
1379.000000	101.153957
1378.000000	101.153853
1377.000000	101.154148
1376.000000	101.154761
1375.000000	101.154885
1374.000000	101.154212
1373.000000	101.153351
1372.000000	101.152833
1371.000000	101.152442
1370.000000	101.151992
1369.000000	101.152086
1368.000000	101.153883
1367.000000	101.157276
1366.000000	101.160277
1365.000000	101.160896
1364.000000	101.159042
1363.000000	101.156784
1362.000000	101.156533
1361.000000	101.158631
1360.000000	101.161666
1359.000000	101.164382
1358.000000	101.166550
1357.000000	101.168754
1356.000000	101.171550
1355.000000	101.174394
1354.000000	101.175741
1353.000000	101.174675
1352.000000	101.171840
1351.000000	101.168566
1350.000000	101.165839
1349.000000	101.163961
1348.000000	101.163159
1347.000000	101.163518
1346.000000	101.164469
1345.000000	101.165001
1344.000000	101.164532
1343.000000	101.163171
1342.000000	101.161257
1341.000000	101.159285
1340.000000	101.158298
1339.000000	101.159389
1338.000000	101.162439
1337.000000	101.166129
1336.000000	101.169271
1335.000000	101.171378
1334.000000	101.172153
1333.000000	101.171341
1332.000000	101.169337
1331.000000	101.167519
1330.000000	101.167284
1329.000000	101.168766
1328.000000	101.170839
1327.000000	101.172212
1326.000000	101.172371
1325.000000	101.171553
1324.000000	101.170453
1323.000000	101.169903
1322.000000	101.170421
1321.000000	101.171806
1320.000000	101.173147
1319.000000	101.173374
1318.000000	101.172100
1317.000000	101.170124
1316.000000	101.168888
1315.000000	101.169168
1314.000000	101.170319
1313.000000	101.171110
1312.000000	101.171178
1311.000000	101.171150
1310.000000	101.171400
1309.000000	101.171455
1308.000000	101.170835
1307.000000	101.169927
1306.000000	101.169739
1305.000000	101.170910
1304.000000	101.173141
1303.000000	101.175188
1302.000000	101.175562
1301.000000	101.173831
1300.000000	101.171379
1299.000000	101.170247
1298.000000	101.170943
1297.000000	101.172050
1296.000000	101.172012
1295.000000	101.170515
1294.000000	101.168143
1293.000000	101.166017
1292.000000	101.165864
1291.000000	101.168637
1290.000000	101.172379
1289.000000	101.173144
1288.000000	101.169181
1287.000000	101.163025
1286.000000	101.158451
1285.000000	101.156471
1284.000000	101.155567
1283.000000	101.154354
1282.000000	101.152563
1281.000000	101.150599
1280.000000	101.149559
1279.000000	101.150711
1278.000000	101.153392
1277.000000	101.154502
1276.000000	101.151713
1275.000000	101.146441
1274.000000	101.142154
1273.000000	101.140602
1272.000000	101.141246
1271.000000	101.143425
1270.000000	101.147169
1269.000000	101.152312
1268.000000	101.158429
1267.000000	101.165221
1266.000000	101.171677
1265.000000	101.175742
1264.000000	101.176276
1263.000000	101.174616
1262.000000	101.172933
1261.000000	101.171922
1260.000000	101.171358
1259.000000	101.171564
1258.000000	101.172229
1257.000000	101.170861
1256.000000	101.164602
1255.000000	101.153113
1254.000000	101.138298
1253.000000	101.122311
1252.000000	101.107812
1251.000000	101.098726
1250.000000	101.097488
1249.000000	101.101692
1248.000000	101.105992
1247.000000	101.107107
1246.000000	101.104825
1245.000000	101.099057
1244.000000	101.089364
1243.000000	101.077761
1242.000000	101.068543
1241.000000	101.063496
1240.000000	101.059399
1239.000000	101.051887
1238.000000	101.040419
1237.000000	101.028188
1236.000000	101.018171
1235.000000	101.010296
1234.000000	101.001804
1233.000000	100.989626
1232.000000	100.972741
1231.000000	100.952547
1230.000000	100.930790
1229.000000	100.907622
1228.000000	100.882375
1227.000000	100.855376
1226.000000	100.827471
1225.000000	100.798227
1224.000000	100.766354
1223.000000	100.731763
1222.000000	100.695445
1221.000000	100.657317
1220.000000	100.616091
1219.000000	100.571556
1218.000000	100.525266
1217.000000	100.478471
1216.000000	100.430787
1215.000000	100.381366
1214.000000	100.330066
1213.000000	100.277117
1212.000000	100.222822
1211.000000	100.167987
1210.000000	100.113805
1209.000000	100.060978
1208.000000	100.009291
1207.000000	99.957707
1206.000000	99.904624
1205.000000	99.849062
1204.000000	99.792431
1203.000000	99.738192
1202.000000	99.688743
1201.000000	99.643133
1200.000000	99.598473
1199.000000	99.552870
1198.000000	99.506350
1197.000000	99.459712
1196.000000	99.413186
1195.000000	99.365625
1194.000000	99.314874
1193.000000	99.259952
1192.000000	99.203064
1191.000000	99.148138
1190.000000	99.096791
1189.000000	99.046753
1188.000000	98.994578
1187.000000	98.938804
1186.000000	98.880470
1185.000000	98.821843
1184.000000	98.764725
1183.000000	98.708661
1182.000000	98.650782
1181.000000	98.588602
1180.000000	98.522553
1179.000000	98.454634
1178.000000	98.385821
1177.000000	98.316665
1176.000000	98.248621
1175.000000	98.181633
1174.000000	98.111976
1173.000000	98.036673
1172.000000	97.959146
1171.000000	97.885785
1170.000000	97.817369
1169.000000	97.749059
1168.000000	97.679158
1167.000000	97.612526
1166.000000	97.554588
1165.000000	97.508024
1164.000000	97.477166
1163.000000	97.469323
1162.000000	97.487647
1161.000000	97.525647
1160.000000	97.570459
1159.000000	97.608577
1158.000000	97.628364
1157.000000	97.622687
1156.000000	97.592650
1155.000000	97.546582
1154.000000	97.493001
1153.000000	97.435745
1152.000000	97.376141
1151.000000	97.315795
1150.000000	97.255117
1149.000000	97.192627
1148.000000	97.128518
1147.000000	97.066690
1146.000000	97.011154
1145.000000	96.961882
1144.000000	96.914748
1143.000000	96.863575
1142.000000	96.802956
1141.000000	96.732690
1140.000000	96.659442
1139.000000	96.590473
1138.000000	96.525798
1137.000000	96.460388
1136.000000	96.393175
1135.000000	96.328325
1134.000000	96.267709
1133.000000	96.208335
1132.000000	96.148418
1131.000000	96.090005
1130.000000	96.033842
1129.000000	95.977110
1128.000000	95.918195
1127.000000	95.858808
1126.000000	95.799925
1125.000000	95.740641
1124.000000	95.682407
1123.000000	95.629023
1122.000000	95.580617
1121.000000	95.532398
1120.000000	95.480756
1119.000000	95.426058
1118.000000	95.369042
1117.000000	95.309812
1116.000000	95.250489
1115.000000	95.192830
1114.000000	95.133398
1113.000000	95.068087
1112.000000	95.001204
1111.000000	94.942036
1110.000000	94.892461
1109.000000	94.846147
1108.000000	94.799586
1107.000000	94.754240
1106.000000	94.707584
1105.000000	94.653296
1104.000000	94.592825
1103.000000	94.536407
1102.000000	94.489311
1101.000000	94.446099
1100.000000	94.401160
1099.000000	94.355528
1098.000000	94.311295
1097.000000	94.268686
1096.000000	94.231216
1095.000000	94.203729
1094.000000	94.182373
1093.000000	94.156286
1092.000000	94.122266
1091.000000	94.088132
1090.000000	94.059326
1089.000000	94.033147
1088.000000	94.009163
1087.000000	93.993176
1086.000000	93.985706
1085.000000	93.977602
1084.000000	93.963194
1083.000000	93.948348
1082.000000	93.939897
1081.000000	93.935852
1080.000000	93.931423
1079.000000	93.925981
1078.000000	93.918474
1077.000000	93.903868
1076.000000	93.879786
1075.000000	93.850109
1074.000000	93.817558
1073.000000	93.778791
1072.000000	93.729490
1071.000000	93.667114
1070.000000	93.586830
1069.000000	93.483572
1068.000000	93.361435
1067.000000	93.232719
1066.000000	93.103687
1065.000000	92.969239
1064.000000	92.825052
1063.000000	92.675893
1062.000000	92.528710
1061.000000	92.387066
1060.000000	92.255859
1059.000000	92.140968
1058.000000	92.039473
1057.000000	91.939996
1056.000000	91.837011
1055.000000	91.735285
1054.000000	91.637096
1053.000000	91.536793
1052.000000	91.433471
1051.000000	91.336655
1050.000000	91.251000
1049.000000	91.166590
1048.000000	91.072852
1047.000000	90.971656
1046.000000	90.870323
1045.000000	90.772204
1044.000000	90.678891
1043.000000	90.591491
1042.000000	90.505882
1041.000000	90.416706
1040.000000	90.328992
1039.000000	90.254511
1038.000000	90.193236
1037.000000	90.130616
1036.000000	90.057911
1035.000000	89.983316
1034.000000	89.917720
1033.000000	89.862015
1032.000000	89.814267
1031.000000	89.776554
1030.000000	89.746642
1029.000000	89.713592
1028.000000	89.670385
1027.000000	89.623365
1026.000000	89.582687
1025.000000	89.550697
1024.000000	89.524199
1023.000000	89.499655
1022.000000	89.471795
1021.000000	89.435688
1020.000000	89.394251
1019.000000	89.355445
1018.000000	89.319083
1017.000000	89.275792
1016.000000	89.221939
1015.000000	89.165549
1014.000000	89.114353
1013.000000	89.068271
1012.000000	89.026450
1011.000000	88.989982
1010.000000	88.953873
1009.000000	88.908510
1008.000000	88.854465
1007.000000	88.804887
1006.000000	88.767788
1005.000000	88.736146
1004.000000	88.700594
1003.000000	88.661795
1002.000000	88.624895
1001.000000	88.591463
1000.000000	88.562490
999.000000	88.540393
998.000000	88.522801
997.000000	88.502494
996.000000	88.477807
995.000000	88.455330
994.000000	88.439429
993.000000	88.427523
992.000000	88.417870
991.000000	88.412451
990.000000	88.409573
989.000000	88.403824
988.000000	88.396455
987.000000	88.395884
986.000000	88.405013
985.000000	88.417847
984.000000	88.431314
983.000000	88.450457
982.000000	88.479345
981.000000	88.517508
980.000000	88.567748
979.000000	88.635897
978.000000	88.719329
977.000000	88.806689
976.000000	88.893011
975.000000	88.984867
974.000000	89.087153
973.000000	89.195870
972.000000	89.308218
971.000000	89.428875
970.000000	89.560288
969.000000	89.695727
968.000000	89.827880
967.000000	89.957577
966.000000	90.089655
965.000000	90.226471
964.000000	90.368696
963.000000	90.516012
962.000000	90.664135
961.000000	90.807022
960.000000	90.943672
959.000000	91.076739
958.000000	91.204109
957.000000	91.319709
956.000000	91.424250
955.000000	91.527325
954.000000	91.636064
953.000000	91.747886
952.000000	91.856302
951.000000	91.957500
950.000000	92.049854
949.000000	92.133383
948.000000	92.211200
947.000000	92.285845
946.000000	92.354034
945.000000	92.411755
944.000000	92.464250
943.000000	92.522746
942.000000	92.589933
941.000000	92.656750
940.000000	92.715290
939.000000	92.766722
938.000000	92.814803
937.000000	92.860263
936.000000	92.905287
935.000000	92.955920
934.000000	93.015332
933.000000	93.080017
932.000000	93.145628
931.000000	93.211096
930.000000	93.274836
929.000000	93.332953
928.000000	93.384257
927.000000	93.432268
926.000000	93.480125
925.000000	93.528362
924.000000	93.579257
923.000000	93.637475
922.000000	93.703616
921.000000	93.771718
920.000000	93.835653
919.000000	93.894393
918.000000	93.949678
917.000000	94.002291
916.000000	94.051655
915.000000	94.096020
914.000000	94.133569
913.000000	94.167446
912.000000	94.208487
911.000000	94.267455
910.000000	94.344503
909.000000	94.430567
908.000000	94.518098
907.000000	94.605801
906.000000	94.695392
905.000000	94.790865
904.000000	94.899224
903.000000	95.024021
902.000000	95.158395
901.000000	95.291206
900.000000	95.419425
899.000000	95.547875
898.000000	95.678881
897.000000	95.809911
896.000000	95.939487
895.000000	96.066645
894.000000	96.185760
893.000000	96.291832
892.000000	96.391412
891.000000	96.498550
890.000000	96.617142
889.000000	96.735225
888.000000	96.839296
887.000000	96.926529
886.000000	97.000895
885.000000	97.066203
884.000000	97.128090
883.000000	97.195921
882.000000	97.275794
881.000000	97.365060
880.000000	97.458218
879.000000	97.554486
878.000000	97.655524
877.000000	97.759074
876.000000	97.859401
875.000000	97.952825
874.000000	98.040538
873.000000	98.126941
872.000000	98.215583
871.000000	98.305195
870.000000	98.390852
869.000000	98.471699
868.000000	98.555426
867.000000	98.650121
866.000000	98.752045
865.000000	98.846882
864.000000	98.924157
863.000000	98.986622
862.000000	99.045381
861.000000	99.109727
860.000000	99.182367
859.000000	99.260078
858.000000	99.336448
857.000000	99.406328
856.000000	99.468981
855.000000	99.526035
854.000000	99.577914
853.000000	99.625437
852.000000	99.673336
851.000000	99.726691
850.000000	99.782985
849.000000	99.832303
848.000000	99.867109
847.000000	99.888628
846.000000	99.902630
845.000000	99.912398
844.000000	99.917611
843.000000	99.917287
842.000000	99.911594
841.000000	99.901976
840.000000	99.889910
839.000000	99.873900
838.000000	99.848489
837.000000	99.809790
836.000000	99.762511
835.000000	99.718150
834.000000	99.684633
833.000000	99.659775
832.000000	99.635865
831.000000	99.608700
830.000000	99.582194
829.000000	99.566480
828.000000	99.570440
827.000000	99.592138
826.000000	99.617365
825.000000	99.632924
824.000000	99.640611
823.000000	99.651615
822.000000	99.668390
821.000000	99.680803
820.000000	99.680284
819.000000	99.668860
818.000000	99.652126
817.000000	99.629591
816.000000	99.594698
815.000000	99.540398
814.000000	99.462077
813.000000	99.356969
812.000000	99.222084
811.000000	99.051479
810.000000	98.836451
809.000000	98.572242
808.000000	98.265140
807.000000	97.929041
806.000000	97.573862
805.000000	97.202149
804.000000	96.819270
803.000000	96.441761
802.000000	96.092633
801.000000	95.793061
800.000000	95.559657
799.000000	95.401368
798.000000	95.314719
797.000000	95.288340
796.000000	95.314096
795.000000	95.386388
794.000000	95.490226
793.000000	95.600680
792.000000	95.697951
791.000000	95.775254
790.000000	95.829661
789.000000	95.854227
788.000000	95.843875
787.000000	95.802310
786.000000	95.737383
785.000000	95.652899
784.000000	95.548490
783.000000	95.424644
782.000000	95.286632
781.000000	95.148507
780.000000	95.034807
779.000000	94.971539
778.000000	94.970629
777.000000	95.025726
776.000000	95.123040
775.000000	95.250288
774.000000	95.395054
773.000000	95.543009
772.000000	95.682611
771.000000	95.809031
770.000000	95.922876
769.000000	96.027787
768.000000	96.127589
767.000000	96.221060
766.000000	96.300554
765.000000	96.360599
764.000000	96.406269
763.000000	96.447874
762.000000	96.489553
761.000000	96.529832
760.000000	96.571602
759.000000	96.622780
758.000000	96.686212
757.000000	96.756429
756.000000	96.827672
755.000000	96.898357
754.000000	96.966748
753.000000	97.029536
752.000000	97.086697
751.000000	97.141751
750.000000	97.195235
749.000000	97.243358
748.000000	97.285588
747.000000	97.329550
746.000000	97.386622
745.000000	97.465157
744.000000	97.566974
743.000000	97.685645
742.000000	97.808318
741.000000	97.923792
740.000000	98.029024
739.000000	98.125464
738.000000	98.212344
737.000000	98.288612
736.000000	98.358462
735.000000	98.428372
734.000000	98.500401
733.000000	98.573560
732.000000	98.648151
731.000000	98.721482
730.000000	98.782684
729.000000	98.821327
728.000000	98.840983
727.000000	98.855994
726.000000	98.874973
725.000000	98.896529
724.000000	98.920902
723.000000	98.954890
722.000000	99.002582
721.000000	99.060396
720.000000	99.124358
719.000000	99.193542
718.000000	99.262677
717.000000	99.320831
716.000000	99.363151
715.000000	99.397240
714.000000	99.432563
713.000000	99.468550
712.000000	99.498153
711.000000	99.517800
710.000000	99.528125
709.000000	99.529487
708.000000	99.523249
707.000000	99.515552
706.000000	99.513648
705.000000	99.517722
704.000000	99.517683
703.000000	99.496202
702.000000	99.435066
701.000000	99.323037
700.000000	99.160969
699.000000	98.960432
698.000000	98.740160
697.000000	98.528292
696.000000	98.363610
695.000000	98.280887
694.000000	98.288989
693.000000	98.365474
692.000000	98.473377
691.000000	98.583559
690.000000	98.684448
689.000000	98.778499
688.000000	98.872026
687.000000	98.963553
686.000000	99.042059
685.000000	99.100728
684.000000	99.148831
683.000000	99.202363
682.000000	99.264528
681.000000	99.324135
680.000000	99.373139
679.000000	99.416132
678.000000	99.459684
677.000000	99.502207
676.000000	99.540287
675.000000	99.576017
674.000000	99.612195
673.000000	99.647619
672.000000	99.682611
671.000000	99.724280
670.000000	99.783851
669.000000	99.866173
668.000000	99.945350
667.000000	99.985564
666.000000	99.999368
665.000000	100.006109
664.000000	100.012331
663.000000	100.024303
662.000000	100.042216
661.000000	100.057767
660.000000	100.068587
659.000000	100.083280
658.000000	100.103192
657.000000	100.110974
656.000000	100.090459
655.000000	100.048868
654.000000	100.009006
653.000000	99.986070
652.000000	99.983293
651.000000	99.999915
650.000000	100.028529
