4000.000000	99.865720
3999.000000	99.862926
3998.000000	99.861172
3997.000000	99.860281
3996.000000	99.859478
3995.000000	99.858166
3994.000000	99.856397
3993.000000	99.854741
3992.000000	99.853898
3991.000000	99.854293
3990.000000	99.855825
3989.000000	99.857863
3988.000000	99.859553
3987.000000	99.860345
3986.000000	99.860270
3985.000000	99.859840
3984.000000	99.859631
3983.000000	99.859778
3982.000000	99.859882
3981.000000	99.859454
3980.000000	99.858455
3979.000000	99.857358
3978.000000	99.856615
3977.000000	99.856105
3976.000000	99.855236
3975.000000	99.853633
3974.000000	99.851669
3973.000000	99.850283
3972.000000	99.850182
3971.000000	99.851328
3970.000000	99.852961
3969.000000	99.854096
3968.000000	99.854201
3967.000000	99.853347
3966.000000	99.851942
3965.000000	99.850376
3964.000000	99.848906
3963.000000	99.847757
3962.000000	99.847073
3961.000000	99.846749
3960.000000	99.846466
3959.000000	99.846008
3958.000000	99.845541
3957.000000	99.845495
3956.000000	99.846157
3955.000000	99.847366
3954.000000	99.848554
3953.000000	99.849137
3952.000000	99.848919
3951.000000	99.848176
3950.000000	99.847421
3949.000000	99.847035
3948.000000	99.847102
3947.000000	99.847493
3946.000000	99.848012
3945.000000	99.848466
3944.000000	99.848694
3943.000000	99.848577
3942.000000	99.848040
3941.000000	99.847078
3940.000000	99.845833
3939.000000	99.844684
3938.000000	99.844182
3937.000000	99.844703
3936.000000	99.846128
3935.000000	99.847795
3934.000000	99.848869
3933.000000	99.848860
3932.000000	99.847904
3931.000000	99.846694
3930.000000	99.845972
3929.000000	99.846006
3928.000000	99.846552
3927.000000	99.847314
3926.000000	99.848213
3925.000000	99.849184
3924.000000	99.850077
3923.000000	99.850848
3922.000000	99.851599
3921.000000	99.852407
3920.000000	99.853296
3919.000000	99.854359
3918.000000	99.855707
3917.000000	99.857234
3916.000000	99.858559
3915.000000	99.859326
3914.000000	99.859453
3913.000000	99.859140
3912.000000	99.858759
3911.000000	99.858675
3910.000000	99.858949
3909.000000	99.859196
3908.000000	99.858934
3907.000000	99.858280
3906.000000	99.858230
3905.000000	99.859835
3904.000000	99.862911
3903.000000	99.865780
3902.000000	99.866855
3901.000000	99.866082
3900.000000	99.864653
3899.000000	99.863650
3898.000000	99.863115
3897.000000	99.862435
3896.000000	99.861152
3895.000000	99.859407
3894.000000	99.857930
3893.000000	99.857534
3892.000000	99.858237
3891.000000	99.859108
3890.000000	99.859259
3889.000000	99.858650
3888.000000	99.857935
3887.000000	99.857840
3886.000000	99.858326
3885.000000	99.858425
3884.000000	99.857343
3883.000000	99.855391
3882.000000	99.853737
3881.000000	99.853289
3880.000000	99.854073
3879.000000	99.855659
3878.000000	99.857507
3877.000000	99.858850
3876.000000	99.858951
3875.000000	99.857663
3874.000000	99.855707
3873.000000	99.854378
3872.000000	99.854706
3871.000000	99.856555
3870.000000	99.858548
3869.000000	99.859501
3868.000000	99.859421
3867.000000	99.858886
3866.000000	99.858302
3865.000000	99.857749
3864.000000	99.857143
3863.000000	99.856607
3862.000000	99.856234
3861.000000	99.855623
3860.000000	99.853889
3859.000000	99.850449
3858.000000	99.845915
3857.000000	99.842015
3856.000000	99.839991
3855.000000	99.840061
3854.000000	99.841082
3853.000000	99.841674
3852.000000	99.843436
3851.000000	99.848400
3850.000000	99.855942
3849.000000	99.863725
3848.000000	99.869445
3847.000000	99.872003
3846.000000	99.871580
3845.000000	99.868859
3844.000000	99.864197
3843.000000	99.857912
3842.000000	99.851320
3841.000000	99.846802
3840.000000	99.846082
3839.000000	99.848380
3838.000000	99.851111
3837.000000	99.852820
3836.000000	99.854250
3835.000000	99.856685
3834.000000	99.860429
3833.000000	99.864460
3832.000000	99.867147
3831.000000	99.867590
3830.000000	99.866203
3829.000000	99.864241
3828.000000	99.862839
3827.000000	99.862255
3826.000000	99.861785
3825.000000	99.860403
3824.000000	99.857431
3823.000000	99.853482
3822.000000	99.850525
3821.000000	99.849679
3820.000000	99.850393
3819.000000	99.851545
3818.000000	99.852134
3817.000000	99.851258
3816.000000	99.848770
3815.000000	99.846310
3814.000000	99.845903
3813.000000	99.847896
3812.000000	99.851057
3811.000000	99.853705
3810.000000	99.854787
3809.000000	99.854367
3808.000000	99.853305
3807.000000	99.852482
3806.000000	99.852234
3805.000000	99.852352
3804.000000	99.852514
3803.000000	99.852640
3802.000000	99.852655
3801.000000	99.853030
3800.000000	99.854894
3799.000000	99.858453
3798.000000	99.862404
3797.000000	99.864893
3796.000000	99.865041
3795.000000	99.863551
3794.000000	99.861878
3793.000000	99.860983
3792.000000	99.861077
3791.000000	99.862018
3790.000000	99.863442
3789.000000	99.864630
3788.000000	99.864746
3787.000000	99.863504
3786.000000	99.861506
3785.000000	99.859767
3784.000000	99.858833
3783.000000	99.858504
3782.000000	99.858329
3781.000000	99.858301
3780.000000	99.858846
3779.000000	99.860058
3778.000000	99.861222
3777.000000	99.861244
3776.000000	99.859580
3775.000000	99.856914
3774.000000	99.854903
3773.000000	99.854914
3772.000000	99.856920
3771.000000	99.859441
3770.000000	99.860913
3769.000000	99.861335
3768.000000	99.861749
3767.000000	99.862434
3766.000000	99.862563
3765.000000	99.861528
3764.000000	99.859806
3763.000000	99.858179
3762.000000	99.856651
3761.000000	99.854700
3760.000000	99.852137
3759.000000	99.849277
3758.000000	99.846427
3757.000000	99.843279
3756.000000	99.839208
3755.000000	99.834189
3754.000000	99.829161
3753.000000	99.825712
3752.000000	99.824766
3751.000000	99.824987
3750.000000	99.824738
3749.000000	99.824242
3748.000000	99.824707
3747.000000	99.827401
3746.000000	99.832239
3745.000000	99.836261
3744.000000	99.836464
3743.000000	99.833112
3742.000000	99.828270
3741.000000	99.824429
3740.000000	99.823873
3739.000000	99.826992
3738.000000	99.831919
3737.000000	99.836537
3736.000000	99.840041
3735.000000	99.842319
3734.000000	99.843113
3733.000000	99.841860
3732.000000	99.838255
3731.000000	99.832632
3730.000000	99.825557
3729.000000	99.817755
3728.000000	99.810704
3727.000000	99.806683
3726.000000	99.807396
3725.000000	99.812077
3724.000000	99.817141
3723.000000	99.818443
3722.000000	99.814380
3721.000000	99.806866
3720.000000	99.799299
3719.000000	99.793514
3718.000000	99.788577
3717.000000	99.782226
3716.000000	99.773212
3715.000000	99.762296
3714.000000	99.751464
3713.000000	99.742230
3712.000000	99.733442
3711.000000	99.722394
3710.000000	99.709439
3709.000000	99.698207
3708.000000	99.690833
3707.000000	99.685394
3706.000000	99.677788
3705.000000	99.665315
3704.000000	99.648965
3703.000000	99.632680
3702.000000	99.619861
3701.000000	99.611143
3700.000000	99.605825
3699.000000	99.603645
3698.000000	99.604277
3697.000000	99.605963
3696.000000	99.605897
3695.000000	99.602149
3694.000000	99.594622
3693.000000	99.584809
3692.000000	99.575415
3691.000000	99.569150
3690.000000	99.565752
3689.000000	99.562299
3688.000000	99.557560
3687.000000	99.551839
3686.000000	99.544338
3685.000000	99.534179
3684.000000	99.522218
3683.000000	99.510783
3682.000000	99.502011
3681.000000	99.495839
3680.000000	99.489463
3679.000000	99.479409
3678.000000	99.464186
3677.000000	99.446135
3676.000000	99.428742
3675.000000	99.413014
3674.000000	99.397906
3673.000000	99.381586
3672.000000	99.363117
3671.000000	99.343843
3670.000000	99.326128
3669.000000	99.311305
3668.000000	99.298162
3667.000000	99.283738
3666.000000	99.265854
3665.000000	99.244293
3664.000000	99.220625
3663.000000	99.197694
3662.000000	99.178851
3661.000000	99.166331
3660.000000	99.159131
3659.000000	99.152129
3658.000000	99.138481
3657.000000	99.115227
3656.000000	99.087773
3655.000000	99.065857
3654.000000	99.053886
3653.000000	99.047476
3652.000000	99.037986
3651.000000	99.019862
3650.000000	98.994851
3649.000000	98.970565
3648.000000	98.953473
3647.000000	98.942513
3646.000000	98.932162
3645.000000	98.919343
3644.000000	98.904909
3643.000000	98.890574
3642.000000	98.875998
3641.000000	98.859275
3640.000000	98.840413
3639.000000	98.823136
3638.000000	98.811666
3637.000000	98.805775
3636.000000	98.800354
3635.000000	98.790495
3634.000000	98.776611
3633.000000	98.763325
3632.000000	98.752865
3631.000000	98.741083
3630.000000	98.721273
3629.000000	98.691960
3628.000000	98.661983
3627.000000	98.641661
3626.000000	98.632077
3625.000000	98.628311
3624.000000	98.626247
3623.000000	98.624732
3622.000000	98.624613
3621.000000	98.627550
3620.000000	98.635152
3619.000000	98.647622
3618.000000	98.663369
3617.000000	98.679771
3616.000000	98.694541
3615.000000	98.707303
3614.000000	98.719876
3613.000000	98.734889
3612.000000	98.753848
3611.000000	98.775783
3610.000000	98.797532
3609.000000	98.815744
3608.000000	98.829100
3607.000000	98.839005
3606.000000	98.847456
3605.000000	98.854459
3604.000000	98.858849
3603.000000	98.861249
3602.000000	98.864821
3601.000000	98.872104
3600.000000	98.882003
3599.000000	98.891211
3598.000000	98.897994
3597.000000	98.903829
3596.000000	98.911921
3595.000000	98.924503
3594.000000	98.941248
3593.000000	98.959479
3592.000000	98.975120
3591.000000	98.984119
3590.000000	98.984916
3589.000000	98.980775
3588.000000	98.977365
3587.000000	98.977067
3586.000000	98.978473
3585.000000	98.979915
3584.000000	98.980774
3583.000000	98.980675
3582.000000	98.979190
3581.000000	98.976515
3580.000000	98.973744
3579.000000	98.971941
3578.000000	98.971075
3577.000000	98.970309
3576.000000	98.969272
3575.000000	98.968741
3574.000000	98.970094
3573.000000	98.974252
3572.000000	98.980776
3571.000000	98.987535
3570.000000	98.991395
3569.000000	98.990065
3568.000000	98.983089
3567.000000	98.971165
3566.000000	98.956571
3565.000000	98.943150
3564.000000	98.933930
3563.000000	98.929380
3562.000000	98.927820
3561.000000	98.927149
3560.000000	98.926541
3559.000000	98.926549
3558.000000	98.927628
3557.000000	98.929048
3556.000000	98.929684
3555.000000	98.929579
3554.000000	98.930001
3553.000000	98.931709
3552.000000	98.933816
3551.000000	98.934834
3550.000000	98.934187
3549.000000	98.932355
3548.000000	98.930194
3547.000000	98.928399
3546.000000	98.927323
3545.000000	98.927057
3544.000000	98.927503
3543.000000	98.928293
3542.000000	98.928799
3541.000000	98.928475
3540.000000	98.927417
3539.000000	98.926540
3538.000000	98.926919
3537.000000	98.928670
3536.000000	98.930611
3535.000000	98.931298
3534.000000	98.930343
3533.000000	98.928514
3532.000000	98.926845
3531.000000	98.925863
3530.000000	98.925566
3529.000000	98.925848
3528.000000	98.926683
3527.000000	98.927959
3526.000000	98.929384
3525.000000	98.930574
3524.000000	98.931244
3523.000000	98.931372
3522.000000	98.931267
3521.000000	98.931404
3520.000000	98.932017
3519.000000	98.932849
3518.000000	98.933326
3517.000000	98.933114
3516.000000	98.932457
3515.000000	98.932042
3514.000000	98.932394
3513.000000	98.933464
3512.000000	98.934665
3511.000000	98.935322
3510.000000	98.935165
3509.000000	98.934396
3508.000000	98.933516
3507.000000	98.932977
3506.000000	98.932924
3505.000000	98.933179
3504.000000	98.933412
3503.000000	98.933452
3502.000000	98.933417
3501.000000	98.933459
3500.000000	98.933464
3499.000000	98.933170
3498.000000	98.932613
3497.000000	98.932306
3496.000000	98.932813
3495.000000	98.934120
3494.000000	98.935502
3493.000000	98.936135
3492.000000	98.935705
3491.000000	98.934331
3490.000000	98.932151
3489.000000	98.929220
3488.000000	98.925862
3487.000000	98.922828
3486.000000	98.920812
3485.000000	98.919890
3484.000000	98.919564
3483.000000	98.919234
3482.000000	98.918609
3481.000000	98.917691
3480.000000	98.916499
3479.000000	98.914956
3478.000000	98.913084
3477.000000	98.911220
3476.000000	98.909884
3475.000000	98.909235
3474.000000	98.908665
3473.000000	98.907191
3472.000000	98.904374
3471.000000	98.900761
3470.000000	98.897407
3469.000000	98.894910
3468.000000	98.893197
3467.000000	98.892039
3466.000000	98.891442
3465.000000	98.891385
3464.000000	98.891376
3463.000000	98.890571
3462.000000	98.888416
3461.000000	98.885024
3460.000000	98.881081
3459.000000	98.877462
3458.000000	98.874745
3457.000000	98.872922
3456.000000	98.871411
3455.000000	98.869488
3454.000000	98.866947
3453.000000	98.864305
3452.000000	98.862303
3451.000000	98.861207
3450.000000	98.860583
3449.000000	98.859611
3448.000000	98.857680
3447.000000	98.854763
3446.000000	98.851434
3445.000000	98.848416
3444.000000	98.846008
3443.000000	98.844016
3442.000000	98.842168
3441.000000	98.840492
3440.000000	98.839211
3439.000000	98.838411
3438.000000	98.837973
3437.000000	98.837720
3436.000000	98.837421
3435.000000	98.836698
3434.000000	98.835158
3433.000000	98.832852
3432.000000	98.830505
3431.000000	98.828982
3430.000000	98.828442
3429.000000	98.828162
3428.000000	98.827394
3427.000000	98.826334
3426.000000	98.825905
3425.000000	98.826545
3424.000000	98.827454
3423.000000	98.827220
3422.000000	98.825099
3421.000000	98.821564
3420.000000	98.817812
3419.000000	98.814830
3418.000000	98.812956
3417.000000	98.812123
3416.000000	98.812217
3415.000000	98.813079
3414.000000	98.814267
3413.000000	98.815082
3412.000000	98.815048
3411.000000	98.814392
3410.000000	98.813900
3409.000000	98.814174
3408.000000	98.815086
3407.000000	98.815968
3406.000000	98.816243
3405.000000	98.815873
3404.000000	98.815366
3403.000000	98.815431
3402.000000	98.816426
3401.000000	98.817904
3400.000000	98.818738
3399.000000	98.817888
3398.000000	98.815197
3397.000000	98.811646
3396.000000	98.808893
3395.000000	98.808275
3394.000000	98.809944
3393.000000	98.812731
3392.000000	98.815087
3391.000000	98.816472
3390.000000	98.817543
3389.000000	98.819007
3388.000000	98.820825
3387.000000	98.822807
3386.000000	98.825382
3385.000000	98.829041
3384.000000	98.833118
3383.000000	98.835948
3382.000000	98.836600
3381.000000	98.835941
3380.000000	98.835860
3379.000000	98.837571
3378.000000	98.840900
3377.000000	98.844885
3376.000000	98.848553
3375.000000	98.851234
3374.000000	98.852563
3373.000000	98.852555
3372.000000	98.851720
3371.000000	98.850957
3370.000000	98.851161
3369.000000	98.852768
3368.000000	98.855585
3367.000000	98.858977
3366.000000	98.862260
3365.000000	98.864948
3364.000000	98.866749
3363.000000	98.867556
3362.000000	98.867640
3361.000000	98.867676
3360.000000	98.868310
3359.000000	98.869661
3358.000000	98.871408
3357.000000	98.873337
3356.000000	98.875593
3355.000000	98.878281
3354.000000	98.881108
3353.000000	98.883614
3352.000000	98.885646
3351.000000	98.887414
3350.000000	98.889210
3349.000000	98.891195
3348.000000	98.893398
3347.000000	98.895753
3346.000000	98.898061
3345.000000	98.900044
3344.000000	98.901580
3343.000000	98.902861
3342.000000	98.904297
3341.000000	98.906128
3340.000000	98.908223
3339.000000	98.910250
3338.000000	98.912036
3337.000000	98.913677
3336.000000	98.915350
3335.000000	98.917135
3334.000000	98.919015
3333.000000	98.920930
3332.000000	98.922809
3331.000000	98.924599
3330.000000	98.926311
3329.000000	98.928012
3328.000000	98.929752
3327.000000	98.931523
3326.000000	98.933285
3325.000000	98.935022
3324.000000	98.936743
3323.000000	98.938455
3322.000000	98.940168
3321.000000	98.941888
3320.000000	98.943611
3319.000000	98.945323
3318.000000	98.947014
3317.000000	98.948682
3316.000000	98.950329
3315.000000	98.951959
3314.000000	98.953575
3313.000000	98.955175
3312.000000	98.956761
3311.000000	98.958363
3310.000000	98.960026
3309.000000	98.961749
3308.000000	98.963446
3307.000000	98.965011
3306.000000	98.966418
3305.000000	98.967767
3304.000000	98.969217
3303.000000	98.970875
3302.000000	98.972736
3301.000000	98.974651
3300.000000	98.976393
3299.000000	98.977795
3298.000000	98.978864
3297.000000	98.979808
3296.000000	98.980898
3295.000000	98.982300
3294.000000	98.984003
3293.000000	98.985840
3292.000000	98.987546
3291.000000	98.988902
3290.000000	98.989921
3289.000000	98.990913
3288.000000	98.992239
3287.000000	98.993943
3286.000000	98.995729
3285.000000	98.997319
3284.000000	98.998720
3283.000000	99.000107
3282.000000	99.001572
3281.000000	99.003062
3280.000000	99.004430
3279.000000	99.005471
3278.000000	99.006050
3277.000000	99.006381
3276.000000	99.007060
3275.000000	99.008638
3274.000000	99.011229
3273.000000	99.014569
3272.000000	99.018271
3271.000000	99.021926
3270.000000	99.025050
3269.000000	99.027277
3268.000000	99.028658
3267.000000	99.029678
3266.000000	99.030975
3265.000000	99.033047
3264.000000	99.036054
3263.000000	99.039586
3262.000000	99.042617
3261.000000	99.044059
3260.000000	99.043611
3259.000000	99.042150
3258.000000	99.041216
3257.000000	99.041853
3256.000000	99.043953
3255.000000	99.046582
3254.000000	99.048889
3253.000000	99.050730
3252.000000	99.052455
3251.000000	99.054409
3250.000000	99.056846
3249.000000	99.060060
3248.000000	99.064138
3247.000000	99.068567
3246.000000	99.072464
3245.000000	99.075392
3244.000000	99.077697
3243.000000	99.079856
3242.000000	99.081857
3241.000000	99.083557
3240.000000	99.085320
3239.000000	99.087744
3238.000000	99.090772
3237.000000	99.093564
3236.000000	99.095492
3235.000000	99.096926
3234.000000	99.098794
3233.000000	99.101405
3232.000000	99.103932
3231.000000	99.105142
3230.000000	99.104585
3229.000000	99.103120
3228.000000	99.102323
3227.000000	99.103139
3226.000000	99.105276
3225.000000	99.107881
3224.000000	99.110630
3223.000000	99.113840
3222.000000	99.117614
3221.000000	99.121329
3220.000000	99.124161
3219.000000	99.125876
3218.000000	99.126992
3217.000000	99.128384
3216.000000	99.130731
3215.000000	99.134174
3214.000000	99.138201
3213.000000	99.141934
3212.000000	99.144767
3211.000000	99.146689
3210.000000	99.148045
3209.000000	99.149147
3208.000000	99.150202
3207.000000	99.151517
3206.000000	99.153458
3205.000000	99.156133
3204.000000	99.159221
3203.000000	99.162226
3202.000000	99.164835
3201.000000	99.167015
3200.000000	99.168855
3199.000000	99.170484
3198.000000	99.172104
3197.000000	99.173964
3196.000000	99.176212
3195.000000	99.178754
3194.000000	99.181309
3193.000000	99.183611
3192.000000	99.185632
3191.000000	99.187637
3190.000000	99.189966
3189.000000	99.192711
3188.000000	99.195634
3187.000000	99.198405
3186.000000	99.200986
3185.000000	99.203657
3184.000000	99.206623
3183.000000	99.209711
3182.000000	99.212557
3181.000000	99.214994
3180.000000	99.217195
3179.000000	99.219420
3178.000000	99.221756
3177.000000	99.224126
3176.000000	99.226400
3175.000000	99.228437
3174.000000	99.230170
3173.000000	99.231744
3172.000000	99.233464
3171.000000	99.235468
3170.000000	99.237598
3169.000000	99.239669
3168.000000	99.241761
3167.000000	99.244058
3166.000000	99.246503
3165.000000	99.248809
3164.000000	99.250846
3163.000000	99.252801
3162.000000	99.254913
3161.000000	99.257134
3160.000000	99.259222
3159.000000	99.261080
3158.000000	99.262879
3157.000000	99.264842
3156.000000	99.266977
3155.000000	99.269087
3154.000000	99.271007
3153.000000	99.272801
3152.000000	99.274703
3151.000000	99.276876
3150.000000	99.279261
3149.000000	99.281580
3148.000000	99.283624
3147.000000	99.285403
3146.000000	99.287084
3145.000000	99.288790
3144.000000	99.290499
3143.000000	99.292207
3142.000000	99.293982
3141.000000	99.295833
3140.000000	99.297640
3139.000000	99.299274
3138.000000	99.300755
3137.000000	99.302268
3136.000000	99.303998
3135.000000	99.305965
3134.000000	99.308035
3133.000000	99.310060
3132.000000	99.312001
3131.000000	99.313896
3130.000000	99.315792
3129.000000	99.317716
3128.000000	99.319672
3127.000000	99.321648
3126.000000	99.323598
3125.000000	99.325468
3124.000000	99.327241
3123.000000	99.328964
3122.000000	99.330712
3121.000000	99.332538
3120.000000	99.334437
3119.000000	99.336361
3118.000000	99.338262
3117.000000	99.340128
3116.000000	99.341991
3115.000000	99.343883
3114.000000	99.345808
3113.000000	99.347738
3112.000000	99.349648
3111.000000	99.351530
3110.000000	99.353382
3109.000000	99.355210
3108.000000	99.357021
3107.000000	99.358823
3106.000000	99.360620
3105.000000	99.362409
3104.000000	99.364179
3103.000000	99.365930
3102.000000	99.367666
3101.000000	99.369400
3100.000000	99.371137
3099.000000	99.372876
3098.000000	99.374612
3097.000000	99.376346
3096.000000	99.378077
3095.000000	99.379800
3094.000000	99.381506
3093.000000	99.383192
3092.000000	99.384859
3091.000000	99.386517
3090.000000	99.388174
3089.000000	99.389830
3088.000000	99.391479
3087.000000	99.393113
3086.000000	99.394726
3085.000000	99.396316
3084.000000	99.397886
3083.000000	99.399440
3082.000000	99.400981
3081.000000	99.402510
3080.000000	99.404022
3079.000000	99.405517
3078.000000	99.406993
3077.000000	99.408460
3076.000000	99.409927
3075.000000	99.411404
3074.000000	99.412886
3073.000000	99.414360
3072.000000	99.415812
3071.000000	99.417237
3070.000000	99.418642
3069.000000	99.420043
3068.000000	99.421457
3067.000000	99.422895
3066.000000	99.424358
3065.000000	99.425836
3064.000000	99.427315
3063.000000	99.428785
3062.000000	99.430248
3061.000000	99.431713
3060.000000	99.433183
3059.000000	99.434658
3058.000000	99.436130
3057.000000	99.437595
3056.000000	99.439049
3055.000000	99.440498
3054.000000	99.441943
3053.000000	99.443388
3052.000000	99.444836
3051.000000	99.446285
3050.000000	99.447734
3049.000000	99.449181
3048.000000	99.450622
3047.000000	99.452062
3046.000000	99.453506
3045.000000	99.454965
3044.000000	99.456443
3043.000000	99.457945
3042.000000	99.459472
3041.000000	99.461023
3040.000000	99.462592
3039.000000	99.464176
3038.000000	99.465769
3037.000000	99.467375
3036.000000	99.468999
3035.000000	99.470645
3034.000000	99.472294
3033.000000	99.473901
3032.000000	99.475423
3031.000000	99.476887
3030.000000	99.478403
3029.000000	99.480086
3028.000000	99.481943
3027.000000	99.483893
3026.000000	99.485916
3025.000000	99.488021
3024.000000	99.490016
3023.000000	99.491552
3022.000000	99.492543
3021.000000	99.493464
3020.000000	99.494864
3019.000000	99.496534
3018.000000	99.497678
3017.000000	99.498242
3016.000000	99.499369
3015.000000	99.501945
3014.000000	99.505354
3013.000000	99.508087
3012.000000	99.509093
3011.000000	99.508525
3010.000000	99.507905
3009.000000	99.509400
3008.000000	99.513926
3007.000000	99.519787
3006.000000	99.524087
3005.000000	99.525977
3004.000000	99.527573
3003.000000	99.531059
3002.000000	99.535742
3001.000000	99.538854
3000.000000	99.538861
2999.000000	99.537017
2998.000000	99.535744
2997.000000	99.536337
2996.000000	99.538485
2995.000000	99.541328
2994.000000	99.544351
2993.000000	99.547363
2992.000000	99.550216
2991.000000	99.552862
2990.000000	99.555601
2989.000000	99.558987
2988.000000	99.563284
2987.000000	99.568129
2986.000000	99.572984
2985.000000	99.577888
2984.000000	99.583363
2983.000000	99.589462
2982.000000	99.595404
2981.000000	99.600657
2980.000000	99.606168
2979.000000	99.613692
2978.000000	99.623358
2977.000000	99.632207
2976.000000	99.635974
2975.000000	99.632716
2974.000000	99.624668
2973.000000	99.616374
2972.000000	99.610597
2971.000000	99.606306
2970.000000	99.600855
2969.000000	99.593491
2968.000000	99.586099
2967.000000	99.580747
2966.000000	99.577333
2965.000000	99.574083
2964.000000	99.569790
2963.000000	99.564888
2962.000000	99.560477
2961.000000	99.557013
2960.000000	99.554386
2959.000000	99.552895
2958.000000	99.553450
2957.000000	99.556328
2956.000000	99.559854
2955.000000	99.560997
2954.000000	99.558042
2953.000000	99.552838
2952.000000	99.549848
2951.000000	99.552368
2950.000000	99.559609
2949.000000	99.567319
2948.000000	99.571268
2947.000000	99.570283
2946.000000	99.566345
2945.000000	99.562524
2944.000000	99.560807
2943.000000	99.561309
2942.000000	99.562899
2941.000000	99.564387
2940.000000	99.565285
2939.000000	99.565828
2938.000000	99.566541
2937.000000	99.567819
2936.000000	99.569594
2935.000000	99.571211
2934.000000	99.571780
2933.000000	99.570842
2932.000000	99.568667
2931.000000	99.565875
2930.000000	99.563064
2929.000000	99.561007
2928.000000	99.560821
2927.000000	99.563304
2926.000000	99.567932
2925.000000	99.572909
2924.000000	99.576610
2923.000000	99.578821
2922.000000	99.580359
2921.000000	99.581935
2920.000000	99.583761
2919.000000	99.585933
2918.000000	99.588568
2917.000000	99.591447
2916.000000	99.593918
2915.000000	99.595472
2914.000000	99.596392
2913.000000	99.597651
2912.000000	99.600122
2911.000000	99.603882
2910.000000	99.608285
2909.000000	99.612558
2908.000000	99.616164
2907.000000	99.618693
2906.000000	99.619865
2905.000000	99.620025
2904.000000	99.620418
2903.000000	99.622226
2902.000000	99.625194
2901.000000	99.627687
2900.000000	99.628325
2899.000000	99.627249
2898.000000	99.625763
2897.000000	99.625185
2896.000000	99.626161
2895.000000	99.628684
2894.000000	99.632088
2893.000000	99.635128
2892.000000	99.636737
2891.000000	99.636872
2890.000000	99.636431
2889.000000	99.636332
2888.000000	99.636863
2887.000000	99.637941
2886.000000	99.639527
2885.000000	99.641516
2884.000000	99.643480
2883.000000	99.644883
2882.000000	99.645526
2881.000000	99.645640
2880.000000	99.645519
2879.000000	99.645244
2878.000000	99.644820
2877.000000	99.644438
2876.000000	99.644487
2875.000000	99.645271
2874.000000	99.646676
2873.000000	99.648102
2872.000000	99.648846
2871.000000	99.648666
2870.000000	99.647950
2869.000000	99.647386
2868.000000	99.647414
2867.000000	99.647999
2866.000000	99.648809
2865.000000	99.649499
2864.000000	99.649884
2863.000000	99.649979
2862.000000	99.649959
2861.000000	99.650025
2860.000000	99.650227
2859.000000	99.650403
2858.000000	99.650354
2857.000000	99.650132
2856.000000	99.650119
2855.000000	99.650718
2854.000000	99.651945
2853.000000	99.653391
2852.000000	99.654618
2851.000000	99.655547
2850.000000	99.656342
2849.000000	99.657094
2848.000000	99.657778
2847.000000	99.658410
2846.000000	99.659073
2845.000000	99.659801
2844.000000	99.660572
2843.000000	99.661427
2842.000000	99.662418
2841.000000	99.663411
2840.000000	99.664133
2839.000000	99.664482
2838.000000	99.664736
2837.000000	99.665385
2836.000000	99.666635
2835.000000	99.668249
2834.000000	99.669790
2833.000000	99.671066
2832.000000	99.672162
2831.000000	99.673191
2830.000000	99.674157
2829.000000	99.675026
2828.000000	99.675825
2827.000000	99.676647
2826.000000	99.677597
2825.000000	99.678743
2824.000000	99.680053
2823.000000	99.681392
2822.000000	99.682626
2821.000000	99.683746
2820.000000	99.684882
2819.000000	99.686168
2818.000000	99.687548
2817.000000	99.688742
2816.000000	99.689500
2815.000000	99.689973
2814.000000	99.690710
2813.000000	99.692165
2812.000000	99.694256
2811.000000	99.696491
2810.000000	99.698504
2809.000000	99.700247
2808.000000	99.701679
2807.000000	99.702572
2806.000000	99.702765
2805.000000	99.702437
2804.000000	99.702041
2803.000000	99.702139
2802.000000	99.703301
2801.000000	99.705813
2800.000000	99.709205
2799.000000	99.712250
2798.000000	99.713888
2797.000000	99.713961
2796.000000	99.713097
2795.000000	99.712030
2794.000000	99.711123
2793.000000	99.710383
2792.000000	99.709627
2791.000000	99.708856
2790.000000	99.708633
2789.000000	99.709752
2788.000000	99.712304
2787.000000	99.715347
2786.000000	99.717857
2785.000000	99.719754
2784.000000	99.721500
2783.000000	99.723041
2782.000000	99.723811
2781.000000	99.723718
2780.000000	99.723452
2779.000000	99.723696
2778.000000	99.724530
2777.000000	99.725729
2776.000000	99.727087
2775.000000	99.728189
2774.000000	99.728438
2773.000000	99.727794
2772.000000	99.727205
2771.000000	99.727804
2770.000000	99.729812
2769.000000	99.732521
2768.000000	99.735216
2767.000000	99.737740
2766.000000	99.740222
2765.000000	99.742667
2764.000000	99.744960
2763.000000	99.746954
2762.000000	99.748372
2761.000000	99.748787
2760.000000	99.748026
2759.000000	99.746696
2758.000000	99.746086
2757.000000	99.747202
2756.000000	99.749790
2755.000000	99.752374
2754.000000	99.753569
2753.000000	99.753324
2752.000000	99.752707
2751.000000	99.752574
2750.000000	99.752620
2749.000000	99.751863
2748.000000	99.749882
2747.000000	99.747366
2746.000000	99.745524
2745.000000	99.745102
2744.000000	99.746060
2743.000000	99.747975
2742.000000	99.750504
2741.000000	99.753357
2740.000000	99.755954
2739.000000	99.757484
2738.000000	99.757585
2737.000000	99.756873
2736.000000	99.756523
2735.000000	99.757168
2734.000000	99.758364
2733.000000	99.759247
2732.000000	99.759553
2731.000000	99.759806
2730.000000	99.760542
2729.000000	99.761588
2728.000000	99.762228
2727.000000	99.762001
2726.000000	99.761162
2725.000000	99.760341
2724.000000	99.759869
2723.000000	99.759552
2722.000000	99.759080
2721.000000	99.758481
2720.000000	99.758076
2719.000000	99.758119
2718.000000	99.758598
2717.000000	99.759317
2716.000000	99.760044
2715.000000	99.760637
2714.000000	99.761227
2713.000000	99.762288
2712.000000	99.764274
2711.000000	99.767003
2710.000000	99.769430
2709.000000	99.770418
2708.000000	99.769695
2707.000000	99.768011
2706.000000	99.766529
2705.000000	99.765872
2704.000000	99.765940
2703.000000	99.766385
2702.000000	99.766946
2701.000000	99.767437
2700.000000	99.767665
2699.000000	99.767542
2698.000000	99.767224
2697.000000	99.766991
2696.000000	99.766964
2695.000000	99.767009
2694.000000	99.766977
2693.000000	99.766932
2692.000000	99.767059
2691.000000	99.767385
2690.000000	99.767681
2689.000000	99.767654
2688.000000	99.767195
2687.000000	99.766451
2686.000000	99.765735
2685.000000	99.765340
2684.000000	99.765394
2683.000000	99.765815
2682.000000	99.766390
2681.000000	99.766887
2680.000000	99.767141
2679.000000	99.767092
2678.000000	99.766820
2677.000000	99.766516
2676.000000	99.766356
2675.000000	99.766364
2674.000000	99.766426
2673.000000	99.766439
2672.000000	99.766417
2671.000000	99.766431
2670.000000	99.766467
2669.000000	99.766393
2668.000000	99.766109
2667.000000	99.765671
2666.000000	99.765263
2665.000000	99.765061
2664.000000	99.765085
2663.000000	99.765185
2662.000000	99.765129
2661.000000	99.764801
2660.000000	99.764286
2659.000000	99.763786
2658.000000	99.763468
2657.000000	99.763391
2656.000000	99.763519
2655.000000	99.763786
2654.000000	99.764124
2653.000000	99.764459
2652.000000	99.764712
2651.000000	99.764816
2650.000000	99.764768
2649.000000	99.764661
2648.000000	99.764637
2647.000000	99.764757
2646.000000	99.764940
2645.000000	99.765037
2644.000000	99.764989
2643.000000	99.764859
2642.000000	99.764753
2641.000000	99.764745
2640.000000	99.764843
2639.000000	99.765014
2638.000000	99.765221
2637.000000	99.765425
2636.000000	99.765577
2635.000000	99.765643
2634.000000	99.765640
2633.000000	99.765585
2632.000000	99.765415
2631.000000	99.765012
2630.000000	99.764396
2629.000000	99.763908
2628.000000	99.764049
2627.000000	99.765075
2626.000000	99.766723
2625.000000	99.768267
2624.000000	99.769022
2623.000000	99.768751
2622.000000	99.767724
2621.000000	99.766544
2620.000000	99.765782
2619.000000	99.765647
2618.000000	99.765916
2617.000000	99.766195
2616.000000	99.766352
2615.000000	99.766624
2614.000000	99.767200
2613.000000	99.767832
2612.000000	99.767979
2611.000000	99.767347
2610.000000	99.766198
2609.000000	99.765129
2608.000000	99.764610
2607.000000	99.764786
2606.000000	99.765623
2605.000000	99.767173
2604.000000	99.769547
2603.000000	99.772556
2602.000000	99.775420
2601.000000	99.777123
2600.000000	99.777180
2599.000000	99.775875
2598.000000	99.773771
2597.000000	99.771256
2596.000000	99.768776
2595.000000	99.767025
2594.000000	99.766321
2593.000000	99.765928
2592.000000	99.764691
2591.000000	99.762557
2590.000000	99.760924
2589.000000	99.761067
2588.000000	99.762742
2587.000000	99.764575
2586.000000	99.765541
2585.000000	99.765693
2584.000000	99.765652
2583.000000	99.766024
2582.000000	99.767235
2581.000000	99.769329
2580.000000	99.771704
2579.000000	99.773391
2578.000000	99.773788
2577.000000	99.772971
2576.000000	99.771396
2575.000000	99.769583
2574.000000	99.768123
2573.000000	99.767599
2572.000000	99.768143
2571.000000	99.769200
2570.000000	99.770010
2569.000000	99.770326
2568.000000	99.770433
2567.000000	99.770566
2566.000000	99.770650
2565.000000	99.770683
2564.000000	99.770972
2563.000000	99.771705
2562.000000	99.772523
2561.000000	99.772862
2560.000000	99.772696
2559.000000	99.772573
2558.000000	99.772885
2557.000000	99.773420
2556.000000	99.773815
2555.000000	99.774154
2554.000000	99.774777
2553.000000	99.775600
2552.000000	99.776029
2551.000000	99.775688
2550.000000	99.774996
2549.000000	99.774848
2548.000000	99.775804
2547.000000	99.777752
2546.000000	99.780065
2545.000000	99.781954
2544.000000	99.782907
2543.000000	99.782940
2542.000000	99.782566
2541.000000	99.782352
2540.000000	99.782505
2539.000000	99.782937
2538.000000	99.783566
2537.000000	99.784384
2536.000000	99.785347
2535.000000	99.786368
2534.000000	99.787343
2533.000000	99.788081
2532.000000	99.788388
2531.000000	99.788366
2530.000000	99.788404
2529.000000	99.788669
2528.000000	99.788823
2527.000000	99.788555
2526.000000	99.788061
2525.000000	99.787665
2524.000000	99.787157
2523.000000	99.785976
2522.000000	99.784063
2521.000000	99.782232
2520.000000	99.781595
2519.000000	99.782689
2518.000000	99.785115
2517.000000	99.787688
2516.000000	99.789205
2515.000000	99.789410
2514.000000	99.789127
2513.000000	99.789344
2512.000000	99.790206
2511.000000	99.791121
2510.000000	99.791667
2509.000000	99.791957
2508.000000	99.792153
2507.000000	99.792170
2506.000000	99.791946
2505.000000	99.791586
2504.000000	99.791117
2503.000000	99.790508
2502.000000	99.790095
2501.000000	99.790477
2500.000000	99.791764
2499.000000	99.793316
2498.000000	99.794473
2497.000000	99.795276
2496.000000	99.796249
2495.000000	99.797761
2494.000000	99.799762
2493.000000	99.801865
2492.000000	99.803480
2491.000000	99.804119
2490.000000	99.803782
2489.000000	99.802941
2488.000000	99.802164
2487.000000	99.801962
2486.000000	99.802884
2485.000000	99.805214
2484.000000	99.808294
2483.000000	99.810667
2482.000000	99.811525
2481.000000	99.811592
2480.000000	99.812160
2479.000000	99.813326
2478.000000	99.813884
2477.000000	99.812918
2476.000000	99.810830
2475.000000	99.808869
2474.000000	99.807985
2473.000000	99.808292
2472.000000	99.809220
2471.000000	99.810082
2470.000000	99.810709
2469.000000	99.811530
2468.000000	99.812926
2467.000000	99.814730
2466.000000	99.816535
2465.000000	99.818268
2464.000000	99.820130
2463.000000	99.822178
2462.000000	99.824276
2461.000000	99.826236
2460.000000	99.827666
2459.000000	99.827979
2458.000000	99.827044
2457.000000	99.825669
2456.000000	99.824926
2455.000000	99.824988
2454.000000	99.825229
2453.000000	99.825386
2452.000000	99.825976
2451.000000	99.827372
2450.000000	99.829006
2449.000000	99.829864
2448.000000	99.829536
2447.000000	99.828539
2446.000000	99.827778
2445.000000	99.827817
2444.000000	99.828533
2443.000000	99.829359
2442.000000	99.829988
2441.000000	99.830803
2440.000000	99.832335
2439.000000	99.834383
2438.000000	99.836054
2437.000000	99.836761
2436.000000	99.836811
2435.000000	99.836982
2434.000000	99.837744
2433.000000	99.838989
2432.000000	99.840257
2431.000000	99.841099
2430.000000	99.841422
2429.000000	99.841571
2428.000000	99.841932
2427.000000	99.842432
2426.000000	99.842701
2425.000000	99.842709
2424.000000	99.842930
2423.000000	99.843764
2422.000000	99.845106
2421.000000	99.846627
2420.000000	99.848103
2419.000000	99.849207
2418.000000	99.849364
2417.000000	99.848211
2416.000000	99.846168
2415.000000	99.844296
2414.000000	99.843378
2413.000000	99.843294
2412.000000	99.843291
2411.000000	99.842839
2410.000000	99.842284
2409.000000	99.842517
2408.000000	99.843947
2407.000000	99.845984
2406.000000	99.847603
2405.000000	99.848409
2404.000000	99.848807
2403.000000	99.849206
2402.000000	99.849586
2401.000000	99.849864
2400.000000	99.850229
2399.000000	99.850852
2398.000000	99.851517
2397.000000	99.851811
2396.000000	99.851609
2395.000000	99.851175
2394.000000	99.850860
2393.000000	99.850804
2392.000000	99.850916
2391.000000	99.851042
2390.000000	99.851106
2389.000000	99.851137
2388.000000	99.851195
2387.000000	99.851290
2386.000000	99.851387
2385.000000	99.851466
2384.000000	99.851543
2383.000000	99.851631
2382.000000	99.851728
2381.000000	99.851831
2380.000000	99.851933
2379.000000	99.852027
2378.000000	99.852111
2377.000000	99.852191
2376.000000	99.852276
2375.000000	99.852368
2374.000000	99.852464
2373.000000	99.852558
2372.000000	99.852640
2371.000000	99.852703
2370.000000	99.852746
2369.000000	99.852775
2368.000000	99.852796
2367.000000	99.852815
2366.000000	99.852833
2365.000000	99.852850
2364.000000	99.852870
2363.000000	99.852892
2362.000000	99.852905
2361.000000	99.852900
2360.000000	99.852875
2359.000000	99.852841
2358.000000	99.852808
2357.000000	99.852782
2356.000000	99.852758
2355.000000	99.852733
2354.000000	99.852702
2353.000000	99.852664
2352.000000	99.852620
2351.000000	99.852568
2350.000000	99.852505
2349.000000	99.852428
2348.000000	99.852340
2347.000000	99.852247
2346.000000	99.852153
2345.000000	99.852058
2344.000000	99.851957
2343.000000	99.851840
2342.000000	99.851697
2341.000000	99.851521
2340.000000	99.851310
2339.000000	99.851066
2338.000000	99.850795
2337.000000	99.850505
2336.000000	99.850205
2335.000000	99.849899
2334.000000	99.849584
2333.000000	99.849253
2332.000000	99.848903
2331.000000	99.848536
2330.000000	99.848166
2329.000000	99.847807
2328.000000	99.847463
2327.000000	99.847124
2326.000000	99.846770
2325.000000	99.846383
2324.000000	99.845952
2323.000000	99.845481
2322.000000	99.844975
2321.000000	99.844443
2320.000000	99.843896
2319.000000	99.843345
2318.000000	99.842795
2317.000000	99.842245
2316.000000	99.841681
2315.000000	99.841088
2314.000000	99.840460
2313.000000	99.839810
2312.000000	99.839153
2311.000000	99.838490
2310.000000	99.837814
2309.000000	99.837126
2308.000000	99.836432
2307.000000	99.835734
2306.000000	99.835027
2305.000000	99.834308
2304.000000	99.833591
2303.000000	99.832882
2302.000000	99.832164
2301.000000	99.831423
2300.000000	99.830686
2299.000000	99.829989
2298.000000	99.829339
2297.000000	99.828698
2296.000000	99.828013
2295.000000	99.827260
2294.000000	99.826470
2293.000000	99.825715
2292.000000	99.825042
2291.000000	99.824449
2290.000000	99.823873
2289.000000	99.823240
2288.000000	99.822521
2287.000000	99.821705
2286.000000	99.820744
2285.000000	99.819664
2284.000000	99.818624
2283.000000	99.817806
2282.000000	99.817255
2281.000000	99.816846
2280.000000	99.816424
2279.000000	99.815915
2278.000000	99.815320
2277.000000	99.814675
2276.000000	99.813997
2275.000000	99.813272
2274.000000	99.812486
2273.000000	99.811684
2272.000000	99.810946
2271.000000	99.810313
2270.000000	99.809744
2269.000000	99.809161
2268.000000	99.808518
2267.000000	99.807822
2266.000000	99.807119
2265.000000	99.806468
2264.000000	99.805910
2263.000000	99.805440
2262.000000	99.805006
2261.000000	99.804554
2260.000000	99.804071
2259.000000	99.803587
2258.000000	99.803134
2257.000000	99.802722
2256.000000	99.802327
2255.000000	99.801923
2254.000000	99.801506
2253.000000	99.801105
2252.000000	99.800746
2251.000000	99.800432
2250.000000	99.800145
2249.000000	99.799857
2248.000000	99.799550
2247.000000	99.799223
2246.000000	99.798892
2245.000000	99.798587
2244.000000	99.798334
2243.000000	99.798135
2242.000000	99.797962
2241.000000	99.797773
2240.000000	99.797561
2239.000000	99.797357
2238.000000	99.797194
2237.000000	99.797084
2236.000000	99.797025
2235.000000	99.797014
2234.000000	99.797029
2233.000000	99.797034
2232.000000	99.797014
2231.000000	99.796985
2230.000000	99.796940
2229.000000	99.796836
2228.000000	99.796671
2227.000000	99.796560
2226.000000	99.796627
2225.000000	99.796859
2224.000000	99.797109
2223.000000	99.797290
2222.000000	99.797472
2221.000000	99.797757
2220.000000	99.798141
2219.000000	99.798523
2218.000000	99.798820
2217.000000	99.799054
2216.000000	99.799286
2215.000000	99.799470
2214.000000	99.799485
2213.000000	99.799331
2212.000000	99.799209
2211.000000	99.799325
2210.000000	99.799675
2209.000000	99.800089
2208.000000	99.800460
2207.000000	99.800846
2206.000000	99.801313
2205.000000	99.801789
2204.000000	99.802132
2203.000000	99.802283
2202.000000	99.802297
2201.000000	99.802321
2200.000000	99.802483
2199.000000	99.802782
2198.000000	99.803130
2197.000000	99.803508
2196.000000	99.803994
2195.000000	99.804604
2194.000000	99.805173
2193.000000	99.805494
2192.000000	99.805528
2191.000000	99.805411
2190.000000	99.805322
2189.000000	99.805391
2188.000000	99.805684
2187.000000	99.806204
2186.000000	99.806862
2185.000000	99.807489
2184.000000	99.807929
2183.000000	99.808110
2182.000000	99.808068
2181.000000	99.807939
2180.000000	99.807894
2179.000000	99.808012
2178.000000	99.808249
2177.000000	99.808535
2176.000000	99.808893
2175.000000	99.809389
2174.000000	99.810030
2173.000000	99.810743
2172.000000	99.811425
2171.000000	99.811969
2170.000000	99.812324
2169.000000	99.812566
2168.000000	99.812823
2167.000000	99.813057
2166.000000	99.813058
2165.000000	99.812735
2164.000000	99.812340
2163.000000	99.812290
2162.000000	99.812742
2161.000000	99.813494
2160.000000	99.814216
2159.000000	99.814716
2158.000000	99.814951
2157.000000	99.814984
2156.000000	99.815027
2155.000000	99.815381
2154.000000	99.816197
2153.000000	99.817333
2152.000000	99.818454
2151.000000	99.819269
2150.000000	99.819638
2149.000000	99.819582
2148.000000	99.819322
2147.000000	99.819190
2146.000000	99.819401
2145.000000	99.819895
2144.000000	99.820429
2143.000000	99.820785
2142.000000	99.820911
2141.000000	99.820923
2140.000000	99.821047
2139.000000	99.821471
2138.000000	99.822178
2137.000000	99.822909
2136.000000	99.823347
2135.000000	99.823316
2134.000000	99.822870
2133.000000	99.822296
2132.000000	99.822027
2131.000000	99.822415
2130.000000	99.823486
2129.000000	99.824896
2128.000000	99.826156
2127.000000	99.826958
2126.000000	99.827329
2125.000000	99.827570
2124.000000	99.828021
2123.000000	99.828769
2122.000000	99.829640
2121.000000	99.830525
2120.000000	99.831571
2119.000000	99.832894
2118.000000	99.834236
2117.000000	99.835165
2116.000000	99.835595
2115.000000	99.835924
2114.000000	99.836588
2113.000000	99.837586
2112.000000	99.838553
2111.000000	99.839167
2110.000000	99.839376
2109.000000	99.839349
2108.000000	99.839382
2107.000000	99.839756
2106.000000	99.840539
2105.000000	99.841528
2104.000000	99.842415
2103.000000	99.843074
2102.000000	99.843629
2101.000000	99.844284
2100.000000	99.845169
2099.000000	99.846306
2098.000000	99.847588
2097.000000	99.848763
2096.000000	99.849554
2095.000000	99.849854
2094.000000	99.849821
2093.000000	99.849782
2092.000000	99.850026
2091.000000	99.850687
2090.000000	99.851734
2089.000000	99.852957
2088.000000	99.854043
2087.000000	99.854762
2086.000000	99.855125
2085.000000	99.855337
2084.000000	99.855594
2083.000000	99.855928
2082.000000	99.856258
2081.000000	99.856562
2080.000000	99.856961
2079.000000	99.857678
2078.000000	99.858893
2077.000000	99.860546
2076.000000	99.862262
2075.000000	99.863532
2074.000000	99.864052
2073.000000	99.863894
2072.000000	99.863334
2071.000000	99.862592
2070.000000	99.861810
2069.000000	99.861098
2068.000000	99.860451
2067.000000	99.859721
2066.000000	99.858932
2065.000000	99.858542
2064.000000	99.859027
2063.000000	99.860121
2062.000000	99.860892
2061.000000	99.860868
2060.000000	99.860770
2059.000000	99.861785
2058.000000	99.864126
2057.000000	99.866601
2056.000000	99.867686
2055.000000	99.866800
2054.000000	99.864533
2053.000000	99.862136
2052.000000	99.860628
2051.000000	99.860226
2050.000000	99.860510
2049.000000	99.860991
2048.000000	99.861413
2047.000000	99.861537
2046.000000	99.860953
2045.000000	99.859461
2044.000000	99.857499
2043.000000	99.855830
2042.000000	99.854697
2041.000000	99.853593
2040.000000	99.851966
2039.000000	99.849959
2038.000000	99.848298
2037.000000	99.847518
2036.000000	99.847442
2035.000000	99.847445
2034.000000	99.847147
2033.000000	99.846714
2032.000000	99.846439
2031.000000	99.846250
2030.000000	99.845846
2029.000000	99.845198
2028.000000	99.844625
2027.000000	99.844316
2026.000000	99.844035
2025.000000	99.843409
2024.000000	99.842375
2023.000000	99.841218
2022.000000	99.840284
2021.000000	99.839744
2020.000000	99.839542
2019.000000	99.839418
2018.000000	99.839019
2017.000000	99.838198
2016.000000	99.837148
2015.000000	99.836225
2014.000000	99.835558
2013.000000	99.834973
2012.000000	99.834243
2011.000000	99.833329
2010.000000	99.832378
2009.000000	99.831581
2008.000000	99.830977
2007.000000	99.830441
2006.000000	99.829828
2005.000000	99.829128
2004.000000	99.828434
2003.000000	99.827798
2002.000000	99.827163
2001.000000	99.826470
2000.000000	99.825782
1999.000000	99.825222
1998.000000	99.824798
1997.000000	99.824398
1996.000000	99.823968
1995.000000	99.823585
1994.000000	99.823316
1993.000000	99.823083
1992.000000	99.822739
1991.000000	99.822195
1990.000000	99.821420
1989.000000	99.820400
1988.000000	99.819210
1987.000000	99.818078
1986.000000	99.817220
1985.000000	99.816663
1984.000000	99.816295
1983.000000	99.816039
1982.000000	99.815887
1981.000000	99.815816
1980.000000	99.815799
1979.000000	99.815817
1978.000000	99.815753
1977.000000	99.815370
1976.000000	99.814520
1975.000000	99.813395
1974.000000	99.812494
1973.000000	99.812180
1972.000000	99.812403
1971.000000	99.812767
1970.000000	99.812845
1969.000000	99.812469
1968.000000	99.811767
1967.000000	99.811056
1966.000000	99.810635
1965.000000	99.810620
1964.000000	99.810935
1963.000000	99.811384
1962.000000	99.811715
1961.000000	99.811731
1960.000000	99.811426
1959.000000	99.810988
1958.000000	99.810622
1957.000000	99.810342
1956.000000	99.809967
1955.000000	99.809317
1954.000000	99.808430
1953.000000	99.807592
1952.000000	99.807126
1951.000000	99.807083
1950.000000	99.807157
1949.000000	99.807000
1948.000000	99.806602
1947.000000	99.806180
1946.000000	99.805722
1945.000000	99.804898
1944.000000	99.803471
1943.000000	99.801621
1942.000000	99.799714
1941.000000	99.797946
1940.000000	99.796434
1939.000000	99.795474
1938.000000	99.795363
1937.000000	99.795928
1936.000000	99.796429
1935.000000	99.796188
1934.000000	99.795278
1933.000000	99.794463
1932.000000	99.794461
1931.000000	99.795290
1930.000000	99.796301
1929.000000	99.796717
1928.000000	99.795971
1927.000000	99.793702
1926.000000	99.789941
1925.000000	99.785563
1924.000000	99.782244
1923.000000	99.781255
1922.000000	99.782131
1921.000000	99.783040
1920.000000	99.782497
1919.000000	99.780245
1918.000000	99.776868
1917.000000	99.773129
1916.000000	99.769638
1915.000000	99.766712
1914.000000	99.764279
1913.000000	99.761959
1912.000000	99.759493
1911.000000	99.757204
1910.000000	99.755782
1909.000000	99.755369
1908.000000	99.754909
1907.000000	99.752804
1906.000000	99.748331
1905.000000	99.742487
1904.000000	99.737395
1903.000000	99.734483
1902.000000	99.733223
1901.000000	99.731725
1900.000000	99.728544
1899.000000	99.723860
1898.000000	99.719049
1897.000000	99.715466
1896.000000	99.713539
1895.000000	99.712587
1894.000000	99.711277
1893.000000	99.708648
1892.000000	99.704977
1891.000000	99.701803
1890.000000	99.700834
1889.000000	99.702146
1888.000000	99.703716
1887.000000	99.703212
1886.000000	99.699771
1885.000000	99.694284
1884.000000	99.688690
1883.000000	99.684844
1882.000000	99.683756
1881.000000	99.685363
1880.000000	99.688506
1879.000000	99.691447
1878.000000	99.693021
1877.000000	99.693269
1876.000000	99.692745
1875.000000	99.691368
1874.000000	99.688489
1873.000000	99.684295
1872.000000	99.680564
1871.000000	99.679604
1870.000000	99.682470
1869.000000	99.687700
1868.000000	99.692111
1867.000000	99.693951
1866.000000	99.694216
1865.000000	99.694988
1864.000000	99.697537
1863.000000	99.701320
1862.000000	99.704373
1861.000000	99.705262
1860.000000	99.704731
1859.000000	99.704736
1858.000000	99.705985
1857.000000	99.707547
1856.000000	99.709069
1855.000000	99.712134
1854.000000	99.718377
1853.000000	99.726900
1852.000000	99.734714
1851.000000	99.739906
1850.000000	99.743378
1849.000000	99.747303
1848.000000	99.752676
1847.000000	99.758777
1846.000000	99.764382
1845.000000	99.768484
1844.000000	99.770157
1843.000000	99.769161
1842.000000	99.766666
1841.000000	99.764296
1840.000000	99.763011
1839.000000	99.762692
1838.000000	99.762243
1837.000000	99.760909
1836.000000	99.759696
1835.000000	99.760366
1834.000000	99.762815
1833.000000	99.764599
1832.000000	99.763631
1831.000000	99.760936
1830.000000	99.759802
1829.000000	99.761236
1828.000000	99.762844
1827.000000	99.762730
1826.000000	99.761706
1825.000000	99.761636
1824.000000	99.762769
1823.000000	99.763867
1822.000000	99.764396
1821.000000	99.765057
1820.000000	99.766573
1819.000000	99.768708
1818.000000	99.770404
1817.000000	99.770641
1816.000000	99.769324
1815.000000	99.767475
1814.000000	99.766482
1813.000000	99.766960
1812.000000	99.768297
1811.000000	99.769294
1810.000000	99.769342
1809.000000	99.768832
1808.000000	99.768423
1807.000000	99.768203
1806.000000	99.767777
1805.000000	99.766946
1804.000000	99.766140
1803.000000	99.766169
1802.000000	99.767496
1801.000000	99.769520
1800.000000	99.770795
1799.000000	99.770606
1798.000000	99.769887
1797.000000	99.770231
1796.000000	99.772302
1795.000000	99.775445
1794.000000	99.778549
1793.000000	99.780915
1792.000000	99.782309
1791.000000	99.782853
1790.000000	99.783208
1789.000000	99.784227
1788.000000	99.786246
1787.000000	99.788788
1786.000000	99.790926
1785.000000	99.792076
1784.000000	99.792452
1783.000000	99.792685
1782.000000	99.793449
1781.000000	99.795352
1780.000000	99.798331
1779.000000	99.801356
1778.000000	99.803344
1777.000000	99.804137
1776.000000	99.804295
1775.000000	99.804414
1774.000000	99.805100
1773.000000	99.807272
1772.000000	99.811104
1771.000000	99.815263
1770.000000	99.818773
1769.000000	99.821965
1768.000000	99.825206
1767.000000	99.827816
1766.000000	99.829040
1765.000000	99.829628
1764.000000	99.831458
1763.000000	99.835540
1762.000000	99.840333
1761.000000	99.843320
1760.000000	99.844656
1759.000000	99.846443
1758.000000	99.849341
1757.000000	99.851829
1756.000000	99.852399
1755.000000	99.851749
1754.000000	99.851513
1753.000000	99.851969
1752.000000	99.851901
1751.000000	99.850300
1750.000000	99.848322
1749.000000	99.848358
1748.000000	99.850868
1747.000000	99.853917
1746.000000	99.855990
1745.000000	99.857894
1744.000000	99.861364
1743.000000	99.866100
1742.000000	99.869256
1741.000000	99.868508
1740.000000	99.864926
1739.000000	99.862009
1738.000000	99.861403
1737.000000	99.861654
1736.000000	99.861195
1735.000000	99.860206
1734.000000	99.859211
1733.000000	99.857575
1732.000000	99.855642
1731.000000	99.853960
1730.000000	99.852346
1729.000000	99.850654
1728.000000	99.849187
1727.000000	99.848593
1726.000000	99.849306
1725.000000	99.850898
1724.000000	99.852037
1723.000000	99.851388
1722.000000	99.848777
1721.000000	99.845307
1720.000000	99.842461
1719.000000	99.841046
1718.000000	99.839997
1717.000000	99.837093
1716.000000	99.833214
1715.000000	99.830683
1714.000000	99.828944
1713.000000	99.826349
1712.000000	99.822731
1711.000000	99.818520
1710.000000	99.813322
1709.000000	99.806810
1708.000000	99.800343
1707.000000	99.796255
1706.000000	99.794959
1705.000000	99.793619
1704.000000	99.789814
1703.000000	99.784283
1702.000000	99.778926
1701.000000	99.775228
1700.000000	99.773200
1699.000000	99.771099
1698.000000	99.767247
1697.000000	99.760351
1696.000000	99.750944
1695.000000	99.742438
1694.000000	99.737417
1693.000000	99.734711
1692.000000	99.732026
1691.000000	99.728133
1690.000000	99.722655
1689.000000	99.715924
1688.000000	99.708925
1687.000000	99.702445
1686.000000	99.696190
1685.000000	99.689354
1684.000000	99.682422
1683.000000	99.676924
1682.000000	99.672885
1681.000000	99.668671
1680.000000	99.663533
1679.000000	99.658356
1678.000000	99.654068
1677.000000	99.650306
1676.000000	99.645963
1675.000000	99.640749
1674.000000	99.635621
1673.000000	99.630982
1672.000000	99.625823
1671.000000	99.619214
1670.000000	99.611659
1669.000000	99.604531
1668.000000	99.598514
1667.000000	99.593476
1666.000000	99.589118
1665.000000	99.585008
1664.000000	99.580591
1663.000000	99.575612
1662.000000	99.570622
1661.000000	99.566629
1660.000000	99.563844
1659.000000	99.561597
1658.000000	99.559426
1657.000000	99.557674
1656.000000	99.556691
1655.000000	99.555601
1654.000000	99.550793
1653.000000	99.538558
1652.000000	99.525526
1651.000000	99.520211
1650.000000	99.519285
1649.000000	99.516516
1648.000000	99.510109
1647.000000	99.503624
1646.000000	99.501182
1645.000000	99.502247
1644.000000	99.504140
1643.000000	99.505213
1642.000000	99.504617
1641.000000	99.501814
1640.000000	99.497436
1639.000000	99.493658
1638.000000	99.492297
1637.000000	99.492314
1636.000000	99.489692
1635.000000	99.483088
1634.000000	99.478238
1633.000000	99.479095
1632.000000	99.483699
1631.000000	99.488696
1630.000000	99.492089
1629.000000	99.493735
1628.000000	99.494779
1627.000000	99.496276
1626.000000	99.497969
1625.000000	99.498273
1624.000000	99.495991
1623.000000	99.492969
1622.000000	99.493636
1621.000000	99.500256
1620.000000	99.510541
1619.000000	99.520100
1618.000000	99.525264
1617.000000	99.525898
1616.000000	99.526413
1615.000000	99.530819
1614.000000	99.538185
1613.000000	99.545475
1612.000000	99.551298
1611.000000	99.556099
1610.000000	99.560618
1609.000000	99.564997
1608.000000	99.569390
1607.000000	99.574563
1606.000000	99.581327
1605.000000	99.589405
1604.000000	99.597441
1603.000000	99.604367
1602.000000	99.610428
1601.000000	99.616470
1600.000000	99.622482
1599.000000	99.627428
1598.000000	99.630425
1597.000000	99.631617
1596.000000	99.632107
1595.000000	99.633549
1594.000000	99.637586
1593.000000	99.644908
1592.000000	99.654436
1591.000000	99.663612
1590.000000	99.670124
1589.000000	99.673798
1588.000000	99.676462
1587.000000	99.679837
1586.000000	99.683747
1585.000000	99.686663
1584.000000	99.687736
1583.000000	99.688099
1582.000000	99.690214
1581.000000	99.695574
1580.000000	99.703117
1579.000000	99.710286
1578.000000	99.715432
1577.000000	99.719029
1576.000000	99.722264
1575.000000	99.725182
1574.000000	99.727741
1573.000000	99.730294
1572.000000	99.733348
1571.000000	99.737349
1570.000000	99.741609
1569.000000	99.744552
1568.000000	99.746344
1567.000000	99.748700
1566.000000	99.752122
1565.000000	99.755435
1564.000000	99.757167
1563.000000	99.757282
1562.000000	99.756828
1561.000000	99.757024
1560.000000	99.758397
1559.000000	99.760908
1558.000000	99.761146
1557.000000	99.761125
1556.000000	99.762957
1555.000000	99.764867
1554.000000	99.765517
1553.000000	99.764957
1552.000000	99.764280
1551.000000	99.764357
1550.000000	99.765219
1549.000000	99.765928
1548.000000	99.765920
1547.000000	99.766001
1546.000000	99.767620
1545.000000	99.771298
1544.000000	99.775297
1543.000000	99.776976
1542.000000	99.775566
1541.000000	99.772667
1540.000000	99.769736
1539.000000	99.765958
1538.000000	99.761908
1537.000000	99.758992
1536.000000	99.757481
1535.000000	99.757733
1534.000000	99.759991
1533.000000	99.762562
1532.000000	99.763187
1531.000000	99.762056
1530.000000	99.760708
1529.000000	99.760173
1528.000000	99.760541
1527.000000	99.761056
1526.000000	99.760828
1525.000000	99.759721
1524.000000	99.758445
1523.000000	99.757997
1522.000000	99.759122
1521.000000	99.761205
1520.000000	99.762760
1519.000000	99.763383
1518.000000	99.763433
1517.000000	99.763158
1516.000000	99.762524
1515.000000	99.761604
1514.000000	99.760809
1513.000000	99.760441
1512.000000	99.760453
1511.000000	99.760540
1510.000000	99.760407
1509.000000	99.760202
1508.000000	99.760734
1507.000000	99.762622
1506.000000	99.763972
1505.000000	99.764053
1504.000000	99.764168
1503.000000	99.764399
1502.000000	99.764106
1501.000000	99.762947
1500.000000	99.761177
1499.000000	99.759797
1498.000000	99.760128
1497.000000	99.762654
1496.000000	99.766073
1495.000000	99.768563
1494.000000	99.769558
1493.000000	99.769343
1492.000000	99.768369
1491.000000	99.767176
1490.000000	99.766122
1489.000000	99.765101
1488.000000	99.764189
1487.000000	99.763764
1486.000000	99.763607
1485.000000	99.762888
1484.000000	99.761008
1483.000000	99.758214
1482.000000	99.755606
1481.000000	99.754234
1480.000000	99.754073
1479.000000	99.754171
1478.000000	99.753584
1477.000000	99.751929
1476.000000	99.749461
1475.000000	99.746748
1474.000000	99.744256
1473.000000	99.742145
1472.000000	99.740131
1471.000000	99.738102
1470.000000	99.736470
1469.000000	99.735601
1468.000000	99.735543
1467.000000	99.736001
1466.000000	99.736340
1465.000000	99.735821
1464.000000	99.734031
1463.000000	99.731233
1462.000000	99.727891
1461.000000	99.724186
1460.000000	99.720475
1459.000000	99.717818
1458.000000	99.717821
1457.000000	99.719896
1456.000000	99.720686
1455.000000	99.719144
1454.000000	99.715675
1453.000000	99.709695
1452.000000	99.701600
1451.000000	99.693997
1450.000000	99.689973
1449.000000	99.689970
1448.000000	99.691022
1447.000000	99.690070
1446.000000	99.687915
1445.000000	99.687351
1444.000000	99.688442
1443.000000	99.688105
1442.000000	99.684272
1441.000000	99.679030
1440.000000	99.676021
1439.000000	99.676111
1438.000000	99.676753
1437.000000	99.674923
1436.000000	99.670897
1435.000000	99.667927
1434.000000	99.667444
1433.000000	99.667720
1432.000000	99.666000
1431.000000	99.660544
1430.000000	99.652960
1429.000000	99.647760
1428.000000	99.647780
1427.000000	99.651247
1426.000000	99.654649
1425.000000	99.657366
1424.000000	99.661562
1423.000000	99.667830
1422.000000	99.673780
1421.000000	99.677304
1420.000000	99.678855
1419.000000	99.680449
1418.000000	99.682704
1417.000000	99.684723
1416.000000	99.686326
1415.000000	99.688326
1414.000000	99.691681
1413.000000	99.696978
1412.000000	99.704015
1411.000000	99.711577
1410.000000	99.718217
1409.000000	99.723538
1408.000000	99.728227
1407.000000	99.732786
1406.000000	99.736886
1405.000000	99.739970
1404.000000	99.741677
1403.000000	99.741926
1402.000000	99.741507
1401.000000	99.742901
1400.000000	99.749744
1399.000000	99.763004
1398.000000	99.778109
1397.000000	99.789215
1396.000000	99.794442
1395.000000	99.795768
1394.000000	99.796599
1393.000000	99.799226
1392.000000	99.803930
1391.000000	99.810091
1390.000000	99.817323
1389.000000	99.825602
1388.000000	99.834483
1387.000000	99.842563
1386.000000	99.848827
1385.000000	99.853970
1384.000000	99.858832
1383.000000	99.862488
1382.000000	99.863068
1381.000000	99.860159
1380.000000	99.855627
1379.000000	99.851892
1378.000000	99.850062
1377.000000	99.849906
1376.000000	99.850791
1375.000000	99.852130
1374.000000	99.853635
1373.000000	99.855792
1372.000000	99.859340
1371.000000	99.863507
1370.000000	99.865748
1369.000000	99.864190
1368.000000	99.860026
1367.000000	99.856512
1366.000000	99.855410
1365.000000	99.855674
1364.000000	99.855391
1363.000000	99.853835
1362.000000	99.851528
1361.000000	99.849156
1360.000000	99.847101
1359.000000	99.845683
1358.000000	99.845347
1357.000000	99.846493
1356.000000	99.849071
1355.000000	99.852342
1354.000000	99.855312
1353.000000	99.857645
1352.000000	99.860020
1351.000000	99.863066
1350.000000	99.866221
1349.000000	99.868150
1348.000000	99.868116
1347.000000	99.866540
1346.000000	99.864485
1345.000000	99.863083
1344.000000	99.863144
1343.000000	99.864492
1342.000000	99.865621
1341.000000	99.864761
1340.000000	99.861917
1339.000000	99.859480
1338.000000	99.859930
1337.000000	99.863177
1336.000000	99.866760
1335.000000	99.868195
1334.000000	99.866911
1333.000000	99.864426
1332.000000	99.862815
1331.000000	99.862863
1330.000000	99.863742
1329.000000	99.864473
1328.000000	99.865161
1327.000000	99.866348
1326.000000	99.867805
1325.000000	99.868753
1324.000000	99.868878
1323.000000	99.868308
1322.000000	99.866781
1321.000000	99.863838
1320.000000	99.860094
1319.000000	99.857431
1318.000000	99.857296
1317.000000	99.859467
1316.000000	99.862936
1315.000000	99.866946
1314.000000	99.870566
1313.000000	99.872326
1312.000000	99.871386
1311.000000	99.868646
1310.000000	99.865780
1309.000000	99.863432
1308.000000	99.861174
1307.000000	99.858961
1306.000000	99.857779
1305.000000	99.858668
1304.000000	99.861481
1303.000000	99.864670
1302.000000	99.866156
1301.000000	99.864845
1300.000000	99.861866
1299.000000	99.860163
1298.000000	99.862037
1297.000000	99.866680
1296.000000	99.870570
1295.000000	99.870682
1294.000000	99.867260
1293.000000	99.863398
1292.000000	99.861963
1291.000000	99.862922
1290.000000	99.863684
1289.000000	99.861907
1288.000000	99.857755
1287.000000	99.853262
1286.000000	99.849903
1285.000000	99.847592
1284.000000	99.846027
1283.000000	99.845738
1282.000000	99.846882
1281.000000	99.847784
1280.000000	99.846178
1279.000000	99.842168
1278.000000	99.838908
1277.000000	99.839487
1276.000000	99.843510
1275.000000	99.847481
1274.000000	99.848605
1273.000000	99.847496
1272.000000	99.846552
1271.000000	99.846192
1270.000000	99.843970
1269.000000	99.837943
1268.000000	99.829886
1267.000000	99.824285
1266.000000	99.824466
1265.000000	99.830174
1264.000000	99.838157
1263.000000	99.844080
1262.000000	99.844799
1261.000000	99.840652
1260.000000	99.835527
1259.000000	99.832991
1258.000000	99.832212
1257.000000	99.829413
1256.000000	99.823418
1255.000000	99.817569
1254.000000	99.815020
1253.000000	99.813973
1252.000000	99.809570
1251.000000	99.799599
1250.000000	99.786370
1249.000000	99.773386
1248.000000	99.762351
1247.000000	99.753929
1246.000000	99.749098
1245.000000	99.747564
1244.000000	99.745424
1243.000000	99.736942
1242.000000	99.720298
1241.000000	99.700644
1240.000000	99.685567
1239.000000	99.677184
1238.000000	99.670190
1237.000000	99.658392
1236.000000	99.641443
1235.000000	99.623727
1234.000000	99.607917
1233.000000	99.591671
1232.000000	99.570542
1231.000000	99.542600
1230.000000	99.510322
1229.000000	99.479067
1228.000000	99.453085
1227.000000	99.431359
1226.000000	99.407600
1225.000000	99.375910
1224.000000	99.336102
1223.000000	99.292163
1222.000000	99.246401
1221.000000	99.197321
1220.000000	99.142876
1219.000000	99.082988
1218.000000	99.018557
1217.000000	98.950362
1216.000000	98.879439
1215.000000	98.806342
1214.000000	98.729783
1213.000000	98.648607
1212.000000	98.565462
1211.000000	98.485559
1210.000000	98.410962
1209.000000	98.338881
1208.000000	98.266172
1207.000000	98.192323
1206.000000	98.117502
1205.000000	98.041166
1204.000000	97.963438
1203.000000	97.884935
1202.000000	97.805091
1201.000000	97.723785
1200.000000	97.644119
1199.000000	97.569450
1198.000000	97.497904
1197.000000	97.424541
1196.000000	97.348770
1195.000000	97.274296
1194.000000	97.201576
1193.000000	97.126283
1192.000000	97.046447
1191.000000	96.965304
1190.000000	96.885250
1189.000000	96.804475
1188.000000	96.721770
1187.000000	96.639292
1186.000000	96.557809
1185.000000	96.474069
1184.000000	96.385625
1183.000000	96.293854
1182.000000	96.199921
1181.000000	96.102414
1180.000000	96.001507
1179.000000	95.900777
1178.000000	95.801979
1177.000000	95.702129
1176.000000	95.598117
1175.000000	95.490136
1174.000000	95.378908
1173.000000	95.264366
1172.000000	95.148791
1171.000000	95.035834
1170.000000	94.924327
1169.000000	94.808956
1168.000000	94.689913
1167.000000	94.576592
1166.000000	94.479499
1165.000000	94.404487
1164.000000	94.356898
1163.000000	94.343635
1162.000000	94.366204
1161.000000	94.415674
1160.000000	94.476360
1159.000000	94.530430
1158.000000	94.560110
1157.000000	94.553806
1156.000000	94.513057
1155.000000	94.449006
1154.000000	94.370687
1153.000000	94.281383
1152.000000	94.186007
1151.000000	94.093287
1150.000000	94.007454
1149.000000	93.924804
1148.000000	93.841118
1147.000000	93.755316
1146.000000	93.664072
1145.000000	93.562136
1144.000000	93.452059
1143.000000	93.345306
1142.000000	93.248773
1141.000000	93.157355
1140.000000	93.064204
1139.000000	92.970352
1138.000000	92.879015
1137.000000	92.787628
1136.000000	92.691343
1135.000000	92.588985
1134.000000	92.481321
1133.000000	92.369048
1132.000000	92.255856
1131.000000	92.147038
1130.000000	92.041660
1129.000000	91.932579
1128.000000	91.817019
1127.000000	91.700039
1126.000000	91.585182
1125.000000	91.469761
1124.000000	91.352042
1123.000000	91.234161
1122.000000	91.114866
1121.000000	90.989119
1120.000000	90.858965
1119.000000	90.734890
1118.000000	90.621489
1117.000000	90.511576
1116.000000	90.398940
1115.000000	90.286832
1114.000000	90.178945
1113.000000	90.072630
1112.000000	89.966872
1111.000000	89.866559
1110.000000	89.772950
1109.000000	89.679572
1108.000000	89.582439
1107.000000	89.484657
1106.000000	89.386861
1105.000000	89.284248
1104.000000	89.177996
1103.000000	89.078280
1102.000000	88.990200
1101.000000	88.906987
1100.000000	88.822061
1099.000000	88.737037
1098.000000	88.653141
1097.000000	88.565991
1096.000000	88.473913
1095.000000	88.380809
1094.000000	88.286697
1093.000000	88.187065
1092.000000	88.085799
1091.000000	87.996009
1090.000000	87.922333
1089.000000	87.854059
1088.000000	87.780745
1087.000000	87.702693
1086.000000	87.621642
1085.000000	87.534491
1084.000000	87.442682
1083.000000	87.356003
1082.000000	87.280625
1081.000000	87.213296
1080.000000	87.151233
1079.000000	87.095677
1078.000000	87.041370
1077.000000	86.975133
1076.000000	86.890079
1075.000000	86.790507
1074.000000	86.679805
1073.000000	86.555361
1072.000000	86.418065
1071.000000	86.273187
1070.000000	86.118033
1069.000000	85.942061
1068.000000	85.743276
1067.000000	85.531650
1066.000000	85.312786
1065.000000	85.082507
1064.000000	84.842593
1063.000000	84.607422
1062.000000	84.388877
1061.000000	84.187200
1060.000000	84.000843
1059.000000	83.830896
1058.000000	83.671278
1057.000000	83.508813
1056.000000	83.337161
1055.000000	83.157710
1054.000000	82.965507
1053.000000	82.750232
1052.000000	82.513603
1051.000000	82.268257
1050.000000	82.016178
1049.000000	81.748701
1048.000000	81.470359
1047.000000	81.198204
1046.000000	80.934034
1045.000000	80.661613
1044.000000	80.374953
1043.000000	80.086855
1042.000000	79.805438
1041.000000	79.524409
1040.000000	79.242545
1039.000000	78.971259
1038.000000	78.715716
1037.000000	78.469031
1036.000000	78.231335
1035.000000	78.013488
1034.000000	77.815969
1033.000000	77.626091
1032.000000	77.442701
1031.000000	77.281733
1030.000000	77.150257
1029.000000	77.036065
1028.000000	76.928554
1027.000000	76.828984
1026.000000	76.735331
1025.000000	76.639646
1024.000000	76.545874
1023.000000	76.467767
1022.000000	76.403613
1021.000000	76.334870
1020.000000	76.254235
1019.000000	76.172437
1018.000000	76.093619
1017.000000	76.008544
1016.000000	75.916635
1015.000000	75.829620
1014.000000	75.747647
1013.000000	75.656733
1012.000000	75.556138
1011.000000	75.463821
1010.000000	75.388276
1009.000000	75.319085
1008.000000	75.251346
1007.000000	75.194631
1006.000000	75.150934
1005.000000	75.108683
1004.000000	75.066526
1003.000000	75.039268
1002.000000	75.032089
1001.000000	75.031536
1000.000000	75.029171
999.000000	75.031674
998.000000	75.040777
997.000000	75.046465
996.000000	75.047718
995.000000	75.058023
994.000000	75.083157
993.000000	75.114637
992.000000	75.150604
991.000000	75.200710
990.000000	75.264280
989.000000	75.326507
988.000000	75.383176
987.000000	75.447658
986.000000	75.527760
985.000000	75.618035
984.000000	75.719850
983.000000	75.845069
982.000000	75.992912
981.000000	76.146605
980.000000	76.301199
979.000000	76.472731
978.000000	76.671810
977.000000	76.889517
976.000000	77.116913
975.000000	77.357418
974.000000	77.611297
973.000000	77.868154
972.000000	78.124248
971.000000	78.389842
970.000000	78.671007
969.000000	78.959671
968.000000	79.247653
967.000000	79.534834
966.000000	79.818599
965.000000	80.091516
964.000000	80.354678
963.000000	80.618129
962.000000	80.883625
961.000000	81.141807
960.000000	81.389727
959.000000	81.635441
958.000000	81.881569
957.000000	82.119645
956.000000	82.344522
955.000000	82.559363
954.000000	82.763652
953.000000	82.952046
952.000000	83.128285
951.000000	83.303815
950.000000	83.477882
949.000000	83.635017
948.000000	83.767912
947.000000	83.887998
946.000000	84.007457
945.000000	84.124031
944.000000	84.230072
943.000000	84.324524
942.000000	84.410221
941.000000	84.489844
940.000000	84.568837
939.000000	84.652568
938.000000	84.738255
937.000000	84.820017
936.000000	84.901869
935.000000	84.993017
934.000000	85.090377
933.000000	85.180556
932.000000	85.260333
931.000000	85.340175
930.000000	85.425976
929.000000	85.512956
928.000000	85.600053
927.000000	85.693965
926.000000	85.794634
925.000000	85.891602
924.000000	85.979159
923.000000	86.061505
922.000000	86.139816
921.000000	86.208383
920.000000	86.266875
919.000000	86.322110
918.000000	86.374501
917.000000	86.417693
916.000000	86.455491
915.000000	86.503857
914.000000	86.571228
913.000000	86.651490
912.000000	86.741352
911.000000	86.849777
910.000000	86.984132
909.000000	87.140934
908.000000	87.316214
907.000000	87.512023
906.000000	87.727360
905.000000	87.955209
904.000000	88.193500
903.000000	88.447652
902.000000	88.719025
901.000000	89.002011
900.000000	89.293427
899.000000	89.591639
898.000000	89.885623
897.000000	90.160001
896.000000	90.413812
895.000000	90.660326
894.000000	90.905068
893.000000	91.138125
892.000000	91.352764
891.000000	91.557730
890.000000	91.764186
889.000000	91.971604
888.000000	92.173302
887.000000	92.366251
886.000000	92.549230
885.000000	92.720196
884.000000	92.881690
883.000000	93.041197
882.000000	93.200566
881.000000	93.352381
880.000000	93.492172
879.000000	93.627235
878.000000	93.767996
877.000000	93.916733
876.000000	94.069949
875.000000	94.226315
874.000000	94.387416
873.000000	94.554256
872.000000	94.725362
871.000000	94.895462
870.000000	95.057087
869.000000	95.208285
868.000000	95.357222
867.000000	95.513741
866.000000	95.678121
865.000000	95.843505
864.000000	96.005873
863.000000	96.163965
862.000000	96.312714
861.000000	96.446617
860.000000	96.568947
859.000000	96.688729
858.000000	96.808233
857.000000	96.921446
856.000000	97.025044
855.000000	97.122643
854.000000	97.217424
853.000000	97.307947
852.000000	97.391807
851.000000	97.466628
850.000000	97.528296
849.000000	97.575809
848.000000	97.616883
847.000000	97.659975
846.000000	97.700891
845.000000	97.726774
844.000000	97.733494
843.000000	97.728366
842.000000	97.714234
841.000000	97.682682
840.000000	97.627502
839.000000	97.554479
838.000000	97.472135
837.000000	97.381731
836.000000	97.283208
835.000000	97.183519
834.000000	97.091714
833.000000	97.011311
832.000000	96.943649
831.000000	96.893452
830.000000	96.865177
829.000000	96.858348
828.000000	96.870802
827.000000	96.900955
826.000000	96.943135
825.000000	96.987724
824.000000	97.030149
823.000000	97.072721
822.000000	97.114810
821.000000	97.149863
820.000000	97.174314
819.000000	97.190058
818.000000	97.195671
817.000000	97.183007
816.000000	97.143942
815.000000	97.072644
814.000000	96.960188
813.000000	96.797135
812.000000	96.585299
811.000000	96.336429
810.000000	96.051603
809.000000	95.710709
808.000000	95.292291
807.000000	94.798807
806.000000	94.254900
805.000000	93.687710
804.000000	93.119566
803.000000	92.574274
802.000000	92.077139
801.000000	91.649331
800.000000	91.308838
799.000000	91.071801
798.000000	90.945452
797.000000	90.923024
796.000000	90.987553
795.000000	91.114412
794.000000	91.272277
793.000000	91.434306
792.000000	91.590552
791.000000	91.739699
790.000000	91.869005
789.000000	91.954159
788.000000	91.979944
787.000000	91.949371
786.000000	91.870484
785.000000	91.746094
784.000000	91.580839
783.000000	91.387766
782.000000	91.183241
781.000000	90.985589
780.000000	90.822840
779.000000	90.728608
778.000000	90.720987
777.000000	90.792829
776.000000	90.926479
775.000000	91.107890
774.000000	91.322974
773.000000	91.552733
772.000000	91.779483
771.000000	91.990921
770.000000	92.175197
769.000000	92.321296
768.000000	92.428848
767.000000	92.509992
766.000000	92.576474
765.000000	92.630150
764.000000	92.669351
763.000000	92.698351
762.000000	92.726568
761.000000	92.762906
760.000000	92.812635
759.000000	92.874343
758.000000	92.938820
757.000000	92.997429
756.000000	93.052921
755.000000	93.116127
754.000000	93.191931
753.000000	93.275223
752.000000	93.360441
751.000000	93.447146
750.000000	93.535565
749.000000	93.624200
748.000000	93.713297
747.000000	93.804800
746.000000	93.899066
745.000000	93.998010
744.000000	94.110224
743.000000	94.244985
742.000000	94.401738
741.000000	94.572651
740.000000	94.753300
739.000000	94.941650
738.000000	95.128216
737.000000	95.297852
736.000000	95.442462
735.000000	95.564749
734.000000	95.670550
733.000000	95.764452
732.000000	95.850567
731.000000	95.929166
730.000000	95.994005
729.000000	96.040659
728.000000	96.075122
727.000000	96.106685
726.000000	96.136465
725.000000	96.162756
724.000000	96.193504
723.000000	96.241162
722.000000	96.307211
721.000000	96.383900
720.000000	96.469624
719.000000	96.568794
718.000000	96.676185
717.000000	96.775400
716.000000	96.854984
715.000000	96.915470
714.000000	96.961218
713.000000	96.997259
712.000000	97.033632
711.000000	97.077971
710.000000	97.120657
709.000000	97.140922
708.000000	97.131880
707.000000	97.107012
706.000000	97.077433
705.000000	97.036015
704.000000	96.970369
703.000000	96.877401
702.000000	96.754391
701.000000	96.586266
700.000000	96.354823
699.000000	96.059433
698.000000	95.726647
697.000000	95.406005
696.000000	95.156931
695.000000	95.025440
694.000000	95.021217
693.000000	95.116858
692.000000	95.269947
691.000000	95.444343
690.000000	95.616507
689.000000	95.775124
688.000000	95.919899
687.000000	96.053847
686.000000	96.174408
685.000000	96.278025
684.000000	96.370119
683.000000	96.459892
682.000000	96.547316
681.000000	96.626094
680.000000	96.697924
679.000000	96.771429
678.000000	96.847186
677.000000	96.917405
676.000000	96.980843
675.000000	97.044256
674.000000	97.108693
673.000000	97.168226
672.000000	97.224259
671.000000	97.286718
670.000000	97.358806
669.000000	97.432513
668.000000	97.502613
667.000000	97.570839
666.000000	97.635224
665.000000	97.692040
664.000000	97.742982
663.000000	97.792105
662.000000	97.835856
661.000000	97.866147
660.000000	97.887135
659.000000	97.914444
658.000000	97.948702
657.000000	97.965849
656.000000	97.945892
655.000000	97.898594
654.000000	97.850618
653.000000	97.818067
652.000000	97.803279
651.000000	97.804235
650.000000	97.811937
