4000.000000	101.608597
3999.000000	101.607917
3998.000000	101.608768
3997.000000	101.610897
3996.000000	101.613130
3995.000000	101.613920
3994.000000	101.612374
3993.000000	101.608823
3992.000000	101.604852
3991.000000	101.602062
3990.000000	101.600990
3989.000000	101.601172
3988.000000	101.601734
3987.000000	101.601985
3986.000000	101.601712
3985.000000	101.601187
3984.000000	101.600836
3983.000000	101.600713
3982.000000	101.600285
3981.000000	101.598885
3980.000000	101.596388
3979.000000	101.593305
3978.000000	101.590233
3977.000000	101.587408
3976.000000	101.584890
3975.000000	101.582926
3974.000000	101.581911
3973.000000	101.582039
3972.000000	101.583199
3971.000000	101.585049
3970.000000	101.586979
3969.000000	101.588054
3968.000000	101.587360
3967.000000	101.584669
3966.000000	101.580864
3965.000000	101.577502
3964.000000	101.575513
3963.000000	101.574352
3962.000000	101.572482
3961.000000	101.568899
3960.000000	101.564159
3959.000000	101.559809
3958.000000	101.556930
3957.000000	101.555533
3956.000000	101.555172
3955.000000	101.555566
3954.000000	101.556421
3953.000000	101.557083
3952.000000	101.556721
3951.000000	101.555043
3950.000000	101.552620
3949.000000	101.550266
3948.000000	101.548139
3947.000000	101.545789
3946.000000	101.543157
3945.000000	101.541020
3944.000000	101.540187
3943.000000	101.540505
3942.000000	101.540994
3941.000000	101.540950
3940.000000	101.540550
3939.000000	101.540034
3938.000000	101.539023
3937.000000	101.537026
3936.000000	101.534290
3935.000000	101.531717
3934.000000	101.529845
3933.000000	101.528342
3932.000000	101.526587
3931.000000	101.524479
3930.000000	101.522450
3929.000000	101.520866
3928.000000	101.519848
3927.000000	101.519399
3926.000000	101.519328
3925.000000	101.519026
3924.000000	101.517847
3923.000000	101.515777
3922.000000	101.513426
3921.000000	101.511391
3920.000000	101.509771
3919.000000	101.508345
3918.000000	101.506932
3917.000000	101.505569
3916.000000	101.504457
3915.000000	101.503727
3914.000000	101.503210
3913.000000	101.502481
3912.000000	101.501398
3911.000000	101.500232
3910.000000	101.499313
3909.000000	101.498651
3908.000000	101.498000
3907.000000	101.497135
3906.000000	101.496044
3905.000000	101.494851
3904.000000	101.493673
3903.000000	101.492540
3902.000000	101.491425
3901.000000	101.490294
3900.000000	101.489133
3899.000000	101.487951
3898.000000	101.486761
3897.000000	101.485564
3896.000000	101.484367
3895.000000	101.483173
3894.000000	101.481981
3893.000000	101.480793
3892.000000	101.479608
3891.000000	101.478428
3890.000000	101.477251
3889.000000	101.476075
3888.000000	101.474900
3887.000000	101.473725
3886.000000	101.472545
3885.000000	101.471364
3884.000000	101.470193
3883.000000	101.469048
3882.000000	101.467939
3881.000000	101.466863
3880.000000	101.465811
3879.000000	101.464764
3878.000000	101.463711
3877.000000	101.462668
3876.000000	101.461660
3875.000000	101.460670
3874.000000	101.459626
3873.000000	101.458504
3872.000000	101.457486
3871.000000	101.456855
3870.000000	101.456512
3869.000000	101.455792
3868.000000	101.454311
3867.000000	101.452538
3866.000000	101.450991
3865.000000	101.449469
3864.000000	101.447754
3863.000000	101.446202
3862.000000	101.445179
3861.000000	101.444333
3860.000000	101.443154
3859.000000	101.441740
3858.000000	101.440467
3857.000000	101.439193
3856.000000	101.437288
3855.000000	101.434621
3854.000000	101.432169
3853.000000	101.430444
3852.000000	101.429205
3851.000000	101.429300
3850.000000	101.430775
3849.000000	101.431838
3848.000000	101.431324
3847.000000	101.429820
3846.000000	101.428673
3845.000000	101.428508
3844.000000	101.428903
3843.000000	101.428945
3842.000000	101.428246
3841.000000	101.427142
3840.000000	101.425982
3839.000000	101.424512
3838.000000	101.422389
3837.000000	101.419816
3836.000000	101.417372
3835.000000	101.415454
3834.000000	101.413966
3833.000000	101.412571
3832.000000	101.411022
3831.000000	101.409341
3830.000000	101.407782
3829.000000	101.406490
3828.000000	101.405262
3827.000000	101.403676
3826.000000	101.401529
3825.000000	101.399084
3824.000000	101.396833
3823.000000	101.395031
3822.000000	101.393580
3821.000000	101.392201
3820.000000	101.390743
3819.000000	101.389383
3818.000000	101.388179
3817.000000	101.386974
3816.000000	101.385648
3815.000000	101.384246
3814.000000	101.382847
3813.000000	101.381490
3812.000000	101.380162
3811.000000	101.378840
3810.000000	101.377509
3809.000000	101.376165
3808.000000	101.374806
3807.000000	101.373437
3806.000000	101.372067
3805.000000	101.370713
3804.000000	101.369391
3803.000000	101.368103
3802.000000	101.366839
3801.000000	101.365586
3800.000000	101.364344
3799.000000	101.363127
3798.000000	101.361941
3797.000000	101.360780
3796.000000	101.359635
3795.000000	101.358505
3794.000000	101.357388
3793.000000	101.356287
3792.000000	101.355210
3791.000000	101.354151
3790.000000	101.353096
3789.000000	101.352040
3788.000000	101.350990
3787.000000	101.349962
3786.000000	101.348963
3785.000000	101.347951
3784.000000	101.346833
3783.000000	101.345629
3782.000000	101.344471
3781.000000	101.343365
3780.000000	101.342110
3779.000000	101.340548
3778.000000	101.338775
3777.000000	101.337060
3776.000000	101.335541
3775.000000	101.334122
3774.000000	101.332638
3773.000000	101.331046
3772.000000	101.329428
3771.000000	101.327834
3770.000000	101.326187
3769.000000	101.324430
3768.000000	101.322614
3767.000000	101.320804
3766.000000	101.318999
3765.000000	101.317179
3764.000000	101.315353
3763.000000	101.313545
3762.000000	101.311754
3761.000000	101.309958
3760.000000	101.308138
3759.000000	101.306296
3758.000000	101.304445
3757.000000	101.302585
3756.000000	101.300709
3755.000000	101.298814
3754.000000	101.296898
3753.000000	101.294955
3752.000000	101.292977
3751.000000	101.290969
3750.000000	101.288941
3749.000000	101.286906
3748.000000	101.284871
3747.000000	101.282838
3746.000000	101.280799
3745.000000	101.278736
3744.000000	101.276640
3743.000000	101.274529
3742.000000	101.272436
3741.000000	101.270377
3740.000000	101.268330
3739.000000	101.266269
3738.000000	101.264177
3737.000000	101.262048
3736.000000	101.259891
3735.000000	101.257736
3734.000000	101.255647
3733.000000	101.253674
3732.000000	101.251688
3731.000000	101.249411
3730.000000	101.246701
3729.000000	101.243815
3728.000000	101.241093
3727.000000	101.238531
3726.000000	101.235882
3725.000000	101.233249
3724.000000	101.231112
3723.000000	101.229481
3722.000000	101.227613
3721.000000	101.224833
3720.000000	101.221333
3719.000000	101.217812
3718.000000	101.214491
3717.000000	101.210875
3716.000000	101.206674
3715.000000	101.202413
3714.000000	101.198621
3713.000000	101.194968
3712.000000	101.190748
3711.000000	101.185765
3710.000000	101.180665
3709.000000	101.176374
3708.000000	101.173135
3707.000000	101.170053
3706.000000	101.165874
3705.000000	101.160218
3704.000000	101.153983
3703.000000	101.148699
3702.000000	101.144865
3701.000000	101.140882
3700.000000	101.134923
3699.000000	101.127642
3698.000000	101.121113
3697.000000	101.115897
3696.000000	101.110832
3695.000000	101.105432
3694.000000	101.100600
3693.000000	101.096897
3692.000000	101.094047
3691.000000	101.091635
3690.000000	101.088734
3689.000000	101.082350
3688.000000	101.069597
3687.000000	101.052429
3686.000000	101.036753
3685.000000	101.026088
3684.000000	101.019061
3683.000000	101.012656
3682.000000	101.005530
3681.000000	100.998093
3680.000000	100.990053
3679.000000	100.980803
3678.000000	100.971677
3677.000000	100.964901
3676.000000	100.959224
3675.000000	100.949083
3674.000000	100.933234
3673.000000	100.918787
3672.000000	100.910870
3671.000000	100.906109
3670.000000	100.897522
3669.000000	100.881859
3668.000000	100.862779
3667.000000	100.846127
3666.000000	100.833596
3665.000000	100.823327
3664.000000	100.813241
3663.000000	100.802448
3662.000000	100.790721
3661.000000	100.777794
3660.000000	100.763600
3659.000000	100.749573
3658.000000	100.737987
3657.000000	100.729378
3656.000000	100.720185
3655.000000	100.706791
3654.000000	100.691457
3653.000000	100.678524
3652.000000	100.667311
3651.000000	100.654049
3650.000000	100.639364
3649.000000	100.628629
3648.000000	100.622793
3647.000000	100.615621
3646.000000	100.602650
3645.000000	100.586078
3644.000000	100.570899
3643.000000	100.558979
3642.000000	100.548353
3641.000000	100.536965
3640.000000	100.525518
3639.000000	100.515494
3638.000000	100.505864
3637.000000	100.494955
3636.000000	100.483406
3635.000000	100.472352
3634.000000	100.459852
3633.000000	100.443426
3632.000000	100.425903
3631.000000	100.414097
3630.000000	100.411880
3629.000000	100.413702
3628.000000	100.408228
3627.000000	100.396067
3626.000000	100.388674
3625.000000	100.389061
3624.000000	100.391106
3623.000000	100.390573
3622.000000	100.389963
3621.000000	100.394700
3620.000000	100.406275
3619.000000	100.419014
3618.000000	100.424548
3617.000000	100.421358
3616.000000	100.416047
3615.000000	100.415745
3614.000000	100.421339
3613.000000	100.427225
3612.000000	100.427822
3611.000000	100.424039
3610.000000	100.421794
3609.000000	100.425401
3608.000000	100.433861
3607.000000	100.442527
3606.000000	100.447842
3605.000000	100.449507
3604.000000	100.449304
3603.000000	100.450045
3602.000000	100.453492
3601.000000	100.458533
3600.000000	100.462100
3599.000000	100.463308
3598.000000	100.464030
3597.000000	100.465859
3596.000000	100.467734
3595.000000	100.466961
3594.000000	100.461732
3593.000000	100.453211
3592.000000	100.444905
3591.000000	100.439892
3590.000000	100.439056
3589.000000	100.441161
3588.000000	100.444112
3587.000000	100.445813
3586.000000	100.445279
3585.000000	100.443308
3584.000000	100.441277
3583.000000	100.440007
3582.000000	100.439727
3581.000000	100.439980
3580.000000	100.439522
3579.000000	100.437401
3578.000000	100.434000
3577.000000	100.430770
3576.000000	100.428849
3575.000000	100.427758
3574.000000	100.425535
3573.000000	100.420280
3572.000000	100.411816
3571.000000	100.402175
3570.000000	100.394560
3569.000000	100.391179
3568.000000	100.391620
3567.000000	100.392943
3566.000000	100.392038
3565.000000	100.388253
3564.000000	100.382891
3563.000000	100.377418
3562.000000	100.372815
3561.000000	100.369490
3560.000000	100.367063
3559.000000	100.364548
3558.000000	100.361261
3557.000000	100.357385
3556.000000	100.353562
3555.000000	100.350169
3554.000000	100.347100
3553.000000	100.344006
3552.000000	100.340575
3551.000000	100.336647
3550.000000	100.332261
3549.000000	100.327682
3548.000000	100.323444
3547.000000	100.320237
3546.000000	100.318413
3545.000000	100.317480
3544.000000	100.316302
3543.000000	100.313963
3542.000000	100.310347
3541.000000	100.305969
3540.000000	100.301548
3539.000000	100.297630
3538.000000	100.294470
3537.000000	100.292132
3536.000000	100.290505
3535.000000	100.289300
3534.000000	100.288102
3533.000000	100.286557
3532.000000	100.284539
3531.000000	100.282116
3530.000000	100.279336
3529.000000	100.276121
3528.000000	100.272481
3527.000000	100.268859
3526.000000	100.266026
3525.000000	100.264342
3524.000000	100.263407
3523.000000	100.262503
3522.000000	100.261243
3521.000000	100.259773
3520.000000	100.258344
3519.000000	100.256899
3518.000000	100.255107
3517.000000	100.252753
3516.000000	100.249985
3515.000000	100.247218
3514.000000	100.244803
3513.000000	100.242801
3512.000000	100.241038
3511.000000	100.239315
3510.000000	100.237594
3509.000000	100.235964
3508.000000	100.234439
3507.000000	100.232861
3506.000000	100.231035
3505.000000	100.228916
3504.000000	100.226665
3503.000000	100.224505
3502.000000	100.222513
3501.000000	100.220604
3500.000000	100.218698
3499.000000	100.216824
3498.000000	100.215052
3497.000000	100.213360
3496.000000	100.211607
3495.000000	100.209635
3494.000000	100.207366
3493.000000	100.204848
3492.000000	100.202327
3491.000000	100.200134
3490.000000	100.198449
3489.000000	100.197153
3488.000000	100.195870
3487.000000	100.194293
3486.000000	100.192415
3485.000000	100.190471
3484.000000	100.188682
3483.000000	100.187025
3482.000000	100.185232
3481.000000	100.183013
3480.000000	100.180262
3479.000000	100.177134
3478.000000	100.173969
3477.000000	100.171143
3476.000000	100.168956
3475.000000	100.167503
3474.000000	100.166534
3473.000000	100.165506
3472.000000	100.163891
3471.000000	100.161512
3470.000000	100.158632
3469.000000	100.155709
3468.000000	100.153068
3467.000000	100.150713
3466.000000	100.148390
3465.000000	100.145877
3464.000000	100.143255
3463.000000	100.140911
3462.000000	100.139176
3461.000000	100.137994
3460.000000	100.136958
3459.000000	100.135577
3458.000000	100.133492
3457.000000	100.130619
3456.000000	100.127265
3455.000000	100.124067
3454.000000	100.121470
3453.000000	100.119196
3452.000000	100.116483
3451.000000	100.112984
3450.000000	100.109146
3449.000000	100.105530
3448.000000	100.102119
3447.000000	100.098591
3446.000000	100.094974
3445.000000	100.091562
3444.000000	100.088300
3443.000000	100.084735
3442.000000	100.080627
3441.000000	100.076231
3440.000000	100.071912
3439.000000	100.067905
3438.000000	100.064541
3437.000000	100.062291
3436.000000	100.061231
3435.000000	100.060614
3434.000000	100.059254
3433.000000	100.056447
3432.000000	100.052408
3431.000000	100.048058
3430.000000	100.044459
3429.000000	100.042188
3428.000000	100.041092
3427.000000	100.040456
3426.000000	100.039435
3425.000000	100.037410
3424.000000	100.034126
3423.000000	100.029798
3422.000000	100.025211
3421.000000	100.021316
3420.000000	100.018379
3419.000000	100.015792
3418.000000	100.012913
3417.000000	100.009960
3416.000000	100.007709
3415.000000	100.006401
3414.000000	100.005341
3413.000000	100.003685
3412.000000	100.001356
3411.000000	99.998896
3410.000000	99.996666
3409.000000	99.994549
3408.000000	99.992380
3407.000000	99.990283
3406.000000	99.988441
3405.000000	99.986792
3404.000000	99.985101
3403.000000	99.983207
3402.000000	99.981146
3401.000000	99.979201
3400.000000	99.977856
3399.000000	99.977434
3398.000000	99.977596
3397.000000	99.977403
3396.000000	99.976127
3395.000000	99.973902
3394.000000	99.971519
3393.000000	99.969685
3392.000000	99.968550
3391.000000	99.967848
3390.000000	99.967236
3389.000000	99.966535
3388.000000	99.965849
3387.000000	99.965459
3386.000000	99.965464
3385.000000	99.965603
3384.000000	99.965604
3383.000000	99.965599
3382.000000	99.965890
3381.000000	99.966328
3380.000000	99.966243
3379.000000	99.965145
3378.000000	99.963281
3377.000000	99.961556
3376.000000	99.960780
3375.000000	99.961078
3374.000000	99.961981
3373.000000	99.962881
3372.000000	99.963517
3371.000000	99.963943
3370.000000	99.964145
3369.000000	99.963897
3368.000000	99.963091
3367.000000	99.962096
3366.000000	99.961581
3365.000000	99.961894
3364.000000	99.962816
3363.000000	99.963875
3362.000000	99.964796
3361.000000	99.965542
3360.000000	99.966141
3359.000000	99.966712
3358.000000	99.967517
3357.000000	99.968716
3356.000000	99.970042
3355.000000	99.970938
3354.000000	99.971104
3353.000000	99.970763
3352.000000	99.970399
3351.000000	99.970324
3350.000000	99.970573
3349.000000	99.970988
3348.000000	99.971295
3347.000000	99.971309
3346.000000	99.971185
3345.000000	99.971377
3344.000000	99.972209
3343.000000	99.973503
3342.000000	99.974693
3341.000000	99.975385
3340.000000	99.975713
3339.000000	99.976147
3338.000000	99.977062
3337.000000	99.978474
3336.000000	99.980046
3335.000000	99.981345
3334.000000	99.982108
3333.000000	99.982336
3332.000000	99.982272
3331.000000	99.982232
3330.000000	99.982436
3329.000000	99.982938
3328.000000	99.983693
3327.000000	99.984700
3326.000000	99.986001
3325.000000	99.987492
3324.000000	99.988856
3323.000000	99.989813
3322.000000	99.990401
3321.000000	99.990844
3320.000000	99.991165
3319.000000	99.991158
3318.000000	99.990770
3317.000000	99.990292
3316.000000	99.990016
3315.000000	99.989855
3314.000000	99.989535
3313.000000	99.989116
3312.000000	99.989130
3311.000000	99.990085
3310.000000	99.991824
3309.000000	99.993402
3308.000000	99.993668
3307.000000	99.992118
3306.000000	99.989378
3305.000000	99.986995
3304.000000	99.986348
3303.000000	99.987764
3302.000000	99.990543
3301.000000	99.993548
3300.000000	99.995894
3299.000000	99.997154
3298.000000	99.997316
3297.000000	99.996862
3296.000000	99.996737
3295.000000	99.997808
3294.000000	100.000174
3293.000000	100.003007
3292.000000	100.005177
3291.000000	100.006095
3290.000000	100.005973
3289.000000	100.005446
3288.000000	100.005063
3287.000000	100.005027
3286.000000	100.005176
3285.000000	100.005096
3284.000000	100.004428
3283.000000	100.003241
3282.000000	100.002098
3281.000000	100.001617
3280.000000	100.001868
3279.000000	100.002237
3278.000000	100.001968
3277.000000	100.000964
3276.000000	99.999997
3275.000000	100.000039
3274.000000	100.001288
3273.000000	100.002955
3272.000000	100.004000
3271.000000	100.004052
3270.000000	100.003566
3269.000000	100.003242
3268.000000	100.003465
3267.000000	100.004225
3266.000000	100.005298
3265.000000	100.006306
3264.000000	100.006757
3263.000000	100.006255
3262.000000	100.004806
3261.000000	100.003010
3260.000000	100.001883
3259.000000	100.002253
3258.000000	100.004264
3257.000000	100.007343
3256.000000	100.010649
3255.000000	100.013632
3254.000000	100.016046
3253.000000	100.017595
3252.000000	100.017940
3251.000000	100.017169
3250.000000	100.015929
3249.000000	100.014844
3248.000000	100.013945
3247.000000	100.012888
3246.000000	100.011668
3245.000000	100.010859
3244.000000	100.011041
3243.000000	100.012176
3242.000000	100.013690
3241.000000	100.015097
3240.000000	100.016357
3239.000000	100.017562
3238.000000	100.018486
3237.000000	100.018691
3236.000000	100.018041
3235.000000	100.017007
3234.000000	100.016383
3233.000000	100.016672
3232.000000	100.017851
3231.000000	100.019506
3230.000000	100.021097
3229.000000	100.022254
3228.000000	100.022935
3227.000000	100.023387
3226.000000	100.023874
3225.000000	100.024373
3224.000000	100.024614
3223.000000	100.024456
3222.000000	100.024178
3221.000000	100.024291
3220.000000	100.025020
3219.000000	100.026084
3218.000000	100.027022
3217.000000	100.027647
3216.000000	100.028107
3215.000000	100.028603
3214.000000	100.029201
3213.000000	100.029897
3212.000000	100.030715
3211.000000	100.031651
3210.000000	100.032601
3209.000000	100.033426
3208.000000	100.034072
3207.000000	100.034581
3206.000000	100.035018
3205.000000	100.035444
3204.000000	100.035945
3203.000000	100.036622
3202.000000	100.037507
3201.000000	100.038535
3200.000000	100.039620
3199.000000	100.040739
3198.000000	100.041861
3197.000000	100.042879
3196.000000	100.043676
3195.000000	100.044265
3194.000000	100.044814
3193.000000	100.045523
3192.000000	100.046487
3191.000000	100.047650
3190.000000	100.048787
3189.000000	100.049621
3188.000000	100.050037
3187.000000	100.050160
3186.000000	100.050296
3185.000000	100.050670
3184.000000	100.051301
3183.000000	100.052097
3182.000000	100.053028
3181.000000	100.054125
3180.000000	100.055309
3179.000000	100.056333
3178.000000	100.056994
3177.000000	100.057376
3176.000000	100.057826
3175.000000	100.058615
3174.000000	100.059680
3173.000000	100.060697
3172.000000	100.061399
3171.000000	100.061804
3170.000000	100.062154
3169.000000	100.062700
3168.000000	100.063558
3167.000000	100.064704
3166.000000	100.066039
3165.000000	100.067433
3164.000000	100.068756
3163.000000	100.069883
3162.000000	100.070686
3161.000000	100.071079
3160.000000	100.071130
3159.000000	100.071073
3158.000000	100.071134
3157.000000	100.071352
3156.000000	100.071624
3155.000000	100.071898
3154.000000	100.072237
3153.000000	100.072676
3152.000000	100.073120
3151.000000	100.073489
3150.000000	100.073898
3149.000000	100.074610
3148.000000	100.075802
3147.000000	100.077438
3146.000000	100.079276
3145.000000	100.080917
3144.000000	100.081978
3143.000000	100.082318
3142.000000	100.082139
3141.000000	100.081873
3140.000000	100.081877
3139.000000	100.082260
3138.000000	100.082892
3137.000000	100.083502
3136.000000	100.083845
3135.000000	100.083894
3134.000000	100.083870
3133.000000	100.084057
3132.000000	100.084559
3131.000000	100.085247
3130.000000	100.085894
3129.000000	100.086356
3128.000000	100.086631
3127.000000	100.086822
3126.000000	100.087078
3125.000000	100.087496
3124.000000	100.088055
3123.000000	100.088620
3122.000000	100.089068
3121.000000	100.089402
3120.000000	100.089734
3119.000000	100.090184
3118.000000	100.090788
3117.000000	100.091488
3116.000000	100.092183
3115.000000	100.092786
3114.000000	100.093265
3113.000000	100.093654
3112.000000	100.094018
3111.000000	100.094399
3110.000000	100.094776
3109.000000	100.095099
3108.000000	100.095350
3107.000000	100.095569
3106.000000	100.095822
3105.000000	100.096129
3104.000000	100.096458
3103.000000	100.096757
3102.000000	100.097014
3101.000000	100.097252
3100.000000	100.097491
3099.000000	100.097728
3098.000000	100.097955
3097.000000	100.098184
3096.000000	100.098446
3095.000000	100.098753
3094.000000	100.099085
3093.000000	100.099398
3092.000000	100.099653
3091.000000	100.099863
3090.000000	100.100083
3089.000000	100.100356
3088.000000	100.100650
3087.000000	100.100889
3086.000000	100.101028
3085.000000	100.101070
3084.000000	100.101040
3083.000000	100.100975
3082.000000	100.100946
3081.000000	100.101020
3080.000000	100.101180
3079.000000	100.101304
3078.000000	100.101287
3077.000000	100.101139
3076.000000	100.100969
3075.000000	100.100874
3074.000000	100.100854
3073.000000	100.100835
3072.000000	100.100755
3071.000000	100.100634
3070.000000	100.100557
3069.000000	100.100611
3068.000000	100.100827
3067.000000	100.101155
3066.000000	100.101494
3065.000000	100.101743
3064.000000	100.101858
3063.000000	100.101877
3062.000000	100.101915
3061.000000	100.102080
3060.000000	100.102379
3059.000000	100.102691
3058.000000	100.102858
3057.000000	100.102809
3056.000000	100.102616
3055.000000	100.102469
3054.000000	100.102496
3053.000000	100.102687
3052.000000	100.102954
3051.000000	100.103251
3050.000000	100.103592
3049.000000	100.103989
3048.000000	100.104446
3047.000000	100.104990
3046.000000	100.105652
3045.000000	100.106397
3044.000000	100.107114
3043.000000	100.107671
3042.000000	100.107995
3041.000000	100.108146
3040.000000	100.108326
3039.000000	100.108752
3038.000000	100.109417
3037.000000	100.109974
3036.000000	100.109995
3035.000000	100.109495
3034.000000	100.109093
3033.000000	100.109337
3032.000000	100.109995
3031.000000	100.110456
3030.000000	100.110979
3029.000000	100.112775
3028.000000	100.116454
3027.000000	100.120759
3026.000000	100.123294
3025.000000	100.122694
3024.000000	100.119967
3023.000000	100.117713
3022.000000	100.117795
3021.000000	100.119664
3020.000000	100.120929
3019.000000	100.119760
3018.000000	100.116631
3017.000000	100.113536
3016.000000	100.111907
3015.000000	100.112136
3014.000000	100.114849
3013.000000	100.121234
3012.000000	100.131219
3011.000000	100.142005
3010.000000	100.149623
3009.000000	100.152125
3008.000000	100.150757
3007.000000	100.148199
3006.000000	100.146076
3005.000000	100.144340
3004.000000	100.142644
3003.000000	100.141652
3002.000000	100.142448
3001.000000	100.144602
3000.000000	100.145694
2999.000000	100.143752
2998.000000	100.139949
2997.000000	100.137689
2996.000000	100.138650
2995.000000	100.140876
2994.000000	100.141638
2993.000000	100.141336
2992.000000	100.143262
2991.000000	100.149678
2990.000000	100.159066
2989.000000	100.167211
2988.000000	100.170475
2987.000000	100.168269
2986.000000	100.163425
2985.000000	100.160304
2984.000000	100.161937
2983.000000	100.168519
2982.000000	100.178377
2981.000000	100.189492
2980.000000	100.199606
2979.000000	100.206358
2978.000000	100.209679
2977.000000	100.213799
2976.000000	100.224345
2975.000000	100.242541
2974.000000	100.264091
2973.000000	100.284727
2972.000000	100.305100
2971.000000	100.328490
2970.000000	100.355486
2969.000000	100.383577
2968.000000	100.411109
2967.000000	100.438688
2966.000000	100.466321
2965.000000	100.492008
2964.000000	100.514405
2963.000000	100.534839
2962.000000	100.555292
2961.000000	100.575932
2960.000000	100.596032
2959.000000	100.615678
2958.000000	100.634494
2957.000000	100.649420
2956.000000	100.656264
2955.000000	100.654116
2954.000000	100.647236
2953.000000	100.641925
2952.000000	100.641996
2951.000000	100.646913
2950.000000	100.653261
2949.000000	100.657816
2948.000000	100.660400
2947.000000	100.664861
2946.000000	100.676902
2945.000000	100.700005
2944.000000	100.732967
2943.000000	100.771450
2942.000000	100.812106
2941.000000	100.855281
2940.000000	100.903767
2939.000000	100.958946
2938.000000	101.018270
2937.000000	101.076952
2936.000000	101.132489
2935.000000	101.187251
2934.000000	101.245906
2933.000000	101.310281
2932.000000	101.377274
2931.000000	101.441967
2930.000000	101.501638
2929.000000	101.555686
2928.000000	101.602349
2927.000000	101.637639
2926.000000	101.658407
2925.000000	101.665115
2924.000000	101.659921
2923.000000	101.642705
2922.000000	101.610909
2921.000000	101.563477
2920.000000	101.503104
2919.000000	101.433971
2918.000000	101.358771
2917.000000	101.279156
2916.000000	101.197919
2915.000000	101.119222
2914.000000	101.046788
2913.000000	100.982651
2912.000000	100.927073
2911.000000	100.878751
2910.000000	100.835521
2909.000000	100.796120
2908.000000	100.761450
2907.000000	100.733211
2906.000000	100.711182
2905.000000	100.692624
2904.000000	100.674497
2903.000000	100.655509
2902.000000	100.635768
2901.000000	100.615474
2900.000000	100.594382
2899.000000	100.572371
2898.000000	100.549923
2897.000000	100.528364
2896.000000	100.509574
2895.000000	100.494603
2894.000000	100.482189
2893.000000	100.469407
2892.000000	100.454384
2891.000000	100.438019
2890.000000	100.422619
2889.000000	100.409605
2888.000000	100.399331
2887.000000	100.392418
2886.000000	100.389804
2885.000000	100.391089
2884.000000	100.393744
2883.000000	100.394710
2882.000000	100.392765
2881.000000	100.389232
2880.000000	100.386640
2879.000000	100.386940
2878.000000	100.390926
2877.000000	100.398868
2876.000000	100.410991
2875.000000	100.426706
2874.000000	100.443543
2873.000000	100.457893
2872.000000	100.467687
2871.000000	100.474428
2870.000000	100.482085
2869.000000	100.493910
2868.000000	100.510389
2867.000000	100.529926
2866.000000	100.550937
2865.000000	100.573217
2864.000000	100.597893
2863.000000	100.626700
2862.000000	100.661385
2861.000000	100.703237
2860.000000	100.752184
2859.000000	100.805676
2858.000000	100.858835
2857.000000	100.906612
2856.000000	100.946112
2855.000000	100.976216
2854.000000	100.994876
2853.000000	100.997821
2852.000000	100.980746
2851.000000	100.942712
2850.000000	100.887177
2849.000000	100.820287
2848.000000	100.748331
2847.000000	100.676192
2846.000000	100.607371
2845.000000	100.545300
2844.000000	100.494124
2843.000000	100.456916
2842.000000	100.432090
2841.000000	100.412644
2840.000000	100.390999
2839.000000	100.365288
2838.000000	100.339856
2837.000000	100.319403
2836.000000	100.304050
2835.000000	100.290772
2834.000000	100.278051
2833.000000	100.267233
2832.000000	100.259689
2831.000000	100.254544
2830.000000	100.250014
2829.000000	100.246020
2828.000000	100.244279
2827.000000	100.245668
2826.000000	100.248047
2825.000000	100.247215
2824.000000	100.240248
2823.000000	100.228155
2822.000000	100.215503
2821.000000	100.207578
2820.000000	100.207226
2819.000000	100.213202
2818.000000	100.220710
2817.000000	100.224324
2816.000000	100.221905
2815.000000	100.216365
2814.000000	100.213069
2813.000000	100.215103
2812.000000	100.220987
2811.000000	100.226635
2810.000000	100.228813
2809.000000	100.226879
2808.000000	100.222494
2807.000000	100.218400
2806.000000	100.216688
2805.000000	100.217134
2804.000000	100.217178
2803.000000	100.214247
2802.000000	100.208328
2801.000000	100.202165
2800.000000	100.199160
2799.000000	100.201209
2798.000000	100.207892
2797.000000	100.216756
2796.000000	100.224401
2795.000000	100.228232
2794.000000	100.227792
2793.000000	100.224572
2792.000000	100.220790
2791.000000	100.218332
2790.000000	100.218185
2789.000000	100.220074
2788.000000	100.222625
2787.000000	100.224480
2786.000000	100.225396
2785.000000	100.226140
2784.000000	100.227473
2783.000000	100.229511
2782.000000	100.231818
2781.000000	100.233715
2780.000000	100.234647
2779.000000	100.234653
2778.000000	100.234469
2777.000000	100.234976
2776.000000	100.236539
2775.000000	100.238904
2774.000000	100.241449
2773.000000	100.243477
2772.000000	100.244625
2771.000000	100.245142
2770.000000	100.245692
2769.000000	100.246744
2768.000000	100.248162
2767.000000	100.249601
2766.000000	100.251166
2765.000000	100.253286
2764.000000	100.255963
2763.000000	100.258570
2762.000000	100.260534
2761.000000	100.261914
2760.000000	100.263142
2759.000000	100.264515
2758.000000	100.266130
2757.000000	100.268077
2756.000000	100.270360
2755.000000	100.272691
2754.000000	100.274699
2753.000000	100.276328
2752.000000	100.277795
2751.000000	100.279134
2750.000000	100.280148
2749.000000	100.280874
2748.000000	100.281770
2747.000000	100.283232
2746.000000	100.285146
2745.000000	100.287014
2744.000000	100.288445
2743.000000	100.289437
2742.000000	100.290244
2741.000000	100.291150
2740.000000	100.292335
2739.000000	100.293833
2738.000000	100.295519
2737.000000	100.297164
2736.000000	100.298628
2735.000000	100.299981
2734.000000	100.301396
2733.000000	100.302921
2732.000000	100.304389
2731.000000	100.305593
2730.000000	100.306499
2729.000000	100.307286
2728.000000	100.308212
2727.000000	100.309390
2726.000000	100.310765
2725.000000	100.312202
2724.000000	100.313590
2723.000000	100.314889
2722.000000	100.316112
2721.000000	100.317317
2720.000000	100.318595
2719.000000	100.319993
2718.000000	100.321435
2717.000000	100.322750
2716.000000	100.323802
2715.000000	100.324623
2714.000000	100.325401
2713.000000	100.326347
2712.000000	100.327561
2711.000000	100.329017
2710.000000	100.330622
2709.000000	100.332306
2708.000000	100.334025
2707.000000	100.335712
2706.000000	100.337267
2705.000000	100.338594
2704.000000	100.339622
2703.000000	100.340304
2702.000000	100.340680
2701.000000	100.341057
2700.000000	100.341932
2699.000000	100.343455
2698.000000	100.345147
2697.000000	100.346354
2696.000000	100.346973
2695.000000	100.347479
2694.000000	100.348224
2693.000000	100.349014
2692.000000	100.349492
2691.000000	100.349684
2690.000000	100.350005
2689.000000	100.350866
2688.000000	100.352394
2687.000000	100.354381
2686.000000	100.356402
2685.000000	100.358104
2684.000000	100.359473
2683.000000	100.360780
2682.000000	100.362173
2681.000000	100.363465
2680.000000	100.364411
2679.000000	100.365015
2678.000000	100.365426
2677.000000	100.365625
2676.000000	100.365427
2675.000000	100.364789
2674.000000	100.364008
2673.000000	100.363573
2672.000000	100.363781
2671.000000	100.364474
2670.000000	100.365164
2669.000000	100.365480
2668.000000	100.365550
2667.000000	100.365880
2666.000000	100.366870
2665.000000	100.368464
2664.000000	100.370182
2663.000000	100.371394
2662.000000	100.371684
2661.000000	100.371094
2660.000000	100.370201
2659.000000	100.369788
2658.000000	100.370261
2657.000000	100.371488
2656.000000	100.373128
2655.000000	100.374956
2654.000000	100.376740
2653.000000	100.378042
2652.000000	100.378523
2651.000000	100.378409
2650.000000	100.378389
2649.000000	100.378881
2648.000000	100.379678
2647.000000	100.380367
2646.000000	100.380830
2645.000000	100.381148
2644.000000	100.381274
2643.000000	100.381140
2642.000000	100.380977
2641.000000	100.381216
2640.000000	100.382029
2639.000000	100.383180
2638.000000	100.384387
2637.000000	100.385595
2636.000000	100.386786
2635.000000	100.387694
2634.000000	100.387963
2633.000000	100.387599
2632.000000	100.387105
2631.000000	100.387064
2630.000000	100.387592
2629.000000	100.388281
2628.000000	100.388618
2627.000000	100.388445
2626.000000	100.388016
2625.000000	100.387723
2624.000000	100.387848
2623.000000	100.388568
2622.000000	100.390007
2621.000000	100.392122
2620.000000	100.394523
2619.000000	100.396590
2618.000000	100.397981
2617.000000	100.398925
2616.000000	100.399888
2615.000000	100.400945
2614.000000	100.401630
2613.000000	100.401509
2612.000000	100.400743
2611.000000	100.400003
2610.000000	100.399872
2609.000000	100.400464
2608.000000	100.401604
2607.000000	100.403120
2606.000000	100.404812
2605.000000	100.406310
2604.000000	100.407265
2603.000000	100.407694
2602.000000	100.407957
2601.000000	100.408386
2600.000000	100.409045
2599.000000	100.409950
2598.000000	100.411256
2597.000000	100.413014
2596.000000	100.414857
2595.000000	100.416240
2594.000000	100.417025
2593.000000	100.417631
2592.000000	100.418526
2591.000000	100.419651
2590.000000	100.420559
2589.000000	100.421015
2588.000000	100.421254
2587.000000	100.421714
2586.000000	100.422602
2585.000000	100.423825
2584.000000	100.425166
2583.000000	100.426441
2582.000000	100.427546
2581.000000	100.428454
2580.000000	100.429249
2579.000000	100.430087
2578.000000	100.431060
2577.000000	100.432106
2576.000000	100.433105
2575.000000	100.434081
2574.000000	100.435217
2573.000000	100.436643
2572.000000	100.438231
2571.000000	100.439654
2570.000000	100.440681
2569.000000	100.441369
2568.000000	100.441974
2567.000000	100.442718
2566.000000	100.443661
2565.000000	100.444724
2564.000000	100.445728
2563.000000	100.446447
2562.000000	100.446765
2561.000000	100.446827
2560.000000	100.446989
2559.000000	100.447509
2558.000000	100.448344
2557.000000	100.449253
2556.000000	100.450080
2555.000000	100.450903
2554.000000	100.451859
2553.000000	100.452907
2552.000000	100.453803
2551.000000	100.454319
2550.000000	100.454471
2549.000000	100.454560
2548.000000	100.454999
2547.000000	100.456001
2546.000000	100.457462
2545.000000	100.459052
2544.000000	100.460465
2543.000000	100.461575
2542.000000	100.462390
2541.000000	100.462934
2540.000000	100.463238
2539.000000	100.463408
2538.000000	100.463617
2537.000000	100.464018
2536.000000	100.464664
2535.000000	100.465501
2534.000000	100.466380
2533.000000	100.467133
2532.000000	100.467685
2531.000000	100.468124
2530.000000	100.468640
2529.000000	100.469351
2528.000000	100.470211
2527.000000	100.471094
2526.000000	100.471918
2525.000000	100.472700
2524.000000	100.473482
2523.000000	100.474271
2522.000000	100.475052
2521.000000	100.475824
2520.000000	100.476615
2519.000000	100.477467
2518.000000	100.478390
2517.000000	100.479358
2516.000000	100.480325
2515.000000	100.481269
2514.000000	100.482201
2513.000000	100.483141
2512.000000	100.484098
2511.000000	100.485067
2510.000000	100.486044
2509.000000	100.487033
2508.000000	100.488037
2507.000000	100.489063
2506.000000	100.490113
2505.000000	100.491185
2504.000000	100.492274
2503.000000	100.493370
2502.000000	100.494469
2501.000000	100.495571
2500.000000	100.496680
2499.000000	100.497801
2498.000000	100.498940
2497.000000	100.500101
2496.000000	100.501280
2495.000000	100.502471
2494.000000	100.503666
2493.000000	100.504859
2492.000000	100.506058
2491.000000	100.507270
2490.000000	100.508503
2489.000000	100.509753
2488.000000	100.511012
2487.000000	100.512273
2486.000000	100.513538
2485.000000	100.514812
2484.000000	100.516096
2483.000000	100.517385
2482.000000	100.518667
2481.000000	100.519937
2480.000000	100.521197
2479.000000	100.522452
2478.000000	100.523706
2477.000000	100.524957
2476.000000	100.526201
2475.000000	100.527453
2474.000000	100.528736
2473.000000	100.530068
2472.000000	100.531429
2471.000000	100.532784
2470.000000	100.534096
2469.000000	100.535348
2468.000000	100.536546
2467.000000	100.537734
2466.000000	100.538976
2465.000000	100.540306
2464.000000	100.541692
2463.000000	100.543055
2462.000000	100.544337
2461.000000	100.545553
2460.000000	100.546754
2459.000000	100.547966
2458.000000	100.549175
2457.000000	100.550344
2456.000000	100.551438
2455.000000	100.552442
2454.000000	100.553403
2453.000000	100.554424
2452.000000	100.555618
2451.000000	100.557033
2450.000000	100.558598
2449.000000	100.560151
2448.000000	100.561548
2447.000000	100.562761
2446.000000	100.563868
2445.000000	100.564953
2444.000000	100.566012
2443.000000	100.566979
2442.000000	100.567846
2441.000000	100.568713
2440.000000	100.569718
2439.000000	100.570936
2438.000000	100.572328
2437.000000	100.573771
2436.000000	100.575141
2435.000000	100.576397
2434.000000	100.577588
2433.000000	100.578766
2432.000000	100.579896
2431.000000	100.580900
2430.000000	100.581785
2429.000000	100.582719
2428.000000	100.583885
2427.000000	100.585323
2426.000000	100.586874
2425.000000	100.588297
2424.000000	100.589468
2423.000000	100.590409
2422.000000	100.591228
2421.000000	100.592067
2420.000000	100.593075
2419.000000	100.594315
2418.000000	100.595680
2417.000000	100.596918
2416.000000	100.597812
2415.000000	100.598280
2414.000000	100.598421
2413.000000	100.598526
2412.000000	100.598946
2411.000000	100.599807
2410.000000	100.600882
2409.000000	100.601840
2408.000000	100.602638
2407.000000	100.603449
2406.000000	100.604322
2405.000000	100.605149
2404.000000	100.605956
2403.000000	100.606963
2402.000000	100.608268
2401.000000	100.609650
2400.000000	100.610756
2399.000000	100.611390
2398.000000	100.611602
2397.000000	100.611674
2396.000000	100.612054
2395.000000	100.613034
2394.000000	100.614524
2393.000000	100.616217
2392.000000	100.617854
2391.000000	100.619156
2390.000000	100.619745
2389.000000	100.619519
2388.000000	100.619016
2387.000000	100.618971
2386.000000	100.619410
2385.000000	100.619639
2384.000000	100.619187
2383.000000	100.618323
2382.000000	100.617655
2381.000000	100.617498
2380.000000	100.617727
2379.000000	100.618042
2378.000000	100.618222
2377.000000	100.618307
2376.000000	100.618578
2375.000000	100.619276
2374.000000	100.620286
2373.000000	100.621255
2372.000000	100.621999
2371.000000	100.622616
2370.000000	100.623180
2369.000000	100.623581
2368.000000	100.623714
2367.000000	100.623670
2366.000000	100.623653
2365.000000	100.623806
2364.000000	100.624153
2363.000000	100.624690
2362.000000	100.625391
2361.000000	100.626131
2360.000000	100.626789
2359.000000	100.627307
2358.000000	100.627680
2357.000000	100.627969
2356.000000	100.628251
2355.000000	100.628600
2354.000000	100.629035
2353.000000	100.629521
2352.000000	100.630028
2351.000000	100.630541
2350.000000	100.631066
2349.000000	100.631612
2348.000000	100.632187
2347.000000	100.632792
2346.000000	100.633421
2345.000000	100.634072
2344.000000	100.634749
2343.000000	100.635461
2342.000000	100.636211
2341.000000	100.636990
2340.000000	100.637787
2339.000000	100.638593
2338.000000	100.639413
2337.000000	100.640250
2336.000000	100.641106
2335.000000	100.641973
2334.000000	100.642845
2333.000000	100.643722
2332.000000	100.644607
2331.000000	100.645499
2330.000000	100.646399
2329.000000	100.647304
2328.000000	100.648216
2327.000000	100.649140
2326.000000	100.650080
2325.000000	100.651035
2324.000000	100.651999
2323.000000	100.652965
2322.000000	100.653930
2321.000000	100.654894
2320.000000	100.655863
2319.000000	100.656845
2318.000000	100.657846
2317.000000	100.658871
2316.000000	100.659921
2315.000000	100.660996
2314.000000	100.662086
2313.000000	100.663177
2312.000000	100.664254
2311.000000	100.665308
2310.000000	100.666339
2309.000000	100.667357
2308.000000	100.668375
2307.000000	100.669394
2306.000000	100.670398
2305.000000	100.671373
2304.000000	100.672319
2303.000000	100.673254
2302.000000	100.674190
2301.000000	100.675118
2300.000000	100.676021
2299.000000	100.676899
2298.000000	100.677764
2297.000000	100.678631
2296.000000	100.679498
2295.000000	100.680350
2294.000000	100.681160
2293.000000	100.681925
2292.000000	100.682673
2291.000000	100.683433
2290.000000	100.684183
2289.000000	100.684863
2288.000000	100.685459
2287.000000	100.686066
2286.000000	100.686797
2285.000000	100.687649
2284.000000	100.688457
2283.000000	100.689081
2282.000000	100.689531
2281.000000	100.689942
2280.000000	100.690411
2279.000000	100.690962
2278.000000	100.691610
2277.000000	100.692341
2276.000000	100.693065
2275.000000	100.693665
2274.000000	100.694076
2273.000000	100.694279
2272.000000	100.694284
2271.000000	100.694202
2270.000000	100.694217
2269.000000	100.694425
2268.000000	100.694739
2267.000000	100.695055
2266.000000	100.695419
2265.000000	100.695899
2264.000000	100.696413
2263.000000	100.696843
2262.000000	100.697215
2261.000000	100.697684
2260.000000	100.698292
2259.000000	100.698857
2258.000000	100.699132
2257.000000	100.699067
2256.000000	100.698921
2255.000000	100.699026
2254.000000	100.699457
2253.000000	100.699934
2252.000000	100.700145
2251.000000	100.700105
2250.000000	100.700090
2249.000000	100.700277
2248.000000	100.700648
2247.000000	100.701259
2246.000000	100.702319
2245.000000	100.703847
2244.000000	100.705424
2243.000000	100.706508
2242.000000	100.706972
2241.000000	100.707074
2240.000000	100.707072
2239.000000	100.707024
2238.000000	100.706990
2237.000000	100.707197
2236.000000	100.707820
2235.000000	100.708734
2234.000000	100.709616
2233.000000	100.710272
2232.000000	100.710774
2231.000000	100.711265
2230.000000	100.711763
2229.000000	100.712247
2228.000000	100.712870
2227.000000	100.713909
2226.000000	100.715421
2225.000000	100.717030
2224.000000	100.718178
2223.000000	100.718603
2222.000000	100.718469
2221.000000	100.718225
2220.000000	100.718342
2219.000000	100.719165
2218.000000	100.720765
2217.000000	100.722778
2216.000000	100.724544
2215.000000	100.725639
2214.000000	100.726204
2213.000000	100.726704
2212.000000	100.727420
2211.000000	100.728259
2210.000000	100.729004
2209.000000	100.729611
2208.000000	100.730273
2207.000000	100.731262
2206.000000	100.732699
2205.000000	100.734410
2204.000000	100.736114
2203.000000	100.737822
2202.000000	100.739873
2201.000000	100.742413
2200.000000	100.744950
2199.000000	100.746685
2198.000000	100.747309
2197.000000	100.747341
2196.000000	100.747702
2195.000000	100.748955
2194.000000	100.750988
2193.000000	100.753266
2192.000000	100.755308
2191.000000	100.756956
2190.000000	100.758304
2189.000000	100.759508
2188.000000	100.760665
2187.000000	100.761774
2186.000000	100.762710
2185.000000	100.763277
2184.000000	100.763410
2183.000000	100.763320
2182.000000	100.763350
2181.000000	100.763694
2180.000000	100.764336
2179.000000	100.765209
2178.000000	100.766294
2177.000000	100.767537
2176.000000	100.768830
2175.000000	100.770119
2174.000000	100.771394
2173.000000	100.772545
2172.000000	100.773328
2171.000000	100.773557
2170.000000	100.773284
2169.000000	100.772824
2168.000000	100.772665
2167.000000	100.773286
2166.000000	100.774866
2165.000000	100.777107
2164.000000	100.779347
2163.000000	100.781014
2162.000000	100.782007
2161.000000	100.782615
2160.000000	100.783201
2159.000000	100.783948
2158.000000	100.784858
2157.000000	100.785897
2156.000000	100.787061
2155.000000	100.788348
2154.000000	100.789715
2153.000000	100.791076
2152.000000	100.792319
2151.000000	100.793357
2150.000000	100.794207
2149.000000	100.794995
2148.000000	100.795863
2147.000000	100.796843
2146.000000	100.797871
2145.000000	100.798903
2144.000000	100.799971
2143.000000	100.801121
2142.000000	100.802338
2141.000000	100.803555
2140.000000	100.804722
2139.000000	100.805839
2138.000000	100.806934
2137.000000	100.808046
2136.000000	100.809217
2135.000000	100.810468
2134.000000	100.811779
2133.000000	100.813098
2132.000000	100.814390
2131.000000	100.815661
2130.000000	100.816939
2129.000000	100.818248
2128.000000	100.819592
2127.000000	100.820953
2126.000000	100.822316
2125.000000	100.823668
2124.000000	100.825005
2123.000000	100.826320
2122.000000	100.827604
2121.000000	100.828870
2120.000000	100.830168
2119.000000	100.831557
2118.000000	100.833054
2117.000000	100.834629
2116.000000	100.836233
2115.000000	100.837832
2114.000000	100.839381
2113.000000	100.840823
2112.000000	100.842141
2111.000000	100.843411
2110.000000	100.844752
2109.000000	100.846209
2108.000000	100.847758
2107.000000	100.849390
2106.000000	100.851098
2105.000000	100.852752
2104.000000	100.854164
2103.000000	100.855331
2102.000000	100.856486
2101.000000	100.857824
2100.000000	100.859331
2099.000000	100.860931
2098.000000	100.862601
2097.000000	100.864240
2096.000000	100.865685
2095.000000	100.866985
2094.000000	100.868424
2093.000000	100.870089
2092.000000	100.871707
2091.000000	100.873090
2090.000000	100.874447
2089.000000	100.876028
2088.000000	100.877760
2087.000000	100.879493
2086.000000	100.881315
2085.000000	100.883397
2084.000000	100.885732
2083.000000	100.888112
2082.000000	100.890121
2081.000000	100.891207
2080.000000	100.891233
2079.000000	100.891005
2078.000000	100.891725
2077.000000	100.893711
2076.000000	100.896128
2075.000000	100.898044
2074.000000	100.899223
2073.000000	100.899715
2072.000000	100.899416
2071.000000	100.898430
2070.000000	100.897335
2069.000000	100.896663
2068.000000	100.896558
2067.000000	100.897187
2066.000000	100.898876
2065.000000	100.901418
2064.000000	100.903747
2063.000000	100.904969
2062.000000	100.905300
2061.000000	100.905544
2060.000000	100.906017
2059.000000	100.906488
2058.000000	100.906861
2057.000000	100.907243
2056.000000	100.907542
2055.000000	100.907623
2054.000000	100.907697
2053.000000	100.907975
2052.000000	100.908140
2051.000000	100.907803
2050.000000	100.907356
2049.000000	100.907648
2048.000000	100.908709
2047.000000	100.909483
2046.000000	100.909220
2045.000000	100.908510
2044.000000	100.908445
2043.000000	100.909062
2042.000000	100.909269
2041.000000	100.908231
2040.000000	100.906319
2039.000000	100.904734
2038.000000	100.904474
2037.000000	100.905626
2036.000000	100.907345
2035.000000	100.908437
2034.000000	100.908259
2033.000000	100.907105
2032.000000	100.905769
2031.000000	100.904800
2030.000000	100.904080
2029.000000	100.903032
2028.000000	100.901348
2027.000000	100.899593
2026.000000	100.898875
2025.000000	100.899610
2024.000000	100.900882
2023.000000	100.901394
2022.000000	100.900863
2021.000000	100.899972
2020.000000	100.899157
2019.000000	100.898130
2018.000000	100.896587
2017.000000	100.894693
2016.000000	100.892602
2015.000000	100.890120
2014.000000	100.887194
2013.000000	100.884231
2012.000000	100.881586
2011.000000	100.879120
2010.000000	100.876638
2009.000000	100.874507
2008.000000	100.873434
2007.000000	100.873688
2006.000000	100.874762
2005.000000	100.875697
2004.000000	100.875794
2003.000000	100.875103
2002.000000	100.874336
2001.000000	100.874283
2000.000000	100.875376
1999.000000	100.877766
1998.000000	100.881143
1997.000000	100.884292
1996.000000	100.885625
1995.000000	100.884679
1994.000000	100.882784
1993.000000	100.881908
1992.000000	100.882843
1991.000000	100.884860
1990.000000	100.886875
1989.000000	100.888330
1988.000000	100.889002
1987.000000	100.888784
1986.000000	100.887925
1985.000000	100.887043
1984.000000	100.886668
1983.000000	100.886916
1982.000000	100.887609
1981.000000	100.888480
1980.000000	100.889287
1979.000000	100.889953
1978.000000	100.890590
1977.000000	100.891283
1976.000000	100.891931
1975.000000	100.892392
1974.000000	100.892716
1973.000000	100.893136
1972.000000	100.893870
1971.000000	100.894981
1970.000000	100.896357
1969.000000	100.897781
1968.000000	100.899041
1967.000000	100.900024
1966.000000	100.900681
1965.000000	100.900980
1964.000000	100.900976
1963.000000	100.900990
1962.000000	100.901522
1961.000000	100.902809
1960.000000	100.904476
1959.000000	100.905820
1958.000000	100.906604
1957.000000	100.907200
1956.000000	100.907939
1955.000000	100.908626
1954.000000	100.908959
1953.000000	100.909130
1952.000000	100.909607
1951.000000	100.910430
1950.000000	100.911115
1949.000000	100.911192
1948.000000	100.910640
1947.000000	100.909959
1946.000000	100.909866
1945.000000	100.910622
1944.000000	100.911542
1943.000000	100.911568
1942.000000	100.910686
1941.000000	100.910292
1940.000000	100.911678
1939.000000	100.914630
1938.000000	100.917624
1937.000000	100.919133
1936.000000	100.918775
1935.000000	100.917480
1934.000000	100.916672
1933.000000	100.917027
1932.000000	100.917891
1931.000000	100.918132
1930.000000	100.917609
1929.000000	100.917109
1928.000000	100.916749
1927.000000	100.915532
1926.000000	100.912923
1925.000000	100.910128
1924.000000	100.908977
1923.000000	100.909844
1922.000000	100.911339
1921.000000	100.911791
1920.000000	100.910396
1919.000000	100.907358
1918.000000	100.903949
1917.000000	100.901871
1916.000000	100.901519
1915.000000	100.901739
1914.000000	100.901356
1913.000000	100.900076
1912.000000	100.897955
1911.000000	100.894813
1910.000000	100.890846
1909.000000	100.887053
1908.000000	100.884164
1907.000000	100.881711
1906.000000	100.878876
1905.000000	100.875743
1904.000000	100.872810
1903.000000	100.870017
1902.000000	100.867362
1901.000000	100.865703
1900.000000	100.865818
1899.000000	100.866841
1898.000000	100.866537
1897.000000	100.863574
1896.000000	100.858954
1895.000000	100.854928
1894.000000	100.852763
1893.000000	100.851676
1892.000000	100.849913
1891.000000	100.846729
1890.000000	100.843394
1889.000000	100.842171
1888.000000	100.844003
1887.000000	100.847831
1886.000000	100.851788
1885.000000	100.854138
1884.000000	100.853808
1883.000000	100.851206
1882.000000	100.848338
1881.000000	100.847059
1880.000000	100.847313
1879.000000	100.847833
1878.000000	100.848001
1877.000000	100.848038
1876.000000	100.847604
1875.000000	100.845702
1874.000000	100.842561
1873.000000	100.840292
1872.000000	100.840715
1871.000000	100.843546
1870.000000	100.847240
1869.000000	100.850917
1868.000000	100.854791
1867.000000	100.859179
1866.000000	100.864137
1865.000000	100.869183
1864.000000	100.872882
1863.000000	100.873647
1862.000000	100.871603
1861.000000	100.869107
1860.000000	100.868600
1859.000000	100.870520
1858.000000	100.873918
1857.000000	100.878019
1856.000000	100.882443
1855.000000	100.886886
1854.000000	100.891500
1853.000000	100.897036
1852.000000	100.903900
1851.000000	100.911607
1850.000000	100.919174
1849.000000	100.925834
1848.000000	100.931331
1847.000000	100.935660
1846.000000	100.938691
1845.000000	100.940134
1844.000000	100.940225
1843.000000	100.940051
1842.000000	100.940417
1841.000000	100.941060
1840.000000	100.941438
1839.000000	100.941565
1838.000000	100.942018
1837.000000	100.943360
1836.000000	100.945515
1835.000000	100.948082
1834.000000	100.950890
1833.000000	100.953749
1832.000000	100.956117
1831.000000	100.957359
1830.000000	100.957330
1829.000000	100.956895
1828.000000	100.957199
1827.000000	100.958628
1826.000000	100.960754
1825.000000	100.962575
1824.000000	100.963029
1823.000000	100.961877
1822.000000	100.960162
1821.000000	100.959376
1820.000000	100.960052
1819.000000	100.961333
1818.000000	100.962319
1817.000000	100.963346
1816.000000	100.964951
1815.000000	100.966639
1814.000000	100.967827
1813.000000	100.968928
1812.000000	100.970478
1811.000000	100.971479
1810.000000	100.970597
1809.000000	100.968395
1808.000000	100.966002
1807.000000	100.963215
1806.000000	100.959867
1805.000000	100.957675
1804.000000	100.958899
1803.000000	100.963896
1802.000000	100.971098
1801.000000	100.978447
1800.000000	100.983977
1799.000000	100.985835
1798.000000	100.983854
1797.000000	100.980166
1796.000000	100.977160
1795.000000	100.975731
1794.000000	100.975881
1793.000000	100.977608
1792.000000	100.980174
1791.000000	100.981597
1790.000000	100.981701
1789.000000	100.983264
1788.000000	100.988683
1787.000000	100.997513
1786.000000	101.007374
1785.000000	101.016034
1784.000000	101.021695
1783.000000	101.023051
1782.000000	101.021069
1781.000000	101.019776
1780.000000	101.023590
1779.000000	101.032302
1778.000000	101.041448
1777.000000	101.047465
1776.000000	101.050536
1775.000000	101.053476
1774.000000	101.058977
1773.000000	101.068111
1772.000000	101.080217
1771.000000	101.092443
1770.000000	101.101166
1769.000000	101.105303
1768.000000	101.107134
1767.000000	101.110329
1766.000000	101.116909
1765.000000	101.126369
1764.000000	101.137179
1763.000000	101.147786
1762.000000	101.157682
1761.000000	101.168488
1760.000000	101.182603
1759.000000	101.200744
1758.000000	101.222796
1757.000000	101.248618
1756.000000	101.277355
1755.000000	101.306854
1754.000000	101.334486
1753.000000	101.358311
1752.000000	101.377887
1751.000000	101.395830
1750.000000	101.416491
1749.000000	101.441495
1748.000000	101.468210
1747.000000	101.492503
1746.000000	101.511611
1745.000000	101.524954
1744.000000	101.533702
1743.000000	101.539008
1742.000000	101.540318
1741.000000	101.535875
1740.000000	101.525385
1739.000000	101.511891
1738.000000	101.498864
1737.000000	101.485876
1736.000000	101.468575
1735.000000	101.441542
1734.000000	101.406639
1733.000000	101.375230
1732.000000	101.351671
1731.000000	101.332471
1730.000000	101.315520
1729.000000	101.300659
1728.000000	101.287906
1727.000000	101.276921
1726.000000	101.266406
1725.000000	101.254249
1724.000000	101.240161
1723.000000	101.227213
1722.000000	101.219179
1721.000000	101.216725
1720.000000	101.217186
1719.000000	101.216897
1718.000000	101.213807
1717.000000	101.209637
1716.000000	101.204872
1715.000000	101.197313
1714.000000	101.188320
1713.000000	101.181498
1712.000000	101.177053
1711.000000	101.172186
1710.000000	101.165581
1709.000000	101.158934
1708.000000	101.153860
1707.000000	101.149473
1706.000000	101.144831
1705.000000	101.141774
1704.000000	101.141003
1703.000000	101.139124
1702.000000	101.132801
1701.000000	101.123827
1700.000000	101.120258
1699.000000	101.123038
1698.000000	101.124776
1697.000000	101.123252
1696.000000	101.120854
1695.000000	101.119104
1694.000000	101.116460
1693.000000	101.111425
1692.000000	101.104632
1691.000000	101.098149
1690.000000	101.094274
1689.000000	101.093430
1688.000000	101.093339
1687.000000	101.091384
1686.000000	101.086841
1685.000000	101.082420
1684.000000	101.083251
1683.000000	101.089140
1682.000000	101.094693
1681.000000	101.097335
1680.000000	101.097619
1679.000000	101.096709
1678.000000	101.095406
1677.000000	101.094050
1676.000000	101.093324
1675.000000	101.094625
1674.000000	101.097829
1673.000000	101.100505
1672.000000	101.100773
1671.000000	101.098285
1670.000000	101.094298
1669.000000	101.090895
1668.000000	101.089065
1667.000000	101.088657
1666.000000	101.089408
1665.000000	101.091188
1664.000000	101.093445
1663.000000	101.094942
1662.000000	101.094957
1661.000000	101.093858
1660.000000	101.092272
1659.000000	101.090685
1658.000000	101.089455
1657.000000	101.088872
1656.000000	101.089294
1655.000000	101.091262
1654.000000	101.094185
1653.000000	101.095795
1652.000000	101.095427
1651.000000	101.094541
1650.000000	101.094128
1649.000000	101.094874
1648.000000	101.096094
1647.000000	101.096014
1646.000000	101.093681
1645.000000	101.090334
1644.000000	101.087620
1643.000000	101.086277
1642.000000	101.086251
1641.000000	101.086580
1640.000000	101.085861
1639.000000	101.083321
1638.000000	101.079140
1637.000000	101.074492
1636.000000	101.071906
1635.000000	101.074018
1634.000000	101.079067
1633.000000	101.083248
1632.000000	101.085142
1631.000000	101.085380
1630.000000	101.085425
1629.000000	101.086810
1628.000000	101.090069
1627.000000	101.094041
1626.000000	101.096339
1625.000000	101.094744
1624.000000	101.089379
1623.000000	101.084315
1622.000000	101.084228
1621.000000	101.088795
1620.000000	101.094825
1619.000000	101.100890
1618.000000	101.107655
1617.000000	101.115423
1616.000000	101.122393
1615.000000	101.127056
1614.000000	101.129982
1613.000000	101.132166
1612.000000	101.134008
1611.000000	101.135795
1610.000000	101.138154
1609.000000	101.141357
1608.000000	101.145329
1607.000000	101.150297
1606.000000	101.156137
1605.000000	101.161604
1604.000000	101.166008
1603.000000	101.170730
1602.000000	101.177374
1601.000000	101.185143
1600.000000	101.191966
1599.000000	101.197614
1598.000000	101.203735
1597.000000	101.211158
1596.000000	101.218589
1595.000000	101.224235
1594.000000	101.227939
1593.000000	101.231033
1592.000000	101.234887
1591.000000	101.240205
1590.000000	101.246957
1589.000000	101.254289
1588.000000	101.261154
1587.000000	101.267428
1586.000000	101.273910
1585.000000	101.281088
1584.000000	101.288622
1583.000000	101.296518
1582.000000	101.305313
1581.000000	101.314496
1580.000000	101.322089
1579.000000	101.326281
1578.000000	101.326605
1577.000000	101.324939
1576.000000	101.326573
1575.000000	101.335487
1574.000000	101.348278
1573.000000	101.358940
1572.000000	101.364830
1571.000000	101.367337
1570.000000	101.371261
1569.000000	101.379783
1568.000000	101.389933
1567.000000	101.397852
1566.000000	101.402770
1565.000000	101.405708
1564.000000	101.407786
1563.000000	101.409989
1562.000000	101.412863
1561.000000	101.416165
1560.000000	101.420549
1559.000000	101.430719
1558.000000	101.446717
1557.000000	101.456971
1556.000000	101.457610
1555.000000	101.453013
1554.000000	101.450112
1553.000000	101.452701
1552.000000	101.458299
1551.000000	101.462062
1550.000000	101.462161
1549.000000	101.460902
1548.000000	101.460373
1547.000000	101.459713
1546.000000	101.457640
1545.000000	101.455236
1544.000000	101.454422
1543.000000	101.453817
1542.000000	101.448989
1541.000000	101.438516
1540.000000	101.428058
1539.000000	101.424055
1538.000000	101.424110
1537.000000	101.423395
1536.000000	101.421032
1535.000000	101.418186
1534.000000	101.416229
1533.000000	101.414807
1532.000000	101.410560
1531.000000	101.400424
1530.000000	101.385658
1529.000000	101.371525
1528.000000	101.363069
1527.000000	101.360296
1526.000000	101.358339
1525.000000	101.353207
1524.000000	101.344862
1523.000000	101.335012
1522.000000	101.326348
1521.000000	101.322741
1520.000000	101.323722
1519.000000	101.323946
1518.000000	101.320231
1517.000000	101.314094
1516.000000	101.309186
1515.000000	101.305917
1514.000000	101.301142
1513.000000	101.293046
1512.000000	101.283726
1511.000000	101.276832
1510.000000	101.274514
1509.000000	101.277434
1508.000000	101.285465
1507.000000	101.294439
1506.000000	101.298263
1505.000000	101.297713
1504.000000	101.295704
1503.000000	101.292278
1502.000000	101.286475
1501.000000	101.278663
1500.000000	101.271590
1499.000000	101.267724
1498.000000	101.265905
1497.000000	101.264146
1496.000000	101.263550
1495.000000	101.264953
1494.000000	101.266781
1493.000000	101.267774
1492.000000	101.268196
1491.000000	101.269270
1490.000000	101.272780
1489.000000	101.279872
1488.000000	101.288437
1487.000000	101.294283
1486.000000	101.296828
1485.000000	101.299405
1484.000000	101.304575
1483.000000	101.312142
1482.000000	101.319743
1481.000000	101.325378
1480.000000	101.328994
1479.000000	101.332188
1478.000000	101.337635
1477.000000	101.348321
1476.000000	101.365189
1475.000000	101.386105
1474.000000	101.410530
1473.000000	101.441680
1472.000000	101.480334
1471.000000	101.519404
1470.000000	101.551948
1469.000000	101.576431
1468.000000	101.593662
1467.000000	101.604262
1466.000000	101.609153
1465.000000	101.610696
1464.000000	101.612253
1463.000000	101.615313
1462.000000	101.618103
1461.000000	101.618209
1460.000000	101.614795
1459.000000	101.609951
1458.000000	101.607805
1457.000000	101.610625
1456.000000	101.613721
1455.000000	101.610223
1454.000000	101.599351
1453.000000	101.584973
1452.000000	101.572091
1451.000000	101.563884
1450.000000	101.559202
1449.000000	101.554451
1448.000000	101.547616
1447.000000	101.539198
1446.000000	101.530957
1445.000000	101.524909
1444.000000	101.523203
1443.000000	101.525940
1442.000000	101.529221
1441.000000	101.528459
1440.000000	101.523702
1439.000000	101.519008
1438.000000	101.516485
1437.000000	101.513818
1436.000000	101.508677
1435.000000	101.502773
1434.000000	101.498325
1433.000000	101.495748
1432.000000	101.494204
1431.000000	101.492445
1430.000000	101.489229
1429.000000	101.484868
1428.000000	101.481727
1427.000000	101.481107
1426.000000	101.481033
1425.000000	101.477980
1424.000000	101.472241
1423.000000	101.469234
1422.000000	101.472742
1421.000000	101.481118
1420.000000	101.489161
1419.000000	101.491946
1418.000000	101.489383
1417.000000	101.486050
1416.000000	101.485431
1415.000000	101.487046
1414.000000	101.488198
1413.000000	101.487265
1412.000000	101.485531
1411.000000	101.484975
1410.000000	101.484816
1409.000000	101.482940
1408.000000	101.480225
1407.000000	101.480525
1406.000000	101.486260
1405.000000	101.494848
1404.000000	101.501197
1403.000000	101.503430
1402.000000	101.503641
1401.000000	101.504591
1400.000000	101.507421
1399.000000	101.511434
1398.000000	101.514755
1397.000000	101.516170
1396.000000	101.516266
1395.000000	101.516637
1394.000000	101.518189
1393.000000	101.520567
1392.000000	101.524060
1391.000000	101.529776
1390.000000	101.538013
1389.000000	101.547468
1388.000000	101.556096
1387.000000	101.562623
1386.000000	101.567207
1385.000000	101.570877
1384.000000	101.574983
1383.000000	101.580730
1382.000000	101.588059
1381.000000	101.595191
1380.000000	101.599736
1379.000000	101.600725
1378.000000	101.599467
1377.000000	101.598028
1376.000000	101.597383
1375.000000	101.597531
1374.000000	101.598523
1373.000000	101.600375
1372.000000	101.602571
1371.000000	101.604452
1370.000000	101.605990
1369.000000	101.607218
1368.000000	101.607556
1367.000000	101.606075
1366.000000	101.602657
1365.000000	101.598894
1364.000000	101.597467
1363.000000	101.600015
1362.000000	101.605226
1361.000000	101.609870
1360.000000	101.612059
1359.000000	101.612348
1358.000000	101.612312
1357.000000	101.612974
1356.000000	101.614163
1355.000000	101.614633
1354.000000	101.613003
1353.000000	101.609163
1352.000000	101.604644
1351.000000	101.601225
1350.000000	101.599652
1349.000000	101.599264
1348.000000	101.599219
1347.000000	101.599405
1346.000000	101.600040
1345.000000	101.601042
1344.000000	101.602105
1343.000000	101.602756
1342.000000	101.602215
1341.000000	101.600022
1340.000000	101.597384
1339.000000	101.596724
1338.000000	101.598617
1337.000000	101.600738
1336.000000	101.600918
1335.000000	101.599602
1334.000000	101.598558
1333.000000	101.598454
1332.000000	101.598879
1331.000000	101.599991
1330.000000	101.602462
1329.000000	101.605717
1328.000000	101.607869
1327.000000	101.607919
1326.000000	101.607042
1325.000000	101.606996
1324.000000	101.608303
1323.000000	101.610195
1322.000000	101.611650
1321.000000	101.612219
1320.000000	101.612348
1319.000000	101.613018
1318.000000	101.614591
1317.000000	101.616215
1316.000000	101.616715
1315.000000	101.615694
1314.000000	101.613404
1313.000000	101.610180
1312.000000	101.606691
1311.000000	101.604321
1310.000000	101.604312
1309.000000	101.606355
1308.000000	101.608595
1307.000000	101.609344
1306.000000	101.608779
1305.000000	101.608536
1304.000000	101.609793
1303.000000	101.611842
1302.000000	101.612946
1301.000000	101.612692
1300.000000	101.612834
1299.000000	101.615006
1298.000000	101.618019
1297.000000	101.618765
1296.000000	101.615715
1295.000000	101.610383
1294.000000	101.605266
1293.000000	101.601819
1292.000000	101.600921
1291.000000	101.603258
1290.000000	101.607690
1289.000000	101.610593
1288.000000	101.608796
1287.000000	101.602796
1286.000000	101.595798
1285.000000	101.589920
1284.000000	101.584826
1283.000000	101.579780
1282.000000	101.575451
1281.000000	101.573387
1280.000000	101.574364
1279.000000	101.577280
1278.000000	101.579179
1277.000000	101.577108
1276.000000	101.570920
1275.000000	101.564066
1274.000000	101.560854
1273.000000	101.563125
1272.000000	101.569835
1271.000000	101.578769
1270.000000	101.587777
1269.000000	101.595391
1268.000000	101.601627
1267.000000	101.607799
1266.000000	101.614367
1265.000000	101.619446
1264.000000	101.620502
1263.000000	101.617209
1262.000000	101.611733
1261.000000	101.606511
1260.000000	101.602377
1259.000000	101.598431
1258.000000	101.592977
1257.000000	101.585210
1256.000000	101.576523
1255.000000	101.569340
1254.000000	101.564003
1253.000000	101.558057
1252.000000	101.549507
1251.000000	101.539447
1250.000000	101.530337
1249.000000	101.523125
1248.000000	101.517534
1247.000000	101.513539
1246.000000	101.510264
1245.000000	101.504651
1244.000000	101.493879
1243.000000	101.478976
1242.000000	101.463995
1241.000000	101.451576
1240.000000	101.441148
1239.000000	101.431349
1238.000000	101.421943
1237.000000	101.412642
1236.000000	101.401719
1235.000000	101.387029
1234.000000	101.367980
1233.000000	101.345820
1232.000000	101.322191
1231.000000	101.297713
1230.000000	101.271931
1229.000000	101.244410
1228.000000	101.215283
1227.000000	101.184110
1226.000000	101.149049
1225.000000	101.108790
1224.000000	101.065136
1223.000000	101.021430
1222.000000	100.977649
1221.000000	100.929181
1220.000000	100.871648
1219.000000	100.805295
1218.000000	100.733790
1217.000000	100.660682
1216.000000	100.588116
1215.000000	100.516632
1214.000000	100.444219
1213.000000	100.367734
1212.000000	100.287297
1211.000000	100.207167
1210.000000	100.130472
1209.000000	100.055811
1208.000000	99.981310
1207.000000	99.908640
1206.000000	99.839557
1205.000000	99.771163
1204.000000	99.698820
1203.000000	99.622310
1202.000000	99.545594
1201.000000	99.471495
1200.000000	99.399729
1199.000000	99.329514
1198.000000	99.260862
1197.000000	99.192946
1196.000000	99.123358
1195.000000	99.049983
1194.000000	98.973235
1193.000000	98.896267
1192.000000	98.822580
1191.000000	98.752566
1190.000000	98.682822
1189.000000	98.610053
1188.000000	98.534789
1187.000000	98.459476
1186.000000	98.384074
1185.000000	98.306294
1184.000000	98.225398
1183.000000	98.142542
1182.000000	98.057816
1181.000000	97.970175
1180.000000	97.879862
1179.000000	97.787649
1178.000000	97.692596
1177.000000	97.594481
1176.000000	97.497097
1175.000000	97.403817
1174.000000	97.310605
1173.000000	97.209717
1172.000000	97.100696
1171.000000	96.991135
1170.000000	96.885763
1169.000000	96.781870
1168.000000	96.677606
1167.000000	96.577884
1166.000000	96.489319
1165.000000	96.416208
1164.000000	96.365080
1163.000000	96.346427
1162.000000	96.366106
1161.000000	96.417342
1160.000000	96.482758
1159.000000	96.541426
1158.000000	96.575100
1157.000000	96.574426
1156.000000	96.542447
1155.000000	96.489576
1154.000000	96.423660
1153.000000	96.346969
1152.000000	96.261604
1151.000000	96.171990
1150.000000	96.081082
1149.000000	95.989598
1148.000000	95.900145
1147.000000	95.816500
1146.000000	95.737704
1145.000000	95.658684
1144.000000	95.577638
1143.000000	95.496697
1142.000000	95.414824
1141.000000	95.327306
1140.000000	95.233649
1139.000000	95.138666
1138.000000	95.044067
1137.000000	94.946543
1136.000000	94.846315
1135.000000	94.749538
1134.000000	94.659004
1133.000000	94.569749
1132.000000	94.477225
1131.000000	94.382983
1130.000000	94.289418
1129.000000	94.195840
1128.000000	94.102720
1127.000000	94.012923
1126.000000	93.925730
1125.000000	93.836279
1124.000000	93.743614
1123.000000	93.652761
1122.000000	93.566771
1121.000000	93.483362
1120.000000	93.400517
1119.000000	93.317427
1118.000000	93.229072
1117.000000	93.129579
1116.000000	93.023116
1115.000000	92.921981
1114.000000	92.831292
1113.000000	92.744946
1112.000000	92.658414
1111.000000	92.574433
1110.000000	92.493761
1109.000000	92.411906
1108.000000	92.328138
1107.000000	92.246594
1106.000000	92.165942
1105.000000	92.079909
1104.000000	91.991105
1103.000000	91.911556
1102.000000	91.845214
1101.000000	91.781682
1100.000000	91.711689
1099.000000	91.636952
1098.000000	91.561259
1097.000000	91.483876
1096.000000	91.406875
1095.000000	91.337118
1094.000000	91.275312
1093.000000	91.213488
1092.000000	91.148021
1091.000000	91.085257
1090.000000	91.030877
1089.000000	90.984046
1088.000000	90.944266
1087.000000	90.912469
1086.000000	90.883474
1085.000000	90.850193
1084.000000	90.817333
1083.000000	90.797039
1082.000000	90.788124
1081.000000	90.774220
1080.000000	90.746505
1079.000000	90.713550
1078.000000	90.683912
1077.000000	90.653085
1076.000000	90.613934
1075.000000	90.566599
1074.000000	90.511257
1073.000000	90.442622
1072.000000	90.357619
1071.000000	90.258281
1070.000000	90.142844
1069.000000	90.004475
1068.000000	89.842691
1067.000000	89.665782
1066.000000	89.479456
1065.000000	89.284335
1064.000000	89.086287
1063.000000	88.895446
1062.000000	88.712644
1061.000000	88.531731
1060.000000	88.357414
1059.000000	88.203417
1058.000000	88.068827
1057.000000	87.934259
1056.000000	87.787644
1055.000000	87.637200
1054.000000	87.492806
1053.000000	87.351439
1052.000000	87.209212
1051.000000	87.070729
1050.000000	86.935908
1049.000000	86.793729
1048.000000	86.639162
1047.000000	86.480402
1046.000000	86.322300
1045.000000	86.159243
1044.000000	85.989814
1043.000000	85.821840
1042.000000	85.657494
1041.000000	85.489619
1040.000000	85.318800
1039.000000	85.157610
1038.000000	85.011336
1037.000000	84.870944
1036.000000	84.731773
1035.000000	84.602603
1034.000000	84.488971
1033.000000	84.384386
1032.000000	84.285377
1031.000000	84.198717
1030.000000	84.126000
1029.000000	84.057091
1028.000000	83.986668
1027.000000	83.922064
1026.000000	83.867428
1025.000000	83.815037
1024.000000	83.758719
1023.000000	83.701101
1022.000000	83.642137
1021.000000	83.576037
1020.000000	83.504983
1019.000000	83.440026
1018.000000	83.382997
1017.000000	83.323139
1016.000000	83.256218
1015.000000	83.190326
1014.000000	83.128350
1013.000000	83.062364
1012.000000	82.990612
1011.000000	82.922143
1010.000000	82.858728
1009.000000	82.790245
1008.000000	82.714985
1007.000000	82.647084
1006.000000	82.595791
1005.000000	82.552962
1004.000000	82.508257
1003.000000	82.462200
1002.000000	82.418072
1001.000000	82.375584
1000.000000	82.338216
999.000000	82.312327
998.000000	82.294140
997.000000	82.271972
996.000000	82.245008
995.000000	82.224627
994.000000	82.214358
993.000000	82.205435
992.000000	82.195520
991.000000	82.193850
990.000000	82.203003
989.000000	82.213391
988.000000	82.221574
987.000000	82.237052
986.000000	82.265039
985.000000	82.299082
984.000000	82.336690
983.000000	82.386645
982.000000	82.454831
981.000000	82.537521
980.000000	82.633148
979.000000	82.745915
978.000000	82.874175
977.000000	83.010775
976.000000	83.158238
975.000000	83.327264
974.000000	83.516471
973.000000	83.709886
972.000000	83.898912
971.000000	84.091030
970.000000	84.292349
969.000000	84.497599
968.000000	84.702297
967.000000	84.909526
966.000000	85.119118
965.000000	85.324165
964.000000	85.523543
963.000000	85.725040
962.000000	85.931716
961.000000	86.137578
960.000000	86.339898
959.000000	86.542363
958.000000	86.742649
957.000000	86.930803
956.000000	87.104569
955.000000	87.273475
954.000000	87.442917
953.000000	87.605954
952.000000	87.755498
951.000000	87.893405
950.000000	88.023714
949.000000	88.147640
948.000000	88.268220
947.000000	88.388517
946.000000	88.502433
945.000000	88.599533
944.000000	88.682234
943.000000	88.766078
942.000000	88.859035
941.000000	88.952607
940.000000	89.037951
939.000000	89.117967
938.000000	89.198078
937.000000	89.276878
936.000000	89.352571
935.000000	89.428833
934.000000	89.508480
933.000000	89.589950
932.000000	89.674072
931.000000	89.764982
930.000000	89.860708
929.000000	89.952609
928.000000	90.037735
927.000000	90.122247
926.000000	90.209835
925.000000	90.297293
924.000000	90.384603
923.000000	90.477574
922.000000	90.575497
921.000000	90.667069
920.000000	90.744638
919.000000	90.813618
918.000000	90.882770
917.000000	90.953827
916.000000	91.025402
915.000000	91.098140
914.000000	91.170966
913.000000	91.240800
912.000000	91.311400
911.000000	91.394774
910.000000	91.498508
909.000000	91.618315
908.000000	91.746987
907.000000	91.884168
906.000000	92.033982
905.000000	92.199606
904.000000	92.382481
903.000000	92.579883
902.000000	92.781576
901.000000	92.976582
900.000000	93.165362
899.000000	93.358477
898.000000	93.562205
897.000000	93.771768
896.000000	93.978137
895.000000	94.173548
894.000000	94.351139
893.000000	94.509078
892.000000	94.656825
891.000000	94.808849
890.000000	94.969364
889.000000	95.129792
888.000000	95.282026
887.000000	95.426007
886.000000	95.563181
885.000000	95.691733
884.000000	95.812097
883.000000	95.930425
882.000000	96.052958
881.000000	96.181520
880.000000	96.315599
879.000000	96.453117
878.000000	96.589279
877.000000	96.721486
876.000000	96.854535
875.000000	96.992991
874.000000	97.130282
873.000000	97.255978
872.000000	97.373248
871.000000	97.497363
870.000000	97.635363
869.000000	97.778334
868.000000	97.916263
867.000000	98.048980
866.000000	98.178370
865.000000	98.300349
864.000000	98.411047
863.000000	98.513569
862.000000	98.612627
861.000000	98.708563
860.000000	98.802553
859.000000	98.901755
858.000000	99.011774
857.000000	99.126891
856.000000	99.233882
855.000000	99.324359
854.000000	99.400157
853.000000	99.469157
852.000000	99.539163
851.000000	99.613029
850.000000	99.685668
849.000000	99.747499
848.000000	99.793443
847.000000	99.826587
846.000000	99.851285
845.000000	99.866279
844.000000	99.867999
843.000000	99.857247
842.000000	99.837912
841.000000	99.810835
840.000000	99.773385
839.000000	99.724243
838.000000	99.665106
837.000000	99.598874
836.000000	99.530151
835.000000	99.467122
834.000000	99.418576
833.000000	99.387035
832.000000	99.366273
831.000000	99.346844
830.000000	99.324807
829.000000	99.306322
828.000000	99.303370
827.000000	99.322560
826.000000	99.357174
825.000000	99.392261
824.000000	99.417902
823.000000	99.434979
822.000000	99.448708
821.000000	99.460642
820.000000	99.467641
819.000000	99.464968
818.000000	99.448362
817.000000	99.413909
816.000000	99.356504
815.000000	99.269522
814.000000	99.148303
813.000000	98.993090
812.000000	98.803268
811.000000	98.566654
810.000000	98.261041
809.000000	97.873627
808.000000	97.416729
807.000000	96.917688
806.000000	96.394462
805.000000	95.849769
804.000000	95.290265
803.000000	94.741136
802.000000	94.237074
801.000000	93.807009
800.000000	93.470536
799.000000	93.237487
798.000000	93.104076
797.000000	93.057291
796.000000	93.086137
795.000000	93.180350
794.000000	93.318919
793.000000	93.472903
792.000000	93.621969
791.000000	93.757297
790.000000	93.867345
789.000000	93.933451
788.000000	93.943498
787.000000	93.899926
786.000000	93.809957
785.000000	93.676296
784.000000	93.502108
783.000000	93.298273
782.000000	93.082007
781.000000	92.875053
780.000000	92.705901
779.000000	92.604425
778.000000	92.587540
777.000000	92.653471
776.000000	92.789626
775.000000	92.978494
774.000000	93.197538
773.000000	93.424841
772.000000	93.647583
771.000000	93.858884
770.000000	94.048930
769.000000	94.208484
768.000000	94.339072
767.000000	94.448964
766.000000	94.539518
765.000000	94.606356
764.000000	94.654452
763.000000	94.700072
762.000000	94.754576
761.000000	94.816344
760.000000	94.882217
759.000000	94.956954
758.000000	95.046209
757.000000	95.147642
756.000000	95.253471
755.000000	95.356396
754.000000	95.451209
753.000000	95.536928
752.000000	95.618808
751.000000	95.702242
750.000000	95.784135
749.000000	95.856976
748.000000	95.921804
747.000000	95.989868
746.000000	96.071242
745.000000	96.170084
744.000000	96.291412
743.000000	96.441436
742.000000	96.616273
741.000000	96.798075
740.000000	96.967865
739.000000	97.118724
738.000000	97.255104
737.000000	97.384698
736.000000	97.512998
735.000000	97.640726
734.000000	97.763881
733.000000	97.878112
732.000000	97.982016
731.000000	98.073408
730.000000	98.145794
729.000000	98.194393
728.000000	98.224016
727.000000	98.245348
726.000000	98.265392
725.000000	98.288094
724.000000	98.321568
723.000000	98.375740
722.000000	98.452719
721.000000	98.546029
720.000000	98.648099
719.000000	98.751664
718.000000	98.846393
717.000000	98.923846
716.000000	98.985817
715.000000	99.040104
714.000000	99.088709
713.000000	99.128351
712.000000	99.161439
711.000000	99.195425
710.000000	99.229810
709.000000	99.254592
708.000000	99.264640
707.000000	99.266227
706.000000	99.265147
705.000000	99.256340
704.000000	99.228408
703.000000	99.169390
702.000000	99.064554
701.000000	98.898159
700.000000	98.664247
699.000000	98.373352
698.000000	98.049860
697.000000	97.732133
696.000000	97.474330
695.000000	97.329857
694.000000	97.320604
693.000000	97.423442
692.000000	97.587677
691.000000	97.765385
690.000000	97.929584
689.000000	98.075084
688.000000	98.208764
687.000000	98.334267
686.000000	98.444469
685.000000	98.533590
684.000000	98.612110
683.000000	98.697277
682.000000	98.788211
681.000000	98.863867
680.000000	98.911349
679.000000	98.945378
678.000000	98.990824
677.000000	99.054956
676.000000	99.124858
675.000000	99.186826
674.000000	99.237576
673.000000	99.281387
672.000000	99.326091
671.000000	99.381467
670.000000	99.457895
669.000000	99.560135
668.000000	99.664216
667.000000	99.730989
666.000000	99.768107
665.000000	99.796978
664.000000	99.819790
663.000000	99.834891
662.000000	99.843315
661.000000	99.848760
660.000000	99.859293
659.000000	99.883657
658.000000	99.918643
657.000000	99.945177
656.000000	99.943640
655.000000	99.910405
654.000000	99.856961
653.000000	99.800783
652.000000	99.762738
651.000000	99.761612
650.000000	99.795757
