4000.000000	100.162942
3999.000000	100.162423
3998.000000	100.159275
3997.000000	100.153040
3996.000000	100.145242
3995.000000	100.138921
3994.000000	100.136151
3993.000000	100.137218
3992.000000	100.140724
3991.000000	100.144290
3990.000000	100.146093
3989.000000	100.145530
3988.000000	100.143028
3987.000000	100.139792
3986.000000	100.137239
3985.000000	100.136226
3984.000000	100.136735
3983.000000	100.138182
3982.000000	100.139812
3981.000000	100.140866
3980.000000	100.140715
3979.000000	100.139174
3978.000000	100.136742
3977.000000	100.134335
3976.000000	100.132591
3975.000000	100.131481
3974.000000	100.130559
3973.000000	100.129489
3972.000000	100.128255
3971.000000	100.126867
3970.000000	100.125100
3969.000000	100.122771
3968.000000	100.120306
3967.000000	100.118712
3966.000000	100.118814
3965.000000	100.120505
3964.000000	100.122747
3963.000000	100.124434
3962.000000	100.125228
3961.000000	100.125519
3960.000000	100.125856
3959.000000	100.126473
3958.000000	100.127204
3957.000000	100.127722
3956.000000	100.127813
3955.000000	100.127530
3954.000000	100.127074
3953.000000	100.126572
3952.000000	100.125992
3951.000000	100.125282
3950.000000	100.124521
3949.000000	100.123922
3948.000000	100.123716
3947.000000	100.124031
3946.000000	100.124800
3945.000000	100.125729
3944.000000	100.126328
3943.000000	100.126200
3942.000000	100.125429
3941.000000	100.124623
3940.000000	100.124443
3939.000000	100.125051
3938.000000	100.125951
3937.000000	100.126410
3936.000000	100.126095
3935.000000	100.125287
3934.000000	100.124593
3933.000000	100.124448
3932.000000	100.124859
3931.000000	100.125469
3930.000000	100.125775
3929.000000	100.125380
3928.000000	100.124293
3927.000000	100.123063
3926.000000	100.122397
3925.000000	100.122489
3924.000000	100.122902
3923.000000	100.123064
3922.000000	100.122747
3921.000000	100.122071
3920.000000	100.121268
3919.000000	100.120486
3918.000000	100.119663
3917.000000	100.118598
3916.000000	100.117227
3915.000000	100.115812
3914.000000	100.114748
3913.000000	100.114222
3912.000000	100.114150
3911.000000	100.114286
3910.000000	100.114336
3909.000000	100.114031
3908.000000	100.113223
3907.000000	100.112009
3906.000000	100.110720
3905.000000	100.109652
3904.000000	100.108836
3903.000000	100.108126
3902.000000	100.107505
3901.000000	100.107205
3900.000000	100.107411
3899.000000	100.108010
3898.000000	100.108645
3897.000000	100.108918
3896.000000	100.108581
3895.000000	100.107627
3894.000000	100.106391
3893.000000	100.105472
3892.000000	100.105323
3891.000000	100.105801
3890.000000	100.106298
3889.000000	100.106439
3888.000000	100.106439
3887.000000	100.106699
3886.000000	100.107303
3885.000000	100.107928
3884.000000	100.108241
3883.000000	100.108160
3882.000000	100.107758
3881.000000	100.107219
3880.000000	100.106893
3879.000000	100.107130
3878.000000	100.108042
3877.000000	100.109493
3876.000000	100.111136
3875.000000	100.112431
3874.000000	100.112843
3873.000000	100.112239
3872.000000	100.111058
3871.000000	100.109987
3870.000000	100.109456
3869.000000	100.109589
3868.000000	100.110495
3867.000000	100.112204
3866.000000	100.114306
3865.000000	100.116006
3864.000000	100.116918
3863.000000	100.117369
3862.000000	100.117878
3861.000000	100.118566
3860.000000	100.119232
3859.000000	100.119648
3858.000000	100.119785
3857.000000	100.119821
3856.000000	100.119976
3855.000000	100.120278
3854.000000	100.120557
3853.000000	100.120728
3852.000000	100.120904
3851.000000	100.121167
3850.000000	100.121496
3849.000000	100.121796
3848.000000	100.121984
3847.000000	100.122047
3846.000000	100.122034
3845.000000	100.122044
3844.000000	100.122175
3843.000000	100.122420
3842.000000	100.122694
3841.000000	100.122937
3840.000000	100.123163
3839.000000	100.123434
3838.000000	100.123789
3837.000000	100.124166
3836.000000	100.124436
3835.000000	100.124534
3834.000000	100.124498
3833.000000	100.124418
3832.000000	100.124375
3831.000000	100.124440
3830.000000	100.124656
3829.000000	100.125020
3828.000000	100.125473
3827.000000	100.125881
3826.000000	100.126096
3825.000000	100.126071
3824.000000	100.125855
3823.000000	100.125611
3822.000000	100.125474
3821.000000	100.125475
3820.000000	100.125578
3819.000000	100.125768
3818.000000	100.126056
3817.000000	100.126392
3816.000000	100.126650
3815.000000	100.126764
3814.000000	100.126823
3813.000000	100.126978
3812.000000	100.127270
3811.000000	100.127599
3810.000000	100.127844
3809.000000	100.127983
3808.000000	100.128082
3807.000000	100.128156
3806.000000	100.128139
3805.000000	100.127996
3804.000000	100.127791
3803.000000	100.127505
3802.000000	100.126979
3801.000000	100.126208
3800.000000	100.125535
3799.000000	100.125354
3798.000000	100.125697
3797.000000	100.126180
3796.000000	100.126369
3795.000000	100.126266
3794.000000	100.126265
3793.000000	100.126646
3792.000000	100.127289
3791.000000	100.127936
3790.000000	100.128524
3789.000000	100.129195
3788.000000	100.130110
3787.000000	100.131335
3786.000000	100.132606
3785.000000	100.133155
3784.000000	100.132196
3783.000000	100.129883
3782.000000	100.127631
3781.000000	100.126867
3780.000000	100.127804
3779.000000	100.129503
3778.000000	100.131007
3777.000000	100.131958
3776.000000	100.132056
3775.000000	100.130590
3774.000000	100.127127
3773.000000	100.122563
3772.000000	100.118928
3771.000000	100.117577
3770.000000	100.118110
3769.000000	100.119143
3768.000000	100.119755
3767.000000	100.119819
3766.000000	100.119336
3765.000000	100.118205
3764.000000	100.116791
3763.000000	100.116142
3762.000000	100.117087
3761.000000	100.119212
3760.000000	100.121598
3759.000000	100.124128
3758.000000	100.127067
3757.000000	100.129798
3756.000000	100.131447
3755.000000	100.132312
3754.000000	100.133398
3753.000000	100.134660
3752.000000	100.134612
3751.000000	100.132203
3750.000000	100.127891
3749.000000	100.122151
3748.000000	100.115598
3747.000000	100.110737
3746.000000	100.110113
3745.000000	100.113143
3744.000000	100.116089
3743.000000	100.116127
3742.000000	100.113811
3741.000000	100.110529
3740.000000	100.106616
3739.000000	100.102548
3738.000000	100.099971
3737.000000	100.100220
3736.000000	100.102043
3735.000000	100.102717
3734.000000	100.101588
3733.000000	100.100297
3732.000000	100.100071
3731.000000	100.100563
3730.000000	100.100761
3729.000000	100.099815
3728.000000	100.096528
3727.000000	100.089701
3726.000000	100.080097
3725.000000	100.071218
3724.000000	100.066377
3723.000000	100.065651
3722.000000	100.066743
3721.000000	100.067464
3720.000000	100.067210
3719.000000	100.066545
3718.000000	100.065689
3717.000000	100.063891
3716.000000	100.060492
3715.000000	100.055640
3714.000000	100.049485
3713.000000	100.041247
3712.000000	100.030465
3711.000000	100.019006
3710.000000	100.010375
3709.000000	100.006495
3708.000000	100.005444
3707.000000	100.002508
3706.000000	99.993787
3705.000000	99.979436
3704.000000	99.963807
3703.000000	99.952229
3702.000000	99.946848
3701.000000	99.945649
3700.000000	99.945614
3699.000000	99.945869
3698.000000	99.946712
3697.000000	99.946811
3696.000000	99.943818
3695.000000	99.937438
3694.000000	99.930114
3693.000000	99.924565
3692.000000	99.922049
3691.000000	99.922577
3690.000000	99.925529
3689.000000	99.929536
3688.000000	99.932288
3687.000000	99.931835
3686.000000	99.928809
3685.000000	99.925379
3684.000000	99.921948
3683.000000	99.916977
3682.000000	99.909574
3681.000000	99.900918
3680.000000	99.892424
3679.000000	99.884935
3678.000000	99.879501
3677.000000	99.875555
3676.000000	99.868734
3675.000000	99.855287
3674.000000	99.837681
3673.000000	99.821997
3672.000000	99.811647
3671.000000	99.803791
3670.000000	99.792518
3669.000000	99.776881
3668.000000	99.762226
3667.000000	99.752600
3666.000000	99.746595
3665.000000	99.739452
3664.000000	99.727440
3663.000000	99.711105
3662.000000	99.694358
3661.000000	99.680804
3660.000000	99.671181
3659.000000	99.664299
3658.000000	99.658659
3657.000000	99.652905
3656.000000	99.645541
3655.000000	99.635653
3654.000000	99.624271
3653.000000	99.614314
3652.000000	99.608083
3651.000000	99.604023
3650.000000	99.596797
3649.000000	99.582871
3648.000000	99.565236
3647.000000	99.549492
3646.000000	99.538458
3645.000000	99.532124
3644.000000	99.529577
3643.000000	99.529391
3642.000000	99.528731
3641.000000	99.523932
3640.000000	99.512717
3639.000000	99.495928
3638.000000	99.476886
3637.000000	99.459456
3636.000000	99.446067
3635.000000	99.436467
3634.000000	99.428443
3633.000000	99.420934
3632.000000	99.416404
3631.000000	99.418427
3630.000000	99.425827
3629.000000	99.430881
3628.000000	99.427623
3627.000000	99.418039
3626.000000	99.406658
3625.000000	99.395828
3624.000000	99.386303
3623.000000	99.379329
3622.000000	99.377780
3621.000000	99.384160
3620.000000	99.397493
3619.000000	99.413094
3618.000000	99.426055
3617.000000	99.434846
3616.000000	99.441986
3615.000000	99.451237
3614.000000	99.463751
3613.000000	99.476887
3612.000000	99.486984
3611.000000	99.492513
3610.000000	99.494165
3609.000000	99.493126
3608.000000	99.490879
3607.000000	99.489963
3606.000000	99.492822
3605.000000	99.499832
3604.000000	99.509229
3603.000000	99.519059
3602.000000	99.528933
3601.000000	99.539425
3600.000000	99.550380
3599.000000	99.560702
3598.000000	99.568922
3597.000000	99.574168
3596.000000	99.576881
3595.000000	99.578345
3594.000000	99.579687
3593.000000	99.581232
3592.000000	99.582465
3591.000000	99.583051
3590.000000	99.583508
3589.000000	99.584441
3588.000000	99.585454
3587.000000	99.585844
3586.000000	99.585929
3585.000000	99.586846
3584.000000	99.589154
3583.000000	99.592147
3582.000000	99.594058
3581.000000	99.593402
3580.000000	99.590313
3579.000000	99.586405
3578.000000	99.583149
3577.000000	99.580795
3576.000000	99.579292
3575.000000	99.579322
3574.000000	99.581552
3573.000000	99.585013
3572.000000	99.587139
3571.000000	99.585928
3570.000000	99.581761
3569.000000	99.576609
3568.000000	99.571837
3567.000000	99.567892
3566.000000	99.565922
3565.000000	99.567545
3564.000000	99.572847
3563.000000	99.579780
3562.000000	99.585547
3561.000000	99.588462
3560.000000	99.588572
3559.000000	99.586873
3558.000000	99.584386
3557.000000	99.581859
3556.000000	99.579866
3555.000000	99.578816
3554.000000	99.578900
3553.000000	99.580080
3552.000000	99.582022
3551.000000	99.583971
3550.000000	99.584972
3549.000000	99.584444
3548.000000	99.582552
3547.000000	99.580074
3546.000000	99.577927
3545.000000	99.576689
3544.000000	99.576510
3543.000000	99.577243
3542.000000	99.578495
3541.000000	99.579722
3540.000000	99.580501
3539.000000	99.580802
3538.000000	99.580944
3537.000000	99.581333
3536.000000	99.582165
3535.000000	99.583280
3534.000000	99.584253
3533.000000	99.584743
3532.000000	99.584924
3531.000000	99.585571
3530.000000	99.587486
3529.000000	99.590665
3528.000000	99.594015
3527.000000	99.596141
3526.000000	99.596514
3525.000000	99.595746
3524.000000	99.594925
3523.000000	99.594782
3522.000000	99.595438
3521.000000	99.596657
3520.000000	99.597962
3519.000000	99.598609
3518.000000	99.597890
3517.000000	99.595918
3516.000000	99.594000
3515.000000	99.593724
3514.000000	99.595526
3513.000000	99.598305
3512.000000	99.600491
3511.000000	99.601435
3510.000000	99.601556
3509.000000	99.601346
3508.000000	99.600677
3507.000000	99.599238
3506.000000	99.597329
3505.000000	99.595964
3504.000000	99.596213
3503.000000	99.598487
3502.000000	99.602277
3501.000000	99.606446
3500.000000	99.609965
3499.000000	99.612612
3498.000000	99.615013
3497.000000	99.617875
3496.000000	99.620989
3495.000000	99.623079
3494.000000	99.622782
3493.000000	99.619790
3492.000000	99.615131
3491.000000	99.610583
3490.000000	99.607702
3489.000000	99.607184
3488.000000	99.608818
3487.000000	99.611690
3486.000000	99.614471
3485.000000	99.615914
3484.000000	99.615374
3483.000000	99.613091
3482.000000	99.610013
3481.000000	99.607165
3480.000000	99.605164
3479.000000	99.604275
3478.000000	99.604572
3477.000000	99.605780
3476.000000	99.607085
3475.000000	99.607512
3474.000000	99.606762
3473.000000	99.605484
3472.000000	99.604614
3471.000000	99.604459
3470.000000	99.604581
3469.000000	99.604511
3468.000000	99.604293
3467.000000	99.604236
3466.000000	99.604308
3465.000000	99.604065
3464.000000	99.603192
3463.000000	99.601917
3462.000000	99.600760
3461.000000	99.599915
3460.000000	99.599043
3459.000000	99.597730
3458.000000	99.596067
3457.000000	99.594661
3456.000000	99.594003
3455.000000	99.593962
3454.000000	99.593953
3453.000000	99.593559
3452.000000	99.592862
3451.000000	99.592195
3450.000000	99.591697
3449.000000	99.591185
3448.000000	99.590482
3447.000000	99.589731
3446.000000	99.589162
3445.000000	99.588576
3444.000000	99.587433
3443.000000	99.585521
3442.000000	99.583372
3441.000000	99.581889
3440.000000	99.581556
3439.000000	99.582082
3438.000000	99.582592
3437.000000	99.582218
3436.000000	99.580641
3435.000000	99.578182
3434.000000	99.575482
3433.000000	99.572951
3432.000000	99.570641
3431.000000	99.568700
3430.000000	99.567654
3429.000000	99.567911
3428.000000	99.569037
3427.000000	99.569886
3426.000000	99.569672
3425.000000	99.568659
3424.000000	99.567755
3423.000000	99.567531
3422.000000	99.567753
3421.000000	99.567802
3420.000000	99.567410
3419.000000	99.566907
3418.000000	99.566768
3417.000000	99.567044
3416.000000	99.567282
3415.000000	99.566997
3414.000000	99.566179
3413.000000	99.565306
3412.000000	99.564875
3411.000000	99.565002
3410.000000	99.565443
3409.000000	99.565847
3408.000000	99.565957
3407.000000	99.565709
3406.000000	99.565308
3405.000000	99.565181
3404.000000	99.565714
3403.000000	99.566944
3402.000000	99.568491
3401.000000	99.569770
3400.000000	99.570344
3399.000000	99.570122
3398.000000	99.569367
3397.000000	99.568609
3396.000000	99.568372
3395.000000	99.568874
3394.000000	99.569944
3393.000000	99.571156
3392.000000	99.572158
3391.000000	99.572911
3390.000000	99.573621
3389.000000	99.574456
3388.000000	99.575315
3387.000000	99.575891
3386.000000	99.575963
3385.000000	99.575682
3384.000000	99.575589
3383.000000	99.576318
3382.000000	99.578190
3381.000000	99.581018
3380.000000	99.584142
3379.000000	99.586741
3378.000000	99.588338
3377.000000	99.589023
3376.000000	99.589272
3375.000000	99.589486
3374.000000	99.589759
3373.000000	99.590032
3372.000000	99.590321
3371.000000	99.590724
3370.000000	99.591345
3369.000000	99.592296
3368.000000	99.593668
3367.000000	99.595387
3366.000000	99.597108
3365.000000	99.598413
3364.000000	99.599237
3363.000000	99.600057
3362.000000	99.601527
3361.000000	99.603840
3360.000000	99.606468
3359.000000	99.608594
3358.000000	99.609813
3357.000000	99.610344
3356.000000	99.610681
3355.000000	99.611172
3354.000000	99.611992
3353.000000	99.613263
3352.000000	99.614969
3351.000000	99.616849
3350.000000	99.618536
3349.000000	99.619803
3348.000000	99.620585
3347.000000	99.620859
3346.000000	99.620727
3345.000000	99.620601
3344.000000	99.621025
3343.000000	99.622206
3342.000000	99.623807
3341.000000	99.625235
3340.000000	99.626086
3339.000000	99.626324
3338.000000	99.626193
3337.000000	99.626108
3336.000000	99.626521
3335.000000	99.627680
3334.000000	99.629444
3333.000000	99.631358
3332.000000	99.632958
3331.000000	99.634004
3330.000000	99.634497
3329.000000	99.634605
3328.000000	99.634620
3327.000000	99.634856
3326.000000	99.635459
3325.000000	99.636313
3324.000000	99.637183
3323.000000	99.637961
3322.000000	99.638765
3321.000000	99.639831
3320.000000	99.641359
3319.000000	99.643398
3318.000000	99.645741
3317.000000	99.647920
3316.000000	99.649438
3315.000000	99.650087
3314.000000	99.650059
3313.000000	99.649793
3312.000000	99.649743
3311.000000	99.650249
3310.000000	99.651492
3309.000000	99.653373
3308.000000	99.655453
3307.000000	99.657200
3306.000000	99.658431
3305.000000	99.659439
3304.000000	99.660665
3303.000000	99.662221
3302.000000	99.663779
3301.000000	99.664915
3300.000000	99.665508
3299.000000	99.665786
3298.000000	99.666130
3297.000000	99.666814
3296.000000	99.667876
3295.000000	99.669143
3294.000000	99.670389
3293.000000	99.671514
3292.000000	99.672556
3291.000000	99.673564
3290.000000	99.674525
3289.000000	99.675431
3288.000000	99.676352
3287.000000	99.677353
3286.000000	99.678371
3285.000000	99.679227
3284.000000	99.679807
3283.000000	99.680186
3282.000000	99.680572
3281.000000	99.681141
3280.000000	99.681914
3279.000000	99.682773
3278.000000	99.683577
3277.000000	99.684255
3276.000000	99.684827
3275.000000	99.685359
3274.000000	99.685925
3273.000000	99.686599
3272.000000	99.687430
3271.000000	99.688412
3270.000000	99.689448
3269.000000	99.690371
3268.000000	99.691056
3267.000000	99.691508
3266.000000	99.691858
3265.000000	99.692253
3264.000000	99.692749
3263.000000	99.693326
3262.000000	99.693945
3261.000000	99.694591
3260.000000	99.695257
3259.000000	99.695936
3258.000000	99.696623
3257.000000	99.697295
3256.000000	99.697908
3255.000000	99.698426
3254.000000	99.698870
3253.000000	99.699334
3252.000000	99.699892
3251.000000	99.700538
3250.000000	99.701209
3249.000000	99.701853
3248.000000	99.702473
3247.000000	99.703074
3246.000000	99.703639
3245.000000	99.704156
3244.000000	99.704663
3243.000000	99.705252
3242.000000	99.706004
3241.000000	99.706927
3240.000000	99.707932
3239.000000	99.708872
3238.000000	99.709664
3237.000000	99.710343
3236.000000	99.711047
3235.000000	99.711884
3234.000000	99.712830
3233.000000	99.713775
3232.000000	99.714657
3231.000000	99.715489
3230.000000	99.716273
3229.000000	99.716959
3228.000000	99.717542
3227.000000	99.718123
3226.000000	99.718789
3225.000000	99.719515
3224.000000	99.720250
3223.000000	99.721032
3222.000000	99.721908
3221.000000	99.722780
3220.000000	99.723439
3219.000000	99.723797
3218.000000	99.724020
3217.000000	99.724403
3216.000000	99.725110
3215.000000	99.726059
3214.000000	99.727049
3213.000000	99.727958
3212.000000	99.728798
3211.000000	99.729618
3210.000000	99.730434
3209.000000	99.731281
3208.000000	99.732228
3207.000000	99.733289
3206.000000	99.734391
3205.000000	99.735480
3204.000000	99.736594
3203.000000	99.737750
3202.000000	99.738816
3201.000000	99.739615
3200.000000	99.740148
3199.000000	99.740617
3198.000000	99.741222
3197.000000	99.741989
3196.000000	99.742766
3195.000000	99.743353
3194.000000	99.743634
3193.000000	99.743643
3192.000000	99.743560
3191.000000	99.743613
3190.000000	99.744002
3189.000000	99.744894
3188.000000	99.746356
3187.000000	99.748203
3186.000000	99.749950
3185.000000	99.751142
3184.000000	99.751750
3183.000000	99.752201
3182.000000	99.752992
3181.000000	99.754227
3180.000000	99.755594
3179.000000	99.756686
3178.000000	99.757312
3177.000000	99.757573
3176.000000	99.757784
3175.000000	99.758266
3174.000000	99.759135
3173.000000	99.760318
3172.000000	99.761700
3171.000000	99.763138
3170.000000	99.764283
3169.000000	99.764645
3168.000000	99.764109
3167.000000	99.763348
3166.000000	99.763405
3165.000000	99.764739
3164.000000	99.766869
3163.000000	99.768898
3162.000000	99.770379
3161.000000	99.771490
3160.000000	99.772594
3159.000000	99.773846
3158.000000	99.775158
3157.000000	99.776371
3156.000000	99.777430
3155.000000	99.778438
3154.000000	99.779488
3153.000000	99.780368
3152.000000	99.780568
3151.000000	99.779738
3150.000000	99.778173
3149.000000	99.776724
3148.000000	99.776182
3147.000000	99.776809
3146.000000	99.778344
3145.000000	99.780193
3144.000000	99.781667
3143.000000	99.782430
3142.000000	99.783001
3141.000000	99.784553
3140.000000	99.787825
3139.000000	99.792178
3138.000000	99.795903
3137.000000	99.797835
3136.000000	99.798405
3135.000000	99.799062
3134.000000	99.800745
3133.000000	99.803048
3132.000000	99.804896
3131.000000	99.805693
3130.000000	99.805643
3129.000000	99.805248
3128.000000	99.804823
3127.000000	99.804564
3126.000000	99.804818
3125.000000	99.805925
3124.000000	99.807721
3123.000000	99.809379
3122.000000	99.810030
3121.000000	99.809620
3120.000000	99.809010
3119.000000	99.809185
3118.000000	99.810324
3117.000000	99.811829
3116.000000	99.813097
3115.000000	99.814138
3114.000000	99.815336
3113.000000	99.816822
3112.000000	99.818283
3111.000000	99.819344
3110.000000	99.819975
3109.000000	99.820492
3108.000000	99.821229
3107.000000	99.822232
3106.000000	99.823272
3105.000000	99.824124
3104.000000	99.824768
3103.000000	99.825344
3102.000000	99.825988
3101.000000	99.826733
3100.000000	99.827531
3099.000000	99.828335
3098.000000	99.829137
3097.000000	99.829927
3096.000000	99.830650
3095.000000	99.831231
3094.000000	99.831661
3093.000000	99.832063
3092.000000	99.832622
3091.000000	99.833465
3090.000000	99.834577
3089.000000	99.835791
3088.000000	99.836879
3087.000000	99.837697
3086.000000	99.838279
3085.000000	99.838827
3084.000000	99.839489
3083.000000	99.840215
3082.000000	99.840872
3081.000000	99.841441
3080.000000	99.841976
3079.000000	99.842455
3078.000000	99.842879
3077.000000	99.843505
3076.000000	99.844694
3075.000000	99.846365
3074.000000	99.847789
3073.000000	99.848237
3072.000000	99.847732
3071.000000	99.846967
3070.000000	99.846577
3069.000000	99.846826
3068.000000	99.847895
3067.000000	99.849886
3066.000000	99.852429
3065.000000	99.854803
3064.000000	99.856681
3063.000000	99.858383
3062.000000	99.860216
3061.000000	99.861930
3060.000000	99.863108
3059.000000	99.863866
3058.000000	99.864828
3057.000000	99.866383
3056.000000	99.868162
3055.000000	99.869323
3054.000000	99.869350
3053.000000	99.868528
3052.000000	99.867597
3051.000000	99.866921
3050.000000	99.866218
3049.000000	99.865368
3048.000000	99.865189
3047.000000	99.866757
3046.000000	99.869909
3045.000000	99.872954
3044.000000	99.874292
3043.000000	99.873965
3042.000000	99.873200
3041.000000	99.872805
3040.000000	99.872526
3039.000000	99.871859
3038.000000	99.870814
3037.000000	99.869745
3036.000000	99.868906
3035.000000	99.868445
3034.000000	99.868605
3033.000000	99.869745
3032.000000	99.872284
3031.000000	99.876532
3030.000000	99.882185
3029.000000	99.887896
3028.000000	99.891857
3027.000000	99.893188
3026.000000	99.892670
3025.000000	99.892048
3024.000000	99.892694
3023.000000	99.894900
3022.000000	99.898037
3021.000000	99.900941
3020.000000	99.902503
3019.000000	99.902526
3018.000000	99.901998
3017.000000	99.902067
3016.000000	99.902714
3015.000000	99.903030
3014.000000	99.902810
3013.000000	99.903133
3012.000000	99.905035
3011.000000	99.908392
3010.000000	99.912492
3009.000000	99.916880
3008.000000	99.920906
3007.000000	99.923295
3006.000000	99.923524
3005.000000	99.923388
3004.000000	99.925689
3003.000000	99.930973
3002.000000	99.936727
3001.000000	99.940270
3000.000000	99.941659
2999.000000	99.942857
2998.000000	99.944863
2997.000000	99.946869
2996.000000	99.948060
2995.000000	99.949142
2994.000000	99.951772
2993.000000	99.957036
2992.000000	99.964672
2991.000000	99.973212
2990.000000	99.980601
2989.000000	99.985238
2988.000000	99.987005
2987.000000	99.987502
2986.000000	99.989081
2985.000000	99.993280
2984.000000	99.999834
2983.000000	100.006941
2982.000000	100.012676
2981.000000	100.016456
2980.000000	100.019275
2979.000000	100.022501
2978.000000	100.026594
2977.000000	100.030993
2976.000000	100.034736
2975.000000	100.036842
2974.000000	100.036673
2973.000000	100.034712
2972.000000	100.032873
2971.000000	100.033263
2970.000000	100.036359
2969.000000	100.040701
2968.000000	100.044195
2967.000000	100.045254
2966.000000	100.043084
2965.000000	100.038113
2964.000000	100.032519
2963.000000	100.029265
2962.000000	100.029850
2961.000000	100.033482
2960.000000	100.038584
2959.000000	100.044106
2958.000000	100.048756
2957.000000	100.050327
2956.000000	100.047448
2955.000000	100.041497
2954.000000	100.035389
2953.000000	100.030537
2952.000000	100.026334
2951.000000	100.022323
2950.000000	100.019272
2949.000000	100.017874
2948.000000	100.018070
2947.000000	100.020171
2946.000000	100.024982
2945.000000	100.031800
2944.000000	100.037755
2943.000000	100.040754
2942.000000	100.042393
2941.000000	100.046379
2940.000000	100.054531
2939.000000	100.065408
2938.000000	100.076286
2937.000000	100.084954
2936.000000	100.090062
2935.000000	100.091817
2934.000000	100.093033
2933.000000	100.097931
2932.000000	100.108670
2931.000000	100.123461
2930.000000	100.138352
2929.000000	100.150177
2928.000000	100.157746
2927.000000	100.161631
2926.000000	100.163702
2925.000000	100.165791
2924.000000	100.167682
2923.000000	100.167083
2922.000000	100.162421
2921.000000	100.155019
2920.000000	100.147505
2919.000000	100.140672
2918.000000	100.133066
2917.000000	100.123610
2916.000000	100.113456
2915.000000	100.104970
2914.000000	100.099465
2913.000000	100.096306
2912.000000	100.093868
2911.000000	100.091159
2910.000000	100.088479
2909.000000	100.086491
2908.000000	100.084960
2907.000000	100.083029
2906.000000	100.080798
2905.000000	100.079725
2904.000000	100.080723
2903.000000	100.082298
2902.000000	100.081434
2901.000000	100.076409
2900.000000	100.068754
2899.000000	100.062290
2898.000000	100.060412
2897.000000	100.063598
2896.000000	100.069077
2895.000000	100.073159
2894.000000	100.074184
2893.000000	100.072894
2892.000000	100.070194
2891.000000	100.065862
2890.000000	100.060036
2889.000000	100.054565
2888.000000	100.051419
2887.000000	100.050328
2886.000000	100.049280
2885.000000	100.046929
2884.000000	100.043423
2883.000000	100.039398
2882.000000	100.035710
2881.000000	100.033953
2880.000000	100.035464
2879.000000	100.039290
2878.000000	100.042510
2877.000000	100.043431
2876.000000	100.043324
2875.000000	100.044183
2874.000000	100.045835
2873.000000	100.046355
2872.000000	100.044632
2871.000000	100.041467
2870.000000	100.038592
2869.000000	100.037630
2868.000000	100.039524
2867.000000	100.043791
2866.000000	100.048296
2865.000000	100.050730
2864.000000	100.050596
2863.000000	100.049408
2862.000000	100.049314
2861.000000	100.051995
2860.000000	100.058199
2859.000000	100.067083
2858.000000	100.075996
2857.000000	100.081966
2856.000000	100.083787
2855.000000	100.082407
2854.000000	100.079652
2853.000000	100.076878
2852.000000	100.074469
2851.000000	100.071785
2850.000000	100.067569
2849.000000	100.061039
2848.000000	100.052758
2847.000000	100.044182
2846.000000	100.036523
2845.000000	100.030464
2844.000000	100.026487
2843.000000	100.024541
2842.000000	100.023294
2841.000000	100.020649
2840.000000	100.015632
2839.000000	100.009598
2838.000000	100.005236
2837.000000	100.004351
2836.000000	100.006556
2835.000000	100.009750
2834.000000	100.011702
2833.000000	100.011448
2832.000000	100.009530
2831.000000	100.007203
2830.000000	100.005552
2829.000000	100.005047
2828.000000	100.005336
2827.000000	100.005326
2826.000000	100.003974
2825.000000	100.001435
2824.000000	99.999223
2823.000000	99.998985
2822.000000	100.001164
2821.000000	100.004813
2820.000000	100.008241
2819.000000	100.009742
2818.000000	100.008571
2817.000000	100.005719
2816.000000	100.003291
2815.000000	100.002580
2814.000000	100.003087
2813.000000	100.003631
2812.000000	100.003813
2811.000000	100.003950
2810.000000	100.004112
2809.000000	100.003935
2808.000000	100.003199
2807.000000	100.002122
2806.000000	100.001113
2805.000000	100.000553
2804.000000	100.000748
2803.000000	100.001753
2802.000000	100.003174
2801.000000	100.004390
2800.000000	100.005107
2799.000000	100.005527
2798.000000	100.005961
2797.000000	100.006455
2796.000000	100.006848
2795.000000	100.007041
2794.000000	100.007109
2793.000000	100.007202
2792.000000	100.007415
2791.000000	100.007746
2790.000000	100.008136
2789.000000	100.008535
2788.000000	100.008930
2787.000000	100.009328
2786.000000	100.009737
2785.000000	100.010172
2784.000000	100.010641
2783.000000	100.011135
2782.000000	100.011631
2781.000000	100.012106
2780.000000	100.012562
2779.000000	100.013002
2778.000000	100.013441
2777.000000	100.013903
2776.000000	100.014414
2775.000000	100.014981
2774.000000	100.015573
2773.000000	100.016144
2772.000000	100.016682
2771.000000	100.017242
2770.000000	100.017879
2769.000000	100.018568
2768.000000	100.019207
2767.000000	100.019738
2766.000000	100.020225
2765.000000	100.020811
2764.000000	100.021583
2763.000000	100.022519
2762.000000	100.023522
2761.000000	100.024445
2760.000000	100.025135
2759.000000	100.025500
2758.000000	100.025566
2757.000000	100.025472
2756.000000	100.025385
2755.000000	100.025424
2754.000000	100.025670
2753.000000	100.026182
2752.000000	100.026987
2751.000000	100.028043
2750.000000	100.029206
2749.000000	100.030234
2748.000000	100.030900
2747.000000	100.031172
2746.000000	100.031257
2745.000000	100.031418
2744.000000	100.031680
2743.000000	100.031855
2742.000000	100.031919
2741.000000	100.032229
2740.000000	100.033190
2739.000000	100.034728
2738.000000	100.036193
2737.000000	100.036947
2736.000000	100.036967
2735.000000	100.036772
2734.000000	100.036872
2733.000000	100.037315
2732.000000	100.037703
2731.000000	100.037567
2730.000000	100.036783
2729.000000	100.035727
2728.000000	100.034990
2727.000000	100.034900
2726.000000	100.035361
2725.000000	100.036053
2724.000000	100.036646
2723.000000	100.036835
2722.000000	100.036387
2721.000000	100.035381
2720.000000	100.034356
2719.000000	100.033929
2718.000000	100.034251
2717.000000	100.034976
2716.000000	100.035663
2715.000000	100.036110
2714.000000	100.036255
2713.000000	100.036034
2712.000000	100.035518
2711.000000	100.035068
2710.000000	100.035126
2709.000000	100.035853
2708.000000	100.037063
2707.000000	100.038420
2706.000000	100.039641
2705.000000	100.040462
2704.000000	100.040627
2703.000000	100.040063
2702.000000	100.039033
2701.000000	100.038018
2700.000000	100.037315
2699.000000	100.036815
2698.000000	100.036250
2697.000000	100.035683
2696.000000	100.035542
2695.000000	100.036059
2694.000000	100.036821
2693.000000	100.037148
2692.000000	100.036807
2691.000000	100.036029
2690.000000	100.034989
2689.000000	100.033759
2688.000000	100.032827
2687.000000	100.033015
2686.000000	100.034479
2685.000000	100.036214
2684.000000	100.037008
2683.000000	100.036660
2682.000000	100.035807
2681.000000	100.034911
2680.000000	100.034123
2679.000000	100.033894
2678.000000	100.034818
2677.000000	100.036730
2676.000000	100.038629
2675.000000	100.039804
2674.000000	100.040583
2673.000000	100.041569
2672.000000	100.042515
2671.000000	100.042547
2670.000000	100.041454
2669.000000	100.040147
2668.000000	100.039548
2667.000000	100.039317
2666.000000	100.038148
2665.000000	100.035252
2664.000000	100.031191
2663.000000	100.027260
2662.000000	100.024390
2661.000000	100.022749
2660.000000	100.022029
2659.000000	100.021783
2658.000000	100.021747
2657.000000	100.022109
2656.000000	100.023401
2655.000000	100.025889
2654.000000	100.029031
2653.000000	100.031678
2652.000000	100.032889
2651.000000	100.032607
2650.000000	100.031690
2649.000000	100.031335
2648.000000	100.032238
2647.000000	100.034209
2646.000000	100.036670
2645.000000	100.039448
2644.000000	100.042737
2643.000000	100.046220
2642.000000	100.048667
2641.000000	100.048813
2640.000000	100.046414
2639.000000	100.042366
2638.000000	100.038243
2637.000000	100.035734
2636.000000	100.035945
2635.000000	100.038659
2634.000000	100.042256
2633.000000	100.044996
2632.000000	100.046559
2631.000000	100.047739
2630.000000	100.048900
2629.000000	100.049448
2628.000000	100.049000
2627.000000	100.048296
2626.000000	100.048492
2625.000000	100.049880
2624.000000	100.051759
2623.000000	100.053343
2622.000000	100.054445
2621.000000	100.055321
2620.000000	100.056106
2619.000000	100.056436
2618.000000	100.055681
2617.000000	100.053677
2616.000000	100.051192
2615.000000	100.049433
2614.000000	100.048911
2613.000000	100.049158
2612.000000	100.049599
2611.000000	100.050397
2610.000000	100.052072
2609.000000	100.054542
2608.000000	100.056967
2607.000000	100.058519
2606.000000	100.058948
2605.000000	100.058436
2604.000000	100.057305
2603.000000	100.055917
2602.000000	100.054597
2601.000000	100.053532
2600.000000	100.052826
2599.000000	100.052633
2598.000000	100.053053
2597.000000	100.053897
2596.000000	100.054746
2595.000000	100.055279
2594.000000	100.055411
2593.000000	100.055162
2592.000000	100.054610
2591.000000	100.054003
2590.000000	100.053763
2589.000000	100.054190
2588.000000	100.055171
2587.000000	100.056209
2586.000000	100.056771
2585.000000	100.056685
2584.000000	100.056194
2583.000000	100.055701
2582.000000	100.055456
2581.000000	100.055468
2580.000000	100.055633
2579.000000	100.055839
2578.000000	100.056003
2577.000000	100.056138
2576.000000	100.056353
2575.000000	100.056713
2574.000000	100.057105
2573.000000	100.057348
2572.000000	100.057424
2571.000000	100.057490
2570.000000	100.057647
2569.000000	100.057825
2568.000000	100.057918
2567.000000	100.057929
2566.000000	100.057967
2565.000000	100.058114
2564.000000	100.058370
2563.000000	100.058690
2562.000000	100.059035
2561.000000	100.059369
2560.000000	100.059656
2559.000000	100.059883
2558.000000	100.060099
2557.000000	100.060356
2556.000000	100.060649
2555.000000	100.060939
2554.000000	100.061227
2553.000000	100.061539
2552.000000	100.061849
2551.000000	100.062083
2550.000000	100.062239
2549.000000	100.062432
2548.000000	100.062762
2547.000000	100.063177
2546.000000	100.063566
2545.000000	100.064005
2544.000000	100.064763
2543.000000	100.065929
2542.000000	100.067081
2541.000000	100.067603
2540.000000	100.067379
2539.000000	100.066997
2538.000000	100.067080
2537.000000	100.067485
2536.000000	100.067552
2535.000000	100.067025
2534.000000	100.066393
2533.000000	100.066345
2532.000000	100.067140
2531.000000	100.068545
2530.000000	100.070013
2529.000000	100.070873
2528.000000	100.070715
2527.000000	100.069833
2526.000000	100.069087
2525.000000	100.069054
2524.000000	100.069563
2523.000000	100.070240
2522.000000	100.071198
2521.000000	100.072791
2520.000000	100.074841
2519.000000	100.076501
2518.000000	100.076942
2517.000000	100.075998
2516.000000	100.074228
2515.000000	100.072449
2514.000000	100.071081
2513.000000	100.069840
2512.000000	100.068207
2511.000000	100.066273
2510.000000	100.064869
2509.000000	100.064710
2508.000000	100.065741
2507.000000	100.067428
2506.000000	100.069370
2505.000000	100.071294
2504.000000	100.072746
2503.000000	100.073449
2502.000000	100.073720
2501.000000	100.074071
2500.000000	100.074488
2499.000000	100.074551
2498.000000	100.074272
2497.000000	100.074353
2496.000000	100.075450
2495.000000	100.077472
2494.000000	100.079744
2493.000000	100.081667
2492.000000	100.082955
2491.000000	100.083402
2490.000000	100.082855
2489.000000	100.081542
2488.000000	100.080164
2487.000000	100.079395
2486.000000	100.079344
2485.000000	100.079680
2484.000000	100.080165
2483.000000	100.080861
2482.000000	100.081779
2481.000000	100.082606
2480.000000	100.082983
2479.000000	100.082946
2478.000000	100.082886
2477.000000	100.083093
2476.000000	100.083477
2475.000000	100.083783
2474.000000	100.083958
2473.000000	100.084223
2472.000000	100.084790
2471.000000	100.085620
2470.000000	100.086498
2469.000000	100.087279
2468.000000	100.087985
2467.000000	100.088617
2466.000000	100.089018
2465.000000	100.089007
2464.000000	100.088660
2463.000000	100.088414
2462.000000	100.088722
2461.000000	100.089654
2460.000000	100.090838
2459.000000	100.091794
2458.000000	100.092356
2457.000000	100.092620
2456.000000	100.092701
2455.000000	100.092669
2454.000000	100.092656
2453.000000	100.092847
2452.000000	100.093329
2451.000000	100.093986
2450.000000	100.094532
2449.000000	100.094647
2448.000000	100.094174
2447.000000	100.093287
2446.000000	100.092437
2445.000000	100.091986
2444.000000	100.091990
2443.000000	100.092393
2442.000000	100.093244
2441.000000	100.094534
2440.000000	100.095964
2439.000000	100.097158
2438.000000	100.098028
2437.000000	100.098690
2436.000000	100.099114
2435.000000	100.099183
2434.000000	100.099043
2433.000000	100.098989
2432.000000	100.098918
2431.000000	100.098313
2430.000000	100.096984
2429.000000	100.095590
2428.000000	100.095087
2427.000000	100.095740
2426.000000	100.096897
2425.000000	100.097644
2424.000000	100.097662
2423.000000	100.097324
2422.000000	100.097180
2421.000000	100.097463
2420.000000	100.098042
2419.000000	100.098663
2418.000000	100.099131
2417.000000	100.099380
2416.000000	100.099490
2415.000000	100.099657
2414.000000	100.100053
2413.000000	100.100658
2412.000000	100.101243
2411.000000	100.101591
2410.000000	100.101723
2409.000000	100.101897
2408.000000	100.102363
2407.000000	100.103116
2406.000000	100.103853
2405.000000	100.104185
2404.000000	100.103972
2403.000000	100.103414
2402.000000	100.102878
2401.000000	100.102613
2400.000000	100.102629
2399.000000	100.102825
2398.000000	100.103080
2397.000000	100.103275
2396.000000	100.103329
2395.000000	100.103248
2394.000000	100.103104
2393.000000	100.102980
2392.000000	100.102908
2391.000000	100.102885
2390.000000	100.102896
2389.000000	100.102927
2388.000000	100.102962
2387.000000	100.102998
2386.000000	100.103036
2385.000000	100.103077
2384.000000	100.103115
2383.000000	100.103153
2382.000000	100.103191
2381.000000	100.103227
2380.000000	100.103263
2379.000000	100.103301
2378.000000	100.103341
2377.000000	100.103376
2376.000000	100.103401
2375.000000	100.103415
2374.000000	100.103425
2373.000000	100.103438
2372.000000	100.103458
2371.000000	100.103481
2370.000000	100.103502
2369.000000	100.103517
2368.000000	100.103522
2367.000000	100.103517
2366.000000	100.103504
2365.000000	100.103489
2364.000000	100.103485
2363.000000	100.103501
2362.000000	100.103537
2361.000000	100.103589
2360.000000	100.103651
2359.000000	100.103719
2358.000000	100.103792
2357.000000	100.103870
2356.000000	100.103952
2355.000000	100.104043
2354.000000	100.104146
2353.000000	100.104266
2352.000000	100.104402
2351.000000	100.104538
2350.000000	100.104655
2349.000000	100.104768
2348.000000	100.104933
2347.000000	100.105186
2346.000000	100.105469
2345.000000	100.105658
2344.000000	100.105713
2343.000000	100.105773
2342.000000	100.105928
2341.000000	100.106082
2340.000000	100.106039
2339.000000	100.105843
2338.000000	100.105817
2337.000000	100.106288
2336.000000	100.107245
2335.000000	100.108360
2334.000000	100.109225
2333.000000	100.109599
2332.000000	100.109303
2331.000000	100.108369
2330.000000	100.107032
2329.000000	100.105597
2328.000000	100.104416
2327.000000	100.103613
2326.000000	100.103448
2325.000000	100.103995
2324.000000	100.105069
2323.000000	100.106234
2322.000000	100.107112
2321.000000	100.107695
2320.000000	100.108002
2319.000000	100.108114
2318.000000	100.108076
2317.000000	100.108028
2316.000000	100.107975
2315.000000	100.107874
2314.000000	100.107818
2313.000000	100.107998
2312.000000	100.108372
2311.000000	100.108566
2310.000000	100.108413
2309.000000	100.108250
2308.000000	100.108572
2307.000000	100.109323
2306.000000	100.109983
2305.000000	100.110173
2304.000000	100.110013
2303.000000	100.109766
2302.000000	100.109489
2301.000000	100.109119
2300.000000	100.108724
2299.000000	100.108475
2298.000000	100.108475
2297.000000	100.108617
2296.000000	100.108681
2295.000000	100.108479
2294.000000	100.108071
2293.000000	100.107700
2292.000000	100.107566
2291.000000	100.107622
2290.000000	100.107657
2289.000000	100.107486
2288.000000	100.107090
2287.000000	100.106632
2286.000000	100.106370
2285.000000	100.106454
2284.000000	100.106804
2283.000000	100.107133
2282.000000	100.107162
2281.000000	100.106854
2280.000000	100.106420
2279.000000	100.106110
2278.000000	100.105989
2277.000000	100.105995
2276.000000	100.106032
2275.000000	100.105936
2274.000000	100.105515
2273.000000	100.104722
2272.000000	100.103735
2271.000000	100.102743
2270.000000	100.101764
2269.000000	100.100812
2268.000000	100.100101
2267.000000	100.099883
2266.000000	100.100104
2265.000000	100.100358
2264.000000	100.100267
2263.000000	100.099833
2262.000000	100.099347
2261.000000	100.099030
2260.000000	100.098791
2259.000000	100.098380
2258.000000	100.097743
2257.000000	100.097158
2256.000000	100.096915
2255.000000	100.096942
2254.000000	100.096898
2253.000000	100.096608
2252.000000	100.096185
2251.000000	100.095738
2250.000000	100.095217
2249.000000	100.094679
2248.000000	100.094422
2247.000000	100.094580
2246.000000	100.094828
2245.000000	100.094752
2244.000000	100.094458
2243.000000	100.094470
2242.000000	100.095074
2241.000000	100.096000
2240.000000	100.096708
2239.000000	100.096747
2238.000000	100.095918
2237.000000	100.094380
2236.000000	100.092739
2235.000000	100.091648
2234.000000	100.091204
2233.000000	100.091018
2232.000000	100.090960
2231.000000	100.091497
2230.000000	100.092993
2229.000000	100.095029
2228.000000	100.096672
2227.000000	100.097412
2226.000000	100.097462
2225.000000	100.097285
2224.000000	100.097070
2223.000000	100.096727
2222.000000	100.096243
2221.000000	100.095862
2220.000000	100.095913
2219.000000	100.096520
2218.000000	100.097450
2217.000000	100.098238
2216.000000	100.098606
2215.000000	100.098773
2214.000000	100.099240
2213.000000	100.100233
2212.000000	100.101463
2211.000000	100.102492
2210.000000	100.103168
2209.000000	100.103601
2208.000000	100.103917
2207.000000	100.104231
2206.000000	100.104704
2205.000000	100.105285
2204.000000	100.105513
2203.000000	100.104978
2202.000000	100.103997
2201.000000	100.103434
2200.000000	100.103704
2199.000000	100.104332
2198.000000	100.104737
2197.000000	100.105030
2196.000000	100.105636
2195.000000	100.106462
2194.000000	100.106977
2193.000000	100.107006
2192.000000	100.106957
2191.000000	100.107274
2190.000000	100.108045
2189.000000	100.109145
2188.000000	100.110405
2187.000000	100.111526
2186.000000	100.112176
2185.000000	100.112344
2184.000000	100.112427
2183.000000	100.112778
2182.000000	100.113272
2181.000000	100.113485
2180.000000	100.113180
2179.000000	100.112444
2178.000000	100.111513
2177.000000	100.110702
2176.000000	100.110277
2175.000000	100.110258
2174.000000	100.110388
2173.000000	100.110396
2172.000000	100.110285
2171.000000	100.110292
2170.000000	100.110576
2169.000000	100.111045
2168.000000	100.111470
2167.000000	100.111722
2166.000000	100.111857
2165.000000	100.112015
2164.000000	100.112258
2163.000000	100.112527
2162.000000	100.112728
2161.000000	100.112843
2160.000000	100.112942
2159.000000	100.113117
2158.000000	100.113379
2157.000000	100.113675
2156.000000	100.113951
2155.000000	100.114192
2154.000000	100.114419
2153.000000	100.114646
2152.000000	100.114881
2151.000000	100.115125
2150.000000	100.115379
2149.000000	100.115641
2148.000000	100.115907
2147.000000	100.116174
2146.000000	100.116443
2145.000000	100.116716
2144.000000	100.116998
2143.000000	100.117293
2142.000000	100.117604
2141.000000	100.117932
2140.000000	100.118274
2139.000000	100.118624
2138.000000	100.118976
2137.000000	100.119330
2136.000000	100.119693
2135.000000	100.120068
2134.000000	100.120454
2133.000000	100.120844
2132.000000	100.121234
2131.000000	100.121624
2130.000000	100.122014
2129.000000	100.122402
2128.000000	100.122788
2127.000000	100.123171
2126.000000	100.123552
2125.000000	100.123928
2124.000000	100.124296
2123.000000	100.124653
2122.000000	100.124999
2121.000000	100.125335
2120.000000	100.125664
2119.000000	100.125990
2118.000000	100.126315
2117.000000	100.126639
2116.000000	100.126961
2115.000000	100.127287
2114.000000	100.127624
2113.000000	100.127975
2112.000000	100.128339
2111.000000	100.128707
2110.000000	100.129074
2109.000000	100.129438
2108.000000	100.129803
2107.000000	100.130170
2106.000000	100.130542
2105.000000	100.130920
2104.000000	100.131305
2103.000000	100.131702
2102.000000	100.132116
2101.000000	100.132552
2100.000000	100.133001
2099.000000	100.133434
2098.000000	100.133822
2097.000000	100.134164
2096.000000	100.134499
2095.000000	100.134856
2094.000000	100.135218
2093.000000	100.135551
2092.000000	100.135889
2091.000000	100.136325
2090.000000	100.136871
2089.000000	100.137400
2088.000000	100.137816
2087.000000	100.138217
2086.000000	100.138733
2085.000000	100.139252
2084.000000	100.139497
2083.000000	100.139375
2082.000000	100.139127
2081.000000	100.139090
2080.000000	100.139453
2079.000000	100.140257
2078.000000	100.141380
2077.000000	100.142432
2076.000000	100.142911
2075.000000	100.142707
2074.000000	100.142373
2073.000000	100.142644
2072.000000	100.143637
2071.000000	100.144749
2070.000000	100.145444
2069.000000	100.145910
2068.000000	100.146678
2067.000000	100.147770
2066.000000	100.148594
2065.000000	100.148723
2064.000000	100.148393
2063.000000	100.148055
2062.000000	100.147724
2061.000000	100.147133
2060.000000	100.146333
2059.000000	100.145748
2058.000000	100.145625
2057.000000	100.145804
2056.000000	100.146107
2055.000000	100.146685
2054.000000	100.147745
2053.000000	100.149104
2052.000000	100.150181
2051.000000	100.150422
2050.000000	100.149641
2049.000000	100.148089
2048.000000	100.146262
2047.000000	100.144672
2046.000000	100.143636
2045.000000	100.143189
2044.000000	100.143123
2043.000000	100.143010
2042.000000	100.142313
2041.000000	100.140708
2040.000000	100.138460
2039.000000	100.136375
2038.000000	100.135187
2037.000000	100.134989
2036.000000	100.135237
2035.000000	100.135228
2034.000000	100.134648
2033.000000	100.133714
2032.000000	100.132886
2031.000000	100.132423
2030.000000	100.132179
2029.000000	100.131791
2028.000000	100.131070
2027.000000	100.130155
2026.000000	100.129318
2025.000000	100.128690
2024.000000	100.128194
2023.000000	100.127676
2022.000000	100.126997
2021.000000	100.126047
2020.000000	100.124815
2019.000000	100.123486
2018.000000	100.122385
2017.000000	100.121720
2016.000000	100.121424
2015.000000	100.121292
2014.000000	100.121223
2013.000000	100.121194
2012.000000	100.121051
2011.000000	100.120534
2010.000000	100.119578
2009.000000	100.118476
2008.000000	100.117661
2007.000000	100.117270
2006.000000	100.117001
2005.000000	100.116386
2004.000000	100.115242
2003.000000	100.113873
2002.000000	100.112832
2001.000000	100.112436
2000.000000	100.112601
1999.000000	100.112977
1998.000000	100.113244
1997.000000	100.113283
1996.000000	100.113127
1995.000000	100.112877
1994.000000	100.112663
1993.000000	100.112568
1992.000000	100.112521
1991.000000	100.112336
1990.000000	100.111914
1989.000000	100.111368
1988.000000	100.110840
1987.000000	100.110321
1986.000000	100.109754
1985.000000	100.109197
1984.000000	100.108757
1983.000000	100.108426
1982.000000	100.108062
1981.000000	100.107564
1980.000000	100.106974
1979.000000	100.106425
1978.000000	100.106033
1977.000000	100.105853
1976.000000	100.105858
1975.000000	100.105966
1974.000000	100.106074
1973.000000	100.106088
1972.000000	100.105962
1971.000000	100.105746
1970.000000	100.105584
1969.000000	100.105578
1968.000000	100.105679
1967.000000	100.105732
1966.000000	100.105634
1965.000000	100.105417
1964.000000	100.105164
1963.000000	100.104920
1962.000000	100.104688
1961.000000	100.104470
1960.000000	100.104264
1959.000000	100.104053
1958.000000	100.103826
1957.000000	100.103582
1956.000000	100.103333
1955.000000	100.103087
1954.000000	100.102841
1953.000000	100.102582
1952.000000	100.102297
1951.000000	100.101976
1950.000000	100.101622
1949.000000	100.101244
1948.000000	100.100854
1947.000000	100.100457
1946.000000	100.100051
1945.000000	100.099621
1944.000000	100.099152
1943.000000	100.098635
1942.000000	100.098079
1941.000000	100.097504
1940.000000	100.096921
1939.000000	100.096315
1938.000000	100.095659
1937.000000	100.094941
1936.000000	100.094182
1935.000000	100.093407
1934.000000	100.092623
1933.000000	100.091825
1932.000000	100.090996
1931.000000	100.090087
1930.000000	100.089029
1929.000000	100.087841
1928.000000	100.086691
1927.000000	100.085720
1926.000000	100.084809
1925.000000	100.083661
1924.000000	100.082231
1923.000000	100.080908
1922.000000	100.080045
1921.000000	100.079469
1920.000000	100.078726
1919.000000	100.077612
1918.000000	100.076258
1917.000000	100.074836
1916.000000	100.073340
1915.000000	100.071601
1914.000000	100.069490
1913.000000	100.067141
1912.000000	100.065000
1911.000000	100.063472
1910.000000	100.062415
1909.000000	100.061341
1908.000000	100.060105
1907.000000	100.058884
1906.000000	100.057511
1905.000000	100.055365
1904.000000	100.052317
1903.000000	100.049082
1902.000000	100.046272
1901.000000	100.043837
1900.000000	100.041608
1899.000000	100.039851
1898.000000	100.038909
1897.000000	100.038402
1896.000000	100.037385
1895.000000	100.035318
1894.000000	100.032633
1893.000000	100.030280
1892.000000	100.028683
1891.000000	100.027153
1890.000000	100.024591
1889.000000	100.021149
1888.000000	100.018444
1887.000000	100.017433
1886.000000	100.017253
1885.000000	100.016577
1884.000000	100.015444
1883.000000	100.015050
1882.000000	100.015779
1881.000000	100.016543
1880.000000	100.016252
1879.000000	100.015217
1878.000000	100.014763
1877.000000	100.015639
1876.000000	100.017151
1875.000000	100.017960
1874.000000	100.017401
1873.000000	100.015890
1872.000000	100.014123
1871.000000	100.012094
1870.000000	100.009365
1869.000000	100.006706
1868.000000	100.006440
1867.000000	100.009386
1866.000000	100.013116
1865.000000	100.014722
1864.000000	100.013671
1863.000000	100.011358
1862.000000	100.009014
1861.000000	100.007050
1860.000000	100.006176
1859.000000	100.007648
1858.000000	100.011811
1857.000000	100.017264
1856.000000	100.022054
1855.000000	100.025264
1854.000000	100.027202
1853.000000	100.028816
1852.000000	100.031076
1851.000000	100.034140
1850.000000	100.037216
1849.000000	100.039510
1848.000000	100.041375
1847.000000	100.043936
1846.000000	100.047332
1845.000000	100.049828
1844.000000	100.049790
1843.000000	100.048374
1842.000000	100.047921
1841.000000	100.049003
1840.000000	100.050317
1839.000000	100.050079
1838.000000	100.047677
1837.000000	100.044393
1836.000000	100.042440
1835.000000	100.043017
1834.000000	100.045503
1833.000000	100.048472
1832.000000	100.051101
1831.000000	100.053512
1830.000000	100.056079
1829.000000	100.058396
1828.000000	100.059238
1827.000000	100.058141
1826.000000	100.056304
1825.000000	100.055399
1824.000000	100.055696
1823.000000	100.055838
1822.000000	100.054595
1821.000000	100.052120
1820.000000	100.049475
1819.000000	100.047604
1818.000000	100.046819
1817.000000	100.046881
1816.000000	100.047416
1815.000000	100.048071
1814.000000	100.048572
1813.000000	100.049055
1812.000000	100.050038
1811.000000	100.051783
1810.000000	100.053406
1809.000000	100.053466
1808.000000	100.051927
1807.000000	100.050260
1806.000000	100.049422
1805.000000	100.048939
1804.000000	100.048266
1803.000000	100.048048
1802.000000	100.049332
1801.000000	100.051991
1800.000000	100.054515
1799.000000	100.055549
1798.000000	100.054734
1797.000000	100.052618
1796.000000	100.050559
1795.000000	100.050002
1794.000000	100.051338
1793.000000	100.053412
1792.000000	100.054766
1791.000000	100.055792
1790.000000	100.057451
1789.000000	100.059491
1788.000000	100.061305
1787.000000	100.062846
1786.000000	100.064267
1785.000000	100.065211
1784.000000	100.065251
1783.000000	100.064839
1782.000000	100.065259
1781.000000	100.067498
1780.000000	100.070655
1779.000000	100.072672
1778.000000	100.072731
1777.000000	100.072355
1776.000000	100.073707
1775.000000	100.077173
1774.000000	100.081336
1773.000000	100.084518
1772.000000	100.086257
1771.000000	100.087575
1770.000000	100.089212
1769.000000	100.091449
1768.000000	100.094932
1767.000000	100.099747
1766.000000	100.104580
1765.000000	100.107957
1764.000000	100.109803
1763.000000	100.111251
1762.000000	100.113362
1761.000000	100.115956
1760.000000	100.117491
1759.000000	100.117404
1758.000000	100.117253
1757.000000	100.119541
1756.000000	100.125111
1755.000000	100.132102
1754.000000	100.138676
1753.000000	100.144798
1752.000000	100.150525
1751.000000	100.154695
1750.000000	100.157019
1749.000000	100.158875
1748.000000	100.161118
1747.000000	100.162752
1746.000000	100.162553
1745.000000	100.160837
1744.000000	100.158977
1743.000000	100.158208
1742.000000	100.158737
1741.000000	100.159732
1740.000000	100.160251
1739.000000	100.160380
1738.000000	100.160535
1737.000000	100.160536
1736.000000	100.160320
1735.000000	100.159047
1734.000000	100.154658
1733.000000	100.148266
1732.000000	100.142054
1731.000000	100.136309
1730.000000	100.131274
1729.000000	100.127192
1728.000000	100.124097
1727.000000	100.121890
1726.000000	100.120244
1725.000000	100.118028
1724.000000	100.113864
1723.000000	100.108217
1722.000000	100.103157
1721.000000	100.100131
1720.000000	100.099420
1719.000000	100.101088
1718.000000	100.104700
1717.000000	100.107683
1716.000000	100.107141
1715.000000	100.103306
1714.000000	100.098801
1713.000000	100.095983
1712.000000	100.095239
1711.000000	100.095183
1710.000000	100.094309
1709.000000	100.092347
1708.000000	100.089973
1707.000000	100.087617
1706.000000	100.084958
1705.000000	100.081845
1704.000000	100.079029
1703.000000	100.077274
1702.000000	100.076787
1701.000000	100.076681
1700.000000	100.075212
1699.000000	100.072357
1698.000000	100.068883
1697.000000	100.065191
1696.000000	100.061866
1695.000000	100.059387
1694.000000	100.057411
1693.000000	100.055402
1692.000000	100.053328
1691.000000	100.051286
1690.000000	100.049224
1689.000000	100.047064
1688.000000	100.044840
1687.000000	100.042642
1686.000000	100.040527
1685.000000	100.038461
1684.000000	100.036422
1683.000000	100.034471
1682.000000	100.032558
1681.000000	100.030622
1680.000000	100.028658
1679.000000	100.026668
1678.000000	100.024646
1677.000000	100.022601
1676.000000	100.020569
1675.000000	100.018609
1674.000000	100.016748
1673.000000	100.014948
1672.000000	100.013147
1671.000000	100.011305
1670.000000	100.009376
1669.000000	100.007367
1668.000000	100.005377
1667.000000	100.003472
1666.000000	100.001652
1665.000000	99.999902
1664.000000	99.998225
1663.000000	99.996668
1662.000000	99.995289
1661.000000	99.994055
1660.000000	99.992794
1659.000000	99.991337
1658.000000	99.989703
1657.000000	99.988158
1656.000000	99.986990
1655.000000	99.986059
1654.000000	99.984062
1653.000000	99.980145
1652.000000	99.977707
1651.000000	99.977878
1650.000000	99.978811
1649.000000	99.979263
1648.000000	99.978404
1647.000000	99.975851
1646.000000	99.972800
1645.000000	99.970677
1644.000000	99.969456
1643.000000	99.968807
1642.000000	99.968306
1641.000000	99.967337
1640.000000	99.965850
1639.000000	99.964785
1638.000000	99.965237
1637.000000	99.967035
1636.000000	99.968514
1635.000000	99.969105
1634.000000	99.970055
1633.000000	99.971214
1632.000000	99.971965
1631.000000	99.972189
1630.000000	99.971960
1629.000000	99.971566
1628.000000	99.971570
1627.000000	99.972227
1626.000000	99.973131
1625.000000	99.973917
1624.000000	99.974397
1623.000000	99.974235
1622.000000	99.973355
1621.000000	99.972436
1620.000000	99.972476
1619.000000	99.974311
1618.000000	99.977723
1617.000000	99.981259
1616.000000	99.984790
1615.000000	99.989242
1614.000000	99.994467
1613.000000	100.000338
1612.000000	100.006800
1611.000000	100.012791
1610.000000	100.016869
1609.000000	100.019429
1608.000000	100.022469
1607.000000	100.026862
1606.000000	100.031530
1605.000000	100.035343
1604.000000	100.038183
1603.000000	100.040728
1602.000000	100.044136
1601.000000	100.049359
1600.000000	100.055877
1599.000000	100.061476
1598.000000	100.064178
1597.000000	100.064036
1596.000000	100.062719
1595.000000	100.061833
1594.000000	100.061999
1593.000000	100.063422
1592.000000	100.066227
1591.000000	100.069936
1590.000000	100.073429
1589.000000	100.076083
1588.000000	100.078416
1587.000000	100.081294
1586.000000	100.085017
1585.000000	100.089369
1584.000000	100.093786
1583.000000	100.097147
1582.000000	100.098386
1581.000000	100.097531
1580.000000	100.095580
1579.000000	100.093496
1578.000000	100.092229
1577.000000	100.093173
1576.000000	100.097374
1575.000000	100.103314
1574.000000	100.107838
1573.000000	100.110129
1572.000000	100.111436
1571.000000	100.112634
1570.000000	100.113302
1569.000000	100.113837
1568.000000	100.115703
1567.000000	100.118624
1566.000000	100.121141
1565.000000	100.122199
1564.000000	100.122120
1563.000000	100.122365
1562.000000	100.124698
1561.000000	100.130613
1560.000000	100.138316
1559.000000	100.138686
1558.000000	100.132888
1557.000000	100.130956
1556.000000	100.132361
1555.000000	100.133991
1554.000000	100.133595
1553.000000	100.130875
1552.000000	100.126927
1551.000000	100.123116
1550.000000	100.120255
1549.000000	100.118292
1548.000000	100.116709
1547.000000	100.115028
1546.000000	100.112908
1545.000000	100.109476
1544.000000	100.104185
1543.000000	100.098426
1542.000000	100.094891
1541.000000	100.093974
1540.000000	100.092434
1539.000000	100.088732
1538.000000	100.084590
1537.000000	100.081322
1536.000000	100.079618
1535.000000	100.079254
1534.000000	100.078478
1533.000000	100.075604
1532.000000	100.070913
1531.000000	100.065292
1530.000000	100.059318
1529.000000	100.053795
1528.000000	100.049570
1527.000000	100.046658
1526.000000	100.044178
1525.000000	100.041384
1524.000000	100.038153
1523.000000	100.034343
1522.000000	100.029306
1521.000000	100.023560
1520.000000	100.019226
1519.000000	100.016575
1518.000000	100.014249
1517.000000	100.011130
1516.000000	100.007286
1515.000000	100.003559
1514.000000	100.000342
1513.000000	99.997643
1512.000000	99.995241
1511.000000	99.992932
1510.000000	99.990617
1509.000000	99.988051
1508.000000	99.984364
1507.000000	99.978886
1506.000000	99.974085
1505.000000	99.971763
1504.000000	99.970292
1503.000000	99.968345
1502.000000	99.965534
1501.000000	99.961950
1500.000000	99.958309
1499.000000	99.955864
1498.000000	99.955408
1497.000000	99.955691
1496.000000	99.954112
1495.000000	99.950212
1494.000000	99.946140
1493.000000	99.944119
1492.000000	99.944776
1491.000000	99.946446
1490.000000	99.946135
1489.000000	99.943019
1488.000000	99.939509
1487.000000	99.937994
1486.000000	99.938169
1485.000000	99.938307
1484.000000	99.937525
1483.000000	99.935959
1482.000000	99.934273
1481.000000	99.933161
1480.000000	99.933036
1479.000000	99.933610
1478.000000	99.933874
1477.000000	99.932819
1476.000000	99.930726
1475.000000	99.929317
1474.000000	99.929605
1473.000000	99.930947
1472.000000	99.932669
1471.000000	99.935318
1470.000000	99.938675
1469.000000	99.941469
1468.000000	99.942574
1467.000000	99.941818
1466.000000	99.940181
1465.000000	99.939258
1464.000000	99.939976
1463.000000	99.941657
1462.000000	99.943372
1461.000000	99.945430
1460.000000	99.949191
1459.000000	99.955510
1458.000000	99.962810
1457.000000	99.966956
1456.000000	99.966463
1455.000000	99.963598
1454.000000	99.960517
1453.000000	99.958468
1452.000000	99.957320
1451.000000	99.955656
1450.000000	99.952216
1449.000000	99.947666
1448.000000	99.944408
1447.000000	99.943920
1446.000000	99.944505
1445.000000	99.943591
1444.000000	99.940703
1443.000000	99.937475
1442.000000	99.935544
1441.000000	99.935330
1440.000000	99.936628
1439.000000	99.939363
1438.000000	99.943337
1437.000000	99.946951
1436.000000	99.948690
1435.000000	99.949297
1434.000000	99.949999
1433.000000	99.950986
1432.000000	99.951899
1431.000000	99.951726
1430.000000	99.949608
1429.000000	99.946250
1428.000000	99.944124
1427.000000	99.945703
1426.000000	99.951580
1425.000000	99.960373
1424.000000	99.968870
1423.000000	99.974044
1422.000000	99.975585
1421.000000	99.975273
1420.000000	99.975070
1419.000000	99.976208
1418.000000	99.979525
1417.000000	99.983978
1416.000000	99.987882
1415.000000	99.991643
1414.000000	99.996800
1413.000000	100.003932
1412.000000	100.011906
1411.000000	100.019032
1410.000000	100.024946
1409.000000	100.030565
1408.000000	100.036600
1407.000000	100.042668
1406.000000	100.047388
1405.000000	100.049912
1404.000000	100.050881
1403.000000	100.051587
1402.000000	100.052594
1401.000000	100.053868
1400.000000	100.055966
1399.000000	100.059793
1398.000000	100.065068
1397.000000	100.070239
1396.000000	100.075310
1395.000000	100.082997
1394.000000	100.095099
1393.000000	100.108622
1392.000000	100.118275
1391.000000	100.122359
1390.000000	100.123580
1389.000000	100.125769
1388.000000	100.130599
1387.000000	100.137069
1386.000000	100.143275
1385.000000	100.147926
1384.000000	100.150734
1383.000000	100.152528
1382.000000	100.154566
1381.000000	100.156789
1380.000000	100.157663
1379.000000	100.156312
1378.000000	100.154057
1377.000000	100.152957
1376.000000	100.153220
1375.000000	100.152976
1374.000000	100.150862
1373.000000	100.148011
1372.000000	100.146283
1371.000000	100.146174
1370.000000	100.147001
1369.000000	100.148080
1368.000000	100.149046
1367.000000	100.149829
1366.000000	100.150604
1365.000000	100.151432
1364.000000	100.151891
1363.000000	100.151469
1362.000000	100.150539
1361.000000	100.150355
1360.000000	100.151812
1359.000000	100.154779
1358.000000	100.158327
1357.000000	100.161346
1356.000000	100.163060
1355.000000	100.163298
1354.000000	100.162416
1353.000000	100.160898
1352.000000	100.159046
1351.000000	100.157013
1350.000000	100.154824
1349.000000	100.152906
1348.000000	100.152174
1347.000000	100.153454
1346.000000	100.156648
1345.000000	100.160362
1344.000000	100.162694
1343.000000	100.162764
1342.000000	100.161401
1341.000000	100.160389
1340.000000	100.160769
1339.000000	100.161768
1338.000000	100.161649
1337.000000	100.159558
1336.000000	100.156355
1335.000000	100.154032
1334.000000	100.154287
1333.000000	100.157258
1332.000000	100.161266
1331.000000	100.163937
1330.000000	100.164023
1329.000000	100.162193
1328.000000	100.160156
1327.000000	100.159131
1326.000000	100.159131
1325.000000	100.159502
1324.000000	100.159656
1323.000000	100.159503
1322.000000	100.159431
1321.000000	100.159708
1320.000000	100.159844
1319.000000	100.159001
1318.000000	100.157237
1317.000000	100.155745
1316.000000	100.155510
1315.000000	100.156352
1314.000000	100.157719
1313.000000	100.159703
1312.000000	100.162502
1311.000000	100.165171
1310.000000	100.165963
1309.000000	100.164163
1308.000000	100.161100
1307.000000	100.159205
1306.000000	100.159864
1305.000000	100.162215
1304.000000	100.163784
1303.000000	100.162675
1302.000000	100.159517
1301.000000	100.157110
1300.000000	100.157568
1299.000000	100.160074
1298.000000	100.162038
1297.000000	100.162082
1296.000000	100.161008
1295.000000	100.160030
1294.000000	100.159387
1293.000000	100.159007
1292.000000	100.159232
1291.000000	100.160034
1290.000000	100.160509
1289.000000	100.160166
1288.000000	100.159976
1287.000000	100.160964
1286.000000	100.162298
1285.000000	100.162205
1284.000000	100.160457
1283.000000	100.158462
1282.000000	100.156769
1281.000000	100.154005
1280.000000	100.149199
1279.000000	100.144203
1278.000000	100.142749
1277.000000	100.147133
1276.000000	100.156009
1275.000000	100.164876
1274.000000	100.168930
1273.000000	100.166424
1272.000000	100.159890
1271.000000	100.153838
1270.000000	100.150862
1269.000000	100.150298
1268.000000	100.150515
1267.000000	100.151352
1266.000000	100.153847
1265.000000	100.158203
1264.000000	100.162753
1263.000000	100.165041
1262.000000	100.163963
1261.000000	100.160913
1260.000000	100.158587
1259.000000	100.158338
1258.000000	100.159186
1257.000000	100.159466
1256.000000	100.158280
1255.000000	100.154807
1254.000000	100.147878
1253.000000	100.138012
1252.000000	100.128780
1251.000000	100.123608
1250.000000	100.121332
1249.000000	100.117367
1248.000000	100.109673
1247.000000	100.101107
1246.000000	100.095174
1245.000000	100.091768
1244.000000	100.088605
1243.000000	100.084702
1242.000000	100.080305
1241.000000	100.074750
1240.000000	100.066831
1239.000000	100.056848
1238.000000	100.046362
1237.000000	100.036054
1236.000000	100.025458
1235.000000	100.014735
1234.000000	100.004840
1233.000000	99.995363
1232.000000	99.983638
1231.000000	99.967016
1230.000000	99.945421
1229.000000	99.920945
1228.000000	99.895261
1227.000000	99.868234
1226.000000	99.838922
1225.000000	99.806928
1224.000000	99.772048
1223.000000	99.733154
1222.000000	99.688846
1221.000000	99.639665
1220.000000	99.588527
1219.000000	99.537889
1218.000000	99.487290
1217.000000	99.434741
1216.000000	99.379328
1215.000000	99.320685
1214.000000	99.257311
1213.000000	99.188363
1212.000000	99.116756
1211.000000	99.047360
1210.000000	98.981723
1209.000000	98.917471
1208.000000	98.853047
1207.000000	98.789478
1206.000000	98.727035
1205.000000	98.664163
1204.000000	98.601048
1203.000000	98.540359
1202.000000	98.482552
1201.000000	98.423588
1200.000000	98.359417
1199.000000	98.290455
1198.000000	98.220395
1197.000000	98.153104
1196.000000	98.091421
1195.000000	98.035348
1194.000000	97.979900
1193.000000	97.918313
1192.000000	97.849448
1191.000000	97.779304
1190.000000	97.713565
1189.000000	97.651410
1188.000000	97.588229
1187.000000	97.521285
1186.000000	97.450787
1185.000000	97.378233
1184.000000	97.305761
1183.000000	97.234820
1182.000000	97.163781
1181.000000	97.089119
1180.000000	97.009998
1179.000000	96.929087
1178.000000	96.848181
1177.000000	96.766329
1176.000000	96.682994
1175.000000	96.598953
1174.000000	96.512775
1173.000000	96.420806
1172.000000	96.322752
1171.000000	96.223454
1170.000000	96.127184
1169.000000	96.034050
1168.000000	95.944054
1167.000000	95.860796
1166.000000	95.789172
1165.000000	95.733298
1164.000000	95.698290
1163.000000	95.689368
1162.000000	95.706449
1161.000000	95.742259
1160.000000	95.786026
1159.000000	95.825337
1158.000000	95.845891
1157.000000	95.836889
1156.000000	95.799063
1155.000000	95.743065
1154.000000	95.678159
1153.000000	95.606433
1152.000000	95.528963
1151.000000	95.450671
1150.000000	95.375160
1149.000000	95.300114
1148.000000	95.222313
1147.000000	95.143408
1146.000000	95.067114
1145.000000	94.994041
1144.000000	94.922355
1143.000000	94.850363
1142.000000	94.776125
1141.000000	94.697786
1140.000000	94.616118
1139.000000	94.533666
1138.000000	94.450918
1137.000000	94.367516
1136.000000	94.286987
1135.000000	94.213834
1134.000000	94.144849
1133.000000	94.070329
1132.000000	93.986137
1131.000000	93.898110
1130.000000	93.812276
1129.000000	93.727328
1128.000000	93.639931
1127.000000	93.550907
1126.000000	93.462425
1125.000000	93.374547
1124.000000	93.287541
1123.000000	93.202019
1122.000000	93.114366
1121.000000	93.018607
1120.000000	92.915885
1119.000000	92.815725
1118.000000	92.724794
1117.000000	92.640887
1116.000000	92.560251
1115.000000	92.482920
1114.000000	92.407295
1113.000000	92.327821
1112.000000	92.243223
1111.000000	92.160414
1110.000000	92.085969
1109.000000	92.019576
1108.000000	91.958432
1107.000000	91.900969
1106.000000	91.843233
1105.000000	91.779342
1104.000000	91.709720
1103.000000	91.642328
1102.000000	91.582016
1101.000000	91.524536
1100.000000	91.463487
1099.000000	91.397511
1098.000000	91.328384
1097.000000	91.258805
1096.000000	91.193467
1095.000000	91.135767
1094.000000	91.082707
1093.000000	91.029886
1092.000000	90.980544
1091.000000	90.940382
1090.000000	90.904158
1089.000000	90.858778
1088.000000	90.801031
1087.000000	90.741461
1086.000000	90.689227
1085.000000	90.644031
1084.000000	90.604632
1083.000000	90.572681
1082.000000	90.544105
1081.000000	90.508244
1080.000000	90.460645
1079.000000	90.407799
1078.000000	90.356095
1077.000000	90.305174
1076.000000	90.254393
1075.000000	90.204587
1074.000000	90.149294
1073.000000	90.074790
1072.000000	89.973761
1071.000000	89.851118
1070.000000	89.713934
1069.000000	89.564232
1068.000000	89.404126
1067.000000	89.238071
1066.000000	89.066258
1065.000000	88.885432
1064.000000	88.700019
1063.000000	88.522863
1062.000000	88.360921
1061.000000	88.209334
1060.000000	88.062585
1059.000000	87.921550
1058.000000	87.786651
1057.000000	87.653922
1056.000000	87.520657
1055.000000	87.385688
1054.000000	87.242802
1053.000000	87.084309
1052.000000	86.912535
1051.000000	86.736384
1050.000000	86.555801
1049.000000	86.363668
1048.000000	86.162817
1047.000000	85.963972
1046.000000	85.766825
1045.000000	85.560708
1044.000000	85.344398
1043.000000	85.128499
1042.000000	84.917278
1041.000000	84.705290
1040.000000	84.494743
1039.000000	84.298664
1038.000000	84.121903
1037.000000	83.955043
1036.000000	83.791978
1035.000000	83.638284
1034.000000	83.497945
1033.000000	83.367577
1032.000000	83.248011
1031.000000	83.146132
1030.000000	83.061158
1029.000000	82.983796
1028.000000	82.911801
1027.000000	82.850923
1026.000000	82.798532
1025.000000	82.743375
1024.000000	82.684235
1023.000000	82.631496
1022.000000	82.587326
1021.000000	82.541817
1020.000000	82.491799
1019.000000	82.445368
1018.000000	82.403945
1017.000000	82.357951
1016.000000	82.304800
1015.000000	82.253746
1014.000000	82.208213
1013.000000	82.160650
1012.000000	82.109879
1011.000000	82.066359
1010.000000	82.034450
1009.000000	82.005353
1008.000000	81.973274
1007.000000	81.944135
1006.000000	81.923811
1005.000000	81.912004
1004.000000	81.910913
1003.000000	81.924856
1002.000000	81.948124
1001.000000	81.968039
1000.000000	81.982915
999.000000	82.002486
998.000000	82.029398
997.000000	82.056734
996.000000	82.085515
995.000000	82.126780
994.000000	82.182450
993.000000	82.240647
992.000000	82.294260
991.000000	82.349093
990.000000	82.410288
989.000000	82.476144
988.000000	82.548611
987.000000	82.634483
986.000000	82.732650
985.000000	82.834735
984.000000	82.941275
983.000000	83.062883
982.000000	83.203231
981.000000	83.355558
980.000000	83.517271
979.000000	83.692198
978.000000	83.876410
977.000000	84.058343
976.000000	84.236729
975.000000	84.423719
974.000000	84.626863
973.000000	84.841602
972.000000	85.063519
971.000000	85.293636
970.000000	85.528704
969.000000	85.759828
968.000000	85.983947
967.000000	86.205383
966.000000	86.425247
965.000000	86.640920
964.000000	86.855079
963.000000	87.071643
962.000000	87.283389
961.000000	87.478365
960.000000	87.658825
959.000000	87.838959
958.000000	88.022930
957.000000	88.200477
956.000000	88.366080
955.000000	88.526378
954.000000	88.684991
953.000000	88.835038
952.000000	88.971944
951.000000	89.100537
950.000000	89.224491
949.000000	89.340572
948.000000	89.447712
947.000000	89.550282
946.000000	89.648774
945.000000	89.738726
944.000000	89.822230
943.000000	89.908379
942.000000	89.998243
941.000000	90.081471
940.000000	90.152553
939.000000	90.219165
938.000000	90.289914
937.000000	90.364622
936.000000	90.441281
935.000000	90.521344
934.000000	90.602875
933.000000	90.678988
932.000000	90.748567
931.000000	90.819547
930.000000	90.897372
929.000000	90.979066
928.000000	91.061582
927.000000	91.145235
926.000000	91.225257
925.000000	91.291462
924.000000	91.341962
923.000000	91.387779
922.000000	91.438534
921.000000	91.492104
920.000000	91.542641
919.000000	91.589492
918.000000	91.633653
917.000000	91.674682
916.000000	91.716366
915.000000	91.767120
914.000000	91.830129
913.000000	91.901118
912.000000	91.979343
911.000000	92.071619
910.000000	92.181530
909.000000	92.304392
908.000000	92.437552
907.000000	92.586274
906.000000	92.754259
905.000000	92.936949
904.000000	93.128834
903.000000	93.329183
902.000000	93.536228
901.000000	93.743777
900.000000	93.947965
899.000000	94.150049
898.000000	94.348868
897.000000	94.538390
896.000000	94.716653
895.000000	94.889367
894.000000	95.059656
893.000000	95.220979
892.000000	95.366076
891.000000	95.497995
890.000000	95.627166
889.000000	95.760818
888.000000	95.898896
887.000000	96.036666
886.000000	96.167344
885.000000	96.284832
884.000000	96.387302
883.000000	96.477554
882.000000	96.559692
881.000000	96.637482
880.000000	96.714598
879.000000	96.791946
878.000000	96.865698
877.000000	96.933944
876.000000	97.004822
875.000000	97.090879
874.000000	97.194585
873.000000	97.306414
872.000000	97.417936
871.000000	97.529262
870.000000	97.642594
869.000000	97.756331
868.000000	97.868230
867.000000	97.978191
866.000000	98.085546
865.000000	98.188630
864.000000	98.288546
863.000000	98.388448
862.000000	98.487925
861.000000	98.582973
860.000000	98.672354
859.000000	98.758636
858.000000	98.841914
857.000000	98.918023
856.000000	98.984491
855.000000	99.043103
854.000000	99.095424
853.000000	99.141644
852.000000	99.185913
851.000000	99.236360
850.000000	99.295216
849.000000	99.352460
848.000000	99.393066
847.000000	99.409132
846.000000	99.404822
845.000000	99.392829
844.000000	99.386029
843.000000	99.387912
842.000000	99.389868
841.000000	99.381155
840.000000	99.360596
839.000000	99.333927
838.000000	99.301898
837.000000	99.259025
836.000000	99.204436
835.000000	99.145707
834.000000	99.090271
833.000000	99.041010
832.000000	99.002107
831.000000	98.979408
830.000000	98.970383
829.000000	98.963453
828.000000	98.954507
827.000000	98.956240
826.000000	98.982676
825.000000	99.030213
824.000000	99.081738
823.000000	99.123757
822.000000	99.152486
821.000000	99.169359
820.000000	99.177842
819.000000	99.180586
818.000000	99.174965
817.000000	99.154676
816.000000	99.116935
815.000000	99.061938
814.000000	98.983301
813.000000	98.866900
812.000000	98.703083
811.000000	98.492268
810.000000	98.233885
809.000000	97.919241
808.000000	97.543850
807.000000	97.119578
806.000000	96.665703
805.000000	96.195514
804.000000	95.722773
803.000000	95.273799
802.000000	94.878940
801.000000	94.555241
800.000000	94.307175
799.000000	94.137958
798.000000	94.048962
797.000000	94.032795
796.000000	94.076619
795.000000	94.168861
794.000000	94.296449
793.000000	94.440661
792.000000	94.582344
791.000000	94.707664
790.000000	94.804841
789.000000	94.861176
788.000000	94.869530
787.000000	94.833657
786.000000	94.760791
785.000000	94.651623
784.000000	94.503807
783.000000	94.324465
782.000000	94.135022
781.000000	93.964895
780.000000	93.842317
779.000000	93.785738
778.000000	93.798093
777.000000	93.870898
776.000000	93.994847
775.000000	94.161622
774.000000	94.355701
773.000000	94.553743
772.000000	94.736925
771.000000	94.899369
770.000000	95.042423
769.000000	95.166085
768.000000	95.268647
767.000000	95.349330
766.000000	95.407568
765.000000	95.444074
764.000000	95.466455
763.000000	95.490154
762.000000	95.529048
761.000000	95.585720
760.000000	95.652052
759.000000	95.716973
758.000000	95.773772
757.000000	95.824077
756.000000	95.876058
755.000000	95.936175
754.000000	96.003021
753.000000	96.072274
752.000000	96.144755
751.000000	96.222919
750.000000	96.300953
749.000000	96.367229
748.000000	96.418470
747.000000	96.464438
746.000000	96.516851
745.000000	96.580745
744.000000	96.658713
743.000000	96.754722
742.000000	96.868252
741.000000	96.990653
740.000000	97.112311
739.000000	97.229360
738.000000	97.340805
737.000000	97.444742
736.000000	97.540999
735.000000	97.632272
734.000000	97.718596
733.000000	97.794596
732.000000	97.855604
731.000000	97.902936
730.000000	97.939932
729.000000	97.966508
728.000000	97.982020
727.000000	97.991462
726.000000	98.005286
725.000000	98.033384
724.000000	98.079638
723.000000	98.139543
722.000000	98.202422
721.000000	98.259316
720.000000	98.310118
719.000000	98.360534
718.000000	98.412617
717.000000	98.463385
716.000000	98.512274
715.000000	98.562370
714.000000	98.611585
713.000000	98.649368
712.000000	98.667679
711.000000	98.671773
710.000000	98.675238
709.000000	98.685962
708.000000	98.699900
707.000000	98.706658
706.000000	98.698434
705.000000	98.674205
704.000000	98.636356
703.000000	98.582040
702.000000	98.497811
701.000000	98.365287
700.000000	98.173594
699.000000	97.927806
698.000000	97.651285
697.000000	97.385186
696.000000	97.179471
695.000000	97.070490
694.000000	97.062122
693.000000	97.131341
692.000000	97.249568
691.000000	97.393244
690.000000	97.539189
689.000000	97.665749
688.000000	97.766146
687.000000	97.851997
686.000000	97.936061
685.000000	98.018460
684.000000	98.094396
683.000000	98.165758
682.000000	98.237666
681.000000	98.309113
680.000000	98.373516
679.000000	98.425966
678.000000	98.466527
677.000000	98.500126
676.000000	98.535635
675.000000	98.580469
674.000000	98.632460
673.000000	98.681554
672.000000	98.722479
671.000000	98.762135
670.000000	98.812520
669.000000	98.878488
668.000000	98.945819
667.000000	98.990309
666.000000	99.012100
665.000000	99.028732
664.000000	99.051810
663.000000	99.082885
662.000000	99.114617
661.000000	99.139335
660.000000	99.159468
659.000000	99.182258
658.000000	99.203282
657.000000	99.204443
656.000000	99.174063
655.000000	99.124622
654.000000	99.085101
653.000000	99.076175
652.000000	99.096400
651.000000	99.127626
650.000000	99.149025
