4000.000000	100.308631
3999.000000	100.307769
3998.000000	100.306629
3997.000000	100.305552
3996.000000	100.305020
3995.000000	100.305166
3994.000000	100.305447
3993.000000	100.305018
3992.000000	100.303458
3991.000000	100.301057
3990.000000	100.298821
3989.000000	100.297493
3988.000000	100.296961
3987.000000	100.296462
3986.000000	100.295396
3985.000000	100.293951
3984.000000	100.292956
3983.000000	100.293127
3982.000000	100.294472
3981.000000	100.296229
3980.000000	100.297357
3979.000000	100.297362
3978.000000	100.296567
3977.000000	100.295784
3976.000000	100.295539
3975.000000	100.295619
3974.000000	100.295399
3973.000000	100.294561
3972.000000	100.293395
3971.000000	100.292447
3970.000000	100.291968
3969.000000	100.291798
3968.000000	100.291716
3967.000000	100.291702
3966.000000	100.291796
3965.000000	100.291836
3964.000000	100.291511
3963.000000	100.290713
3962.000000	100.289737
3961.000000	100.289070
3960.000000	100.288956
3959.000000	100.289256
3958.000000	100.289669
3957.000000	100.290001
3956.000000	100.290217
3955.000000	100.290364
3954.000000	100.290568
3953.000000	100.290966
3952.000000	100.291538
3951.000000	100.292045
3950.000000	100.292229
3949.000000	100.292077
3948.000000	100.291852
3947.000000	100.291821
3946.000000	100.291991
3945.000000	100.292134
3944.000000	100.292028
3943.000000	100.291657
3942.000000	100.291219
3941.000000	100.290968
3940.000000	100.291041
3939.000000	100.291390
3938.000000	100.291802
3937.000000	100.292013
3936.000000	100.291886
3935.000000	100.291518
3934.000000	100.291169
3933.000000	100.291039
3932.000000	100.291115
3931.000000	100.291268
3930.000000	100.291443
3929.000000	100.291699
3928.000000	100.292076
3927.000000	100.292503
3926.000000	100.292860
3925.000000	100.293086
3924.000000	100.293169
3923.000000	100.293100
3922.000000	100.292937
3921.000000	100.292869
3920.000000	100.293046
3919.000000	100.293330
3918.000000	100.293313
3917.000000	100.292655
3916.000000	100.291360
3915.000000	100.289859
3914.000000	100.288849
3913.000000	100.288878
3912.000000	100.289993
3911.000000	100.291595
3910.000000	100.292884
3909.000000	100.293479
3908.000000	100.293520
3907.000000	100.293405
3906.000000	100.293551
3905.000000	100.294221
3904.000000	100.295422
3903.000000	100.296798
3902.000000	100.297719
3901.000000	100.297754
3900.000000	100.297037
3899.000000	100.296135
3898.000000	100.295529
3897.000000	100.295358
3896.000000	100.295614
3895.000000	100.296252
3894.000000	100.297053
3893.000000	100.297706
3892.000000	100.298226
3891.000000	100.298933
3890.000000	100.299783
3889.000000	100.300074
3888.000000	100.299334
3887.000000	100.298057
3886.000000	100.297265
3885.000000	100.297429
3884.000000	100.297929
3883.000000	100.297813
3882.000000	100.297211
3881.000000	100.297162
3880.000000	100.298275
3879.000000	100.300241
3878.000000	100.302208
3877.000000	100.303604
3876.000000	100.304548
3875.000000	100.305376
3874.000000	100.306181
3873.000000	100.306689
3872.000000	100.306537
3871.000000	100.305878
3870.000000	100.305509
3869.000000	100.306008
3868.000000	100.306920
3867.000000	100.307359
3866.000000	100.307379
3865.000000	100.307677
3864.000000	100.308328
3863.000000	100.308720
3862.000000	100.308501
3861.000000	100.307983
3860.000000	100.307674
3859.000000	100.307682
3858.000000	100.307828
3857.000000	100.307852
3856.000000	100.307482
3855.000000	100.306578
3854.000000	100.305514
3853.000000	100.305126
3852.000000	100.305476
3851.000000	100.305640
3850.000000	100.305267
3849.000000	100.304927
3848.000000	100.304913
3847.000000	100.304968
3846.000000	100.304829
3845.000000	100.304538
3844.000000	100.304338
3843.000000	100.304379
3842.000000	100.304577
3841.000000	100.304695
3840.000000	100.304658
3839.000000	100.304644
3838.000000	100.304811
3837.000000	100.304970
3836.000000	100.304712
3835.000000	100.303841
3834.000000	100.302550
3833.000000	100.301240
3832.000000	100.300236
3831.000000	100.299662
3830.000000	100.299444
3829.000000	100.299446
3828.000000	100.299616
3827.000000	100.299956
3826.000000	100.300364
3825.000000	100.300583
3824.000000	100.300374
3823.000000	100.299753
3822.000000	100.299033
3821.000000	100.298601
3820.000000	100.298492
3819.000000	100.298300
3818.000000	100.297759
3817.000000	100.297169
3816.000000	100.296939
3815.000000	100.297095
3814.000000	100.297274
3813.000000	100.297217
3812.000000	100.297186
3811.000000	100.297505
3810.000000	100.298078
3809.000000	100.298550
3808.000000	100.298771
3807.000000	100.298907
3806.000000	100.299129
3805.000000	100.299302
3804.000000	100.299252
3803.000000	100.299080
3802.000000	100.298958
3801.000000	100.298876
3800.000000	100.298693
3799.000000	100.298364
3798.000000	100.298030
3797.000000	100.297855
3796.000000	100.297825
3795.000000	100.297875
3794.000000	100.297943
3793.000000	100.298014
3792.000000	100.298096
3791.000000	100.298196
3790.000000	100.298318
3789.000000	100.298456
3788.000000	100.298597
3787.000000	100.298728
3786.000000	100.298842
3785.000000	100.298942
3784.000000	100.299030
3783.000000	100.299084
3782.000000	100.299066
3781.000000	100.298982
3780.000000	100.298910
3779.000000	100.298941
3778.000000	100.299109
3777.000000	100.299364
3776.000000	100.299647
3775.000000	100.299981
3774.000000	100.300404
3773.000000	100.300845
3772.000000	100.301177
3771.000000	100.301404
3770.000000	100.301690
3769.000000	100.302072
3768.000000	100.302263
3767.000000	100.302021
3766.000000	100.301597
3765.000000	100.301535
3764.000000	100.302029
3763.000000	100.302706
3762.000000	100.303047
3761.000000	100.302842
3760.000000	100.302137
3759.000000	100.301111
3758.000000	100.300190
3757.000000	100.299975
3756.000000	100.300874
3755.000000	100.302738
3754.000000	100.304998
3753.000000	100.306948
3752.000000	100.307921
3751.000000	100.307675
3750.000000	100.306759
3749.000000	100.305868
3748.000000	100.304833
3747.000000	100.302988
3746.000000	100.300330
3745.000000	100.297919
3744.000000	100.297190
3743.000000	100.297997
3742.000000	100.298036
3741.000000	100.296726
3740.000000	100.296301
3739.000000	100.297975
3738.000000	100.300898
3737.000000	100.303584
3736.000000	100.304926
3735.000000	100.304171
3734.000000	100.301110
3733.000000	100.296905
3732.000000	100.293673
3731.000000	100.292326
3730.000000	100.291739
3729.000000	100.290310
3728.000000	100.287670
3727.000000	100.284643
3726.000000	100.282210
3725.000000	100.280657
3724.000000	100.279641
3723.000000	100.278887
3722.000000	100.278187
3721.000000	100.277040
3720.000000	100.274953
3719.000000	100.272034
3718.000000	100.269077
3717.000000	100.266859
3716.000000	100.265455
3715.000000	100.264305
3714.000000	100.262865
3713.000000	100.260888
3712.000000	100.258380
3711.000000	100.255570
3710.000000	100.252480
3709.000000	100.248750
3708.000000	100.244213
3707.000000	100.239190
3706.000000	100.234262
3705.000000	100.229940
3704.000000	100.226581
3703.000000	100.224479
3702.000000	100.223735
3701.000000	100.223680
3700.000000	100.222457
3699.000000	100.218082
3698.000000	100.210542
3697.000000	100.202512
3696.000000	100.197104
3695.000000	100.194944
3694.000000	100.194125
3693.000000	100.192552
3692.000000	100.189394
3691.000000	100.184813
3690.000000	100.179698
3689.000000	100.175340
3688.000000	100.172293
3687.000000	100.169068
3686.000000	100.163488
3685.000000	100.156007
3684.000000	100.149470
3683.000000	100.145358
3682.000000	100.142544
3681.000000	100.139425
3680.000000	100.135725
3679.000000	100.131621
3678.000000	100.126082
3677.000000	100.118310
3676.000000	100.110286
3675.000000	100.105422
3674.000000	100.101834
3673.000000	100.092869
3672.000000	100.077811
3671.000000	100.063160
3670.000000	100.053828
3669.000000	100.048656
3668.000000	100.041891
3667.000000	100.029766
3666.000000	100.014870
3665.000000	100.001609
3664.000000	99.991408
3663.000000	99.983186
3662.000000	99.975945
3661.000000	99.969987
3660.000000	99.965789
3659.000000	99.962417
3658.000000	99.958056
3657.000000	99.952643
3656.000000	99.948714
3655.000000	99.947608
3654.000000	99.946114
3653.000000	99.940578
3652.000000	99.930659
3651.000000	99.917402
3650.000000	99.902810
3649.000000	99.890556
3648.000000	99.881798
3647.000000	99.873558
3646.000000	99.862549
3645.000000	99.847711
3644.000000	99.831294
3643.000000	99.817698
3642.000000	99.809934
3641.000000	99.807065
3640.000000	99.805671
3639.000000	99.803411
3638.000000	99.800148
3637.000000	99.795654
3636.000000	99.788681
3635.000000	99.779486
3634.000000	99.770679
3633.000000	99.763750
3632.000000	99.756496
3631.000000	99.746825
3630.000000	99.738041
3629.000000	99.737730
3628.000000	99.747985
3627.000000	99.758510
3626.000000	99.758823
3625.000000	99.751421
3624.000000	99.743902
3623.000000	99.738319
3622.000000	99.732527
3621.000000	99.726146
3620.000000	99.722968
3619.000000	99.727268
3618.000000	99.738347
3617.000000	99.750598
3616.000000	99.759258
3615.000000	99.764165
3614.000000	99.768073
3613.000000	99.773241
3612.000000	99.779499
3611.000000	99.785327
3610.000000	99.790647
3609.000000	99.797469
3608.000000	99.807113
3607.000000	99.817629
3606.000000	99.825181
3605.000000	99.827758
3604.000000	99.826508
3603.000000	99.824148
3602.000000	99.823198
3601.000000	99.825048
3600.000000	99.829518
3599.000000	99.835164
3598.000000	99.840459
3597.000000	99.844561
3596.000000	99.846809
3595.000000	99.846927
3594.000000	99.846031
3593.000000	99.846203
3592.000000	99.848238
3591.000000	99.850624
3590.000000	99.850807
3589.000000	99.848099
3588.000000	99.845815
3587.000000	99.848710
3586.000000	99.857205
3585.000000	99.866540
3584.000000	99.871640
3583.000000	99.870568
3582.000000	99.864586
3581.000000	99.856754
3580.000000	99.850288
3579.000000	99.847087
3578.000000	99.847206
3577.000000	99.849364
3576.000000	99.851749
3575.000000	99.852893
3574.000000	99.852352
3573.000000	99.850767
3572.000000	99.849211
3571.000000	99.848293
3570.000000	99.847855
3569.000000	99.847370
3568.000000	99.846556
3567.000000	99.845322
3566.000000	99.843231
3565.000000	99.839769
3564.000000	99.835484
3563.000000	99.832138
3562.000000	99.831335
3561.000000	99.833135
3560.000000	99.836081
3559.000000	99.838570
3558.000000	99.840108
3557.000000	99.841074
3556.000000	99.841625
3555.000000	99.841303
3554.000000	99.839799
3553.000000	99.837698
3552.000000	99.836037
3551.000000	99.835085
3550.000000	99.834108
3549.000000	99.832477
3548.000000	99.830639
3547.000000	99.829719
3546.000000	99.830284
3545.000000	99.831780
3544.000000	99.833201
3543.000000	99.834098
3542.000000	99.834750
3541.000000	99.835472
3540.000000	99.836051
3539.000000	99.835894
3538.000000	99.834652
3537.000000	99.832652
3536.000000	99.830671
3535.000000	99.829213
3534.000000	99.828276
3533.000000	99.827877
3532.000000	99.828425
3531.000000	99.830242
3530.000000	99.832785
3529.000000	99.834776
3528.000000	99.835285
3527.000000	99.834551
3526.000000	99.833666
3525.000000	99.833634
3524.000000	99.834782
3523.000000	99.836818
3522.000000	99.839132
3521.000000	99.841019
3520.000000	99.841912
3519.000000	99.841739
3518.000000	99.841220
3517.000000	99.841543
3516.000000	99.843353
3515.000000	99.845982
3514.000000	99.847824
3513.000000	99.847778
3512.000000	99.846324
3511.000000	99.845166
3510.000000	99.845631
3509.000000	99.847610
3508.000000	99.850062
3507.000000	99.852185
3506.000000	99.853779
3505.000000	99.854727
3504.000000	99.854609
3503.000000	99.853118
3502.000000	99.850719
3501.000000	99.848589
3500.000000	99.847810
3499.000000	99.848668
3498.000000	99.850732
3497.000000	99.853492
3496.000000	99.856855
3495.000000	99.860841
3494.000000	99.864821
3493.000000	99.867353
3492.000000	99.867052
3491.000000	99.863699
3490.000000	99.858610
3489.000000	99.853835
3488.000000	99.850628
3487.000000	99.848610
3486.000000	99.846488
3485.000000	99.843653
3484.000000	99.840996
3483.000000	99.839975
3482.000000	99.840988
3481.000000	99.842884
3480.000000	99.844100
3479.000000	99.843998
3478.000000	99.842921
3477.000000	99.841435
3476.000000	99.839950
3475.000000	99.838821
3474.000000	99.838333
3473.000000	99.838446
3472.000000	99.838781
3471.000000	99.838996
3470.000000	99.839024
3469.000000	99.838925
3468.000000	99.838683
3467.000000	99.838207
3466.000000	99.837467
3465.000000	99.836533
3464.000000	99.835552
3463.000000	99.834718
3462.000000	99.834179
3461.000000	99.833922
3460.000000	99.833733
3459.000000	99.833319
3458.000000	99.832538
3457.000000	99.831554
3456.000000	99.830719
3455.000000	99.830217
3454.000000	99.829885
3453.000000	99.829433
3452.000000	99.828763
3451.000000	99.828021
3450.000000	99.827333
3449.000000	99.826714
3448.000000	99.826133
3447.000000	99.825574
3446.000000	99.825032
3445.000000	99.824504
3444.000000	99.823979
3443.000000	99.823436
3442.000000	99.822858
3441.000000	99.822245
3440.000000	99.821612
3439.000000	99.820980
3438.000000	99.820352
3437.000000	99.819715
3436.000000	99.819060
3435.000000	99.818387
3434.000000	99.817701
3433.000000	99.817001
3432.000000	99.816286
3431.000000	99.815567
3430.000000	99.814878
3429.000000	99.814258
3428.000000	99.813725
3427.000000	99.813268
3426.000000	99.812838
3425.000000	99.812350
3424.000000	99.811740
3423.000000	99.811007
3422.000000	99.810235
3421.000000	99.809548
3420.000000	99.809014
3419.000000	99.808626
3418.000000	99.808325
3417.000000	99.808037
3416.000000	99.807696
3415.000000	99.807289
3414.000000	99.806914
3413.000000	99.806746
3412.000000	99.806827
3411.000000	99.806884
3410.000000	99.806501
3409.000000	99.805456
3408.000000	99.803971
3407.000000	99.802628
3406.000000	99.801907
3405.000000	99.801877
3404.000000	99.802156
3403.000000	99.802212
3402.000000	99.801843
3401.000000	99.801392
3400.000000	99.801463
3399.000000	99.802290
3398.000000	99.803377
3397.000000	99.803882
3396.000000	99.803413
3395.000000	99.802334
3394.000000	99.801312
3393.000000	99.800695
3392.000000	99.800465
3391.000000	99.800574
3390.000000	99.800994
3389.000000	99.801473
3388.000000	99.801640
3387.000000	99.801551
3386.000000	99.801890
3385.000000	99.803359
3384.000000	99.805900
3383.000000	99.808676
3382.000000	99.810802
3381.000000	99.812048
3380.000000	99.812945
3379.000000	99.814270
3378.000000	99.816261
3377.000000	99.818201
3376.000000	99.818916
3375.000000	99.817828
3374.000000	99.815434
3373.000000	99.812681
3372.000000	99.810082
3371.000000	99.807764
3370.000000	99.806063
3369.000000	99.805416
3368.000000	99.805748
3367.000000	99.806613
3366.000000	99.808102
3365.000000	99.811040
3364.000000	99.815741
3363.000000	99.820880
3362.000000	99.824362
3361.000000	99.825304
3360.000000	99.824612
3359.000000	99.823837
3358.000000	99.823658
3357.000000	99.823689
3356.000000	99.823434
3355.000000	99.822951
3354.000000	99.822586
3353.000000	99.822405
3352.000000	99.822086
3351.000000	99.821336
3350.000000	99.820332
3349.000000	99.819691
3348.000000	99.820000
3347.000000	99.821348
3346.000000	99.823265
3345.000000	99.825084
3344.000000	99.826369
3343.000000	99.827054
3342.000000	99.827298
3341.000000	99.827288
3340.000000	99.827131
3339.000000	99.826853
3338.000000	99.826530
3337.000000	99.826468
3336.000000	99.827199
3335.000000	99.829061
3334.000000	99.831712
3333.000000	99.834193
3332.000000	99.835632
3331.000000	99.835950
3330.000000	99.835853
3329.000000	99.836157
3328.000000	99.837116
3327.000000	99.838382
3326.000000	99.839456
3325.000000	99.840099
3324.000000	99.840382
3323.000000	99.840518
3322.000000	99.840739
3321.000000	99.841231
3320.000000	99.842075
3319.000000	99.843171
3318.000000	99.844289
3317.000000	99.845313
3316.000000	99.846424
3315.000000	99.847895
3314.000000	99.849653
3313.000000	99.851140
3312.000000	99.851798
3311.000000	99.851615
3310.000000	99.851127
3309.000000	99.850890
3308.000000	99.851071
3307.000000	99.851541
3306.000000	99.852115
3305.000000	99.852630
3304.000000	99.852988
3303.000000	99.853226
3302.000000	99.853430
3301.000000	99.853549
3300.000000	99.853441
3299.000000	99.853231
3298.000000	99.853447
3297.000000	99.854604
3296.000000	99.856759
3295.000000	99.859517
3294.000000	99.862223
3293.000000	99.864071
3292.000000	99.864417
3291.000000	99.863464
3290.000000	99.862562
3289.000000	99.863176
3288.000000	99.865428
3287.000000	99.867988
3286.000000	99.869454
3285.000000	99.869529
3284.000000	99.868705
3283.000000	99.867428
3282.000000	99.865874
3281.000000	99.864313
3280.000000	99.863276
3279.000000	99.863327
3278.000000	99.864657
3277.000000	99.866711
3276.000000	99.868273
3275.000000	99.868385
3274.000000	99.867371
3273.000000	99.866598
3272.000000	99.867079
3271.000000	99.868641
3270.000000	99.870494
3269.000000	99.872140
3268.000000	99.873575
3267.000000	99.875206
3266.000000	99.877812
3265.000000	99.881962
3264.000000	99.886974
3263.000000	99.891077
3262.000000	99.893234
3261.000000	99.894187
3260.000000	99.895237
3259.000000	99.896450
3258.000000	99.896876
3257.000000	99.896216
3256.000000	99.895314
3255.000000	99.895011
3254.000000	99.895359
3253.000000	99.896075
3252.000000	99.896982
3251.000000	99.897767
3250.000000	99.897996
3249.000000	99.897773
3248.000000	99.897917
3247.000000	99.898958
3246.000000	99.900153
3245.000000	99.900012
3244.000000	99.897888
3243.000000	99.894835
3242.000000	99.892771
3241.000000	99.892739
3240.000000	99.894150
3239.000000	99.895660
3238.000000	99.896694
3237.000000	99.897860
3236.000000	99.899842
3235.000000	99.902389
3234.000000	99.904653
3233.000000	99.906233
3232.000000	99.907453
3231.000000	99.908686
3230.000000	99.909844
3229.000000	99.910669
3228.000000	99.911262
3227.000000	99.912085
3226.000000	99.913513
3225.000000	99.915498
3224.000000	99.917532
3223.000000	99.918839
3222.000000	99.918778
3221.000000	99.917264
3220.000000	99.914964
3219.000000	99.913087
3218.000000	99.912598
3217.000000	99.913630
3216.000000	99.915563
3215.000000	99.917451
3214.000000	99.918682
3213.000000	99.919234
3212.000000	99.919432
3211.000000	99.919600
3210.000000	99.919903
3209.000000	99.920402
3208.000000	99.921169
3207.000000	99.922303
3206.000000	99.923814
3205.000000	99.925503
3204.000000	99.927001
3203.000000	99.928041
3202.000000	99.928655
3201.000000	99.929080
3200.000000	99.929495
3199.000000	99.929917
3198.000000	99.930368
3197.000000	99.930949
3196.000000	99.931702
3195.000000	99.932522
3194.000000	99.933274
3193.000000	99.933942
3192.000000	99.934608
3191.000000	99.935329
3190.000000	99.936105
3189.000000	99.936951
3188.000000	99.937898
3187.000000	99.938917
3186.000000	99.939918
3185.000000	99.940839
3184.000000	99.941708
3183.000000	99.942595
3182.000000	99.943544
3181.000000	99.944540
3180.000000	99.945559
3179.000000	99.946593
3178.000000	99.947641
3177.000000	99.948693
3176.000000	99.949738
3175.000000	99.950771
3174.000000	99.951796
3173.000000	99.952821
3172.000000	99.953853
3171.000000	99.954891
3170.000000	99.955929
3169.000000	99.956963
3168.000000	99.957991
3167.000000	99.959012
3166.000000	99.960030
3165.000000	99.961048
3164.000000	99.962069
3163.000000	99.963097
3162.000000	99.964134
3161.000000	99.965185
3160.000000	99.966254
3159.000000	99.967341
3158.000000	99.968441
3157.000000	99.969547
3156.000000	99.970647
3155.000000	99.971733
3154.000000	99.972802
3153.000000	99.973862
3152.000000	99.974925
3151.000000	99.975998
3150.000000	99.977079
3149.000000	99.978160
3148.000000	99.979231
3147.000000	99.980291
3146.000000	99.981343
3145.000000	99.982389
3144.000000	99.983430
3143.000000	99.984466
3142.000000	99.985500
3141.000000	99.986541
3140.000000	99.987598
3139.000000	99.988673
3138.000000	99.989760
3137.000000	99.990855
3136.000000	99.991955
3135.000000	99.993052
3134.000000	99.994139
3133.000000	99.995218
3132.000000	99.996300
3131.000000	99.997383
3130.000000	99.998454
3129.000000	99.999512
3128.000000	100.000588
3127.000000	100.001722
3126.000000	100.002928
3125.000000	100.004196
3124.000000	100.005511
3123.000000	100.006824
3122.000000	100.008050
3121.000000	100.009138
3120.000000	100.010162
3119.000000	100.011246
3118.000000	100.012393
3117.000000	100.013437
3116.000000	100.014230
3115.000000	100.014840
3114.000000	100.015559
3113.000000	100.016661
3112.000000	100.018221
3111.000000	100.020101
3110.000000	100.022016
3109.000000	100.023688
3108.000000	100.024981
3107.000000	100.025965
3106.000000	100.026881
3105.000000	100.027950
3104.000000	100.029204
3103.000000	100.030504
3102.000000	100.031693
3101.000000	100.032741
3100.000000	100.033710
3099.000000	100.034672
3098.000000	100.035677
3097.000000	100.036766
3096.000000	100.037901
3095.000000	100.038920
3094.000000	100.039669
3093.000000	100.040205
3092.000000	100.040789
3091.000000	100.041636
3090.000000	100.042762
3089.000000	100.044066
3088.000000	100.045456
3087.000000	100.046806
3086.000000	100.047882
3085.000000	100.048488
3084.000000	100.048699
3083.000000	100.048882
3082.000000	100.049348
3081.000000	100.050082
3080.000000	100.050820
3079.000000	100.051315
3078.000000	100.051561
3077.000000	100.051850
3076.000000	100.052590
3075.000000	100.053956
3074.000000	100.055663
3073.000000	100.057129
3072.000000	100.057990
3071.000000	100.058309
3070.000000	100.058342
3069.000000	100.058241
3068.000000	100.058045
3067.000000	100.057883
3066.000000	100.058078
3065.000000	100.058988
3064.000000	100.060694
3063.000000	100.062711
3062.000000	100.064148
3061.000000	100.064493
3060.000000	100.064208
3059.000000	100.064279
3058.000000	100.065054
3057.000000	100.065876
3056.000000	100.065995
3055.000000	100.065462
3054.000000	100.064829
3053.000000	100.064351
3052.000000	100.063878
3051.000000	100.063332
3050.000000	100.062835
3049.000000	100.062492
3048.000000	100.062392
3047.000000	100.062726
3046.000000	100.063686
3045.000000	100.065393
3044.000000	100.068098
3043.000000	100.072100
3042.000000	100.077004
3041.000000	100.081419
3040.000000	100.084106
3039.000000	100.085304
3038.000000	100.086321
3037.000000	100.087627
3036.000000	100.088157
3035.000000	100.086957
3034.000000	100.084817
3033.000000	100.083576
3032.000000	100.083965
3031.000000	100.084938
3030.000000	100.085179
3029.000000	100.084526
3028.000000	100.083585
3027.000000	100.082591
3026.000000	100.081480
3025.000000	100.080952
3024.000000	100.082522
3023.000000	100.086920
3022.000000	100.092737
3021.000000	100.097283
3020.000000	100.099109
3019.000000	100.099152
3018.000000	100.099280
3017.000000	100.100076
3016.000000	100.100497
3015.000000	100.099486
3014.000000	100.097302
3013.000000	100.095340
3012.000000	100.095181
3011.000000	100.097766
3010.000000	100.102655
3009.000000	100.107752
3008.000000	100.110676
3007.000000	100.111086
3006.000000	100.111188
3005.000000	100.113181
3004.000000	100.116598
3003.000000	100.119125
3002.000000	100.119840
3001.000000	100.120384
3000.000000	100.122531
2999.000000	100.125978
2998.000000	100.129439
2997.000000	100.132865
2996.000000	100.137209
2995.000000	100.142451
2994.000000	100.147316
2993.000000	100.151065
2992.000000	100.154309
2991.000000	100.157759
2990.000000	100.161350
2989.000000	100.164994
2988.000000	100.169093
2987.000000	100.173703
2986.000000	100.178194
2985.000000	100.182419
2984.000000	100.187323
2983.000000	100.193558
2982.000000	100.200293
2981.000000	100.206270
2980.000000	100.211203
2979.000000	100.215042
2978.000000	100.216885
2977.000000	100.216327
2976.000000	100.215278
2975.000000	100.216347
2974.000000	100.219233
2973.000000	100.220668
2972.000000	100.218501
2971.000000	100.214025
2970.000000	100.209293
2969.000000	100.203623
2968.000000	100.194568
2967.000000	100.181768
2966.000000	100.168364
2965.000000	100.158386
2964.000000	100.153556
2963.000000	100.152654
2962.000000	100.153044
2961.000000	100.152695
2960.000000	100.151469
2959.000000	100.150857
2958.000000	100.152232
2957.000000	100.155150
2956.000000	100.157389
2955.000000	100.156859
2954.000000	100.153760
2953.000000	100.151022
2952.000000	100.152259
2951.000000	100.158600
2950.000000	100.167163
2949.000000	100.173052
2948.000000	100.173532
2947.000000	100.170015
2946.000000	100.166093
2945.000000	100.164164
2944.000000	100.164191
2943.000000	100.165006
2942.000000	100.165871
2941.000000	100.166804
2940.000000	100.168015
2939.000000	100.169358
2938.000000	100.170346
2937.000000	100.170822
2936.000000	100.171454
2935.000000	100.173066
2934.000000	100.175408
2933.000000	100.177214
2932.000000	100.177735
2931.000000	100.177590
2930.000000	100.177704
2929.000000	100.178034
2928.000000	100.177901
2927.000000	100.177203
2926.000000	100.176621
2925.000000	100.176786
2924.000000	100.177712
2923.000000	100.179071
2922.000000	100.180545
2921.000000	100.181828
2920.000000	100.182706
2919.000000	100.183273
2918.000000	100.183849
2917.000000	100.184609
2916.000000	100.185412
2915.000000	100.186025
2914.000000	100.186367
2913.000000	100.186534
2912.000000	100.186713
2911.000000	100.187113
2910.000000	100.187873
2909.000000	100.188973
2908.000000	100.190145
2907.000000	100.190997
2906.000000	100.191334
2905.000000	100.191321
2904.000000	100.191404
2903.000000	100.191920
2902.000000	100.192881
2901.000000	100.193995
2900.000000	100.194942
2899.000000	100.195679
2898.000000	100.196429
2897.000000	100.197349
2896.000000	100.198249
2895.000000	100.198778
2894.000000	100.198861
2893.000000	100.198812
2892.000000	100.199004
2891.000000	100.199545
2890.000000	100.200297
2889.000000	100.201009
2888.000000	100.201431
2887.000000	100.201502
2886.000000	100.201459
2885.000000	100.201587
2884.000000	100.201791
2883.000000	100.201657
2882.000000	100.201035
2881.000000	100.200325
2880.000000	100.200039
2879.000000	100.200277
2878.000000	100.200802
2877.000000	100.201380
2876.000000	100.201819
2875.000000	100.201852
2874.000000	100.201341
2873.000000	100.200589
2872.000000	100.200172
2871.000000	100.200353
2870.000000	100.200848
2869.000000	100.201173
2868.000000	100.201019
2867.000000	100.200281
2866.000000	100.199005
2865.000000	100.197518
2864.000000	100.196451
2863.000000	100.196292
2862.000000	100.196924
2861.000000	100.197714
2860.000000	100.198025
2859.000000	100.197689
2858.000000	100.197064
2857.000000	100.196729
2856.000000	100.197046
2855.000000	100.197941
2854.000000	100.199021
2853.000000	100.199844
2852.000000	100.200094
2851.000000	100.199638
2850.000000	100.198630
2849.000000	100.197589
2848.000000	100.197090
2847.000000	100.197247
2846.000000	100.197636
2845.000000	100.197794
2844.000000	100.197752
2843.000000	100.197907
2842.000000	100.198528
2841.000000	100.199521
2840.000000	100.200599
2839.000000	100.201469
2838.000000	100.201901
2837.000000	100.201853
2836.000000	100.201647
2835.000000	100.201851
2834.000000	100.202826
2833.000000	100.204379
2832.000000	100.205862
2831.000000	100.206681
2830.000000	100.206724
2829.000000	100.206391
2828.000000	100.206189
2827.000000	100.206229
2826.000000	100.206206
2825.000000	100.205854
2824.000000	100.205282
2823.000000	100.204839
2822.000000	100.204735
2821.000000	100.204959
2820.000000	100.205454
2819.000000	100.206207
2818.000000	100.207161
2817.000000	100.208169
2816.000000	100.209082
2815.000000	100.209833
2814.000000	100.210397
2813.000000	100.210758
2812.000000	100.210973
2811.000000	100.211179
2810.000000	100.211490
2809.000000	100.211895
2808.000000	100.212296
2807.000000	100.212626
2806.000000	100.212910
2805.000000	100.213230
2804.000000	100.213639
2803.000000	100.214122
2802.000000	100.214632
2801.000000	100.215143
2800.000000	100.215656
2799.000000	100.216168
2798.000000	100.216644
2797.000000	100.217050
2796.000000	100.217411
2795.000000	100.217794
2794.000000	100.218244
2793.000000	100.218744
2792.000000	100.219247
2791.000000	100.219721
2790.000000	100.220174
2789.000000	100.220633
2788.000000	100.221124
2787.000000	100.221661
2786.000000	100.222246
2785.000000	100.222857
2784.000000	100.223448
2783.000000	100.223986
2782.000000	100.224469
2781.000000	100.224932
2780.000000	100.225410
2779.000000	100.225912
2778.000000	100.226423
2777.000000	100.226930
2776.000000	100.227441
2775.000000	100.227967
2774.000000	100.228512
2773.000000	100.229067
2772.000000	100.229624
2771.000000	100.230174
2770.000000	100.230714
2769.000000	100.231261
2768.000000	100.231868
2767.000000	100.232602
2766.000000	100.233490
2765.000000	100.234497
2764.000000	100.235492
2763.000000	100.236289
2762.000000	100.236761
2761.000000	100.236928
2760.000000	100.237041
2759.000000	100.237427
2758.000000	100.238219
2757.000000	100.239268
2756.000000	100.240263
2755.000000	100.241058
2754.000000	100.241712
2753.000000	100.242298
2752.000000	100.242816
2751.000000	100.243332
2750.000000	100.244032
2749.000000	100.244998
2748.000000	100.246023
2747.000000	100.246799
2746.000000	100.247210
2745.000000	100.247309
2744.000000	100.247219
2743.000000	100.247098
2742.000000	100.247102
2741.000000	100.247295
2740.000000	100.247594
2739.000000	100.247883
2738.000000	100.248117
2737.000000	100.248295
2736.000000	100.248424
2735.000000	100.248579
2734.000000	100.248880
2733.000000	100.249348
2732.000000	100.249854
2731.000000	100.250268
2730.000000	100.250599
2729.000000	100.250932
2728.000000	100.251278
2727.000000	100.251563
2726.000000	100.251734
2725.000000	100.251803
2724.000000	100.251815
2723.000000	100.251815
2722.000000	100.251848
2721.000000	100.251931
2720.000000	100.252056
2719.000000	100.252194
2718.000000	100.252325
2717.000000	100.252438
2716.000000	100.252532
2715.000000	100.252611
2714.000000	100.252682
2713.000000	100.252754
2712.000000	100.252836
2711.000000	100.252927
2710.000000	100.253027
2709.000000	100.253132
2708.000000	100.253238
2707.000000	100.253339
2706.000000	100.253429
2705.000000	100.253509
2704.000000	100.253588
2703.000000	100.253680
2702.000000	100.253793
2701.000000	100.253924
2700.000000	100.254061
2699.000000	100.254196
2698.000000	100.254327
2697.000000	100.254462
2696.000000	100.254610
2695.000000	100.254771
2694.000000	100.254940
2693.000000	100.255107
2692.000000	100.255259
2691.000000	100.255390
2690.000000	100.255499
2689.000000	100.255593
2688.000000	100.255684
2687.000000	100.255780
2686.000000	100.255884
2685.000000	100.255994
2684.000000	100.256112
2683.000000	100.256241
2682.000000	100.256384
2681.000000	100.256540
2680.000000	100.256699
2679.000000	100.256851
2678.000000	100.256985
2677.000000	100.257101
2676.000000	100.257205
2675.000000	100.257301
2674.000000	100.257394
2673.000000	100.257482
2672.000000	100.257562
2671.000000	100.257639
2670.000000	100.257715
2669.000000	100.257775
2668.000000	100.257800
2667.000000	100.257774
2666.000000	100.257690
2665.000000	100.257605
2664.000000	100.257653
2663.000000	100.257928
2662.000000	100.258310
2661.000000	100.258540
2660.000000	100.258487
2659.000000	100.258263
2658.000000	100.258130
2657.000000	100.258305
2656.000000	100.258809
2655.000000	100.259406
2654.000000	100.259789
2653.000000	100.259941
2652.000000	100.260164
2651.000000	100.260620
2650.000000	100.261027
2649.000000	100.261005
2648.000000	100.260570
2647.000000	100.260113
2646.000000	100.259910
2645.000000	100.259822
2644.000000	100.259493
2643.000000	100.258737
2642.000000	100.257739
2641.000000	100.256833
2640.000000	100.256035
2639.000000	100.255029
2638.000000	100.253792
2637.000000	100.253017
2636.000000	100.253486
2635.000000	100.255078
2634.000000	100.256696
2633.000000	100.257349
2632.000000	100.257066
2631.000000	100.256600
2630.000000	100.256609
2629.000000	100.257230
2628.000000	100.258094
2627.000000	100.258564
2626.000000	100.258242
2625.000000	100.257494
2624.000000	100.257215
2623.000000	100.257854
2622.000000	100.258914
2621.000000	100.259687
2620.000000	100.260244
2619.000000	100.261242
2618.000000	100.262859
2617.000000	100.264349
2616.000000	100.264719
2615.000000	100.263596
2614.000000	100.261434
2613.000000	100.259219
2612.000000	100.257886
2611.000000	100.257786
2610.000000	100.258577
2609.000000	100.259634
2608.000000	100.260604
2607.000000	100.261483
2606.000000	100.262264
2605.000000	100.262820
2604.000000	100.263178
2603.000000	100.263576
2602.000000	100.264039
2601.000000	100.264051
2600.000000	100.262924
2599.000000	100.260458
2598.000000	100.257193
2597.000000	100.254152
2596.000000	100.252286
2595.000000	100.252063
2594.000000	100.253335
2593.000000	100.255416
2592.000000	100.257429
2591.000000	100.258784
2590.000000	100.259399
2589.000000	100.259489
2588.000000	100.259234
2587.000000	100.258708
2586.000000	100.258061
2585.000000	100.257607
2584.000000	100.257628
2583.000000	100.258134
2582.000000	100.258828
2581.000000	100.259223
2580.000000	100.258816
2579.000000	100.257398
2578.000000	100.255401
2577.000000	100.253757
2576.000000	100.253137
2575.000000	100.253411
2574.000000	100.254038
2573.000000	100.254793
2572.000000	100.255768
2571.000000	100.256805
2570.000000	100.257461
2569.000000	100.257571
2568.000000	100.257477
2567.000000	100.257544
2566.000000	100.257754
2565.000000	100.257939
2564.000000	100.258115
2563.000000	100.258418
2562.000000	100.258866
2561.000000	100.259371
2560.000000	100.259854
2559.000000	100.260216
2558.000000	100.260318
2557.000000	100.260135
2556.000000	100.259871
2555.000000	100.259783
2554.000000	100.259905
2553.000000	100.260069
2552.000000	100.260129
2551.000000	100.260109
2550.000000	100.260158
2549.000000	100.260406
2548.000000	100.260841
2547.000000	100.261291
2546.000000	100.261556
2545.000000	100.261591
2544.000000	100.261509
2543.000000	100.261502
2542.000000	100.261643
2541.000000	100.261897
2540.000000	100.262248
2539.000000	100.262711
2538.000000	100.263226
2537.000000	100.263652
2536.000000	100.263921
2535.000000	100.264107
2534.000000	100.264333
2533.000000	100.264624
2532.000000	100.264917
2531.000000	100.265150
2530.000000	100.265321
2529.000000	100.265465
2528.000000	100.265624
2527.000000	100.265823
2526.000000	100.266055
2525.000000	100.266289
2524.000000	100.266525
2523.000000	100.266809
2522.000000	100.267177
2521.000000	100.267597
2520.000000	100.268008
2519.000000	100.268399
2518.000000	100.268793
2517.000000	100.269174
2516.000000	100.269487
2515.000000	100.269722
2514.000000	100.269942
2513.000000	100.270207
2512.000000	100.270496
2511.000000	100.270736
2510.000000	100.270899
2509.000000	100.271027
2508.000000	100.271169
2507.000000	100.271333
2506.000000	100.271524
2505.000000	100.271792
2504.000000	100.272205
2503.000000	100.272739
2502.000000	100.273222
2501.000000	100.273509
2500.000000	100.273637
2499.000000	100.273794
2498.000000	100.274115
2497.000000	100.274545
2496.000000	100.274924
2495.000000	100.275216
2494.000000	100.275567
2493.000000	100.276081
2492.000000	100.276641
2491.000000	100.277043
2490.000000	100.277260
2489.000000	100.277469
2488.000000	100.277815
2487.000000	100.278259
2486.000000	100.278680
2485.000000	100.279026
2484.000000	100.279297
2483.000000	100.279453
2482.000000	100.279441
2481.000000	100.279329
2480.000000	100.279339
2479.000000	100.279672
2478.000000	100.280323
2477.000000	100.281074
2476.000000	100.281671
2475.000000	100.281966
2474.000000	100.281904
2473.000000	100.281533
2472.000000	100.281124
2471.000000	100.281128
2470.000000	100.281844
2469.000000	100.283140
2468.000000	100.284546
2467.000000	100.285691
2466.000000	100.286540
2465.000000	100.287213
2464.000000	100.287740
2463.000000	100.288104
2462.000000	100.288362
2461.000000	100.288579
2460.000000	100.288690
2459.000000	100.288623
2458.000000	100.288555
2457.000000	100.288847
2456.000000	100.289654
2455.000000	100.290719
2454.000000	100.291621
2453.000000	100.292135
2452.000000	100.292306
2451.000000	100.292309
2450.000000	100.292353
2449.000000	100.292594
2448.000000	100.292982
2447.000000	100.293207
2446.000000	100.292996
2445.000000	100.292497
2444.000000	100.292226
2443.000000	100.292503
2442.000000	100.293063
2441.000000	100.293356
2440.000000	100.293237
2439.000000	100.293188
2438.000000	100.293717
2437.000000	100.294692
2436.000000	100.295418
2435.000000	100.295422
2434.000000	100.294964
2433.000000	100.294719
2432.000000	100.295100
2431.000000	100.296038
2430.000000	100.297196
2429.000000	100.298136
2428.000000	100.298380
2427.000000	100.297728
2426.000000	100.296733
2425.000000	100.296508
2424.000000	100.297730
2423.000000	100.300002
2422.000000	100.302327
2421.000000	100.304167
2420.000000	100.305645
2419.000000	100.306786
2418.000000	100.307144
2417.000000	100.306426
2416.000000	100.305096
2415.000000	100.304090
2414.000000	100.304025
2413.000000	100.304911
2412.000000	100.306344
2411.000000	100.307702
2410.000000	100.308408
2409.000000	100.308391
2408.000000	100.308195
2407.000000	100.308353
2406.000000	100.308680
2405.000000	100.308521
2404.000000	100.307579
2403.000000	100.306169
2402.000000	100.304749
2401.000000	100.303595
2400.000000	100.302982
2399.000000	100.303250
2398.000000	100.304481
2397.000000	100.306285
2396.000000	100.308095
2395.000000	100.309566
2394.000000	100.310536
2393.000000	100.310863
2392.000000	100.310501
2391.000000	100.309677
2390.000000	100.308853
2389.000000	100.308535
2388.000000	100.309110
2387.000000	100.310667
2386.000000	100.312835
2385.000000	100.314919
2384.000000	100.316396
2383.000000	100.317256
2382.000000	100.317781
2381.000000	100.318172
2380.000000	100.318552
2379.000000	100.319136
2378.000000	100.320065
2377.000000	100.321071
2376.000000	100.321648
2375.000000	100.321742
2374.000000	100.321981
2373.000000	100.322933
2372.000000	100.324303
2371.000000	100.325235
2370.000000	100.325442
2369.000000	100.325579
2368.000000	100.326293
2367.000000	100.327276
2366.000000	100.327731
2365.000000	100.327558
2364.000000	100.327552
2363.000000	100.328384
2362.000000	100.329883
2361.000000	100.331268
2360.000000	100.331978
2359.000000	100.332037
2358.000000	100.331611
2357.000000	100.330911
2356.000000	100.330236
2355.000000	100.329952
2354.000000	100.330290
2353.000000	100.331026
2352.000000	100.331659
2351.000000	100.331777
2350.000000	100.331558
2349.000000	100.331600
2348.000000	100.332212
2347.000000	100.333240
2346.000000	100.334068
2345.000000	100.334275
2344.000000	100.333858
2343.000000	100.332958
2342.000000	100.331600
2341.000000	100.329760
2340.000000	100.328017
2339.000000	100.327025
2338.000000	100.326814
2337.000000	100.326788
2336.000000	100.326428
2335.000000	100.325769
2334.000000	100.325159
2333.000000	100.324742
2332.000000	100.324362
2331.000000	100.323744
2330.000000	100.322761
2329.000000	100.321549
2328.000000	100.320383
2327.000000	100.319596
2326.000000	100.319228
2325.000000	100.319087
2324.000000	100.318854
2323.000000	100.318356
2322.000000	100.317611
2321.000000	100.316674
2320.000000	100.315658
2319.000000	100.314719
2318.000000	100.314004
2317.000000	100.313507
2316.000000	100.313066
2315.000000	100.312516
2314.000000	100.311833
2313.000000	100.311107
2312.000000	100.310410
2311.000000	100.309753
2310.000000	100.309101
2309.000000	100.308451
2308.000000	100.307815
2307.000000	100.307192
2306.000000	100.306561
2305.000000	100.305912
2304.000000	100.305258
2303.000000	100.304617
2302.000000	100.303996
2301.000000	100.303401
2300.000000	100.302832
2299.000000	100.302286
2298.000000	100.301755
2297.000000	100.301225
2296.000000	100.300687
2295.000000	100.300132
2294.000000	100.299562
2293.000000	100.298975
2292.000000	100.298370
2291.000000	100.297744
2290.000000	100.297106
2289.000000	100.296469
2288.000000	100.295840
2287.000000	100.295221
2286.000000	100.294607
2285.000000	100.293993
2284.000000	100.293370
2283.000000	100.292734
2282.000000	100.292083
2281.000000	100.291425
2280.000000	100.290771
2279.000000	100.290131
2278.000000	100.289509
2277.000000	100.288902
2276.000000	100.288299
2275.000000	100.287687
2274.000000	100.287061
2273.000000	100.286427
2272.000000	100.285798
2271.000000	100.285183
2270.000000	100.284585
2269.000000	100.283999
2268.000000	100.283420
2267.000000	100.282844
2266.000000	100.282275
2265.000000	100.281715
2264.000000	100.281170
2263.000000	100.280644
2262.000000	100.280140
2261.000000	100.279653
2260.000000	100.279177
2259.000000	100.278709
2258.000000	100.278245
2257.000000	100.277773
2256.000000	100.277285
2255.000000	100.276790
2254.000000	100.276310
2253.000000	100.275859
2252.000000	100.275427
2251.000000	100.275003
2250.000000	100.274609
2249.000000	100.274286
2248.000000	100.274049
2247.000000	100.273862
2246.000000	100.273663
2245.000000	100.273408
2244.000000	100.273079
2243.000000	100.272671
2242.000000	100.272205
2241.000000	100.271774
2240.000000	100.271509
2239.000000	100.271459
2238.000000	100.271517
2237.000000	100.271507
2236.000000	100.271379
2235.000000	100.271248
2234.000000	100.271207
2233.000000	100.271177
2232.000000	100.271043
2231.000000	100.270866
2230.000000	100.270808
2229.000000	100.270842
2228.000000	100.270743
2227.000000	100.270388
2226.000000	100.269963
2225.000000	100.269789
2224.000000	100.270050
2223.000000	100.270721
2222.000000	100.271602
2221.000000	100.272353
2220.000000	100.272645
2219.000000	100.272357
2218.000000	100.271611
2217.000000	100.270586
2216.000000	100.269467
2215.000000	100.268640
2214.000000	100.268645
2213.000000	100.269672
2212.000000	100.271161
2211.000000	100.272173
2210.000000	100.272312
2209.000000	100.271963
2208.000000	100.271704
2207.000000	100.271690
2206.000000	100.271755
2205.000000	100.271817
2204.000000	100.271900
2203.000000	100.271879
2202.000000	100.271484
2201.000000	100.270585
2200.000000	100.269371
2199.000000	100.268213
2198.000000	100.267394
2197.000000	100.266970
2196.000000	100.266881
2195.000000	100.267238
2194.000000	100.268296
2193.000000	100.270088
2192.000000	100.272200
2191.000000	100.274076
2190.000000	100.275447
2189.000000	100.276279
2188.000000	100.276577
2187.000000	100.276510
2186.000000	100.276528
2185.000000	100.276931
2184.000000	100.277411
2183.000000	100.277403
2182.000000	100.276875
2181.000000	100.276439
2180.000000	100.276620
2179.000000	100.277376
2178.000000	100.278374
2177.000000	100.279381
2176.000000	100.280231
2175.000000	100.280725
2174.000000	100.280777
2173.000000	100.280548
2172.000000	100.280379
2171.000000	100.280576
2170.000000	100.281205
2169.000000	100.281981
2168.000000	100.282450
2167.000000	100.282451
2166.000000	100.282316
2165.000000	100.282465
2164.000000	100.282912
2163.000000	100.283355
2162.000000	100.283615
2161.000000	100.283768
2160.000000	100.283900
2159.000000	100.283999
2158.000000	100.284063
2157.000000	100.284153
2156.000000	100.284305
2155.000000	100.284500
2154.000000	100.284735
2153.000000	100.285020
2152.000000	100.285334
2151.000000	100.285633
2150.000000	100.285885
2149.000000	100.286094
2148.000000	100.286279
2147.000000	100.286458
2146.000000	100.286641
2145.000000	100.286828
2144.000000	100.287016
2143.000000	100.287198
2142.000000	100.287372
2141.000000	100.287550
2140.000000	100.287752
2139.000000	100.287979
2138.000000	100.288196
2137.000000	100.288364
2136.000000	100.288475
2135.000000	100.288569
2134.000000	100.288709
2133.000000	100.288943
2132.000000	100.289273
2131.000000	100.289655
2130.000000	100.290031
2129.000000	100.290375
2128.000000	100.290673
2127.000000	100.290903
2126.000000	100.291049
2125.000000	100.291162
2124.000000	100.291358
2123.000000	100.291718
2122.000000	100.292219
2121.000000	100.292751
2120.000000	100.293235
2119.000000	100.293668
2118.000000	100.294089
2117.000000	100.294506
2116.000000	100.294868
2115.000000	100.295109
2114.000000	100.295234
2113.000000	100.295370
2112.000000	100.295657
2111.000000	100.296091
2110.000000	100.296521
2109.000000	100.296810
2108.000000	100.296959
2107.000000	100.297030
2106.000000	100.297056
2105.000000	100.297092
2104.000000	100.297269
2103.000000	100.297691
2102.000000	100.298320
2101.000000	100.299042
2100.000000	100.299773
2099.000000	100.300445
2098.000000	100.300969
2097.000000	100.301292
2096.000000	100.301475
2095.000000	100.301664
2094.000000	100.301960
2093.000000	100.302360
2092.000000	100.302807
2091.000000	100.303245
2090.000000	100.303639
2089.000000	100.303972
2088.000000	100.304243
2087.000000	100.304471
2086.000000	100.304690
2085.000000	100.304941
2084.000000	100.305244
2083.000000	100.305580
2082.000000	100.305897
2081.000000	100.306148
2080.000000	100.306330
2079.000000	100.306475
2078.000000	100.306617
2077.000000	100.306760
2076.000000	100.306892
2075.000000	100.307005
2074.000000	100.307101
2073.000000	100.307198
2072.000000	100.307316
2071.000000	100.307461
2070.000000	100.307617
2069.000000	100.307750
2068.000000	100.307831
2067.000000	100.307858
2066.000000	100.307853
2065.000000	100.307855
2064.000000	100.307879
2063.000000	100.307912
2062.000000	100.307924
2061.000000	100.307892
2060.000000	100.307822
2059.000000	100.307733
2058.000000	100.307629
2057.000000	100.307491
2056.000000	100.307299
2055.000000	100.307058
2054.000000	100.306797
2053.000000	100.306533
2052.000000	100.306256
2051.000000	100.305945
2050.000000	100.305612
2049.000000	100.305296
2048.000000	100.305013
2047.000000	100.304715
2046.000000	100.304326
2045.000000	100.303829
2044.000000	100.303268
2043.000000	100.302700
2042.000000	100.302156
2041.000000	100.301648
2040.000000	100.301161
2039.000000	100.300640
2038.000000	100.300039
2037.000000	100.299369
2036.000000	100.298684
2035.000000	100.298010
2034.000000	100.297331
2033.000000	100.296660
2032.000000	100.296061
2031.000000	100.295557
2030.000000	100.295091
2029.000000	100.294570
2028.000000	100.293948
2027.000000	100.293249
2026.000000	100.292546
2025.000000	100.291899
2024.000000	100.291285
2023.000000	100.290608
2022.000000	100.289795
2021.000000	100.288890
2020.000000	100.288046
2019.000000	100.287349
2018.000000	100.286742
2017.000000	100.286084
2016.000000	100.285318
2015.000000	100.284510
2014.000000	100.283737
2013.000000	100.283032
2012.000000	100.282415
2011.000000	100.281877
2010.000000	100.281325
2009.000000	100.280662
2008.000000	100.279931
2007.000000	100.279259
2006.000000	100.278664
2005.000000	100.278052
2004.000000	100.277420
2003.000000	100.276882
2002.000000	100.276514
2001.000000	100.276340
2000.000000	100.276445
1999.000000	100.276822
1998.000000	100.277102
1997.000000	100.276801
1996.000000	100.275923
1995.000000	100.275004
1994.000000	100.274329
1993.000000	100.273587
1992.000000	100.272568
1991.000000	100.271576
1990.000000	100.270752
1989.000000	100.269680
1988.000000	100.268222
1987.000000	100.267102
1986.000000	100.267006
1985.000000	100.267553
1984.000000	100.267792
1983.000000	100.267473
1982.000000	100.267065
1981.000000	100.266845
1980.000000	100.266713
1979.000000	100.266725
1978.000000	100.267133
1977.000000	100.267861
1976.000000	100.268439
1975.000000	100.268596
1974.000000	100.268502
1973.000000	100.268331
1972.000000	100.267992
1971.000000	100.267473
1970.000000	100.267130
1969.000000	100.267339
1968.000000	100.267935
1967.000000	100.268203
1966.000000	100.267622
1965.000000	100.266474
1964.000000	100.265589
1963.000000	100.265551
1962.000000	100.266300
1961.000000	100.267446
1960.000000	100.268708
1959.000000	100.269879
1958.000000	100.270529
1957.000000	100.270135
1956.000000	100.268575
1955.000000	100.266283
1954.000000	100.263952
1953.000000	100.262213
1952.000000	100.261460
1951.000000	100.261597
1950.000000	100.261798
1949.000000	100.261048
1948.000000	100.259220
1947.000000	100.257340
1946.000000	100.256536
1945.000000	100.256886
1944.000000	100.257478
1943.000000	100.257352
1942.000000	100.256221
1941.000000	100.254470
1940.000000	100.252792
1939.000000	100.251743
1938.000000	100.251315
1937.000000	100.250874
1936.000000	100.249749
1935.000000	100.247964
1934.000000	100.246148
1933.000000	100.244730
1932.000000	100.243516
1931.000000	100.242194
1930.000000	100.240957
1929.000000	100.240442
1928.000000	100.241089
1927.000000	100.242561
1926.000000	100.243813
1925.000000	100.243785
1924.000000	100.242347
1923.000000	100.240570
1922.000000	100.239715
1921.000000	100.239792
1920.000000	100.239567
1919.000000	100.237870
1918.000000	100.234728
1917.000000	100.231260
1916.000000	100.228450
1915.000000	100.226377
1914.000000	100.224572
1913.000000	100.222504
1912.000000	100.219765
1911.000000	100.216169
1910.000000	100.211939
1909.000000	100.207834
1908.000000	100.204858
1907.000000	100.203728
1906.000000	100.204471
1905.000000	100.206129
1904.000000	100.207113
1903.000000	100.206196
1902.000000	100.203236
1901.000000	100.198975
1900.000000	100.194278
1899.000000	100.189790
1898.000000	100.186241
1897.000000	100.184386
1896.000000	100.184326
1895.000000	100.185097
1894.000000	100.185422
1893.000000	100.184862
1892.000000	100.183830
1891.000000	100.182651
1890.000000	100.181035
1889.000000	100.178531
1888.000000	100.175278
1887.000000	100.172166
1886.000000	100.170298
1885.000000	100.170249
1884.000000	100.171582
1883.000000	100.173023
1882.000000	100.173405
1881.000000	100.172609
1880.000000	100.171426
1879.000000	100.170493
1878.000000	100.169523
1877.000000	100.167734
1876.000000	100.165115
1875.000000	100.162907
1874.000000	100.162434
1873.000000	100.163625
1872.000000	100.165062
1871.000000	100.165535
1870.000000	100.165166
1869.000000	100.164832
1868.000000	100.164875
1867.000000	100.165227
1866.000000	100.166407
1865.000000	100.168838
1864.000000	100.171561
1863.000000	100.173031
1862.000000	100.173078
1861.000000	100.173025
1860.000000	100.173693
1859.000000	100.174425
1858.000000	100.174655
1857.000000	100.175303
1856.000000	100.177626
1855.000000	100.181517
1854.000000	100.185876
1853.000000	100.190101
1852.000000	100.194260
1851.000000	100.197988
1850.000000	100.200408
1849.000000	100.201162
1848.000000	100.200927
1847.000000	100.200550
1846.000000	100.200116
1845.000000	100.199134
1844.000000	100.197380
1843.000000	100.195374
1842.000000	100.194091
1841.000000	100.194399
1840.000000	100.196467
1839.000000	100.199782
1838.000000	100.203739
1837.000000	100.208008
1836.000000	100.212157
1835.000000	100.215041
1834.000000	100.215426
1833.000000	100.213279
1832.000000	100.209998
1831.000000	100.207436
1830.000000	100.206629
1829.000000	100.207134
1828.000000	100.207970
1827.000000	100.208950
1826.000000	100.210240
1825.000000	100.211418
1824.000000	100.211688
1823.000000	100.210749
1822.000000	100.209107
1821.000000	100.207577
1820.000000	100.206726
1819.000000	100.206703
1818.000000	100.207405
1817.000000	100.208611
1816.000000	100.209928
1815.000000	100.210882
1814.000000	100.211433
1813.000000	100.212108
1812.000000	100.213161
1811.000000	100.213823
1810.000000	100.213056
1809.000000	100.211123
1808.000000	100.209428
1807.000000	100.208704
1806.000000	100.208403
1805.000000	100.207847
1804.000000	100.207062
1803.000000	100.206170
1802.000000	100.204822
1801.000000	100.203030
1800.000000	100.201985
1799.000000	100.202981
1798.000000	100.205800
1797.000000	100.208880
1796.000000	100.210708
1795.000000	100.210907
1794.000000	100.210199
1793.000000	100.209730
1792.000000	100.210020
1791.000000	100.210555
1790.000000	100.211041
1789.000000	100.212231
1788.000000	100.214717
1787.000000	100.217914
1786.000000	100.220513
1785.000000	100.221803
1784.000000	100.222351
1783.000000	100.223186
1782.000000	100.224796
1781.000000	100.227131
1780.000000	100.229778
1779.000000	100.232123
1778.000000	100.233671
1777.000000	100.234452
1776.000000	100.234966
1775.000000	100.235794
1774.000000	100.237329
1773.000000	100.239683
1772.000000	100.242312
1771.000000	100.243944
1770.000000	100.243885
1769.000000	100.242844
1768.000000	100.242183
1767.000000	100.242703
1766.000000	100.244070
1765.000000	100.245392
1764.000000	100.246101
1763.000000	100.246295
1762.000000	100.246721
1761.000000	100.248245
1760.000000	100.251001
1759.000000	100.254211
1758.000000	100.256616
1757.000000	100.257511
1756.000000	100.257502
1755.000000	100.257864
1754.000000	100.259002
1753.000000	100.260284
1752.000000	100.261095
1751.000000	100.261621
1750.000000	100.262405
1749.000000	100.263376
1748.000000	100.264071
1747.000000	100.264315
1746.000000	100.264321
1745.000000	100.264391
1744.000000	100.264723
1743.000000	100.265314
1742.000000	100.265814
1741.000000	100.265732
1740.000000	100.264943
1739.000000	100.263883
1738.000000	100.262992
1737.000000	100.262276
1736.000000	100.261520
1735.000000	100.260671
1734.000000	100.260217
1733.000000	100.260561
1732.000000	100.261281
1731.000000	100.261705
1730.000000	100.261193
1729.000000	100.259726
1728.000000	100.258209
1727.000000	100.257581
1726.000000	100.257809
1725.000000	100.258084
1724.000000	100.257713
1723.000000	100.256720
1722.000000	100.255503
1721.000000	100.254358
1720.000000	100.253423
1719.000000	100.252812
1718.000000	100.252492
1717.000000	100.252096
1716.000000	100.251316
1715.000000	100.250279
1714.000000	100.249154
1713.000000	100.247916
1712.000000	100.246560
1711.000000	100.245166
1710.000000	100.243796
1709.000000	100.242431
1708.000000	100.241036
1707.000000	100.239613
1706.000000	100.238201
1705.000000	100.236819
1704.000000	100.235431
1703.000000	100.233988
1702.000000	100.232467
1701.000000	100.230877
1700.000000	100.229276
1699.000000	100.227701
1698.000000	100.226125
1697.000000	100.224525
1696.000000	100.222906
1695.000000	100.221284
1694.000000	100.219661
1693.000000	100.218025
1692.000000	100.216355
1691.000000	100.214629
1690.000000	100.212836
1689.000000	100.210987
1688.000000	100.209122
1687.000000	100.207285
1686.000000	100.205464
1685.000000	100.203538
1684.000000	100.201391
1683.000000	100.199078
1682.000000	100.196785
1681.000000	100.194606
1680.000000	100.192546
1679.000000	100.190589
1678.000000	100.188707
1677.000000	100.186772
1676.000000	100.184589
1675.000000	100.182156
1674.000000	100.179792
1673.000000	100.177786
1672.000000	100.176216
1671.000000	100.175033
1670.000000	100.173940
1669.000000	100.172401
1668.000000	100.170182
1667.000000	100.167705
1666.000000	100.165427
1665.000000	100.163245
1664.000000	100.160836
1663.000000	100.158352
1662.000000	100.156374
1661.000000	100.155059
1660.000000	100.154105
1659.000000	100.153346
1658.000000	100.152738
1657.000000	100.152035
1656.000000	100.150743
1655.000000	100.148428
1654.000000	100.145141
1653.000000	100.141957
1652.000000	100.138693
1651.000000	100.134302
1650.000000	100.129980
1649.000000	100.125710
1648.000000	100.122052
1647.000000	100.120938
1646.000000	100.121826
1645.000000	100.121569
1644.000000	100.120117
1643.000000	100.119560
1642.000000	100.120539
1641.000000	100.122160
1640.000000	100.123172
1639.000000	100.123273
1638.000000	100.122795
1637.000000	100.121815
1636.000000	100.120707
1635.000000	100.120317
1634.000000	100.120517
1633.000000	100.120889
1632.000000	100.121066
1631.000000	100.120537
1630.000000	100.119738
1629.000000	100.119646
1628.000000	100.120587
1627.000000	100.121896
1626.000000	100.122651
1625.000000	100.122288
1624.000000	100.120724
1623.000000	100.118909
1622.000000	100.118281
1621.000000	100.119424
1620.000000	100.121955
1619.000000	100.124836
1618.000000	100.126624
1617.000000	100.126430
1616.000000	100.124957
1615.000000	100.123552
1614.000000	100.123036
1613.000000	100.123494
1612.000000	100.124902
1611.000000	100.127894
1610.000000	100.132933
1609.000000	100.139015
1608.000000	100.144094
1607.000000	100.146845
1606.000000	100.147493
1605.000000	100.147156
1604.000000	100.146957
1603.000000	100.147810
1602.000000	100.150256
1601.000000	100.154221
1600.000000	100.159054
1599.000000	100.163851
1598.000000	100.167796
1597.000000	100.170623
1596.000000	100.172932
1595.000000	100.175565
1594.000000	100.178421
1593.000000	100.180477
1592.000000	100.181256
1591.000000	100.181660
1590.000000	100.183017
1589.000000	100.185676
1588.000000	100.188919
1587.000000	100.191904
1586.000000	100.194077
1585.000000	100.195086
1584.000000	100.194959
1583.000000	100.194367
1582.000000	100.194269
1581.000000	100.195016
1580.000000	100.196301
1579.000000	100.198011
1578.000000	100.200607
1577.000000	100.204360
1576.000000	100.208183
1575.000000	100.210207
1574.000000	100.210359
1573.000000	100.210099
1572.000000	100.210079
1571.000000	100.210260
1570.000000	100.210755
1569.000000	100.211651
1568.000000	100.212723
1567.000000	100.214139
1566.000000	100.216124
1565.000000	100.218242
1564.000000	100.220095
1563.000000	100.222114
1562.000000	100.225220
1561.000000	100.230065
1560.000000	100.235909
1559.000000	100.239918
1558.000000	100.239621
1557.000000	100.236072
1556.000000	100.232655
1555.000000	100.229618
1554.000000	100.226845
1553.000000	100.225578
1552.000000	100.226162
1551.000000	100.227225
1550.000000	100.227151
1549.000000	100.225919
1548.000000	100.225012
1547.000000	100.225458
1546.000000	100.226759
1545.000000	100.227491
1544.000000	100.226765
1543.000000	100.224940
1542.000000	100.222821
1541.000000	100.220788
1540.000000	100.219570
1539.000000	100.219799
1538.000000	100.220928
1537.000000	100.222396
1536.000000	100.223629
1535.000000	100.224246
1534.000000	100.224409
1533.000000	100.224117
1532.000000	100.223011
1531.000000	100.221428
1530.000000	100.220315
1529.000000	100.220240
1528.000000	100.221089
1527.000000	100.222192
1526.000000	100.222891
1525.000000	100.223107
1524.000000	100.223128
1523.000000	100.223114
1522.000000	100.223013
1521.000000	100.222793
1520.000000	100.222670
1519.000000	100.223022
1518.000000	100.223903
1517.000000	100.224914
1516.000000	100.225582
1515.000000	100.225824
1514.000000	100.225859
1513.000000	100.225856
1512.000000	100.225860
1511.000000	100.225920
1510.000000	100.226119
1509.000000	100.226521
1508.000000	100.227117
1507.000000	100.227808
1506.000000	100.228374
1505.000000	100.228720
1504.000000	100.229060
1503.000000	100.229442
1502.000000	100.229787
1501.000000	100.230164
1500.000000	100.230683
1499.000000	100.231326
1498.000000	100.231961
1497.000000	100.232466
1496.000000	100.232817
1495.000000	100.233083
1494.000000	100.233365
1493.000000	100.233709
1492.000000	100.234100
1491.000000	100.234555
1490.000000	100.235158
1489.000000	100.235912
1488.000000	100.236614
1487.000000	100.237049
1486.000000	100.237195
1485.000000	100.237235
1484.000000	100.237339
1483.000000	100.237474
1482.000000	100.237527
1481.000000	100.237493
1480.000000	100.237486
1479.000000	100.237568
1478.000000	100.237692
1477.000000	100.237763
1476.000000	100.237716
1475.000000	100.237541
1474.000000	100.237278
1473.000000	100.237018
1472.000000	100.236830
1471.000000	100.236703
1470.000000	100.236602
1469.000000	100.236476
1468.000000	100.236171
1467.000000	100.235569
1466.000000	100.234869
1465.000000	100.234605
1464.000000	100.234969
1463.000000	100.235373
1462.000000	100.235163
1461.000000	100.234185
1460.000000	100.232866
1459.000000	100.232199
1458.000000	100.233351
1457.000000	100.235773
1456.000000	100.236617
1455.000000	100.235050
1454.000000	100.232929
1453.000000	100.231568
1452.000000	100.231262
1451.000000	100.231507
1450.000000	100.231503
1449.000000	100.231127
1448.000000	100.230859
1447.000000	100.230580
1446.000000	100.229489
1445.000000	100.227557
1444.000000	100.225827
1443.000000	100.225284
1442.000000	100.225734
1441.000000	100.226090
1440.000000	100.225396
1439.000000	100.223245
1438.000000	100.219747
1437.000000	100.215977
1436.000000	100.213580
1435.000000	100.212882
1434.000000	100.212903
1433.000000	100.212689
1432.000000	100.211641
1431.000000	100.209142
1430.000000	100.205071
1429.000000	100.201360
1428.000000	100.201214
1427.000000	100.205618
1426.000000	100.212205
1425.000000	100.217832
1424.000000	100.221602
1423.000000	100.224749
1422.000000	100.227988
1421.000000	100.230664
1420.000000	100.232108
1419.000000	100.232615
1418.000000	100.232586
1417.000000	100.232093
1416.000000	100.231839
1415.000000	100.232545
1414.000000	100.233990
1413.000000	100.235340
1412.000000	100.236136
1411.000000	100.236626
1410.000000	100.237056
1409.000000	100.237519
1408.000000	100.238725
1407.000000	100.241659
1406.000000	100.246021
1405.000000	100.249983
1404.000000	100.252495
1403.000000	100.255010
1402.000000	100.259371
1401.000000	100.265258
1400.000000	100.270542
1399.000000	100.273466
1398.000000	100.274258
1397.000000	100.274367
1396.000000	100.274890
1395.000000	100.276290
1394.000000	100.278640
1393.000000	100.281583
1392.000000	100.284460
1391.000000	100.286472
1390.000000	100.287013
1389.000000	100.286356
1388.000000	100.285982
1387.000000	100.287492
1386.000000	100.290636
1385.000000	100.293628
1384.000000	100.295535
1383.000000	100.297385
1382.000000	100.300824
1381.000000	100.305910
1380.000000	100.310635
1379.000000	100.312815
1378.000000	100.312005
1377.000000	100.309539
1376.000000	100.307295
1375.000000	100.306587
1374.000000	100.307490
1373.000000	100.308722
1372.000000	100.308914
1371.000000	100.307700
1370.000000	100.305478
1369.000000	100.303057
1368.000000	100.301363
1367.000000	100.300977
1366.000000	100.301778
1365.000000	100.303084
1364.000000	100.304238
1363.000000	100.305042
1362.000000	100.305589
1361.000000	100.305991
1360.000000	100.306432
1359.000000	100.307066
1358.000000	100.307694
1357.000000	100.307860
1356.000000	100.307532
1355.000000	100.307492
1354.000000	100.308396
1353.000000	100.309570
1352.000000	100.309648
1351.000000	100.308397
1350.000000	100.307064
1349.000000	100.306602
1348.000000	100.306379
1347.000000	100.305541
1346.000000	100.304872
1345.000000	100.306031
1344.000000	100.309048
1343.000000	100.311693
1342.000000	100.311841
1341.000000	100.309695
1340.000000	100.307380
1339.000000	100.306427
1338.000000	100.306355
1337.000000	100.306196
1336.000000	100.306054
1335.000000	100.306559
1334.000000	100.307668
1333.000000	100.308589
1332.000000	100.308722
1331.000000	100.308351
1330.000000	100.308366
1329.000000	100.309293
1328.000000	100.310527
1327.000000	100.310639
1326.000000	100.308855
1325.000000	100.306313
1324.000000	100.305331
1323.000000	100.306986
1322.000000	100.309795
1321.000000	100.311309
1320.000000	100.310699
1319.000000	100.309215
1318.000000	100.308259
1317.000000	100.307753
1316.000000	100.306822
1315.000000	100.305294
1314.000000	100.303916
1313.000000	100.303346
1312.000000	100.303384
1311.000000	100.303333
1310.000000	100.302935
1309.000000	100.302723
1308.000000	100.303382
1307.000000	100.304863
1306.000000	100.306513
1305.000000	100.308141
1304.000000	100.310283
1303.000000	100.313011
1302.000000	100.315056
1301.000000	100.314858
1300.000000	100.312134
1299.000000	100.307948
1298.000000	100.303667
1297.000000	100.300347
1296.000000	100.298722
1295.000000	100.298620
1294.000000	100.298528
1293.000000	100.296992
1292.000000	100.294519
1291.000000	100.293025
1290.000000	100.293358
1289.000000	100.294543
1288.000000	100.295515
1287.000000	100.296156
1286.000000	100.296395
1285.000000	100.295966
1284.000000	100.295619
1283.000000	100.296879
1282.000000	100.299644
1281.000000	100.301517
1280.000000	100.300652
1279.000000	100.297935
1278.000000	100.295295
1277.000000	100.293300
1276.000000	100.291865
1275.000000	100.291879
1274.000000	100.294126
1273.000000	100.297298
1272.000000	100.298895
1271.000000	100.297876
1270.000000	100.295128
1269.000000	100.291812
1268.000000	100.288613
1267.000000	100.286277
1266.000000	100.285506
1265.000000	100.286421
1264.000000	100.288853
1263.000000	100.292379
1262.000000	100.295240
1261.000000	100.294674
1260.000000	100.289872
1259.000000	100.283457
1258.000000	100.278180
1257.000000	100.273274
1256.000000	100.266334
1255.000000	100.257749
1254.000000	100.250388
1253.000000	100.245069
1252.000000	100.239404
1251.000000	100.232013
1250.000000	100.225246
1249.000000	100.222049
1248.000000	100.221688
1247.000000	100.220247
1246.000000	100.214559
1245.000000	100.204468
1244.000000	100.191969
1243.000000	100.179451
1242.000000	100.168465
1241.000000	100.158939
1240.000000	100.149335
1239.000000	100.138344
1238.000000	100.126992
1237.000000	100.118590
1236.000000	100.115664
1235.000000	100.116578
1234.000000	100.116059
1233.000000	100.109771
1232.000000	100.097611
1231.000000	100.081807
1230.000000	100.063058
1229.000000	100.040556
1228.000000	100.015186
1227.000000	99.989459
1226.000000	99.963203
1225.000000	99.932322
1224.000000	99.894148
1223.000000	99.852013
1222.000000	99.811950
1221.000000	99.776062
1220.000000	99.741773
1219.000000	99.706391
1218.000000	99.669151
1217.000000	99.629156
1216.000000	99.584690
1215.000000	99.535601
1214.000000	99.484087
1213.000000	99.431892
1212.000000	99.378287
1211.000000	99.322004
1210.000000	99.264132
1209.000000	99.207837
1208.000000	99.155187
1207.000000	99.104680
1206.000000	99.052290
1205.000000	98.995472
1204.000000	98.935816
1203.000000	98.877105
1202.000000	98.821329
1201.000000	98.767885
1200.000000	98.715967
1199.000000	98.665363
1198.000000	98.614850
1197.000000	98.562606
1196.000000	98.509110
1195.000000	98.457359
1194.000000	98.409137
1193.000000	98.362929
1192.000000	98.316159
1191.000000	98.267205
1190.000000	98.214537
1189.000000	98.156682
1188.000000	98.094704
1187.000000	98.032683
1186.000000	97.973881
1185.000000	97.917675
1184.000000	97.861134
1183.000000	97.801806
1182.000000	97.738306
1181.000000	97.670615
1180.000000	97.601087
1179.000000	97.533039
1178.000000	97.466948
1177.000000	97.399814
1176.000000	97.329170
1175.000000	97.255663
1174.000000	97.180793
1173.000000	97.104440
1172.000000	97.025953
1171.000000	96.945906
1170.000000	96.865918
1169.000000	96.788423
1168.000000	96.716822
1167.000000	96.653749
1166.000000	96.599500
1165.000000	96.555057
1164.000000	96.526028
1163.000000	96.519443
1162.000000	96.535875
1161.000000	96.567408
1160.000000	96.602889
1159.000000	96.632168
1158.000000	96.647059
1157.000000	96.643623
1156.000000	96.624056
1155.000000	96.592611
1154.000000	96.549508
1153.000000	96.492407
1152.000000	96.423508
1151.000000	96.350711
1150.000000	96.280994
1149.000000	96.216389
1148.000000	96.156535
1147.000000	96.100337
1146.000000	96.044402
1145.000000	95.984744
1144.000000	95.921358
1143.000000	95.857539
1142.000000	95.794656
1141.000000	95.731779
1140.000000	95.669937
1139.000000	95.611322
1138.000000	95.554182
1137.000000	95.494083
1136.000000	95.430354
1135.000000	95.365525
1134.000000	95.298326
1133.000000	95.224052
1132.000000	95.143166
1131.000000	95.063295
1130.000000	94.990879
1129.000000	94.926210
1128.000000	94.867669
1127.000000	94.814422
1126.000000	94.763297
1125.000000	94.709021
1124.000000	94.649314
1123.000000	94.584979
1122.000000	94.515059
1121.000000	94.438282
1120.000000	94.359499
1119.000000	94.287085
1118.000000	94.222339
1117.000000	94.158452
1116.000000	94.091211
1115.000000	94.023857
1114.000000	93.960203
1113.000000	93.900309
1112.000000	93.844096
1111.000000	93.791515
1110.000000	93.738200
1109.000000	93.679037
1108.000000	93.616669
1107.000000	93.558051
1106.000000	93.502398
1105.000000	93.442077
1104.000000	93.376142
1103.000000	93.312752
1102.000000	93.256715
1101.000000	93.204661
1100.000000	93.153928
1099.000000	93.106003
1098.000000	93.059756
1097.000000	93.011890
1096.000000	92.965447
1095.000000	92.926967
1094.000000	92.893974
1093.000000	92.856698
1092.000000	92.813330
1091.000000	92.771274
1090.000000	92.732372
1089.000000	92.691080
1088.000000	92.649493
1087.000000	92.618521
1086.000000	92.598909
1085.000000	92.575730
1084.000000	92.538692
1083.000000	92.495377
1082.000000	92.457954
1081.000000	92.428390
1080.000000	92.403246
1079.000000	92.381113
1078.000000	92.357836
1077.000000	92.325151
1076.000000	92.281428
1075.000000	92.234605
1074.000000	92.188656
1073.000000	92.136756
1072.000000	92.072906
1071.000000	91.999091
1070.000000	91.915062
1069.000000	91.812581
1068.000000	91.687941
1067.000000	91.550999
1066.000000	91.413937
1065.000000	91.278607
1064.000000	91.141796
1063.000000	91.004470
1062.000000	90.869075
1061.000000	90.736283
1060.000000	90.610923
1059.000000	90.502568
1058.000000	90.413410
1057.000000	90.332654
1056.000000	90.247618
1055.000000	90.152822
1054.000000	90.045956
1053.000000	89.926013
1052.000000	89.800222
1051.000000	89.680972
1050.000000	89.568369
1049.000000	89.447017
1048.000000	89.306464
1047.000000	89.152787
1046.000000	88.995574
1045.000000	88.836965
1044.000000	88.678341
1043.000000	88.524663
1042.000000	88.376303
1041.000000	88.227801
1040.000000	88.079971
1039.000000	87.942323
1038.000000	87.818837
1037.000000	87.702969
1036.000000	87.591128
1035.000000	87.488665
1034.000000	87.397739
1033.000000	87.312181
1032.000000	87.229822
1031.000000	87.157298
1030.000000	87.097100
1029.000000	87.042096
1028.000000	86.988038
1027.000000	86.939324
1026.000000	86.897555
1025.000000	86.857261
1024.000000	86.817913
1023.000000	86.786929
1022.000000	86.765132
1021.000000	86.742090
1020.000000	86.711658
1019.000000	86.679820
1018.000000	86.651441
1017.000000	86.621600
1016.000000	86.585842
1015.000000	86.547317
1014.000000	86.508303
1013.000000	86.466426
1012.000000	86.424710
1011.000000	86.393747
1010.000000	86.377840
1009.000000	86.368876
1008.000000	86.358295
1007.000000	86.345361
1006.000000	86.330843
1005.000000	86.313888
1004.000000	86.298655
1003.000000	86.292727
1002.000000	86.295296
1001.000000	86.297674
1000.000000	86.297986
999.000000	86.303740
998.000000	86.317555
997.000000	86.332984
996.000000	86.347430
995.000000	86.366534
994.000000	86.392086
993.000000	86.417857
992.000000	86.441331
991.000000	86.468252
990.000000	86.502310
989.000000	86.541618
988.000000	86.587819
987.000000	86.646632
986.000000	86.716588
985.000000	86.789078
984.000000	86.862148
983.000000	86.942449
982.000000	87.031701
981.000000	87.124240
980.000000	87.220343
979.000000	87.328567
978.000000	87.451449
977.000000	87.581772
976.000000	87.716465
975.000000	87.861619
974.000000	88.019536
973.000000	88.182601
972.000000	88.344039
971.000000	88.503864
970.000000	88.661009
969.000000	88.811156
968.000000	88.956468
967.000000	89.106819
966.000000	89.267073
965.000000	89.432304
964.000000	89.597995
963.000000	89.764300
962.000000	89.927230
961.000000	90.077052
960.000000	90.210598
959.000000	90.336331
958.000000	90.462878
957.000000	90.590256
956.000000	90.715458
955.000000	90.837760
954.000000	90.954746
953.000000	91.061582
952.000000	91.158337
951.000000	91.250948
950.000000	91.341913
949.000000	91.427335
948.000000	91.505666
947.000000	91.581145
946.000000	91.655517
945.000000	91.724293
944.000000	91.784692
943.000000	91.840177
942.000000	91.894470
941.000000	91.948395
940.000000	92.004878
939.000000	92.068490
938.000000	92.136449
937.000000	92.198255
936.000000	92.248563
935.000000	92.293739
934.000000	92.342259
933.000000	92.395014
932.000000	92.448242
931.000000	92.499377
930.000000	92.547097
929.000000	92.592348
928.000000	92.641935
927.000000	92.703991
926.000000	92.776818
925.000000	92.848856
924.000000	92.912339
923.000000	92.970240
922.000000	93.027580
921.000000	93.083494
920.000000	93.135119
919.000000	93.182162
918.000000	93.223943
917.000000	93.258597
916.000000	93.289187
915.000000	93.324806
914.000000	93.371647
913.000000	93.427564
912.000000	93.487783
911.000000	93.550795
910.000000	93.617024
909.000000	93.688011
908.000000	93.769112
907.000000	93.866704
906.000000	93.980212
905.000000	94.102062
904.000000	94.226796
903.000000	94.354906
902.000000	94.487719
901.000000	94.625323
900.000000	94.769343
899.000000	94.919648
898.000000	95.067778
897.000000	95.202601
896.000000	95.324381
895.000000	95.444943
894.000000	95.571344
893.000000	95.697255
892.000000	95.813861
891.000000	95.921349
890.000000	96.024945
889.000000	96.126264
888.000000	96.224223
887.000000	96.319741
886.000000	96.414194
885.000000	96.506458
884.000000	96.595596
883.000000	96.683487
882.000000	96.771102
881.000000	96.854995
880.000000	96.931204
879.000000	97.001029
878.000000	97.070302
877.000000	97.143757
876.000000	97.221125
875.000000	97.297442
874.000000	97.367524
873.000000	97.432688
872.000000	97.502206
871.000000	97.584675
870.000000	97.678612
869.000000	97.775041
868.000000	97.867702
867.000000	97.956176
866.000000	98.040782
865.000000	98.120266
864.000000	98.194454
863.000000	98.264354
862.000000	98.329654
861.000000	98.390793
860.000000	98.452790
859.000000	98.521100
858.000000	98.593095
857.000000	98.659290
856.000000	98.713830
855.000000	98.758825
854.000000	98.798513
853.000000	98.835153
852.000000	98.871126
851.000000	98.908046
850.000000	98.941865
849.000000	98.966015
848.000000	98.982616
847.000000	99.003914
846.000000	99.038045
845.000000	99.078054
844.000000	99.108793
843.000000	99.120149
842.000000	99.110938
841.000000	99.085984
840.000000	99.054237
839.000000	99.025297
838.000000	99.002141
837.000000	98.979258
836.000000	98.950598
835.000000	98.915441
834.000000	98.874456
833.000000	98.826832
832.000000	98.776773
831.000000	98.736788
830.000000	98.716639
829.000000	98.712636
828.000000	98.715277
827.000000	98.723178
826.000000	98.739871
825.000000	98.760154
824.000000	98.772394
823.000000	98.775425
822.000000	98.781067
821.000000	98.796632
820.000000	98.814600
819.000000	98.822526
818.000000	98.815070
817.000000	98.792768
816.000000	98.754807
815.000000	98.697628
814.000000	98.617541
813.000000	98.510356
812.000000	98.370128
811.000000	98.192901
810.000000	97.981823
809.000000	97.744617
808.000000	97.484008
807.000000	97.192561
806.000000	96.860530
805.000000	96.491298
804.000000	96.108554
803.000000	95.745502
802.000000	95.426534
801.000000	95.161910
800.000000	94.957358
799.000000	94.819323
798.000000	94.748479
797.000000	94.736440
796.000000	94.772315
795.000000	94.845857
794.000000	94.942461
793.000000	95.043248
792.000000	95.133992
791.000000	95.209222
790.000000	95.266025
789.000000	95.298989
788.000000	95.302819
787.000000	95.275211
786.000000	95.216021
785.000000	95.128217
784.000000	95.020625
783.000000	94.904751
782.000000	94.788001
781.000000	94.675947
780.000000	94.581966
779.000000	94.526180
778.000000	94.520741
777.000000	94.562051
776.000000	94.640095
775.000000	94.748442
774.000000	94.881367
773.000000	95.027409
772.000000	95.171095
771.000000	95.299475
770.000000	95.406478
769.000000	95.494291
768.000000	95.570889
767.000000	95.642373
766.000000	95.706635
765.000000	95.757333
764.000000	95.793664
763.000000	95.822382
762.000000	95.850831
761.000000	95.882814
760.000000	95.921111
759.000000	95.968086
758.000000	96.022210
757.000000	96.078785
756.000000	96.135693
755.000000	96.194598
754.000000	96.255895
753.000000	96.316677
752.000000	96.374480
751.000000	96.429220
750.000000	96.480625
749.000000	96.527222
748.000000	96.569067
747.000000	96.609771
746.000000	96.656267
745.000000	96.717775
744.000000	96.801579
743.000000	96.905286
742.000000	97.015289
741.000000	97.117819
740.000000	97.210138
739.000000	97.297722
738.000000	97.384364
737.000000	97.470281
736.000000	97.556430
735.000000	97.643237
734.000000	97.725860
733.000000	97.796812
732.000000	97.853002
731.000000	97.895582
730.000000	97.924601
729.000000	97.940131
728.000000	97.948305
727.000000	97.959881
726.000000	97.981438
725.000000	98.012016
724.000000	98.048370
723.000000	98.089388
722.000000	98.135945
721.000000	98.190290
720.000000	98.254059
719.000000	98.323056
718.000000	98.386911
717.000000	98.438753
716.000000	98.482069
715.000000	98.523115
714.000000	98.560822
713.000000	98.591177
712.000000	98.617294
711.000000	98.645608
710.000000	98.674350
709.000000	98.695668
708.000000	98.708133
707.000000	98.716548
706.000000	98.718878
705.000000	98.704513
704.000000	98.667693
703.000000	98.611168
702.000000	98.532245
701.000000	98.416568
700.000000	98.253909
699.000000	98.054499
698.000000	97.844711
697.000000	97.652615
696.000000	97.502606
695.000000	97.415328
694.000000	97.402064
693.000000	97.458405
692.000000	97.565591
691.000000	97.697383
690.000000	97.827831
689.000000	97.939852
688.000000	98.031197
687.000000	98.109616
686.000000	98.180446
685.000000	98.242199
684.000000	98.293497
683.000000	98.338009
682.000000	98.381312
681.000000	98.427652
680.000000	98.479760
679.000000	98.536158
678.000000	98.588430
677.000000	98.627789
676.000000	98.656783
675.000000	98.688024
674.000000	98.729840
673.000000	98.777558
672.000000	98.818264
671.000000	98.842681
670.000000	98.854685
669.000000	98.875485
668.000000	98.925151
667.000000	98.992999
666.000000	99.054592
665.000000	99.098490
664.000000	99.129938
663.000000	99.157867
662.000000	99.175883
661.000000	99.172060
660.000000	99.154844
659.000000	99.147204
658.000000	99.151702
657.000000	99.143941
656.000000	99.110367
655.000000	99.071011
654.000000	99.052922
653.000000	99.057215
652.000000	99.067025
651.000000	99.074180
650.000000	99.082910
