4000.000000	99.673864
3999.000000	99.674474
3998.000000	99.676707
3997.000000	99.679283
3996.000000	99.681374
3995.000000	99.682428
3994.000000	99.682226
3993.000000	99.681170
3992.000000	99.680044
3991.000000	99.679324
3990.000000	99.678892
3989.000000	99.678453
3988.000000	99.678107
3987.000000	99.678350
3986.000000	99.679389
3985.000000	99.680553
3984.000000	99.680751
3983.000000	99.679765
3982.000000	99.678788
3981.000000	99.679210
3980.000000	99.680790
3979.000000	99.681656
3978.000000	99.680392
3977.000000	99.677681
3976.000000	99.675668
3975.000000	99.675695
3974.000000	99.677121
3973.000000	99.678281
3972.000000	99.678209
3971.000000	99.677301
3970.000000	99.676707
3969.000000	99.677306
3968.000000	99.679108
3967.000000	99.681300
3966.000000	99.682686
3965.000000	99.682277
3964.000000	99.679770
3963.000000	99.675832
3962.000000	99.672003
3961.000000	99.669881
3960.000000	99.670049
3959.000000	99.671806
3958.000000	99.673793
3957.000000	99.674962
3956.000000	99.675104
3955.000000	99.674651
3954.000000	99.674203
3953.000000	99.674136
3952.000000	99.674427
3951.000000	99.674768
3950.000000	99.674867
3949.000000	99.674692
3948.000000	99.674416
3947.000000	99.674157
3946.000000	99.673831
3945.000000	99.673283
3944.000000	99.672507
3943.000000	99.671702
3942.000000	99.671116
3941.000000	99.670834
3940.000000	99.670746
3939.000000	99.670717
3938.000000	99.670730
3937.000000	99.670818
3936.000000	99.670907
3935.000000	99.670827
3934.000000	99.670505
3933.000000	99.670139
3932.000000	99.670067
3931.000000	99.670418
3930.000000	99.670994
3929.000000	99.671454
3928.000000	99.671594
3927.000000	99.671440
3926.000000	99.671207
3925.000000	99.671114
3924.000000	99.671198
3923.000000	99.671307
3922.000000	99.671242
3921.000000	99.670941
3920.000000	99.670585
3919.000000	99.670526
3918.000000	99.671030
3917.000000	99.672016
3916.000000	99.673023
3915.000000	99.673522
3914.000000	99.673290
3913.000000	99.672523
3912.000000	99.671661
3911.000000	99.671058
3910.000000	99.670792
3909.000000	99.670696
3908.000000	99.670474
3907.000000	99.669842
3906.000000	99.668709
3905.000000	99.667388
3904.000000	99.666533
3903.000000	99.666637
3902.000000	99.667664
3901.000000	99.669118
3900.000000	99.670378
3899.000000	99.671013
3898.000000	99.670882
3897.000000	99.670146
3896.000000	99.669247
3895.000000	99.668736
3894.000000	99.668990
3893.000000	99.669958
3892.000000	99.671144
3891.000000	99.672001
3890.000000	99.672420
3889.000000	99.672728
3888.000000	99.673255
3887.000000	99.673910
3886.000000	99.674140
3885.000000	99.673330
3884.000000	99.671235
3883.000000	99.668216
3882.000000	99.665301
3881.000000	99.663731
3880.000000	99.664086
3879.000000	99.665810
3878.000000	99.667716
3877.000000	99.668966
3876.000000	99.669424
3875.000000	99.669399
3874.000000	99.669283
3873.000000	99.669279
3872.000000	99.669377
3871.000000	99.669494
3870.000000	99.669594
3869.000000	99.669650
3868.000000	99.669581
3867.000000	99.669316
3866.000000	99.668832
3865.000000	99.668216
3864.000000	99.667717
3863.000000	99.667593
3862.000000	99.667900
3861.000000	99.668453
3860.000000	99.668990
3859.000000	99.669539
3858.000000	99.670575
3857.000000	99.672580
3856.000000	99.675044
3855.000000	99.676172
3854.000000	99.674795
3853.000000	99.672115
3852.000000	99.670000
3851.000000	99.668964
3850.000000	99.668743
3849.000000	99.668663
3848.000000	99.667714
3847.000000	99.665256
3846.000000	99.661898
3845.000000	99.659305
3844.000000	99.658730
3843.000000	99.659888
3842.000000	99.661247
3841.000000	99.661447
3840.000000	99.660491
3839.000000	99.659648
3838.000000	99.660201
3837.000000	99.662190
3836.000000	99.664471
3835.000000	99.665899
3834.000000	99.666109
3833.000000	99.665529
3832.000000	99.665004
3831.000000	99.665214
3830.000000	99.666181
3829.000000	99.667326
3828.000000	99.667902
3827.000000	99.667421
3826.000000	99.665893
3825.000000	99.663715
3824.000000	99.661428
3823.000000	99.659617
3822.000000	99.658883
3821.000000	99.659535
3820.000000	99.661233
3819.000000	99.663418
3818.000000	99.665773
3817.000000	99.667874
3816.000000	99.669034
3815.000000	99.668878
3814.000000	99.667745
3813.000000	99.666413
3812.000000	99.665498
3811.000000	99.665050
3810.000000	99.664689
3809.000000	99.664052
3808.000000	99.663123
3807.000000	99.662217
3806.000000	99.661668
3805.000000	99.661685
3804.000000	99.662491
3803.000000	99.664136
3802.000000	99.666143
3801.000000	99.667575
3800.000000	99.667756
3799.000000	99.666738
3798.000000	99.665160
3797.000000	99.663833
3796.000000	99.663257
3795.000000	99.663477
3794.000000	99.664147
3793.000000	99.664749
3792.000000	99.664906
3791.000000	99.664579
3790.000000	99.664078
3789.000000	99.663902
3788.000000	99.664466
3787.000000	99.665778
3786.000000	99.667216
3785.000000	99.667780
3784.000000	99.666835
3783.000000	99.664629
3782.000000	99.661980
3781.000000	99.659442
3780.000000	99.657036
3779.000000	99.654850
3778.000000	99.653662
3777.000000	99.654553
3776.000000	99.657786
3775.000000	99.662248
3774.000000	99.666058
3773.000000	99.667797
3772.000000	99.667250
3771.000000	99.665404
3770.000000	99.663703
3769.000000	99.662940
3768.000000	99.662932
3767.000000	99.663271
3766.000000	99.663913
3765.000000	99.664930
3764.000000	99.665961
3763.000000	99.666212
3762.000000	99.665110
3761.000000	99.662874
3760.000000	99.660367
3759.000000	99.658027
3758.000000	99.655428
3757.000000	99.652498
3756.000000	99.650329
3755.000000	99.650227
3754.000000	99.652269
3753.000000	99.655447
3752.000000	99.659700
3751.000000	99.666350
3750.000000	99.675013
3749.000000	99.682659
3748.000000	99.687288
3747.000000	99.689366
3746.000000	99.689139
3745.000000	99.685093
3744.000000	99.676276
3743.000000	99.663915
3742.000000	99.650826
3741.000000	99.640879
3740.000000	99.636783
3739.000000	99.637462
3738.000000	99.638825
3737.000000	99.637464
3736.000000	99.633623
3735.000000	99.630356
3734.000000	99.630009
3733.000000	99.632264
3732.000000	99.634618
3731.000000	99.633985
3730.000000	99.628884
3729.000000	99.620561
3728.000000	99.612268
3727.000000	99.607089
3726.000000	99.605527
3725.000000	99.604845
3724.000000	99.601397
3723.000000	99.594037
3722.000000	99.585274
3721.000000	99.579151
3720.000000	99.577849
3719.000000	99.580016
3718.000000	99.581999
3717.000000	99.580856
3716.000000	99.576363
3715.000000	99.570529
3714.000000	99.565530
3713.000000	99.561793
3712.000000	99.557927
3711.000000	99.552359
3710.000000	99.544895
3709.000000	99.536250
3708.000000	99.526259
3707.000000	99.513767
3706.000000	99.498563
3705.000000	99.482946
3704.000000	99.470779
3703.000000	99.464683
3702.000000	99.463500
3701.000000	99.462831
3700.000000	99.458891
3699.000000	99.451225
3698.000000	99.441844
3697.000000	99.433381
3696.000000	99.427921
3695.000000	99.426334
3694.000000	99.428084
3693.000000	99.431613
3692.000000	99.435587
3691.000000	99.439789
3690.000000	99.444621
3689.000000	99.449382
3688.000000	99.451888
3687.000000	99.450632
3686.000000	99.446374
3685.000000	99.441152
3684.000000	99.435973
3683.000000	99.429979
3682.000000	99.421848
3681.000000	99.411562
3680.000000	99.400531
3679.000000	99.390612
3678.000000	99.383157
3677.000000	99.378747
3676.000000	99.377131
3675.000000	99.375815
3674.000000	99.371395
3673.000000	99.363561
3672.000000	99.354317
3671.000000	99.344808
3670.000000	99.335022
3669.000000	99.325227
3668.000000	99.316623
3667.000000	99.310595
3666.000000	99.307045
3665.000000	99.304020
3664.000000	99.299541
3663.000000	99.293129
3662.000000	99.285523
3661.000000	99.277596
3660.000000	99.269966
3659.000000	99.263255
3658.000000	99.257754
3657.000000	99.252588
3656.000000	99.245510
3655.000000	99.233992
3654.000000	99.217117
3653.000000	99.196770
3652.000000	99.177299
3651.000000	99.163793
3650.000000	99.158478
3649.000000	99.156912
3648.000000	99.152293
3647.000000	99.144723
3646.000000	99.139955
3645.000000	99.140937
3644.000000	99.144606
3643.000000	99.145389
3642.000000	99.140500
3641.000000	99.131674
3640.000000	99.122072
3639.000000	99.112431
3638.000000	99.101066
3637.000000	99.086901
3636.000000	99.071408
3635.000000	99.057526
3634.000000	99.047177
3633.000000	99.040269
3632.000000	99.035777
3631.000000	99.032744
3630.000000	99.030465
3629.000000	99.028358
3628.000000	99.024977
3627.000000	99.019018
3626.000000	99.011589
3625.000000	99.004983
3624.000000	99.000217
3623.000000	98.996936
3622.000000	98.995364
3621.000000	98.997632
3620.000000	99.006303
3619.000000	99.020599
3618.000000	99.034827
3617.000000	99.042911
3616.000000	99.043705
3615.000000	99.041679
3614.000000	99.043552
3613.000000	99.053056
3612.000000	99.068275
3611.000000	99.084158
3610.000000	99.096732
3609.000000	99.104456
3608.000000	99.107331
3607.000000	99.106341
3606.000000	99.103623
3605.000000	99.101459
3604.000000	99.100326
3603.000000	99.098849
3602.000000	99.096205
3601.000000	99.094161
3600.000000	99.095764
3599.000000	99.101922
3598.000000	99.110126
3597.000000	99.116788
3596.000000	99.120226
3595.000000	99.121242
3594.000000	99.121227
3593.000000	99.120474
3592.000000	99.118850
3591.000000	99.117152
3590.000000	99.117115
3589.000000	99.119965
3588.000000	99.124977
3587.000000	99.129687
3586.000000	99.132411
3585.000000	99.133935
3584.000000	99.135944
3583.000000	99.138938
3582.000000	99.141909
3581.000000	99.143493
3580.000000	99.143285
3579.000000	99.142227
3578.000000	99.141866
3577.000000	99.143193
3576.000000	99.146149
3575.000000	99.149902
3574.000000	99.153346
3573.000000	99.155364
3572.000000	99.155001
3571.000000	99.151800
3570.000000	99.146397
3569.000000	99.140742
3568.000000	99.137149
3567.000000	99.136673
3566.000000	99.138539
3565.000000	99.141443
3564.000000	99.144745
3563.000000	99.148084
3562.000000	99.150785
3561.000000	99.152134
3560.000000	99.152130
3559.000000	99.151723
3558.000000	99.152052
3557.000000	99.153290
3556.000000	99.154443
3555.000000	99.154434
3554.000000	99.153293
3553.000000	99.152069
3552.000000	99.151554
3551.000000	99.151425
3550.000000	99.150911
3549.000000	99.149833
3548.000000	99.148691
3547.000000	99.147920
3546.000000	99.147384
3545.000000	99.146708
3544.000000	99.145859
3543.000000	99.145213
3542.000000	99.145139
3541.000000	99.145668
3540.000000	99.146438
3539.000000	99.146961
3538.000000	99.147073
3537.000000	99.147122
3536.000000	99.147509
3535.000000	99.148090
3534.000000	99.148319
3533.000000	99.148100
3532.000000	99.148227
3531.000000	99.149639
3530.000000	99.152276
3529.000000	99.154796
3528.000000	99.155621
3527.000000	99.154363
3526.000000	99.152185
3525.000000	99.150920
3524.000000	99.151649
3523.000000	99.154138
3522.000000	99.157325
3521.000000	99.160129
3520.000000	99.161948
3519.000000	99.162694
3518.000000	99.162729
3517.000000	99.162715
3516.000000	99.163187
3515.000000	99.164116
3514.000000	99.164991
3513.000000	99.165405
3512.000000	99.165427
3511.000000	99.165369
3510.000000	99.165290
3509.000000	99.164957
3508.000000	99.164254
3507.000000	99.163402
3506.000000	99.162740
3505.000000	99.162454
3504.000000	99.162541
3503.000000	99.162943
3502.000000	99.163700
3501.000000	99.164946
3500.000000	99.166654
3499.000000	99.168334
3498.000000	99.169156
3497.000000	99.168683
3496.000000	99.167449
3495.000000	99.166550
3494.000000	99.166430
3493.000000	99.166354
3492.000000	99.165333
3491.000000	99.163322
3490.000000	99.161324
3489.000000	99.160293
3488.000000	99.160259
3487.000000	99.160591
3486.000000	99.160843
3485.000000	99.161122
3484.000000	99.161661
3483.000000	99.162384
3482.000000	99.162872
3481.000000	99.162642
3480.000000	99.161617
3479.000000	99.160410
3478.000000	99.160019
3477.000000	99.160984
3476.000000	99.162842
3475.000000	99.164416
3474.000000	99.164869
3473.000000	99.164318
3472.000000	99.163486
3471.000000	99.162858
3470.000000	99.162297
3469.000000	99.161484
3468.000000	99.160472
3467.000000	99.159693
3466.000000	99.159468
3465.000000	99.159630
3464.000000	99.159682
3463.000000	99.159307
3462.000000	99.158665
3461.000000	99.158144
3460.000000	99.157942
3459.000000	99.157963
3458.000000	99.158015
3457.000000	99.157914
3456.000000	99.157440
3455.000000	99.156442
3454.000000	99.155115
3453.000000	99.154040
3452.000000	99.153777
3451.000000	99.154395
3450.000000	99.155536
3449.000000	99.156902
3448.000000	99.158417
3447.000000	99.159990
3446.000000	99.161352
3445.000000	99.162221
3444.000000	99.162480
3443.000000	99.162126
3442.000000	99.161260
3441.000000	99.160255
3440.000000	99.159718
3439.000000	99.160011
3438.000000	99.160823
3437.000000	99.161411
3436.000000	99.161284
3435.000000	99.160489
3434.000000	99.159307
3433.000000	99.157998
3432.000000	99.156932
3431.000000	99.156628
3430.000000	99.157397
3429.000000	99.159051
3428.000000	99.161042
3427.000000	99.162747
3426.000000	99.163577
3425.000000	99.163142
3424.000000	99.161658
3423.000000	99.159981
3422.000000	99.158794
3421.000000	99.157964
3420.000000	99.157087
3419.000000	99.156397
3418.000000	99.156527
3417.000000	99.157386
3416.000000	99.157909
3415.000000	99.157162
3414.000000	99.155158
3413.000000	99.152464
3412.000000	99.149522
3411.000000	99.146815
3410.000000	99.145269
3409.000000	99.145720
3408.000000	99.148000
3407.000000	99.150908
3406.000000	99.153244
3405.000000	99.154590
3404.000000	99.155002
3403.000000	99.154556
3402.000000	99.153469
3401.000000	99.152257
3400.000000	99.151367
3399.000000	99.150703
3398.000000	99.149783
3397.000000	99.148391
3396.000000	99.146993
3395.000000	99.146474
3394.000000	99.147419
3393.000000	99.149531
3392.000000	99.151710
3391.000000	99.152874
3390.000000	99.152715
3389.000000	99.151588
3388.000000	99.149988
3387.000000	99.148477
3386.000000	99.147903
3385.000000	99.148994
3384.000000	99.151448
3383.000000	99.153814
3382.000000	99.154762
3381.000000	99.154292
3380.000000	99.153500
3379.000000	99.153455
3378.000000	99.154634
3377.000000	99.157122
3376.000000	99.160653
3375.000000	99.164355
3374.000000	99.167086
3373.000000	99.168480
3372.000000	99.169390
3371.000000	99.170939
3370.000000	99.173113
3369.000000	99.174689
3368.000000	99.174628
3367.000000	99.173139
3366.000000	99.171281
3365.000000	99.169710
3364.000000	99.168243
3363.000000	99.166725
3362.000000	99.165829
3361.000000	99.166468
3360.000000	99.168533
3359.000000	99.170612
3358.000000	99.171275
3357.000000	99.170491
3356.000000	99.169512
3355.000000	99.169539
3354.000000	99.170783
3353.000000	99.172798
3352.000000	99.175215
3351.000000	99.177927
3350.000000	99.180740
3349.000000	99.183193
3348.000000	99.184792
3347.000000	99.185348
3346.000000	99.185055
3345.000000	99.184353
3344.000000	99.183797
3343.000000	99.183925
3342.000000	99.185024
3341.000000	99.186887
3340.000000	99.188807
3339.000000	99.189964
3338.000000	99.189985
3337.000000	99.189242
3336.000000	99.188610
3335.000000	99.188809
3334.000000	99.189850
3333.000000	99.191081
3332.000000	99.191798
3331.000000	99.191867
3330.000000	99.191801
3329.000000	99.192262
3328.000000	99.193521
3327.000000	99.195272
3326.000000	99.196849
3325.000000	99.197705
3324.000000	99.197891
3323.000000	99.198120
3322.000000	99.199087
3321.000000	99.200638
3320.000000	99.201804
3319.000000	99.201979
3318.000000	99.201961
3317.000000	99.203392
3316.000000	99.207091
3315.000000	99.212144
3314.000000	99.216582
3313.000000	99.219064
3312.000000	99.219589
3311.000000	99.219044
3310.000000	99.218386
3309.000000	99.218111
3308.000000	99.218190
3307.000000	99.218270
3306.000000	99.218057
3305.000000	99.217706
3304.000000	99.217702
3303.000000	99.218181
3302.000000	99.218562
3301.000000	99.218085
3300.000000	99.216708
3299.000000	99.215271
3298.000000	99.214697
3297.000000	99.215135
3296.000000	99.215977
3295.000000	99.216549
3294.000000	99.216635
3293.000000	99.216407
3292.000000	99.216163
3291.000000	99.216211
3290.000000	99.216800
3289.000000	99.217899
3288.000000	99.219083
3287.000000	99.219863
3286.000000	99.220159
3285.000000	99.220378
3284.000000	99.220974
3283.000000	99.221971
3282.000000	99.222944
3281.000000	99.223431
3280.000000	99.223312
3279.000000	99.222821
3278.000000	99.222329
3277.000000	99.222112
3276.000000	99.222267
3275.000000	99.222732
3274.000000	99.223348
3273.000000	99.223936
3272.000000	99.224378
3271.000000	99.224624
3270.000000	99.224651
3269.000000	99.224459
3268.000000	99.224136
3267.000000	99.223927
3266.000000	99.224117
3265.000000	99.224799
3264.000000	99.225746
3263.000000	99.226531
3262.000000	99.226871
3261.000000	99.226811
3260.000000	99.226679
3259.000000	99.226854
3258.000000	99.227501
3257.000000	99.228469
3256.000000	99.229394
3255.000000	99.229969
3254.000000	99.230136
3253.000000	99.230079
3252.000000	99.230139
3251.000000	99.230706
3250.000000	99.232070
3249.000000	99.234162
3248.000000	99.236404
3247.000000	99.238043
3246.000000	99.238776
3245.000000	99.238890
3244.000000	99.238726
3243.000000	99.238211
3242.000000	99.237221
3241.000000	99.236203
3240.000000	99.236024
3239.000000	99.237095
3238.000000	99.238944
3237.000000	99.240762
3236.000000	99.242266
3235.000000	99.243842
3234.000000	99.245974
3233.000000	99.248743
3232.000000	99.251777
3231.000000	99.254446
3230.000000	99.256118
3229.000000	99.256507
3228.000000	99.255895
3227.000000	99.254831
3226.000000	99.253474
3225.000000	99.251578
3224.000000	99.249389
3223.000000	99.248143
3222.000000	99.248983
3221.000000	99.251423
3220.000000	99.253535
3219.000000	99.253994
3218.000000	99.253491
3217.000000	99.253630
3216.000000	99.254933
3215.000000	99.256483
3214.000000	99.257234
3213.000000	99.256944
3212.000000	99.255898
3211.000000	99.254497
3210.000000	99.253358
3209.000000	99.253197
3208.000000	99.254194
3207.000000	99.255882
3206.000000	99.258050
3205.000000	99.261409
3204.000000	99.266745
3203.000000	99.273433
3202.000000	99.279312
3201.000000	99.282437
3200.000000	99.282842
3199.000000	99.282466
3198.000000	99.283266
3197.000000	99.285313
3196.000000	99.287060
3195.000000	99.287316
3194.000000	99.286432
3193.000000	99.285547
3192.000000	99.285218
3191.000000	99.285225
3190.000000	99.285383
3189.000000	99.285879
3188.000000	99.286895
3187.000000	99.288435
3186.000000	99.290589
3185.000000	99.293465
3184.000000	99.296613
3183.000000	99.299006
3182.000000	99.299920
3181.000000	99.299555
3180.000000	99.298658
3179.000000	99.297753
3178.000000	99.296962
3177.000000	99.296468
3176.000000	99.296784
3175.000000	99.298389
3174.000000	99.301229
3173.000000	99.304607
3172.000000	99.307617
3171.000000	99.309757
3170.000000	99.311114
3169.000000	99.312010
3168.000000	99.312630
3167.000000	99.313055
3166.000000	99.313477
3165.000000	99.314148
3164.000000	99.315156
3163.000000	99.316433
3162.000000	99.317927
3161.000000	99.319581
3160.000000	99.321151
3159.000000	99.322381
3158.000000	99.323390
3157.000000	99.324630
3156.000000	99.326353
3155.000000	99.328324
3154.000000	99.330170
3153.000000	99.331813
3152.000000	99.333360
3151.000000	99.334767
3150.000000	99.335836
3149.000000	99.336469
3148.000000	99.336766
3147.000000	99.336956
3146.000000	99.337415
3145.000000	99.338558
3144.000000	99.340470
3143.000000	99.342620
3142.000000	99.344175
3141.000000	99.344748
3140.000000	99.344663
3139.000000	99.344647
3138.000000	99.345279
3137.000000	99.346793
3136.000000	99.349126
3135.000000	99.351955
3134.000000	99.354810
3133.000000	99.357294
3132.000000	99.359233
3131.000000	99.360608
3130.000000	99.361502
3129.000000	99.362126
3128.000000	99.362708
3127.000000	99.363324
3126.000000	99.363993
3125.000000	99.364904
3124.000000	99.366310
3123.000000	99.368119
3122.000000	99.369803
3121.000000	99.370948
3120.000000	99.371732
3119.000000	99.372655
3118.000000	99.373870
3117.000000	99.375049
3116.000000	99.375919
3115.000000	99.376616
3114.000000	99.377430
3113.000000	99.378400
3112.000000	99.379337
3111.000000	99.380139
3110.000000	99.380925
3109.000000	99.381870
3108.000000	99.383030
3107.000000	99.384344
3106.000000	99.385683
3105.000000	99.386876
3104.000000	99.387774
3103.000000	99.388356
3102.000000	99.388785
3101.000000	99.389291
3100.000000	99.389979
3099.000000	99.390760
3098.000000	99.391474
3097.000000	99.392062
3096.000000	99.392601
3095.000000	99.393227
3094.000000	99.394014
3093.000000	99.394915
3092.000000	99.395782
3091.000000	99.396482
3090.000000	99.397011
3089.000000	99.397511
3088.000000	99.398161
3087.000000	99.399032
3086.000000	99.400033
3085.000000	99.401011
3084.000000	99.401903
3083.000000	99.402741
3082.000000	99.403541
3081.000000	99.404275
3080.000000	99.404980
3079.000000	99.405780
3078.000000	99.406728
3077.000000	99.407671
3076.000000	99.408378
3075.000000	99.408786
3074.000000	99.409054
3073.000000	99.409423
3072.000000	99.410113
3071.000000	99.411300
3070.000000	99.413000
3069.000000	99.414874
3068.000000	99.416347
3067.000000	99.417109
3066.000000	99.417444
3065.000000	99.418000
3064.000000	99.419149
3063.000000	99.420713
3062.000000	99.422266
3061.000000	99.423590
3060.000000	99.424807
3059.000000	99.426182
3058.000000	99.427894
3057.000000	99.429901
3056.000000	99.431977
3055.000000	99.433823
3054.000000	99.435130
3053.000000	99.435609
3052.000000	99.435124
3051.000000	99.433937
3050.000000	99.432758
3049.000000	99.432315
3048.000000	99.432895
3047.000000	99.434339
3046.000000	99.436374
3045.000000	99.438718
3044.000000	99.440911
3043.000000	99.442499
3042.000000	99.443535
3041.000000	99.444626
3040.000000	99.446257
3039.000000	99.448192
3038.000000	99.449790
3037.000000	99.450809
3036.000000	99.451654
3035.000000	99.452812
3034.000000	99.454260
3033.000000	99.455563
3032.000000	99.456468
3031.000000	99.457261
3030.000000	99.458454
3029.000000	99.460226
3028.000000	99.462239
3027.000000	99.463941
3026.000000	99.464869
3025.000000	99.464695
3024.000000	99.463393
3023.000000	99.461618
3022.000000	99.460687
3021.000000	99.461701
3020.000000	99.464587
3019.000000	99.468122
3018.000000	99.470956
3017.000000	99.472596
3016.000000	99.473535
3015.000000	99.474752
3014.000000	99.477029
3013.000000	99.480164
3012.000000	99.482703
3011.000000	99.482927
3010.000000	99.480544
3009.000000	99.477241
3008.000000	99.475319
3007.000000	99.476063
3006.000000	99.479519
3005.000000	99.485099
3004.000000	99.491880
3003.000000	99.498693
3002.000000	99.504543
3001.000000	99.508962
3000.000000	99.511771
2999.000000	99.512801
2998.000000	99.512279
2997.000000	99.511273
2996.000000	99.511158
2995.000000	99.512430
2994.000000	99.514345
2993.000000	99.515950
2992.000000	99.517253
2991.000000	99.519203
2990.000000	99.522565
2989.000000	99.527038
2988.000000	99.531661
2987.000000	99.536017
2986.000000	99.540677
2985.000000	99.546244
2984.000000	99.552328
2983.000000	99.557888
2982.000000	99.562400
2981.000000	99.566204
2980.000000	99.569857
2979.000000	99.573680
2978.000000	99.577875
2977.000000	99.582369
2976.000000	99.586434
2975.000000	99.589125
2974.000000	99.590204
2973.000000	99.589974
2972.000000	99.588217
2971.000000	99.584329
2970.000000	99.578848
2969.000000	99.573889
2968.000000	99.571387
2967.000000	99.571519
2966.000000	99.573419
2965.000000	99.576523
2964.000000	99.580245
2963.000000	99.582993
2962.000000	99.582733
2961.000000	99.578607
2960.000000	99.571465
2959.000000	99.563281
2958.000000	99.556692
2957.000000	99.554352
2956.000000	99.557179
2955.000000	99.562889
2954.000000	99.567268
2953.000000	99.567767
2952.000000	99.565428
2951.000000	99.563286
2950.000000	99.563603
2949.000000	99.566649
2948.000000	99.571029
2947.000000	99.574486
2946.000000	99.575202
2945.000000	99.573274
2944.000000	99.570925
2943.000000	99.570811
2942.000000	99.574076
2941.000000	99.580048
2940.000000	99.587312
2939.000000	99.594699
2938.000000	99.601529
2937.000000	99.607605
2936.000000	99.613171
2935.000000	99.618571
2934.000000	99.623643
2933.000000	99.627589
2932.000000	99.629826
2931.000000	99.631141
2930.000000	99.633535
2929.000000	99.638185
2928.000000	99.643502
2927.000000	99.646346
2926.000000	99.645628
2925.000000	99.643814
2924.000000	99.643839
2923.000000	99.645301
2922.000000	99.645442
2921.000000	99.643552
2920.000000	99.642285
2919.000000	99.643989
2918.000000	99.647176
2917.000000	99.647990
2916.000000	99.644366
2915.000000	99.637680
2914.000000	99.630940
2913.000000	99.626298
2912.000000	99.623966
2911.000000	99.622630
2910.000000	99.620665
2909.000000	99.617445
2908.000000	99.613616
2907.000000	99.609949
2906.000000	99.606314
2905.000000	99.602294
2904.000000	99.598574
2903.000000	99.596858
2902.000000	99.598080
2901.000000	99.601225
2900.000000	99.604153
2899.000000	99.605516
2898.000000	99.605467
2897.000000	99.604714
2896.000000	99.603285
2895.000000	99.600488
2894.000000	99.595999
2893.000000	99.590799
2892.000000	99.586850
2891.000000	99.585706
2890.000000	99.587449
2889.000000	99.590774
2888.000000	99.593861
2887.000000	99.595332
2886.000000	99.594785
2885.000000	99.592855
2884.000000	99.590804
2883.000000	99.589671
2882.000000	99.589571
2881.000000	99.589858
2880.000000	99.589997
2879.000000	99.590189
2878.000000	99.591034
2877.000000	99.592657
2876.000000	99.594314
2875.000000	99.594860
2874.000000	99.593561
2873.000000	99.590592
2872.000000	99.587069
2871.000000	99.584578
2870.000000	99.584325
2869.000000	99.586356
2868.000000	99.589344
2867.000000	99.591330
2866.000000	99.591180
2865.000000	99.589434
2864.000000	99.587839
2863.000000	99.587822
2862.000000	99.589334
2861.000000	99.591095
2860.000000	99.591945
2859.000000	99.591898
2858.000000	99.591996
2857.000000	99.593292
2856.000000	99.596012
2855.000000	99.599521
2854.000000	99.602916
2853.000000	99.605667
2852.000000	99.607705
2851.000000	99.608911
2850.000000	99.608649
2849.000000	99.606053
2848.000000	99.601012
2847.000000	99.594783
2846.000000	99.589324
2845.000000	99.585969
2844.000000	99.584735
2843.000000	99.584651
2842.000000	99.584488
2841.000000	99.583389
2840.000000	99.581364
2839.000000	99.579397
2838.000000	99.578697
2837.000000	99.579433
2836.000000	99.580302
2835.000000	99.579696
2834.000000	99.577342
2833.000000	99.574541
2832.000000	99.572762
2831.000000	99.572250
2830.000000	99.572117
2829.000000	99.571623
2828.000000	99.571035
2827.000000	99.571221
2826.000000	99.572695
2825.000000	99.575179
2824.000000	99.577942
2823.000000	99.580353
2822.000000	99.582100
2821.000000	99.583009
2820.000000	99.582936
2819.000000	99.581856
2818.000000	99.579986
2817.000000	99.577922
2816.000000	99.576613
2815.000000	99.576793
2814.000000	99.578261
2813.000000	99.579836
2812.000000	99.580363
2811.000000	99.579709
2810.000000	99.578578
2809.000000	99.577592
2808.000000	99.576912
2807.000000	99.576667
2806.000000	99.577194
2805.000000	99.578567
2804.000000	99.580188
2803.000000	99.581272
2802.000000	99.581688
2801.000000	99.581988
2800.000000	99.582674
2799.000000	99.583759
2798.000000	99.584989
2797.000000	99.586220
2796.000000	99.587465
2795.000000	99.588720
2794.000000	99.589869
2793.000000	99.590726
2792.000000	99.591198
2791.000000	99.591420
2790.000000	99.591707
2789.000000	99.592281
2788.000000	99.593091
2787.000000	99.593935
2786.000000	99.594676
2785.000000	99.595332
2784.000000	99.595998
2783.000000	99.596751
2782.000000	99.597613
2781.000000	99.598560
2780.000000	99.599527
2779.000000	99.600408
2778.000000	99.601143
2777.000000	99.601754
2776.000000	99.602331
2775.000000	99.602946
2774.000000	99.603606
2773.000000	99.604288
2772.000000	99.604969
2771.000000	99.605633
2770.000000	99.606284
2769.000000	99.606933
2768.000000	99.607585
2767.000000	99.608240
2766.000000	99.608889
2765.000000	99.609527
2764.000000	99.610146
2763.000000	99.610737
2762.000000	99.611301
2761.000000	99.611846
2760.000000	99.612385
2759.000000	99.612923
2758.000000	99.613458
2757.000000	99.613979
2756.000000	99.614479
2755.000000	99.614957
2754.000000	99.615416
2753.000000	99.615860
2752.000000	99.616290
2751.000000	99.616709
2750.000000	99.617123
2749.000000	99.617538
2748.000000	99.617959
2747.000000	99.618391
2746.000000	99.618833
2745.000000	99.619270
2744.000000	99.619684
2743.000000	99.620052
2742.000000	99.620357
2741.000000	99.620598
2740.000000	99.620784
2739.000000	99.620939
2738.000000	99.621090
2737.000000	99.621251
2736.000000	99.621419
2735.000000	99.621572
2734.000000	99.621692
2733.000000	99.621781
2732.000000	99.621894
2731.000000	99.622097
2730.000000	99.622396
2729.000000	99.622726
2728.000000	99.622990
2727.000000	99.623142
2726.000000	99.623206
2725.000000	99.623251
2724.000000	99.623318
2723.000000	99.623376
2722.000000	99.623383
2721.000000	99.623360
2720.000000	99.623376
2719.000000	99.623456
2718.000000	99.623563
2717.000000	99.623672
2716.000000	99.623794
2715.000000	99.623882
2714.000000	99.623780
2713.000000	99.623356
2712.000000	99.622660
2711.000000	99.621918
2710.000000	99.621369
2709.000000	99.621112
2708.000000	99.621051
2707.000000	99.620955
2706.000000	99.620645
2705.000000	99.620109
2704.000000	99.619407
2703.000000	99.618509
2702.000000	99.617392
2701.000000	99.616322
2700.000000	99.615805
2699.000000	99.616065
2698.000000	99.616646
2697.000000	99.616773
2696.000000	99.616147
2695.000000	99.615142
2694.000000	99.614329
2693.000000	99.614031
2692.000000	99.614319
2691.000000	99.614980
2690.000000	99.615341
2689.000000	99.614515
2688.000000	99.612241
2687.000000	99.609460
2686.000000	99.607499
2685.000000	99.606788
2684.000000	99.606556
2683.000000	99.605684
2682.000000	99.603844
2681.000000	99.601761
2680.000000	99.600482
2679.000000	99.600449
2678.000000	99.601240
2677.000000	99.602011
2676.000000	99.602153
2675.000000	99.601629
2674.000000	99.600849
2673.000000	99.600271
2672.000000	99.600059
2671.000000	99.600049
2670.000000	99.600041
2669.000000	99.600039
2668.000000	99.600166
2667.000000	99.600453
2666.000000	99.600741
2665.000000	99.600769
2664.000000	99.600365
2663.000000	99.599699
2662.000000	99.599397
2661.000000	99.600174
2660.000000	99.602160
2659.000000	99.604682
2658.000000	99.606871
2657.000000	99.608384
2656.000000	99.609348
2655.000000	99.609893
2654.000000	99.610120
2653.000000	99.610438
2652.000000	99.611417
2651.000000	99.613111
2650.000000	99.614765
2649.000000	99.615472
2648.000000	99.615132
2647.000000	99.614534
2646.000000	99.614686
2645.000000	99.615946
2644.000000	99.617841
2643.000000	99.619494
2642.000000	99.620323
2641.000000	99.620400
2640.000000	99.620191
2639.000000	99.620129
2638.000000	99.620389
2637.000000	99.620945
2636.000000	99.621649
2635.000000	99.622288
2634.000000	99.622724
2633.000000	99.623009
2632.000000	99.623279
2631.000000	99.623524
2630.000000	99.623591
2629.000000	99.623444
2628.000000	99.623253
2627.000000	99.623197
2626.000000	99.623257
2625.000000	99.623279
2624.000000	99.623163
2623.000000	99.622945
2622.000000	99.622723
2621.000000	99.622571
2620.000000	99.622501
2619.000000	99.622480
2618.000000	99.622464
2617.000000	99.622422
2616.000000	99.622339
2615.000000	99.622209
2614.000000	99.622038
2613.000000	99.621836
2612.000000	99.621622
2611.000000	99.621414
2610.000000	99.621215
2609.000000	99.621012
2608.000000	99.620789
2607.000000	99.620540
2606.000000	99.620276
2605.000000	99.620014
2604.000000	99.619775
2603.000000	99.619566
2602.000000	99.619378
2601.000000	99.619192
2600.000000	99.618991
2599.000000	99.618767
2598.000000	99.618518
2597.000000	99.618248
2596.000000	99.617974
2595.000000	99.617713
2594.000000	99.617477
2593.000000	99.617275
2592.000000	99.617106
2591.000000	99.616961
2590.000000	99.616830
2589.000000	99.616702
2588.000000	99.616574
2587.000000	99.616445
2586.000000	99.616320
2585.000000	99.616204
2584.000000	99.616103
2583.000000	99.616021
2582.000000	99.615962
2581.000000	99.615933
2580.000000	99.615934
2579.000000	99.615927
2578.000000	99.615840
2577.000000	99.615633
2576.000000	99.615330
2575.000000	99.615004
2574.000000	99.614726
2573.000000	99.614531
2572.000000	99.614427
2571.000000	99.614386
2570.000000	99.614344
2569.000000	99.614243
2568.000000	99.614062
2567.000000	99.613839
2566.000000	99.613644
2565.000000	99.613531
2564.000000	99.613495
2563.000000	99.613447
2562.000000	99.613283
2561.000000	99.612995
2560.000000	99.612703
2559.000000	99.612523
2558.000000	99.612448
2557.000000	99.612411
2556.000000	99.612422
2555.000000	99.612520
2554.000000	99.612623
2553.000000	99.612552
2552.000000	99.612241
2551.000000	99.611839
2550.000000	99.611537
2549.000000	99.611366
2548.000000	99.611228
2547.000000	99.611076
2546.000000	99.610991
2545.000000	99.611088
2544.000000	99.611385
2543.000000	99.611764
2542.000000	99.611995
2541.000000	99.611894
2540.000000	99.611518
2539.000000	99.611196
2538.000000	99.611250
2537.000000	99.611667
2536.000000	99.612111
2535.000000	99.612305
2534.000000	99.612348
2533.000000	99.612621
2532.000000	99.613310
2531.000000	99.614074
2530.000000	99.614336
2529.000000	99.613934
2528.000000	99.613366
2527.000000	99.613327
2526.000000	99.613946
2525.000000	99.614593
2524.000000	99.614470
2523.000000	99.613332
2522.000000	99.611648
2521.000000	99.610269
2520.000000	99.609752
2519.000000	99.610094
2518.000000	99.610887
2517.000000	99.611699
2516.000000	99.612300
2515.000000	99.612571
2514.000000	99.612462
2513.000000	99.612173
2512.000000	99.612203
2511.000000	99.612916
2510.000000	99.614054
2509.000000	99.614882
2508.000000	99.614996
2507.000000	99.614746
2506.000000	99.614781
2505.000000	99.615316
2504.000000	99.616080
2503.000000	99.616811
2502.000000	99.617490
2501.000000	99.618106
2500.000000	99.618561
2499.000000	99.618919
2498.000000	99.619472
2497.000000	99.620351
2496.000000	99.621260
2495.000000	99.621874
2494.000000	99.622355
2493.000000	99.623160
2492.000000	99.624359
2491.000000	99.625440
2490.000000	99.625912
2489.000000	99.625873
2488.000000	99.625820
2487.000000	99.626029
2486.000000	99.626339
2485.000000	99.626469
2484.000000	99.626345
2483.000000	99.626095
2482.000000	99.625844
2481.000000	99.625694
2480.000000	99.625823
2479.000000	99.626463
2478.000000	99.627707
2477.000000	99.629285
2476.000000	99.630674
2475.000000	99.631548
2474.000000	99.632047
2473.000000	99.632591
2472.000000	99.633464
2471.000000	99.634604
2470.000000	99.635758
2469.000000	99.636724
2468.000000	99.637387
2467.000000	99.637684
2466.000000	99.637662
2465.000000	99.637572
2464.000000	99.637736
2463.000000	99.638294
2462.000000	99.639146
2461.000000	99.640066
2460.000000	99.640860
2459.000000	99.641445
2458.000000	99.641840
2457.000000	99.642158
2456.000000	99.642562
2455.000000	99.643167
2454.000000	99.643982
2453.000000	99.644943
2452.000000	99.645943
2451.000000	99.646852
2450.000000	99.647562
2449.000000	99.648041
2448.000000	99.648353
2447.000000	99.648610
2446.000000	99.648932
2445.000000	99.649427
2444.000000	99.650146
2443.000000	99.651016
2442.000000	99.651874
2441.000000	99.652615
2440.000000	99.653252
2439.000000	99.653836
2438.000000	99.654371
2437.000000	99.654861
2436.000000	99.655389
2435.000000	99.656042
2434.000000	99.656791
2433.000000	99.657537
2432.000000	99.658284
2431.000000	99.659127
2430.000000	99.660027
2429.000000	99.660733
2428.000000	99.661014
2427.000000	99.660879
2426.000000	99.660549
2425.000000	99.660287
2424.000000	99.660307
2423.000000	99.660752
2422.000000	99.661639
2421.000000	99.662817
2420.000000	99.663995
2419.000000	99.664871
2418.000000	99.665292
2417.000000	99.665384
2416.000000	99.665482
2415.000000	99.665844
2414.000000	99.666464
2413.000000	99.667166
2412.000000	99.667737
2411.000000	99.667938
2410.000000	99.667586
2409.000000	99.666792
2408.000000	99.666009
2407.000000	99.665641
2406.000000	99.665660
2405.000000	99.665746
2404.000000	99.665731
2403.000000	99.665734
2402.000000	99.665895
2401.000000	99.666190
2400.000000	99.666533
2399.000000	99.666872
2398.000000	99.667104
2397.000000	99.667059
2396.000000	99.666681
2395.000000	99.666110
2394.000000	99.665548
2393.000000	99.665085
2392.000000	99.664658
2391.000000	99.664174
2390.000000	99.663655
2389.000000	99.663262
2388.000000	99.663138
2387.000000	99.663189
2386.000000	99.663063
2385.000000	99.662458
2384.000000	99.661406
2383.000000	99.660184
2382.000000	99.659041
2381.000000	99.658085
2380.000000	99.657382
2379.000000	99.656980
2378.000000	99.656802
2377.000000	99.656603
2376.000000	99.656144
2375.000000	99.655369
2374.000000	99.654368
2373.000000	99.653273
2372.000000	99.652226
2371.000000	99.651373
2370.000000	99.650768
2369.000000	99.650292
2368.000000	99.649786
2367.000000	99.649232
2366.000000	99.648710
2365.000000	99.648243
2364.000000	99.647794
2363.000000	99.647315
2362.000000	99.646750
2361.000000	99.646024
2360.000000	99.645108
2359.000000	99.644164
2358.000000	99.643419
2357.000000	99.642915
2356.000000	99.642483
2355.000000	99.641869
2354.000000	99.641001
2353.000000	99.640073
2352.000000	99.639456
2351.000000	99.639343
2350.000000	99.639534
2349.000000	99.639670
2348.000000	99.639522
2347.000000	99.639136
2346.000000	99.638796
2345.000000	99.638735
2344.000000	99.638954
2343.000000	99.639053
2342.000000	99.638784
2341.000000	99.638251
2340.000000	99.637800
2339.000000	99.637690
2338.000000	99.637805
2337.000000	99.637900
2336.000000	99.637846
2335.000000	99.637782
2334.000000	99.637704
2333.000000	99.637602
2332.000000	99.637528
2331.000000	99.637832
2330.000000	99.638353
2329.000000	99.638819
2328.000000	99.638829
2327.000000	99.638564
2326.000000	99.638370
2325.000000	99.638465
2324.000000	99.638898
2323.000000	99.639421
2322.000000	99.639887
2321.000000	99.640346
2320.000000	99.641149
2319.000000	99.642588
2318.000000	99.644216
2317.000000	99.645355
2316.000000	99.645573
2315.000000	99.645351
2314.000000	99.644895
2313.000000	99.643997
2312.000000	99.642142
2311.000000	99.639901
2310.000000	99.638306
2309.000000	99.638100
2308.000000	99.638848
2307.000000	99.639667
2306.000000	99.639828
2305.000000	99.639331
2304.000000	99.638511
2303.000000	99.637957
2302.000000	99.638101
2301.000000	99.639106
2300.000000	99.640498
2299.000000	99.641582
2298.000000	99.641856
2297.000000	99.641429
2296.000000	99.640640
2295.000000	99.639814
2294.000000	99.639103
2293.000000	99.638714
2292.000000	99.638846
2291.000000	99.639439
2290.000000	99.640026
2289.000000	99.640027
2288.000000	99.639233
2287.000000	99.637887
2286.000000	99.636362
2285.000000	99.634844
2284.000000	99.633448
2283.000000	99.632417
2282.000000	99.632031
2281.000000	99.632218
2280.000000	99.632445
2279.000000	99.632140
2278.000000	99.631251
2277.000000	99.630257
2276.000000	99.629639
2275.000000	99.629427
2274.000000	99.629311
2273.000000	99.629048
2272.000000	99.628663
2271.000000	99.628318
2270.000000	99.628093
2269.000000	99.627940
2268.000000	99.627736
2267.000000	99.627364
2266.000000	99.626800
2265.000000	99.626175
2264.000000	99.625666
2263.000000	99.625309
2262.000000	99.624964
2261.000000	99.624540
2260.000000	99.624142
2259.000000	99.623889
2258.000000	99.623673
2257.000000	99.623272
2256.000000	99.622664
2255.000000	99.622050
2254.000000	99.621573
2253.000000	99.621164
2252.000000	99.620715
2251.000000	99.620252
2250.000000	99.619849
2249.000000	99.619479
2248.000000	99.619063
2247.000000	99.618641
2246.000000	99.618372
2245.000000	99.618324
2244.000000	99.618362
2243.000000	99.618271
2242.000000	99.617981
2241.000000	99.617624
2240.000000	99.617400
2239.000000	99.617384
2238.000000	99.617491
2237.000000	99.617558
2236.000000	99.617467
2235.000000	99.617250
2234.000000	99.617067
2233.000000	99.617023
2232.000000	99.617001
2231.000000	99.616797
2230.000000	99.616449
2229.000000	99.616283
2228.000000	99.616504
2227.000000	99.616892
2226.000000	99.617059
2225.000000	99.616965
2224.000000	99.616921
2223.000000	99.617112
2222.000000	99.617345
2221.000000	99.617338
2220.000000	99.617082
2219.000000	99.616805
2218.000000	99.616696
2217.000000	99.616797
2216.000000	99.617073
2215.000000	99.617443
2214.000000	99.617798
2213.000000	99.618087
2212.000000	99.618382
2211.000000	99.618820
2210.000000	99.619560
2209.000000	99.620723
2208.000000	99.622131
2207.000000	99.623094
2206.000000	99.622885
2205.000000	99.621584
2204.000000	99.620254
2203.000000	99.619893
2202.000000	99.620357
2201.000000	99.620739
2200.000000	99.620534
2199.000000	99.619969
2198.000000	99.619307
2197.000000	99.618478
2196.000000	99.617512
2195.000000	99.616814
2194.000000	99.616709
2193.000000	99.617035
2192.000000	99.617419
2191.000000	99.617724
2190.000000	99.618034
2189.000000	99.618425
2188.000000	99.618987
2187.000000	99.619815
2186.000000	99.620755
2185.000000	99.621338
2184.000000	99.621180
2183.000000	99.620405
2182.000000	99.619575
2181.000000	99.619249
2180.000000	99.619646
2179.000000	99.620627
2178.000000	99.621839
2177.000000	99.622959
2176.000000	99.623903
2175.000000	99.624739
2174.000000	99.625415
2173.000000	99.625725
2172.000000	99.625634
2171.000000	99.625423
2170.000000	99.625407
2169.000000	99.625600
2168.000000	99.625820
2167.000000	99.625997
2166.000000	99.626174
2165.000000	99.626300
2164.000000	99.626247
2163.000000	99.626038
2162.000000	99.625912
2161.000000	99.626105
2160.000000	99.626644
2159.000000	99.627373
2158.000000	99.628104
2157.000000	99.628685
2156.000000	99.629012
2155.000000	99.629062
2154.000000	99.628918
2153.000000	99.628758
2152.000000	99.628746
2151.000000	99.628943
2150.000000	99.629321
2149.000000	99.629780
2148.000000	99.630216
2147.000000	99.630572
2146.000000	99.630867
2145.000000	99.631154
2144.000000	99.631467
2143.000000	99.631806
2142.000000	99.632160
2141.000000	99.632525
2140.000000	99.632899
2139.000000	99.633279
2138.000000	99.633663
2137.000000	99.634051
2136.000000	99.634442
2135.000000	99.634835
2134.000000	99.635231
2133.000000	99.635633
2132.000000	99.636044
2131.000000	99.636473
2130.000000	99.636922
2129.000000	99.637389
2128.000000	99.637875
2127.000000	99.638381
2126.000000	99.638912
2125.000000	99.639472
2124.000000	99.640058
2123.000000	99.640664
2122.000000	99.641285
2121.000000	99.641919
2120.000000	99.642566
2119.000000	99.643226
2118.000000	99.643898
2117.000000	99.644580
2116.000000	99.645272
2115.000000	99.645970
2114.000000	99.646677
2113.000000	99.647395
2112.000000	99.648127
2111.000000	99.648872
2110.000000	99.649623
2109.000000	99.650367
2108.000000	99.651089
2107.000000	99.651787
2106.000000	99.652470
2105.000000	99.653151
2104.000000	99.653837
2103.000000	99.654528
2102.000000	99.655214
2101.000000	99.655893
2100.000000	99.656564
2099.000000	99.657233
2098.000000	99.657903
2097.000000	99.658576
2096.000000	99.659252
2095.000000	99.659927
2094.000000	99.660598
2093.000000	99.661265
2092.000000	99.661916
2091.000000	99.662542
2090.000000	99.663158
2089.000000	99.663818
2088.000000	99.664612
2087.000000	99.665591
2086.000000	99.666664
2085.000000	99.667598
2084.000000	99.668202
2083.000000	99.668503
2082.000000	99.668760
2081.000000	99.669256
2080.000000	99.670029
2079.000000	99.670813
2078.000000	99.671243
2077.000000	99.671125
2076.000000	99.670507
2075.000000	99.669605
2074.000000	99.668736
2073.000000	99.668252
2072.000000	99.668372
2071.000000	99.669037
2070.000000	99.669958
2069.000000	99.670815
2068.000000	99.671386
2067.000000	99.671565
2066.000000	99.671459
2065.000000	99.671493
2064.000000	99.672212
2063.000000	99.673848
2062.000000	99.676041
2061.000000	99.677948
2060.000000	99.678803
2059.000000	99.678506
2058.000000	99.677889
2057.000000	99.678104
2056.000000	99.679408
2055.000000	99.680746
2054.000000	99.680831
2053.000000	99.679518
2052.000000	99.677805
2051.000000	99.676651
2050.000000	99.676154
2049.000000	99.675884
2048.000000	99.675464
2047.000000	99.674668
2046.000000	99.673350
2045.000000	99.671562
2044.000000	99.669524
2043.000000	99.667396
2042.000000	99.665327
2041.000000	99.663746
2040.000000	99.663176
2039.000000	99.663608
2038.000000	99.664332
2037.000000	99.664590
2036.000000	99.664179
2035.000000	99.663250
2034.000000	99.661900
2033.000000	99.660290
2032.000000	99.658919
2031.000000	99.658335
2030.000000	99.658511
2029.000000	99.658731
2028.000000	99.658155
2027.000000	99.656426
2026.000000	99.653806
2025.000000	99.651013
2024.000000	99.648861
2023.000000	99.647810
2022.000000	99.647787
2021.000000	99.648318
2020.000000	99.648834
2019.000000	99.648942
2018.000000	99.648544
2017.000000	99.647800
2016.000000	99.646868
2015.000000	99.645624
2014.000000	99.643838
2013.000000	99.641690
2012.000000	99.639837
2011.000000	99.638745
2010.000000	99.638141
2009.000000	99.637363
2008.000000	99.636147
2007.000000	99.634778
2006.000000	99.633551
2005.000000	99.632496
2004.000000	99.631652
2003.000000	99.631169
2002.000000	99.630942
2001.000000	99.630507
2000.000000	99.629594
1999.000000	99.628516
1998.000000	99.627738
1997.000000	99.627222
1996.000000	99.626505
1995.000000	99.625341
1994.000000	99.624042
1993.000000	99.623181
1992.000000	99.623007
1991.000000	99.623117
1990.000000	99.622830
1989.000000	99.622012
1988.000000	99.621345
1987.000000	99.621587
1986.000000	99.622714
1985.000000	99.624033
1984.000000	99.624988
1983.000000	99.625507
1982.000000	99.625613
1981.000000	99.625164
1980.000000	99.624176
1979.000000	99.622988
1978.000000	99.621936
1977.000000	99.621135
1976.000000	99.620622
1975.000000	99.620413
1974.000000	99.620336
1973.000000	99.620110
1972.000000	99.619720
1971.000000	99.619503
1970.000000	99.619712
1969.000000	99.620153
1968.000000	99.620370
1967.000000	99.620148
1966.000000	99.619657
1965.000000	99.619156
1964.000000	99.618742
1963.000000	99.618402
1962.000000	99.618177
1961.000000	99.618153
1960.000000	99.618289
1959.000000	99.618337
1958.000000	99.618041
1957.000000	99.617444
1956.000000	99.616924
1955.000000	99.616792
1954.000000	99.616872
1953.000000	99.616626
1952.000000	99.615721
1951.000000	99.614333
1950.000000	99.612906
1949.000000	99.611779
1948.000000	99.611124
1947.000000	99.610998
1946.000000	99.611191
1945.000000	99.611141
1944.000000	99.610346
1943.000000	99.608935
1942.000000	99.607686
1941.000000	99.607242
1940.000000	99.607457
1939.000000	99.607559
1938.000000	99.606805
1937.000000	99.605054
1936.000000	99.602957
1935.000000	99.601533
1934.000000	99.601384
1933.000000	99.602258
1932.000000	99.603211
1931.000000	99.603286
1930.000000	99.602060
1929.000000	99.599858
1928.000000	99.597561
1927.000000	99.595873
1926.000000	99.594727
1925.000000	99.593511
1924.000000	99.591986
1923.000000	99.590615
1922.000000	99.589754
1921.000000	99.588975
1920.000000	99.587657
1919.000000	99.585825
1918.000000	99.584013
1917.000000	99.582473
1916.000000	99.581003
1915.000000	99.579395
1914.000000	99.577461
1913.000000	99.574872
1912.000000	99.571529
1911.000000	99.568021
1910.000000	99.565169
1909.000000	99.563150
1908.000000	99.561370
1907.000000	99.559012
1906.000000	99.555410
1905.000000	99.550342
1904.000000	99.544753
1903.000000	99.540567
1902.000000	99.538842
1901.000000	99.538410
1900.000000	99.537360
1899.000000	99.535515
1898.000000	99.534122
1897.000000	99.533371
1896.000000	99.531809
1895.000000	99.528329
1894.000000	99.523279
1893.000000	99.517265
1892.000000	99.510555
1891.000000	99.504424
1890.000000	99.501381
1889.000000	99.502380
1888.000000	99.504940
1887.000000	99.505918
1886.000000	99.504817
1885.000000	99.503100
1884.000000	99.501801
1883.000000	99.500903
1882.000000	99.500223
1881.000000	99.499683
1880.000000	99.498960
1879.000000	99.497773
1878.000000	99.496286
1877.000000	99.494670
1876.000000	99.492826
1875.000000	99.491135
1874.000000	99.490551
1873.000000	99.491080
1872.000000	99.491185
1871.000000	99.489891
1870.000000	99.488858
1869.000000	99.490622
1868.000000	99.494529
1867.000000	99.497274
1866.000000	99.497639
1865.000000	99.497410
1864.000000	99.498570
1863.000000	99.501892
1862.000000	99.507619
1861.000000	99.515335
1860.000000	99.522735
1859.000000	99.526495
1858.000000	99.525553
1857.000000	99.522533
1856.000000	99.521265
1855.000000	99.523450
1854.000000	99.528330
1853.000000	99.534358
1852.000000	99.540320
1851.000000	99.545342
1850.000000	99.548978
1849.000000	99.551356
1848.000000	99.552929
1847.000000	99.554100
1846.000000	99.555336
1845.000000	99.557249
1844.000000	99.559818
1843.000000	99.562013
1842.000000	99.563178
1841.000000	99.563799
1840.000000	99.564618
1839.000000	99.565901
1838.000000	99.567699
1837.000000	99.570112
1836.000000	99.572781
1835.000000	99.574566
1834.000000	99.574681
1833.000000	99.573916
1832.000000	99.573964
1831.000000	99.575454
1830.000000	99.577298
1829.000000	99.578292
1828.000000	99.578597
1827.000000	99.578665
1826.000000	99.577940
1825.000000	99.575695
1824.000000	99.572451
1823.000000	99.569700
1822.000000	99.568598
1821.000000	99.569599
1820.000000	99.572481
1819.000000	99.576088
1818.000000	99.578675
1817.000000	99.579043
1816.000000	99.577348
1815.000000	99.574527
1814.000000	99.571296
1813.000000	99.568216
1812.000000	99.566134
1811.000000	99.565685
1810.000000	99.566270
1809.000000	99.566258
1808.000000	99.564516
1807.000000	99.561525
1806.000000	99.558964
1805.000000	99.558328
1804.000000	99.560000
1803.000000	99.563467
1802.000000	99.567967
1801.000000	99.572719
1800.000000	99.576630
1799.000000	99.578746
1798.000000	99.579096
1797.000000	99.578666
1796.000000	99.578380
1795.000000	99.578170
1794.000000	99.576878
1793.000000	99.573310
1792.000000	99.567964
1791.000000	99.563394
1790.000000	99.561911
1789.000000	99.563741
1788.000000	99.567501
1787.000000	99.571878
1786.000000	99.576789
1785.000000	99.582537
1784.000000	99.587953
1783.000000	99.590920
1782.000000	99.591197
1781.000000	99.591653
1780.000000	99.595214
1779.000000	99.601242
1778.000000	99.606668
1777.000000	99.610097
1776.000000	99.612937
1775.000000	99.616950
1774.000000	99.622216
1773.000000	99.627747
1772.000000	99.633082
1771.000000	99.638117
1770.000000	99.642380
1769.000000	99.645661
1768.000000	99.648609
1767.000000	99.651887
1766.000000	99.655192
1765.000000	99.658043
1764.000000	99.661050
1763.000000	99.665877
1762.000000	99.673250
1761.000000	99.681127
1760.000000	99.686263
1759.000000	99.687144
1758.000000	99.684260
1757.000000	99.679569
1756.000000	99.675518
1755.000000	99.673179
1754.000000	99.672080
1753.000000	99.671900
1752.000000	99.673013
1751.000000	99.674926
1750.000000	99.675492
1749.000000	99.673517
1748.000000	99.670822
1747.000000	99.669970
1746.000000	99.671404
1745.000000	99.673753
1744.000000	99.675672
1743.000000	99.676774
1742.000000	99.677349
1741.000000	99.677913
1740.000000	99.678665
1739.000000	99.678822
1738.000000	99.677241
1737.000000	99.674028
1736.000000	99.670736
1735.000000	99.669393
1734.000000	99.670268
1733.000000	99.670945
1732.000000	99.670500
1731.000000	99.670227
1730.000000	99.670696
1729.000000	99.671181
1728.000000	99.670943
1727.000000	99.670062
1726.000000	99.669033
1725.000000	99.668248
1724.000000	99.667875
1723.000000	99.667751
1722.000000	99.667241
1721.000000	99.665709
1720.000000	99.663074
1719.000000	99.659869
1718.000000	99.656972
1717.000000	99.655058
1716.000000	99.654145
1715.000000	99.653945
1714.000000	99.654096
1713.000000	99.654065
1712.000000	99.653395
1711.000000	99.651992
1710.000000	99.650049
1709.000000	99.647887
1708.000000	99.645828
1707.000000	99.644054
1706.000000	99.642573
1705.000000	99.641254
1704.000000	99.639966
1703.000000	99.638635
1702.000000	99.637112
1701.000000	99.635176
1700.000000	99.633046
1699.000000	99.631318
1698.000000	99.630012
1697.000000	99.628488
1696.000000	99.626228
1695.000000	99.623533
1694.000000	99.621218
1693.000000	99.619527
1692.000000	99.618198
1691.000000	99.617012
1690.000000	99.615818
1689.000000	99.614287
1688.000000	99.612023
1687.000000	99.608911
1686.000000	99.605318
1685.000000	99.602024
1684.000000	99.599877
1683.000000	99.598599
1682.000000	99.597263
1681.000000	99.595593
1680.000000	99.593862
1679.000000	99.592435
1678.000000	99.591442
1677.000000	99.590688
1676.000000	99.589942
1675.000000	99.589249
1674.000000	99.588615
1673.000000	99.587717
1672.000000	99.586133
1671.000000	99.584005
1670.000000	99.582263
1669.000000	99.581352
1668.000000	99.580120
1667.000000	99.577479
1666.000000	99.573790
1665.000000	99.570414
1664.000000	99.568767
1663.000000	99.569340
1662.000000	99.570865
1661.000000	99.571531
1660.000000	99.570849
1659.000000	99.569419
1658.000000	99.567811
1657.000000	99.566035
1656.000000	99.563375
1655.000000	99.558630
1654.000000	99.551052
1653.000000	99.543587
1652.000000	99.539826
1651.000000	99.539154
1650.000000	99.539387
1649.000000	99.539256
1648.000000	99.539324
1647.000000	99.541238
1646.000000	99.544566
1645.000000	99.546748
1644.000000	99.547006
1643.000000	99.546207
1642.000000	99.545034
1641.000000	99.543768
1640.000000	99.542661
1639.000000	99.541964
1638.000000	99.541355
1637.000000	99.539623
1636.000000	99.536461
1635.000000	99.534655
1634.000000	99.536860
1633.000000	99.541994
1632.000000	99.547033
1631.000000	99.549636
1630.000000	99.549285
1629.000000	99.547372
1628.000000	99.546220
1627.000000	99.547259
1626.000000	99.550074
1625.000000	99.553270
1624.000000	99.555582
1623.000000	99.556646
1622.000000	99.557058
1621.000000	99.557760
1620.000000	99.559478
1619.000000	99.562757
1618.000000	99.567921
1617.000000	99.574071
1616.000000	99.578898
1615.000000	99.581524
1614.000000	99.583503
1613.000000	99.586472
1612.000000	99.590837
1611.000000	99.595448
1610.000000	99.598353
1609.000000	99.598818
1608.000000	99.598400
1607.000000	99.599488
1606.000000	99.603063
1605.000000	99.608510
1604.000000	99.614828
1603.000000	99.621103
1602.000000	99.626192
1601.000000	99.629157
1600.000000	99.630383
1599.000000	99.631585
1598.000000	99.634382
1597.000000	99.639010
1596.000000	99.644362
1595.000000	99.648903
1594.000000	99.651676
1593.000000	99.653027
1592.000000	99.654361
1591.000000	99.656763
1590.000000	99.659760
1589.000000	99.661898
1588.000000	99.662605
1587.000000	99.662754
1586.000000	99.663363
1585.000000	99.664782
1584.000000	99.667361
1583.000000	99.671338
1582.000000	99.675790
1581.000000	99.678958
1580.000000	99.680499
1579.000000	99.681988
1578.000000	99.684394
1577.000000	99.685230
1576.000000	99.680657
1575.000000	99.672626
1574.000000	99.667434
1573.000000	99.667407
1572.000000	99.670776
1571.000000	99.674553
1570.000000	99.675760
1569.000000	99.673206
1568.000000	99.668874
1567.000000	99.665759
1566.000000	99.665163
1565.000000	99.666242
1564.000000	99.667234
1563.000000	99.667120
1562.000000	99.666295
1561.000000	99.665492
1560.000000	99.664507
1559.000000	99.663628
1558.000000	99.662865
1557.000000	99.660856
1556.000000	99.658983
1555.000000	99.658067
1554.000000	99.656975
1553.000000	99.653955
1552.000000	99.648406
1551.000000	99.641180
1550.000000	99.633869
1549.000000	99.627491
1548.000000	99.622164
1547.000000	99.617968
1546.000000	99.615458
1545.000000	99.614977
1544.000000	99.615639
1543.000000	99.615539
1542.000000	99.612898
1541.000000	99.605912
1540.000000	99.593413
1539.000000	99.577939
1538.000000	99.564907
1537.000000	99.556654
1536.000000	99.551262
1535.000000	99.545289
1534.000000	99.535965
1533.000000	99.523865
1532.000000	99.512120
1531.000000	99.502137
1530.000000	99.493144
1529.000000	99.484320
1528.000000	99.475965
1527.000000	99.469154
1526.000000	99.464257
1525.000000	99.460457
1524.000000	99.456625
1523.000000	99.451976
1522.000000	99.446091
1521.000000	99.439392
1520.000000	99.433235
1519.000000	99.428466
1518.000000	99.423902
1517.000000	99.417220
1516.000000	99.407717
1515.000000	99.397670
1514.000000	99.389428
1513.000000	99.382879
1512.000000	99.376288
1511.000000	99.368768
1510.000000	99.361386
1509.000000	99.355893
1508.000000	99.353126
1507.000000	99.351947
1506.000000	99.348976
1505.000000	99.343037
1504.000000	99.337041
1503.000000	99.333304
1502.000000	99.333018
1501.000000	99.336384
1500.000000	99.341432
1499.000000	99.344097
1498.000000	99.340847
1497.000000	99.331360
1496.000000	99.319279
1495.000000	99.309600
1494.000000	99.304664
1493.000000	99.303463
1492.000000	99.303272
1491.000000	99.301851
1490.000000	99.299712
1489.000000	99.299314
1488.000000	99.301032
1487.000000	99.303080
1486.000000	99.304416
1485.000000	99.304870
1484.000000	99.303896
1483.000000	99.300709
1482.000000	99.295714
1481.000000	99.290625
1480.000000	99.286678
1479.000000	99.284041
1478.000000	99.283604
1477.000000	99.287299
1476.000000	99.295260
1475.000000	99.304062
1474.000000	99.309550
1473.000000	99.310706
1472.000000	99.310081
1471.000000	99.310499
1470.000000	99.312962
1469.000000	99.317204
1468.000000	99.322075
1467.000000	99.326038
1466.000000	99.328601
1465.000000	99.331258
1464.000000	99.335232
1463.000000	99.339402
1462.000000	99.342592
1461.000000	99.345351
1460.000000	99.348666
1459.000000	99.352198
1458.000000	99.354298
1457.000000	99.354475
1456.000000	99.354438
1455.000000	99.355137
1454.000000	99.356003
1453.000000	99.356879
1452.000000	99.358503
1451.000000	99.361232
1450.000000	99.364541
1449.000000	99.368213
1448.000000	99.372593
1447.000000	99.377068
1446.000000	99.379874
1445.000000	99.380257
1444.000000	99.379076
1443.000000	99.377670
1442.000000	99.376772
1441.000000	99.376571
1440.000000	99.377368
1439.000000	99.379539
1438.000000	99.382918
1437.000000	99.386358
1436.000000	99.388543
1435.000000	99.389684
1434.000000	99.391464
1433.000000	99.395123
1432.000000	99.400238
1431.000000	99.404658
1430.000000	99.406543
1429.000000	99.407121
1428.000000	99.409614
1427.000000	99.415235
1426.000000	99.421910
1425.000000	99.427039
1424.000000	99.430780
1423.000000	99.435739
1422.000000	99.443137
1421.000000	99.451003
1420.000000	99.455852
1419.000000	99.456465
1418.000000	99.456180
1417.000000	99.458531
1416.000000	99.463388
1415.000000	99.468766
1414.000000	99.473291
1413.000000	99.476802
1412.000000	99.479755
1411.000000	99.482738
1410.000000	99.486416
1409.000000	99.491320
1408.000000	99.497350
1407.000000	99.503786
1406.000000	99.510047
1405.000000	99.516461
1404.000000	99.523835
1403.000000	99.532401
1402.000000	99.541778
1401.000000	99.551350
1400.000000	99.559899
1399.000000	99.565776
1398.000000	99.568546
1397.000000	99.569912
1396.000000	99.572345
1395.000000	99.577190
1394.000000	99.583572
1393.000000	99.589543
1392.000000	99.594339
1391.000000	99.598534
1390.000000	99.603070
1389.000000	99.608789
1388.000000	99.616307
1387.000000	99.625741
1386.000000	99.636221
1385.000000	99.646120
1384.000000	99.653823
1383.000000	99.658460
1382.000000	99.660589
1381.000000	99.661986
1380.000000	99.664079
1379.000000	99.666660
1378.000000	99.668206
1377.000000	99.667307
1376.000000	99.663921
1375.000000	99.659600
1374.000000	99.656524
1373.000000	99.655888
1372.000000	99.657587
1371.000000	99.661202
1370.000000	99.666021
1369.000000	99.670684
1368.000000	99.674225
1367.000000	99.677196
1366.000000	99.680279
1365.000000	99.682086
1364.000000	99.680095
1363.000000	99.674662
1362.000000	99.670537
1361.000000	99.671466
1360.000000	99.675667
1359.000000	99.678977
1358.000000	99.679708
1357.000000	99.679038
1356.000000	99.678265
1355.000000	99.677442
1354.000000	99.676547
1353.000000	99.676296
1352.000000	99.677181
1351.000000	99.678826
1350.000000	99.680544
1349.000000	99.681684
1348.000000	99.681487
1347.000000	99.679612
1346.000000	99.677067
1345.000000	99.675762
1344.000000	99.676773
1343.000000	99.679462
1342.000000	99.682224
1341.000000	99.683475
1340.000000	99.682253
1339.000000	99.679000
1338.000000	99.675784
1337.000000	99.674715
1336.000000	99.676072
1335.000000	99.678386
1334.000000	99.680054
1333.000000	99.680414
1332.000000	99.679599
1331.000000	99.678285
1330.000000	99.677621
1329.000000	99.678403
1328.000000	99.680165
1327.000000	99.681895
1326.000000	99.683475
1325.000000	99.685222
1324.000000	99.686098
1323.000000	99.684154
1322.000000	99.679531
1321.000000	99.675527
1320.000000	99.675286
1319.000000	99.678183
1318.000000	99.680952
1317.000000	99.681754
1316.000000	99.681212
1315.000000	99.680070
1314.000000	99.678180
1313.000000	99.676091
1312.000000	99.675731
1311.000000	99.678228
1310.000000	99.682007
1309.000000	99.684033
1308.000000	99.682487
1307.000000	99.677891
1306.000000	99.672395
1305.000000	99.668540
1304.000000	99.668023
1303.000000	99.670549
1302.000000	99.673729
1301.000000	99.674895
1300.000000	99.673250
1299.000000	99.669934
1298.000000	99.666322
1297.000000	99.662861
1296.000000	99.659541
1295.000000	99.656606
1294.000000	99.654402
1293.000000	99.653060
1292.000000	99.652634
1291.000000	99.652892
1290.000000	99.652626
1289.000000	99.649943
1288.000000	99.644108
1287.000000	99.636814
1286.000000	99.630721
1285.000000	99.626658
1284.000000	99.622962
1283.000000	99.617679
1282.000000	99.610823
1281.000000	99.604263
1280.000000	99.599721
1279.000000	99.597212
1278.000000	99.595359
1277.000000	99.593024
1276.000000	99.590396
1275.000000	99.588230
1274.000000	99.586114
1273.000000	99.582223
1272.000000	99.575557
1271.000000	99.568379
1270.000000	99.565513
1269.000000	99.570355
1268.000000	99.581346
1267.000000	99.592405
1266.000000	99.597291
1265.000000	99.594173
1264.000000	99.586349
1263.000000	99.578719
1262.000000	99.573516
1261.000000	99.569286
1260.000000	99.563457
1259.000000	99.555149
1258.000000	99.545292
1257.000000	99.534787
1256.000000	99.523537
1255.000000	99.511474
1254.000000	99.499727
1253.000000	99.489814
1252.000000	99.481488
1251.000000	99.472233
1250.000000	99.459811
1249.000000	99.444983
1248.000000	99.430608
1247.000000	99.418148
1246.000000	99.406572
1245.000000	99.395047
1244.000000	99.384524
1243.000000	99.375105
1242.000000	99.363771
1241.000000	99.347494
1240.000000	99.327726
1239.000000	99.308942
1238.000000	99.292713
1237.000000	99.276064
1236.000000	99.256426
1235.000000	99.235480
1234.000000	99.216634
1233.000000	99.200607
1232.000000	99.185089
1231.000000	99.167339
1230.000000	99.145609
1229.000000	99.119034
1228.000000	99.087428
1227.000000	99.050767
1226.000000	99.008558
1225.000000	98.960766
1224.000000	98.909595
1223.000000	98.858662
1222.000000	98.809462
1221.000000	98.760006
1220.000000	98.707531
1219.000000	98.650690
1218.000000	98.588443
1217.000000	98.519256
1216.000000	98.442907
1215.000000	98.361194
1214.000000	98.275566
1213.000000	98.186290
1212.000000	98.095569
1211.000000	98.008673
1210.000000	97.929149
1209.000000	97.854647
1208.000000	97.779796
1207.000000	97.701677
1206.000000	97.621007
1205.000000	97.540041
1204.000000	97.461042
1203.000000	97.384872
1202.000000	97.309548
1201.000000	97.232035
1200.000000	97.152506
1199.000000	97.074486
1198.000000	96.999973
1197.000000	96.927377
1196.000000	96.855170
1195.000000	96.783757
1194.000000	96.712054
1193.000000	96.636067
1192.000000	96.553461
1191.000000	96.466775
1190.000000	96.379824
1189.000000	96.293413
1188.000000	96.206570
1187.000000	96.119154
1186.000000	96.031003
1185.000000	95.941089
1184.000000	95.849623
1183.000000	95.758514
1182.000000	95.667910
1181.000000	95.574681
1180.000000	95.475789
1179.000000	95.370629
1178.000000	95.259306
1177.000000	95.142152
1176.000000	95.022120
1175.000000	94.903516
1174.000000	94.786518
1173.000000	94.667005
1172.000000	94.543598
1171.000000	94.420252
1170.000000	94.299931
1169.000000	94.181082
1168.000000	94.063571
1167.000000	93.953464
1166.000000	93.858739
1165.000000	93.784839
1164.000000	93.737322
1163.000000	93.723124
1162.000000	93.743948
1161.000000	93.790630
1160.000000	93.846452
1159.000000	93.893870
1158.000000	93.918242
1157.000000	93.910758
1156.000000	93.871533
1155.000000	93.807905
1154.000000	93.727677
1153.000000	93.635396
1152.000000	93.535183
1151.000000	93.432497
1150.000000	93.330581
1149.000000	93.228764
1148.000000	93.126579
1147.000000	93.026130
1146.000000	92.928624
1145.000000	92.832570
1144.000000	92.737654
1143.000000	92.646546
1142.000000	92.560489
1141.000000	92.476308
1140.000000	92.389544
1139.000000	92.297527
1138.000000	92.198701
1137.000000	92.092827
1136.000000	91.983007
1135.000000	91.874011
1134.000000	91.767948
1133.000000	91.664745
1132.000000	91.565806
1131.000000	91.472129
1130.000000	91.379781
1129.000000	91.283445
1128.000000	91.184099
1127.000000	91.086909
1126.000000	90.992042
1125.000000	90.894484
1124.000000	90.792559
1123.000000	90.689342
1122.000000	90.586202
1121.000000	90.483012
1120.000000	90.384009
1119.000000	90.293823
1118.000000	90.207498
1117.000000	90.114610
1116.000000	90.014153
1115.000000	89.915465
1114.000000	89.823898
1113.000000	89.736500
1112.000000	89.652432
1111.000000	89.575090
1110.000000	89.501781
1109.000000	89.423752
1108.000000	89.339644
1107.000000	89.257233
1106.000000	89.178990
1105.000000	89.098032
1104.000000	89.012336
1103.000000	88.931098
1102.000000	88.861712
1101.000000	88.800707
1100.000000	88.741987
1099.000000	88.684093
1098.000000	88.625400
1097.000000	88.561796
1096.000000	88.493747
1095.000000	88.427527
1094.000000	88.366339
1093.000000	88.308264
1092.000000	88.254321
1091.000000	88.208901
1090.000000	88.170592
1089.000000	88.132515
1088.000000	88.093351
1087.000000	88.058213
1086.000000	88.027795
1085.000000	87.997388
1084.000000	87.967575
1083.000000	87.944715
1082.000000	87.929694
1081.000000	87.917402
1080.000000	87.908198
1079.000000	87.907798
1078.000000	87.914145
1077.000000	87.916013
1076.000000	87.906224
1075.000000	87.885006
1074.000000	87.850028
1073.000000	87.795709
1072.000000	87.723634
1071.000000	87.641201
1070.000000	87.547622
1069.000000	87.432813
1068.000000	87.292222
1067.000000	87.131745
1066.000000	86.957193
1065.000000	86.771375
1064.000000	86.583404
1063.000000	86.407291
1062.000000	86.247633
1061.000000	86.098691
1060.000000	85.959111
1059.000000	85.833704
1058.000000	85.719289
1057.000000	85.604743
1056.000000	85.488703
1055.000000	85.381879
1054.000000	85.287025
1053.000000	85.190937
1052.000000	85.081985
1051.000000	84.961674
1050.000000	84.833278
1049.000000	84.694779
1048.000000	84.549746
1047.000000	84.409077
1046.000000	84.275442
1045.000000	84.139735
1044.000000	83.996624
1043.000000	83.850884
1042.000000	83.706511
1041.000000	83.563260
1040.000000	83.426442
1039.000000	83.306009
1038.000000	83.202548
1037.000000	83.107113
1036.000000	83.016948
1035.000000	82.937813
1034.000000	82.869648
1033.000000	82.805159
1032.000000	82.744387
1031.000000	82.695629
1030.000000	82.660402
1029.000000	82.632520
1028.000000	82.612429
1027.000000	82.605947
1026.000000	82.608074
1025.000000	82.605631
1024.000000	82.597563
1023.000000	82.594491
1022.000000	82.596142
1021.000000	82.588147
1020.000000	82.565126
1019.000000	82.538908
1018.000000	82.519138
1017.000000	82.502715
1016.000000	82.487001
1015.000000	82.476687
1014.000000	82.472141
1013.000000	82.466188
1012.000000	82.457406
1011.000000	82.452716
1010.000000	82.453558
1009.000000	82.454077
1008.000000	82.455902
1007.000000	82.469727
1006.000000	82.498903
1005.000000	82.535750
1004.000000	82.576591
1003.000000	82.625889
1002.000000	82.683246
1001.000000	82.741174
1000.000000	82.798065
999.000000	82.859014
998.000000	82.922557
997.000000	82.982204
996.000000	83.042506
995.000000	83.117025
994.000000	83.207909
993.000000	83.303147
992.000000	83.396243
991.000000	83.492299
990.000000	83.592115
989.000000	83.688322
988.000000	83.782362
987.000000	83.888603
986.000000	84.014961
985.000000	84.153251
984.000000	84.293750
983.000000	84.436130
982.000000	84.581161
981.000000	84.725144
980.000000	84.868619
979.000000	85.019397
978.000000	85.182228
977.000000	85.355168
976.000000	85.537940
975.000000	85.732238
974.000000	85.931613
973.000000	86.123511
972.000000	86.304598
971.000000	86.483334
970.000000	86.665641
969.000000	86.849167
968.000000	87.032702
967.000000	87.218618
966.000000	87.403636
965.000000	87.579567
964.000000	87.746262
963.000000	87.912650
962.000000	88.082451
961.000000	88.249940
960.000000	88.411888
959.000000	88.571423
958.000000	88.726992
957.000000	88.869852
956.000000	88.997407
955.000000	89.118911
954.000000	89.243792
953.000000	89.373334
952.000000	89.506691
951.000000	89.643897
950.000000	89.778315
949.000000	89.896952
948.000000	89.994603
947.000000	90.080213
946.000000	90.165152
945.000000	90.252335
944.000000	90.340271
943.000000	90.428907
942.000000	90.516449
941.000000	90.598105
940.000000	90.673182
939.000000	90.747353
938.000000	90.824413
937.000000	90.902081
936.000000	90.978810
935.000000	91.057624
934.000000	91.139928
933.000000	91.222293
932.000000	91.302387
931.000000	91.381452
930.000000	91.458535
929.000000	91.529702
928.000000	91.596042
927.000000	91.665046
926.000000	91.740005
925.000000	91.814158
924.000000	91.879051
923.000000	91.933372
922.000000	91.980928
921.000000	92.025546
920.000000	92.070691
919.000000	92.118679
918.000000	92.167606
917.000000	92.213985
916.000000	92.260123
915.000000	92.313435
914.000000	92.377138
913.000000	92.447871
912.000000	92.524228
911.000000	92.610764
910.000000	92.710984
909.000000	92.822311
908.000000	92.940003
907.000000	93.061223
906.000000	93.184520
905.000000	93.311182
904.000000	93.447956
903.000000	93.601834
902.000000	93.769819
901.000000	93.938751
900.000000	94.097134
899.000000	94.243317
898.000000	94.382226
897.000000	94.519369
896.000000	94.658623
895.000000	94.800498
894.000000	94.940780
893.000000	95.074046
892.000000	95.198823
891.000000	95.316743
890.000000	95.428000
889.000000	95.531207
888.000000	95.626086
887.000000	95.712371
886.000000	95.788150
885.000000	95.853918
884.000000	95.916350
883.000000	95.982732
882.000000	96.052706
881.000000	96.120486
880.000000	96.183495
879.000000	96.243478
878.000000	96.301436
877.000000	96.357941
876.000000	96.416941
875.000000	96.483260
874.000000	96.558528
873.000000	96.644979
872.000000	96.748005
871.000000	96.865797
870.000000	96.980617
869.000000	97.072338
868.000000	97.140662
867.000000	97.205390
866.000000	97.285217
865.000000	97.383356
864.000000	97.491708
863.000000	97.598497
862.000000	97.691632
861.000000	97.765592
860.000000	97.828553
859.000000	97.895540
858.000000	97.972446
857.000000	98.053515
856.000000	98.134489
855.000000	98.217927
854.000000	98.302690
853.000000	98.378334
852.000000	98.435926
851.000000	98.478021
850.000000	98.513597
849.000000	98.548914
848.000000	98.587275
847.000000	98.631010
846.000000	98.677613
845.000000	98.718171
844.000000	98.745095
843.000000	98.759509
842.000000	98.768802
841.000000	98.780039
840.000000	98.796932
839.000000	98.818072
838.000000	98.835220
837.000000	98.838016
836.000000	98.824022
835.000000	98.801716
834.000000	98.781998
833.000000	98.769458
832.000000	98.762283
831.000000	98.756153
830.000000	98.747548
829.000000	98.738635
828.000000	98.739461
827.000000	98.758204
826.000000	98.787208
825.000000	98.806562
824.000000	98.804046
823.000000	98.783085
822.000000	98.749958
821.000000	98.705499
820.000000	98.653123
819.000000	98.601961
818.000000	98.554420
817.000000	98.498378
816.000000	98.417673
815.000000	98.304636
814.000000	98.158035
813.000000	97.975138
812.000000	97.751512
811.000000	97.483024
810.000000	97.161787
809.000000	96.775710
808.000000	96.319945
807.000000	95.805886
806.000000	95.253986
805.000000	94.683727
804.000000	94.117256
803.000000	93.584520
802.000000	93.113673
801.000000	92.720193
800.000000	92.411311
799.000000	92.192689
798.000000	92.063541
797.000000	92.014244
796.000000	92.035802
795.000000	92.122991
794.000000	92.262454
793.000000	92.427023
792.000000	92.587940
791.000000	92.725099
790.000000	92.822298
789.000000	92.864071
788.000000	92.845293
787.000000	92.776087
786.000000	92.668391
785.000000	92.522192
784.000000	92.332136
783.000000	92.104040
782.000000	91.859657
781.000000	91.630050
780.000000	91.448973
779.000000	91.344834
778.000000	91.329479
777.000000	91.395910
776.000000	91.528240
775.000000	91.707959
774.000000	91.911137
773.000000	92.112367
772.000000	92.299331
771.000000	92.478726
770.000000	92.663925
769.000000	92.859907
768.000000	93.059592
767.000000	93.247575
766.000000	93.406640
765.000000	93.529319
764.000000	93.626670
763.000000	93.720390
762.000000	93.824926
761.000000	93.942409
760.000000	94.072558
759.000000	94.215130
758.000000	94.359240
757.000000	94.482553
756.000000	94.570249
755.000000	94.630440
754.000000	94.686897
753.000000	94.761124
752.000000	94.862471
751.000000	94.985432
750.000000	95.109432
749.000000	95.208746
748.000000	95.272532
747.000000	95.315379
746.000000	95.365724
745.000000	95.445589
744.000000	95.560420
743.000000	95.699556
742.000000	95.841497
741.000000	95.965520
740.000000	96.064704
739.000000	96.146024
738.000000	96.217676
737.000000	96.282480
736.000000	96.344264
735.000000	96.410460
734.000000	96.482036
733.000000	96.547024
732.000000	96.590795
731.000000	96.610275
730.000000	96.615383
729.000000	96.621836
728.000000	96.645753
727.000000	96.697388
726.000000	96.771555
725.000000	96.847486
724.000000	96.906298
723.000000	96.948475
722.000000	96.990222
721.000000	97.045101
720.000000	97.113482
719.000000	97.186739
718.000000	97.255393
717.000000	97.313388
716.000000	97.359715
715.000000	97.397208
714.000000	97.427449
713.000000	97.448033
712.000000	97.457527
711.000000	97.460931
710.000000	97.466123
709.000000	97.475677
708.000000	97.484764
707.000000	97.485195
706.000000	97.469062
705.000000	97.430297
704.000000	97.365703
703.000000	97.273427
702.000000	97.147342
701.000000	96.974224
700.000000	96.740605
699.000000	96.445047
698.000000	96.109090
697.000000	95.782432
696.000000	95.533663
695.000000	95.420467
694.000000	95.455426
693.000000	95.597702
692.000000	95.780841
691.000000	95.954804
690.000000	96.108313
689.000000	96.258373
688.000000	96.423029
687.000000	96.600242
686.000000	96.767327
685.000000	96.900836
684.000000	96.997284
683.000000	97.072707
682.000000	97.143757
681.000000	97.214713
680.000000	97.284078
679.000000	97.355830
678.000000	97.435738
677.000000	97.519234
676.000000	97.590681
675.000000	97.636336
674.000000	97.657997
673.000000	97.673631
672.000000	97.704975
671.000000	97.763843
670.000000	97.848721
669.000000	97.946805
668.000000	98.035358
667.000000	98.089793
666.000000	98.108018
665.000000	98.114342
664.000000	98.129335
663.000000	98.159796
662.000000	98.200396
661.000000	98.238348
660.000000	98.263107
659.000000	98.272088
658.000000	98.268713
657.000000	98.258856
656.000000	98.249307
655.000000	98.245481
654.000000	98.247992
653.000000	98.251375
652.000000	98.249357
651.000000	98.241850
650.000000	98.234657
