4000.000000	101.761471
3999.000000	101.761649
3998.000000	101.762003
3997.000000	101.762358
3996.000000	101.762459
3995.000000	101.762227
3994.000000	101.761851
3993.000000	101.761670
3992.000000	101.761847
3991.000000	101.762134
3990.000000	101.762042
3989.000000	101.761270
3988.000000	101.759981
3987.000000	101.758719
3986.000000	101.758071
3985.000000	101.758346
3984.000000	101.759434
3983.000000	101.760776
3982.000000	101.761664
3981.000000	101.761712
3980.000000	101.760962
3979.000000	101.759670
3978.000000	101.758062
3977.000000	101.756336
3976.000000	101.754819
3975.000000	101.753866
3974.000000	101.753580
3973.000000	101.753731
3972.000000	101.753987
3971.000000	101.754200
3970.000000	101.754437
3969.000000	101.754763
3968.000000	101.755084
3967.000000	101.755177
3966.000000	101.754861
3965.000000	101.754139
3964.000000	101.753230
3963.000000	101.752441
3962.000000	101.751994
3961.000000	101.751897
3960.000000	101.751940
3959.000000	101.751811
3958.000000	101.751333
3957.000000	101.750586
3956.000000	101.749816
3955.000000	101.749229
3954.000000	101.748825
3953.000000	101.748470
3952.000000	101.748052
3951.000000	101.747609
3950.000000	101.747273
3949.000000	101.747121
3948.000000	101.747102
3947.000000	101.747099
3946.000000	101.747017
3945.000000	101.746802
3944.000000	101.746431
3943.000000	101.745909
3942.000000	101.745315
3941.000000	101.744777
3940.000000	101.744382
3939.000000	101.744121
3938.000000	101.743881
3937.000000	101.743521
3936.000000	101.742986
3935.000000	101.742371
3934.000000	101.741858
3933.000000	101.741560
3932.000000	101.741414
3931.000000	101.741282
3930.000000	101.741079
3929.000000	101.740792
3928.000000	101.740411
3927.000000	101.739825
3926.000000	101.738823
3925.000000	101.737293
3924.000000	101.735539
3923.000000	101.734296
3922.000000	101.734148
3921.000000	101.734886
3920.000000	101.735568
3919.000000	101.735402
3918.000000	101.734519
3917.000000	101.733730
3916.000000	101.733641
3915.000000	101.734215
3914.000000	101.735001
3913.000000	101.735413
3912.000000	101.735068
3911.000000	101.734011
3910.000000	101.732704
3909.000000	101.731506
3908.000000	101.730272
3907.000000	101.728426
3906.000000	101.725533
3905.000000	101.721934
3904.000000	101.718697
3903.000000	101.716881
3902.000000	101.716723
3901.000000	101.717390
3900.000000	101.717662
3899.000000	101.717097
3898.000000	101.716346
3897.000000	101.716183
3896.000000	101.716531
3895.000000	101.716751
3894.000000	101.716930
3893.000000	101.717758
3892.000000	101.718784
3891.000000	101.717349
3890.000000	101.711772
3889.000000	101.704457
3888.000000	101.699856
3887.000000	101.700432
3886.000000	101.704831
3885.000000	101.709278
3884.000000	101.712122
3883.000000	101.715117
3882.000000	101.719991
3881.000000	101.726132
3880.000000	101.731141
3879.000000	101.733057
3878.000000	101.732266
3877.000000	101.730310
3876.000000	101.728063
3875.000000	101.725444
3874.000000	101.722002
3873.000000	101.718074
3872.000000	101.715206
3871.000000	101.714462
3870.000000	101.714915
3869.000000	101.715192
3868.000000	101.716480
3867.000000	101.720967
3866.000000	101.727947
3865.000000	101.734128
3864.000000	101.737118
3863.000000	101.737102
3862.000000	101.735417
3861.000000	101.732742
3860.000000	101.729596
3859.000000	101.726495
3858.000000	101.723271
3857.000000	101.718790
3856.000000	101.711873
3855.000000	101.702596
3854.000000	101.692917
3853.000000	101.685868
3852.000000	101.684910
3851.000000	101.692001
3850.000000	101.704209
3849.000000	101.715348
3848.000000	101.721606
3847.000000	101.723566
3846.000000	101.724251
3845.000000	101.726109
3844.000000	101.729298
3843.000000	101.731865
3842.000000	101.731708
3841.000000	101.728362
3840.000000	101.723323
3839.000000	101.718860
3838.000000	101.716414
3837.000000	101.715721
3836.000000	101.715684
3835.000000	101.715620
3834.000000	101.715434
3833.000000	101.715354
3832.000000	101.715595
3831.000000	101.716200
3830.000000	101.717215
3829.000000	101.718551
3828.000000	101.719737
3827.000000	101.720051
3826.000000	101.719289
3825.000000	101.718337
3824.000000	101.718618
3823.000000	101.720453
3822.000000	101.722302
3821.000000	101.721733
3820.000000	101.718373
3819.000000	101.715413
3818.000000	101.715780
3817.000000	101.718744
3816.000000	101.720894
3815.000000	101.720140
3814.000000	101.718479
3813.000000	101.718897
3812.000000	101.721105
3811.000000	101.722579
3810.000000	101.721801
3809.000000	101.719389
3808.000000	101.716746
3807.000000	101.713805
3806.000000	101.709393
3805.000000	101.704111
3804.000000	101.699859
3803.000000	101.697499
3802.000000	101.696945
3801.000000	101.697008
3800.000000	101.697546
3799.000000	101.700402
3798.000000	101.705265
3797.000000	101.709526
3796.000000	101.712108
3795.000000	101.714703
3794.000000	101.719166
3793.000000	101.724937
3792.000000	101.729708
3791.000000	101.732491
3790.000000	101.734460
3789.000000	101.736885
3788.000000	101.739540
3787.000000	101.741336
3786.000000	101.741552
3785.000000	101.740013
3784.000000	101.736937
3783.000000	101.733415
3782.000000	101.731209
3781.000000	101.731189
3780.000000	101.732208
3779.000000	101.731871
3778.000000	101.729146
3777.000000	101.725464
3776.000000	101.722770
3775.000000	101.721436
3774.000000	101.720782
3773.000000	101.720533
3772.000000	101.720912
3771.000000	101.721672
3770.000000	101.722156
3769.000000	101.722498
3768.000000	101.723839
3767.000000	101.726226
3766.000000	101.727471
3765.000000	101.725377
3764.000000	101.720599
3763.000000	101.716306
3762.000000	101.714619
3761.000000	101.714355
3760.000000	101.713170
3759.000000	101.710820
3758.000000	101.709255
3757.000000	101.709823
3756.000000	101.712203
3755.000000	101.715283
3754.000000	101.717483
3753.000000	101.716834
3752.000000	101.712243
3751.000000	101.704986
3750.000000	101.697265
3749.000000	101.690053
3748.000000	101.684234
3747.000000	101.681109
3746.000000	101.680913
3745.000000	101.681345
3744.000000	101.677723
3743.000000	101.670734
3742.000000	101.667823
3741.000000	101.670903
3740.000000	101.674476
3739.000000	101.674197
3738.000000	101.671663
3737.000000	101.671179
3736.000000	101.673949
3735.000000	101.677572
3734.000000	101.679956
3733.000000	101.681066
3732.000000	101.680995
3731.000000	101.679909
3730.000000	101.679308
3729.000000	101.680607
3728.000000	101.683304
3727.000000	101.685756
3726.000000	101.687126
3725.000000	101.687936
3724.000000	101.687692
3723.000000	101.683549
3722.000000	101.673266
3721.000000	101.658585
3720.000000	101.644274
3719.000000	101.633643
3718.000000	101.626415
3717.000000	101.620601
3716.000000	101.615437
3715.000000	101.611453
3714.000000	101.608433
3713.000000	101.605140
3712.000000	101.601071
3711.000000	101.597105
3710.000000	101.593859
3709.000000	101.590407
3708.000000	101.585387
3707.000000	101.578441
3706.000000	101.570510
3705.000000	101.563276
3704.000000	101.558353
3703.000000	101.556456
3702.000000	101.556392
3701.000000	101.555246
3700.000000	101.550997
3699.000000	101.544460
3698.000000	101.537725
3697.000000	101.531594
3696.000000	101.525302
3695.000000	101.518133
3694.000000	101.510470
3693.000000	101.503650
3692.000000	101.499841
3691.000000	101.501293
3690.000000	101.507844
3689.000000	101.514640
3688.000000	101.516002
3687.000000	101.512173
3686.000000	101.507907
3685.000000	101.506230
3684.000000	101.506230
3683.000000	101.505544
3682.000000	101.503022
3681.000000	101.498922
3680.000000	101.493417
3679.000000	101.486448
3678.000000	101.478897
3677.000000	101.472875
3676.000000	101.469590
3675.000000	101.467142
3674.000000	101.463627
3673.000000	101.460344
3672.000000	101.458721
3671.000000	101.458228
3670.000000	101.457214
3669.000000	101.454545
3668.000000	101.450967
3667.000000	101.447919
3666.000000	101.445677
3665.000000	101.443469
3664.000000	101.440492
3663.000000	101.436490
3662.000000	101.431745
3661.000000	101.426701
3660.000000	101.421700
3659.000000	101.417161
3658.000000	101.413568
3657.000000	101.410978
3656.000000	101.408320
3655.000000	101.404349
3654.000000	101.399151
3653.000000	101.393730
3652.000000	101.388902
3651.000000	101.385429
3650.000000	101.384129
3649.000000	101.384808
3648.000000	101.385558
3647.000000	101.384290
3646.000000	101.380590
3645.000000	101.375433
3644.000000	101.370044
3643.000000	101.365012
3642.000000	101.360684
3641.000000	101.357594
3640.000000	101.355890
3639.000000	101.354274
3638.000000	101.350549
3637.000000	101.344262
3636.000000	101.337901
3635.000000	101.334369
3634.000000	101.333191
3633.000000	101.330730
3632.000000	101.324270
3631.000000	101.314841
3630.000000	101.306990
3629.000000	101.304202
3628.000000	101.304322
3627.000000	101.303961
3626.000000	101.302865
3625.000000	101.300728
3624.000000	101.296444
3623.000000	101.290160
3622.000000	101.283449
3621.000000	101.277940
3620.000000	101.274151
3619.000000	101.271386
3618.000000	101.268611
3617.000000	101.265947
3616.000000	101.264584
3615.000000	101.265621
3614.000000	101.269277
3613.000000	101.274511
3612.000000	101.279389
3611.000000	101.282508
3610.000000	101.284033
3609.000000	101.285377
3608.000000	101.287649
3607.000000	101.290212
3606.000000	101.291540
3605.000000	101.291064
3604.000000	101.289738
3603.000000	101.289288
3602.000000	101.290647
3601.000000	101.293209
3600.000000	101.295431
3599.000000	101.296237
3598.000000	101.295339
3597.000000	101.292972
3596.000000	101.289645
3595.000000	101.286029
3594.000000	101.282339
3593.000000	101.278423
3592.000000	101.274474
3591.000000	101.271423
3590.000000	101.270694
3589.000000	101.273346
3588.000000	101.278720
3587.000000	101.284007
3586.000000	101.286617
3585.000000	101.286525
3584.000000	101.285189
3583.000000	101.283392
3582.000000	101.280809
3581.000000	101.277204
3580.000000	101.273504
3579.000000	101.271360
3578.000000	101.271534
3577.000000	101.273191
3576.000000	101.274774
3575.000000	101.275411
3574.000000	101.275330
3573.000000	101.275018
3572.000000	101.274472
3571.000000	101.273303
3570.000000	101.271363
3569.000000	101.269184
3568.000000	101.267740
3567.000000	101.267552
3566.000000	101.268207
3565.000000	101.268939
3564.000000	101.269362
3563.000000	101.269439
3562.000000	101.269201
3561.000000	101.268669
3560.000000	101.267894
3559.000000	101.266955
3558.000000	101.265948
3557.000000	101.264946
3556.000000	101.264002
3555.000000	101.263190
3554.000000	101.262645
3553.000000	101.262468
3552.000000	101.262503
3551.000000	101.262211
3550.000000	101.260959
3549.000000	101.258496
3548.000000	101.255304
3547.000000	101.252503
3546.000000	101.251038
3545.000000	101.250904
3544.000000	101.251350
3543.000000	101.251727
3542.000000	101.251891
3541.000000	101.251802
3540.000000	101.251227
3539.000000	101.250065
3538.000000	101.248699
3537.000000	101.247689
3536.000000	101.247044
3535.000000	101.246210
3534.000000	101.244757
3533.000000	101.242802
3532.000000	101.240680
3531.000000	101.238611
3530.000000	101.236803
3529.000000	101.235554
3528.000000	101.234904
3527.000000	101.234391
3526.000000	101.233574
3525.000000	101.232663
3524.000000	101.232278
3523.000000	101.232590
3522.000000	101.233052
3521.000000	101.233012
3520.000000	101.232373
3519.000000	101.231559
3518.000000	101.231027
3517.000000	101.230912
3516.000000	101.230946
3515.000000	101.230578
3514.000000	101.229316
3513.000000	101.227177
3512.000000	101.224805
3511.000000	101.222990
3510.000000	101.221958
3509.000000	101.221217
3508.000000	101.220036
3507.000000	101.218023
3506.000000	101.215341
3505.000000	101.212621
3504.000000	101.210665
3503.000000	101.209938
3502.000000	101.210149
3501.000000	101.210465
3500.000000	101.210286
3499.000000	101.209685
3498.000000	101.209088
3497.000000	101.208690
3496.000000	101.208262
3495.000000	101.207458
3494.000000	101.206145
3493.000000	101.204440
3492.000000	101.202619
3491.000000	101.201073
3490.000000	101.200188
3489.000000	101.200031
3488.000000	101.200151
3487.000000	101.199849
3486.000000	101.198721
3485.000000	101.196868
3484.000000	101.194675
3483.000000	101.192520
3482.000000	101.190705
3481.000000	101.189455
3480.000000	101.188796
3479.000000	101.188392
3478.000000	101.187651
3477.000000	101.186148
3476.000000	101.183982
3475.000000	101.181801
3474.000000	101.180397
3473.000000	101.180151
3472.000000	101.180738
3471.000000	101.181269
3470.000000	101.180929
3469.000000	101.179571
3468.000000	101.177810
3467.000000	101.176538
3466.000000	101.176172
3465.000000	101.176202
3464.000000	101.175476
3463.000000	101.173140
3462.000000	101.169420
3461.000000	101.165521
3460.000000	101.162643
3459.000000	101.161113
3458.000000	101.160487
3457.000000	101.160089
3456.000000	101.159250
3455.000000	101.157395
3454.000000	101.154368
3453.000000	101.150744
3452.000000	101.147474
3451.000000	101.145130
3450.000000	101.143594
3449.000000	101.142304
3448.000000	101.140461
3447.000000	101.137188
3446.000000	101.132164
3445.000000	101.126382
3444.000000	101.121825
3443.000000	101.119912
3442.000000	101.120337
3441.000000	101.121457
3440.000000	101.121732
3439.000000	101.120738
3438.000000	101.118878
3437.000000	101.116607
3436.000000	101.114115
3435.000000	101.111642
3434.000000	101.109762
3433.000000	101.109140
3432.000000	101.109911
3431.000000	101.111361
3430.000000	101.112399
3429.000000	101.112473
3428.000000	101.111949
3427.000000	101.111532
3426.000000	101.111359
3425.000000	101.110787
3424.000000	101.109172
3423.000000	101.106759
3422.000000	101.104514
3421.000000	101.102944
3420.000000	101.101429
3419.000000	101.099057
3418.000000	101.095949
3417.000000	101.093236
3416.000000	101.091701
3415.000000	101.091041
3414.000000	101.090727
3413.000000	101.090980
3412.000000	101.092191
3411.000000	101.093666
3410.000000	101.093880
3409.000000	101.092279
3408.000000	101.090249
3407.000000	101.089767
3406.000000	101.091243
3405.000000	101.093170
3404.000000	101.093851
3403.000000	101.093163
3402.000000	101.092393
3401.000000	101.092608
3400.000000	101.093472
3399.000000	101.093636
3398.000000	101.092043
3397.000000	101.088707
3396.000000	101.084504
3395.000000	101.080514
3394.000000	101.077586
3393.000000	101.076308
3392.000000	101.076931
3391.000000	101.079153
3390.000000	101.082107
3389.000000	101.084749
3388.000000	101.086364
3387.000000	101.086810
3386.000000	101.086564
3385.000000	101.086504
3384.000000	101.087259
3383.000000	101.088540
3382.000000	101.089321
3381.000000	101.088887
3380.000000	101.087552
3379.000000	101.086162
3378.000000	101.085041
3377.000000	101.083809
3376.000000	101.082250
3375.000000	101.080949
3374.000000	101.080784
3373.000000	101.081963
3372.000000	101.083774
3371.000000	101.085261
3370.000000	101.086039
3369.000000	101.086425
3368.000000	101.086970
3367.000000	101.087960
3366.000000	101.089277
3365.000000	101.090547
3364.000000	101.091394
3363.000000	101.091692
3362.000000	101.091765
3361.000000	101.092233
3360.000000	101.093468
3359.000000	101.095163
3358.000000	101.096543
3357.000000	101.097037
3356.000000	101.096647
3355.000000	101.095828
3354.000000	101.095185
3353.000000	101.095264
3352.000000	101.096363
3351.000000	101.098392
3350.000000	101.100940
3349.000000	101.103525
3348.000000	101.105760
3347.000000	101.107308
3346.000000	101.107955
3345.000000	101.107898
3344.000000	101.107810
3343.000000	101.108303
3342.000000	101.109348
3341.000000	101.110435
3340.000000	101.111218
3339.000000	101.111849
3338.000000	101.112655
3337.000000	101.113710
3336.000000	101.114881
3335.000000	101.116145
3334.000000	101.117648
3333.000000	101.119449
3332.000000	101.121367
3331.000000	101.123115
3330.000000	101.124559
3329.000000	101.125813
3328.000000	101.127107
3327.000000	101.128571
3326.000000	101.130136
3325.000000	101.131646
3324.000000	101.133010
3323.000000	101.134263
3322.000000	101.135510
3321.000000	101.136877
3320.000000	101.138449
3319.000000	101.140197
3318.000000	101.141957
3317.000000	101.143538
3316.000000	101.144905
3315.000000	101.146180
3314.000000	101.147530
3313.000000	101.149001
3312.000000	101.150515
3311.000000	101.151976
3310.000000	101.153348
3309.000000	101.154665
3308.000000	101.155986
3307.000000	101.157356
3306.000000	101.158773
3305.000000	101.160192
3304.000000	101.161549
3303.000000	101.162815
3302.000000	101.164030
3301.000000	101.165257
3300.000000	101.166500
3299.000000	101.167715
3298.000000	101.168881
3297.000000	101.170051
3296.000000	101.171338
3295.000000	101.172834
3294.000000	101.174513
3293.000000	101.176187
3292.000000	101.177629
3291.000000	101.178803
3290.000000	101.179966
3289.000000	101.181437
3288.000000	101.183231
3287.000000	101.184998
3286.000000	101.186358
3285.000000	101.187204
3284.000000	101.187682
3283.000000	101.188023
3282.000000	101.188496
3281.000000	101.189442
3280.000000	101.191106
3279.000000	101.193346
3278.000000	101.195582
3277.000000	101.197225
3276.000000	101.198156
3275.000000	101.198737
3274.000000	101.199378
3273.000000	101.200152
3272.000000	101.200899
3271.000000	101.201630
3270.000000	101.202647
3269.000000	101.204155
3268.000000	101.205886
3267.000000	101.207322
3266.000000	101.208287
3265.000000	101.209107
3264.000000	101.210112
3263.000000	101.211302
3262.000000	101.212757
3261.000000	101.215018
3260.000000	101.218551
3259.000000	101.222906
3258.000000	101.226749
3257.000000	101.229102
3256.000000	101.230140
3255.000000	101.230784
3254.000000	101.231706
3253.000000	101.232832
3252.000000	101.233817
3251.000000	101.234606
3250.000000	101.235530
3249.000000	101.237020
3248.000000	101.239234
3247.000000	101.241821
3246.000000	101.244110
3245.000000	101.245753
3244.000000	101.247072
3243.000000	101.248620
3242.000000	101.250495
3241.000000	101.252329
3240.000000	101.253918
3239.000000	101.255487
3238.000000	101.257249
3237.000000	101.259002
3236.000000	101.260397
3235.000000	101.261425
3234.000000	101.262417
3233.000000	101.263671
3232.000000	101.265234
3231.000000	101.267039
3230.000000	101.269029
3229.000000	101.271102
3228.000000	101.273081
3227.000000	101.274819
3226.000000	101.276317
3225.000000	101.277720
3224.000000	101.279208
3223.000000	101.280864
3222.000000	101.282616
3221.000000	101.284295
3220.000000	101.285773
3219.000000	101.287070
3218.000000	101.288362
3217.000000	101.289855
3216.000000	101.291610
3215.000000	101.293516
3214.000000	101.295418
3213.000000	101.297244
3212.000000	101.299000
3211.000000	101.300693
3210.000000	101.302342
3209.000000	101.304025
3208.000000	101.305847
3207.000000	101.307836
3206.000000	101.309878
3205.000000	101.311795
3204.000000	101.313529
3203.000000	101.315174
3202.000000	101.316846
3201.000000	101.318547
3200.000000	101.320212
3199.000000	101.321832
3198.000000	101.323472
3197.000000	101.325193
3196.000000	101.327002
3195.000000	101.328868
3194.000000	101.330765
3193.000000	101.332686
3192.000000	101.334633
3191.000000	101.336598
3190.000000	101.338555
3189.000000	101.340470
3188.000000	101.342339
3187.000000	101.344181
3186.000000	101.346021
3185.000000	101.347883
3184.000000	101.349770
3183.000000	101.351676
3182.000000	101.353589
3181.000000	101.355497
3180.000000	101.357395
3179.000000	101.359284
3178.000000	101.361172
3177.000000	101.363063
3176.000000	101.364957
3175.000000	101.366850
3174.000000	101.368733
3173.000000	101.370605
3172.000000	101.372462
3171.000000	101.374308
3170.000000	101.376147
3169.000000	101.377984
3168.000000	101.379820
3167.000000	101.381648
3166.000000	101.383464
3165.000000	101.385264
3164.000000	101.387050
3163.000000	101.388823
3162.000000	101.390588
3161.000000	101.392348
3160.000000	101.394104
3159.000000	101.395856
3158.000000	101.397599
3157.000000	101.399328
3156.000000	101.401035
3155.000000	101.402713
3154.000000	101.404359
3153.000000	101.405976
3152.000000	101.407575
3151.000000	101.409169
3150.000000	101.410763
3149.000000	101.412353
3148.000000	101.413930
3147.000000	101.415487
3146.000000	101.417031
3145.000000	101.418593
3144.000000	101.420232
3143.000000	101.422019
3142.000000	101.423972
3141.000000	101.425955
3140.000000	101.427746
3139.000000	101.429211
3138.000000	101.430433
3137.000000	101.431684
3136.000000	101.433162
3135.000000	101.434860
3134.000000	101.436652
3133.000000	101.438409
3132.000000	101.440014
3131.000000	101.441370
3130.000000	101.442545
3129.000000	101.443843
3128.000000	101.445523
3127.000000	101.447464
3126.000000	101.449245
3125.000000	101.450634
3124.000000	101.451793
3123.000000	101.452981
3122.000000	101.454268
3121.000000	101.455685
3120.000000	101.457387
3119.000000	101.459375
3118.000000	101.461212
3117.000000	101.462399
3116.000000	101.463039
3115.000000	101.463864
3114.000000	101.465455
3113.000000	101.467763
3112.000000	101.470437
3111.000000	101.473347
3110.000000	101.476522
3109.000000	101.479722
3108.000000	101.482391
3107.000000	101.484153
3106.000000	101.485189
3105.000000	101.486057
3104.000000	101.487104
3103.000000	101.488196
3102.000000	101.489074
3101.000000	101.489850
3100.000000	101.490953
3099.000000	101.492520
3098.000000	101.494087
3097.000000	101.495090
3096.000000	101.495627
3095.000000	101.496460
3094.000000	101.498215
3093.000000	101.500718
3092.000000	101.503156
3091.000000	101.504864
3090.000000	101.505862
3089.000000	101.506709
3088.000000	101.507958
3087.000000	101.509740
3086.000000	101.511771
3085.000000	101.513630
3084.000000	101.515014
3083.000000	101.515814
3082.000000	101.516182
3081.000000	101.516587
3080.000000	101.517622
3079.000000	101.519553
3078.000000	101.522037
3077.000000	101.524325
3076.000000	101.525794
3075.000000	101.526250
3074.000000	101.525874
3073.000000	101.525078
3072.000000	101.524470
3071.000000	101.524544
3070.000000	101.525280
3069.000000	101.526209
3068.000000	101.526883
3067.000000	101.527293
3066.000000	101.527773
3065.000000	101.528619
3064.000000	101.529858
3063.000000	101.531295
3062.000000	101.532630
3061.000000	101.533622
3060.000000	101.534251
3059.000000	101.534749
3058.000000	101.535419
3057.000000	101.536412
3056.000000	101.537662
3055.000000	101.538973
3054.000000	101.540103
3053.000000	101.540835
3052.000000	101.541023
3051.000000	101.540693
3050.000000	101.540073
3049.000000	101.539521
3048.000000	101.539349
3047.000000	101.539642
3046.000000	101.540191
3045.000000	101.540634
3044.000000	101.540752
3043.000000	101.540662
3042.000000	101.540719
3041.000000	101.541232
3040.000000	101.542268
3039.000000	101.543631
3038.000000	101.545017
3037.000000	101.546304
3036.000000	101.547665
3035.000000	101.549085
3034.000000	101.549679
3033.000000	101.548078
3032.000000	101.544054
3031.000000	101.539650
3030.000000	101.537823
3029.000000	101.539721
3028.000000	101.543659
3027.000000	101.546593
3026.000000	101.546809
3025.000000	101.544975
3024.000000	101.543260
3023.000000	101.543670
3022.000000	101.546523
3021.000000	101.549955
3020.000000	101.551425
3019.000000	101.550426
3018.000000	101.549196
3017.000000	101.549823
3016.000000	101.551196
3015.000000	101.550413
3014.000000	101.547017
3013.000000	101.544115
3012.000000	101.544570
3011.000000	101.547411
3010.000000	101.549085
3009.000000	101.547551
3008.000000	101.544078
3007.000000	101.541502
3006.000000	101.541544
3005.000000	101.543646
3004.000000	101.545446
3003.000000	101.544273
3002.000000	101.538964
3001.000000	101.530950
3000.000000	101.523561
2999.000000	101.519862
2998.000000	101.520736
2997.000000	101.524502
2996.000000	101.527972
2995.000000	101.528099
2994.000000	101.523436
2993.000000	101.514674
2992.000000	101.503866
2991.000000	101.492867
2990.000000	101.482464
2989.000000	101.472847
2988.000000	101.464293
2987.000000	101.456575
2986.000000	101.447716
2985.000000	101.434588
2984.000000	101.415993
2983.000000	101.395039
2982.000000	101.377247
2981.000000	101.365920
2980.000000	101.360023
2979.000000	101.356887
2978.000000	101.355934
2977.000000	101.358629
2976.000000	101.365464
2975.000000	101.374742
2974.000000	101.384703
2973.000000	101.395468
2972.000000	101.408096
2971.000000	101.422486
2970.000000	101.437172
2969.000000	101.451009
2968.000000	101.464456
2967.000000	101.479308
2966.000000	101.497277
2965.000000	101.518445
2964.000000	101.540773
2963.000000	101.561479
2962.000000	101.579217
2961.000000	101.594457
2960.000000	101.607466
2959.000000	101.616712
2958.000000	101.620230
2957.000000	101.618377
2956.000000	101.614312
2955.000000	101.611567
2954.000000	101.611520
2953.000000	101.613316
2952.000000	101.615457
2951.000000	101.617032
2950.000000	101.617867
2949.000000	101.618130
2948.000000	101.618014
2947.000000	101.617733
2946.000000	101.617720
2945.000000	101.618705
2944.000000	101.621425
2943.000000	101.626195
2942.000000	101.632759
2941.000000	101.640499
2940.000000	101.648716
2939.000000	101.656743
2938.000000	101.663833
2937.000000	101.669151
2936.000000	101.672307
2935.000000	101.674251
2934.000000	101.677251
2933.000000	101.683331
2932.000000	101.692685
2931.000000	101.704279
2930.000000	101.717718
2929.000000	101.733260
2928.000000	101.749519
2927.000000	101.762681
2926.000000	101.769392
2925.000000	101.770010
2924.000000	101.767857
2923.000000	101.765679
2922.000000	101.764000
2921.000000	101.762348
2920.000000	101.760150
2919.000000	101.756036
2918.000000	101.747946
2917.000000	101.735063
2916.000000	101.719065
2915.000000	101.702806
2914.000000	101.688177
2913.000000	101.675881
2912.000000	101.666568
2911.000000	101.660791
2910.000000	101.657330
2909.000000	101.652501
2908.000000	101.642500
2907.000000	101.627105
2906.000000	101.610710
2905.000000	101.598871
2904.000000	101.593732
2903.000000	101.593147
2902.000000	101.594032
2901.000000	101.595629
2900.000000	101.598750
2899.000000	101.603066
2898.000000	101.606385
2897.000000	101.606690
2896.000000	101.603854
2895.000000	101.599050
2894.000000	101.593258
2893.000000	101.586807
2892.000000	101.580093
2891.000000	101.574324
2890.000000	101.571299
2889.000000	101.571974
2888.000000	101.574858
2887.000000	101.576474
2886.000000	101.574531
2885.000000	101.570922
2884.000000	101.570598
2883.000000	101.576899
2882.000000	101.588165
2881.000000	101.598969
2880.000000	101.604424
2879.000000	101.603597
2878.000000	101.599538
2877.000000	101.596806
2876.000000	101.598481
2875.000000	101.604557
2874.000000	101.612373
2873.000000	101.618599
2872.000000	101.621377
2871.000000	101.621354
2870.000000	101.620784
2869.000000	101.621264
2868.000000	101.622247
2867.000000	101.622474
2866.000000	101.623010
2865.000000	101.627585
2864.000000	101.638743
2863.000000	101.654381
2862.000000	101.669466
2861.000000	101.681015
2860.000000	101.690060
2859.000000	101.698899
2858.000000	101.708073
2857.000000	101.716294
2856.000000	101.721776
2855.000000	101.723209
2854.000000	101.720851
2853.000000	101.717258
2852.000000	101.715624
2851.000000	101.716509
2850.000000	101.717345
2849.000000	101.715768
2848.000000	101.712175
2847.000000	101.708144
2846.000000	101.703538
2845.000000	101.696565
2844.000000	101.686268
2843.000000	101.673939
2842.000000	101.662382
2841.000000	101.654375
2840.000000	101.651355
2839.000000	101.652573
2838.000000	101.655473
2837.000000	101.657344
2836.000000	101.656822
2835.000000	101.654226
2834.000000	101.651164
2833.000000	101.649685
2832.000000	101.650569
2831.000000	101.652245
2830.000000	101.652612
2829.000000	101.652230
2828.000000	101.654070
2827.000000	101.659251
2826.000000	101.664806
2825.000000	101.667107
2824.000000	101.666078
2823.000000	101.664164
2822.000000	101.662380
2821.000000	101.659878
2820.000000	101.656946
2819.000000	101.655711
2818.000000	101.657287
2817.000000	101.660157
2816.000000	101.662225
2815.000000	101.663142
2814.000000	101.663894
2813.000000	101.665219
2812.000000	101.667131
2811.000000	101.669161
2810.000000	101.670460
2809.000000	101.670336
2808.000000	101.669178
2807.000000	101.668258
2806.000000	101.668252
2805.000000	101.668420
2804.000000	101.667619
2803.000000	101.665748
2802.000000	101.663863
2801.000000	101.663022
2800.000000	101.663473
2799.000000	101.664908
2798.000000	101.666939
2797.000000	101.669116
2796.000000	101.670931
2795.000000	101.672132
2794.000000	101.672995
2793.000000	101.674096
2792.000000	101.675656
2791.000000	101.677267
2790.000000	101.678394
2789.000000	101.679026
2788.000000	101.679607
2787.000000	101.680437
2786.000000	101.681375
2785.000000	101.682173
2784.000000	101.682905
2783.000000	101.683922
2782.000000	101.685422
2781.000000	101.687206
2780.000000	101.688814
2779.000000	101.689911
2778.000000	101.690513
2777.000000	101.690910
2776.000000	101.691374
2775.000000	101.691952
2774.000000	101.692564
2773.000000	101.693206
2772.000000	101.693941
2771.000000	101.694721
2770.000000	101.695373
2769.000000	101.695840
2768.000000	101.696317
2767.000000	101.697044
2766.000000	101.698051
2765.000000	101.699183
2764.000000	101.700291
2763.000000	101.701325
2762.000000	101.702245
2761.000000	101.702966
2760.000000	101.703454
2759.000000	101.703776
2758.000000	101.704051
2757.000000	101.704396
2756.000000	101.704899
2755.000000	101.705602
2754.000000	101.706445
2753.000000	101.707225
2752.000000	101.707751
2751.000000	101.707995
2750.000000	101.708124
2749.000000	101.708358
2748.000000	101.708786
2747.000000	101.709387
2746.000000	101.710108
2745.000000	101.710867
2744.000000	101.711541
2743.000000	101.712035
2742.000000	101.712377
2741.000000	101.712672
2740.000000	101.712986
2739.000000	101.713321
2738.000000	101.713661
2737.000000	101.713927
2736.000000	101.713951
2735.000000	101.713607
2734.000000	101.713027
2733.000000	101.712619
2732.000000	101.712782
2731.000000	101.713546
2730.000000	101.714445
2729.000000	101.714800
2728.000000	101.714234
2727.000000	101.712999
2726.000000	101.711813
2725.000000	101.711261
2724.000000	101.711403
2723.000000	101.711952
2722.000000	101.712656
2721.000000	101.713337
2720.000000	101.713716
2719.000000	101.713571
2718.000000	101.713200
2717.000000	101.713477
2716.000000	101.715126
2715.000000	101.717888
2714.000000	101.720540
2713.000000	101.721919
2712.000000	101.721915
2711.000000	101.721376
2710.000000	101.721161
2709.000000	101.721565
2708.000000	101.722521
2707.000000	101.723845
2706.000000	101.725163
2705.000000	101.726030
2704.000000	101.726223
2703.000000	101.725787
2702.000000	101.724941
2701.000000	101.723899
2700.000000	101.723009
2699.000000	101.722727
2698.000000	101.723080
2697.000000	101.723590
2696.000000	101.723830
2695.000000	101.723721
2694.000000	101.723287
2693.000000	101.722539
2692.000000	101.721695
2691.000000	101.721147
2690.000000	101.720948
2689.000000	101.720652
2688.000000	101.719985
2687.000000	101.719417
2686.000000	101.719667
2685.000000	101.720746
2684.000000	101.722005
2683.000000	101.722894
2682.000000	101.723387
2681.000000	101.723647
2680.000000	101.723712
2679.000000	101.723602
2678.000000	101.723438
2677.000000	101.723343
2676.000000	101.723321
2675.000000	101.723309
2674.000000	101.723273
2673.000000	101.723214
2672.000000	101.723136
2671.000000	101.723037
2670.000000	101.722917
2669.000000	101.722773
2668.000000	101.722599
2667.000000	101.722391
2666.000000	101.722145
2665.000000	101.721856
2664.000000	101.721524
2663.000000	101.721167
2662.000000	101.720816
2661.000000	101.720505
2660.000000	101.720253
2659.000000	101.720049
2658.000000	101.719864
2657.000000	101.719674
2656.000000	101.719477
2655.000000	101.719281
2654.000000	101.719096
2653.000000	101.718918
2652.000000	101.718740
2651.000000	101.718561
2650.000000	101.718392
2649.000000	101.718241
2648.000000	101.718107
2647.000000	101.717978
2646.000000	101.717846
2645.000000	101.717707
2644.000000	101.717562
2643.000000	101.717411
2642.000000	101.717248
2641.000000	101.717067
2640.000000	101.716875
2639.000000	101.716689
2638.000000	101.716530
2637.000000	101.716411
2636.000000	101.716323
2635.000000	101.716253
2634.000000	101.716196
2633.000000	101.716141
2632.000000	101.716072
2631.000000	101.715947
2630.000000	101.715720
2629.000000	101.715394
2628.000000	101.715028
2627.000000	101.714672
2626.000000	101.714321
2625.000000	101.713980
2624.000000	101.713754
2623.000000	101.713780
2622.000000	101.714081
2621.000000	101.714501
2620.000000	101.714820
2619.000000	101.714941
2618.000000	101.714934
2617.000000	101.714939
2616.000000	101.715007
2615.000000	101.715040
2614.000000	101.714878
2613.000000	101.714501
2612.000000	101.714138
2611.000000	101.714156
2610.000000	101.714724
2609.000000	101.715642
2608.000000	101.716420
2607.000000	101.716701
2606.000000	101.716526
2605.000000	101.716237
2604.000000	101.716113
2603.000000	101.716129
2602.000000	101.716092
2601.000000	101.715880
2600.000000	101.715519
2599.000000	101.715124
2598.000000	101.714815
2597.000000	101.714667
2596.000000	101.714661
2595.000000	101.714698
2594.000000	101.714657
2593.000000	101.714506
2592.000000	101.714308
2591.000000	101.714148
2590.000000	101.714064
2589.000000	101.714044
2588.000000	101.714062
2587.000000	101.714092
2586.000000	101.714119
2585.000000	101.714133
2584.000000	101.714126
2583.000000	101.714103
2582.000000	101.714071
2581.000000	101.714034
2580.000000	101.713995
2579.000000	101.713953
2578.000000	101.713907
2577.000000	101.713860
2576.000000	101.713812
2575.000000	101.713762
2574.000000	101.713708
2573.000000	101.713651
2572.000000	101.713597
2571.000000	101.713555
2570.000000	101.713530
2569.000000	101.713520
2568.000000	101.713514
2567.000000	101.713506
2566.000000	101.713498
2565.000000	101.713503
2564.000000	101.713532
2563.000000	101.713589
2562.000000	101.713665
2561.000000	101.713734
2560.000000	101.713771
2559.000000	101.713772
2558.000000	101.713753
2557.000000	101.713736
2556.000000	101.713728
2555.000000	101.713739
2554.000000	101.713794
2553.000000	101.713921
2552.000000	101.714122
2551.000000	101.714350
2550.000000	101.714529
2549.000000	101.714607
2548.000000	101.714588
2547.000000	101.714513
2546.000000	101.714437
2545.000000	101.714416
2544.000000	101.714481
2543.000000	101.714613
2542.000000	101.714751
2541.000000	101.714861
2540.000000	101.714978
2539.000000	101.715144
2538.000000	101.715340
2537.000000	101.715516
2536.000000	101.715653
2535.000000	101.715775
2534.000000	101.715914
2533.000000	101.716073
2532.000000	101.716241
2531.000000	101.716413
2530.000000	101.716591
2529.000000	101.716768
2528.000000	101.716930
2527.000000	101.717070
2526.000000	101.717196
2525.000000	101.717319
2524.000000	101.717448
2523.000000	101.717587
2522.000000	101.717730
2521.000000	101.717871
2520.000000	101.718006
2519.000000	101.718138
2518.000000	101.718273
2517.000000	101.718418
2516.000000	101.718580
2515.000000	101.718759
2514.000000	101.718952
2513.000000	101.719154
2512.000000	101.719358
2511.000000	101.719558
2510.000000	101.719752
2509.000000	101.719946
2508.000000	101.720148
2507.000000	101.720365
2506.000000	101.720595
2505.000000	101.720831
2504.000000	101.721055
2503.000000	101.721255
2502.000000	101.721431
2501.000000	101.721607
2500.000000	101.721809
2499.000000	101.722054
2498.000000	101.722335
2497.000000	101.722601
2496.000000	101.722806
2495.000000	101.722939
2494.000000	101.723055
2493.000000	101.723214
2492.000000	101.723419
2491.000000	101.723636
2490.000000	101.723878
2489.000000	101.724198
2488.000000	101.724591
2487.000000	101.724956
2486.000000	101.725217
2485.000000	101.725445
2484.000000	101.725741
2483.000000	101.726057
2482.000000	101.726247
2481.000000	101.726293
2480.000000	101.726318
2479.000000	101.726399
2478.000000	101.726572
2477.000000	101.727024
2476.000000	101.727963
2475.000000	101.729284
2474.000000	101.730519
2473.000000	101.731282
2472.000000	101.731603
2471.000000	101.731793
2470.000000	101.732126
2469.000000	101.732620
2468.000000	101.733144
2467.000000	101.733625
2466.000000	101.734125
2465.000000	101.734749
2464.000000	101.735499
2463.000000	101.736212
2462.000000	101.736713
2461.000000	101.737017
2460.000000	101.737339
2459.000000	101.737845
2458.000000	101.738457
2457.000000	101.738999
2456.000000	101.739457
2455.000000	101.739972
2454.000000	101.740616
2453.000000	101.741331
2452.000000	101.742063
2451.000000	101.742820
2450.000000	101.743581
2449.000000	101.744261
2448.000000	101.744802
2447.000000	101.745221
2446.000000	101.745575
2445.000000	101.745934
2444.000000	101.746371
2443.000000	101.746931
2442.000000	101.747559
2441.000000	101.748096
2440.000000	101.748405
2439.000000	101.748473
2438.000000	101.748418
2437.000000	101.748413
2436.000000	101.748608
2435.000000	101.749068
2434.000000	101.749743
2433.000000	101.750450
2432.000000	101.750945
2431.000000	101.751119
2430.000000	101.751125
2429.000000	101.751300
2428.000000	101.751836
2427.000000	101.752593
2426.000000	101.753222
2425.000000	101.753510
2424.000000	101.753512
2423.000000	101.753425
2422.000000	101.753401
2421.000000	101.753517
2420.000000	101.753819
2419.000000	101.754282
2418.000000	101.754803
2417.000000	101.755371
2416.000000	101.756170
2415.000000	101.757370
2414.000000	101.758784
2413.000000	101.759874
2412.000000	101.760250
2411.000000	101.760032
2410.000000	101.759744
2409.000000	101.759791
2408.000000	101.760114
2407.000000	101.760370
2406.000000	101.760338
2405.000000	101.760135
2404.000000	101.760065
2403.000000	101.760306
2402.000000	101.760792
2401.000000	101.761369
2400.000000	101.761965
2399.000000	101.762588
2398.000000	101.763246
2397.000000	101.763980
2396.000000	101.764854
2395.000000	101.765805
2394.000000	101.766524
2393.000000	101.766665
2392.000000	101.766198
2391.000000	101.765521
2390.000000	101.765174
2389.000000	101.765455
2388.000000	101.766276
2387.000000	101.767250
2386.000000	101.767913
2385.000000	101.767963
2384.000000	101.767448
2383.000000	101.766822
2382.000000	101.766745
2381.000000	101.767675
2380.000000	101.769571
2379.000000	101.771900
2378.000000	101.773986
2377.000000	101.775453
2376.000000	101.776222
2375.000000	101.776281
2374.000000	101.775681
2373.000000	101.774778
2372.000000	101.774190
2371.000000	101.774197
2370.000000	101.774481
2369.000000	101.774615
2368.000000	101.774562
2367.000000	101.774519
2366.000000	101.774512
2365.000000	101.774378
2364.000000	101.774077
2363.000000	101.773816
2362.000000	101.773880
2361.000000	101.774474
2360.000000	101.775609
2359.000000	101.776988
2358.000000	101.778096
2357.000000	101.778526
2356.000000	101.778229
2355.000000	101.777495
2354.000000	101.776765
2353.000000	101.776298
2352.000000	101.776079
2351.000000	101.775961
2350.000000	101.775814
2349.000000	101.775606
2348.000000	101.775406
2347.000000	101.775282
2346.000000	101.775165
2345.000000	101.774921
2344.000000	101.774543
2343.000000	101.774151
2342.000000	101.773817
2341.000000	101.773523
2340.000000	101.773262
2339.000000	101.773053
2338.000000	101.772858
2337.000000	101.772564
2336.000000	101.772095
2335.000000	101.771515
2334.000000	101.770980
2333.000000	101.770576
2332.000000	101.770235
2331.000000	101.769809
2330.000000	101.769198
2329.000000	101.768439
2328.000000	101.767718
2327.000000	101.767202
2326.000000	101.766896
2325.000000	101.766588
2324.000000	101.766034
2323.000000	101.765166
2322.000000	101.764124
2321.000000	101.763098
2320.000000	101.762152
2319.000000	101.761281
2318.000000	101.760548
2317.000000	101.760094
2316.000000	101.759974
2315.000000	101.760065
2314.000000	101.760109
2313.000000	101.759910
2312.000000	101.759454
2311.000000	101.758874
2310.000000	101.758314
2309.000000	101.757860
2308.000000	101.757502
2307.000000	101.757088
2306.000000	101.756387
2305.000000	101.755374
2304.000000	101.754359
2303.000000	101.753645
2302.000000	101.753053
2301.000000	101.752142
2300.000000	101.750908
2299.000000	101.749957
2298.000000	101.749750
2297.000000	101.749961
2296.000000	101.749832
2295.000000	101.749030
2294.000000	101.747755
2293.000000	101.746216
2292.000000	101.744398
2291.000000	101.742399
2290.000000	101.740628
2289.000000	101.739479
2288.000000	101.739059
2287.000000	101.739231
2286.000000	101.739649
2285.000000	101.739728
2284.000000	101.738904
2283.000000	101.737158
2282.000000	101.735210
2281.000000	101.734046
2280.000000	101.734184
2279.000000	101.735439
2278.000000	101.737090
2277.000000	101.738254
2276.000000	101.738423
2275.000000	101.737692
2274.000000	101.736514
2273.000000	101.735261
2272.000000	101.734055
2271.000000	101.732997
2270.000000	101.732262
2269.000000	101.731906
2268.000000	101.731767
2267.000000	101.731650
2266.000000	101.731413
2265.000000	101.730880
2264.000000	101.729905
2263.000000	101.728657
2262.000000	101.727589
2261.000000	101.726966
2260.000000	101.726606
2259.000000	101.726265
2258.000000	101.726071
2257.000000	101.726356
2256.000000	101.727212
2255.000000	101.728395
2254.000000	101.729562
2253.000000	101.730393
2252.000000	101.730629
2251.000000	101.730269
2250.000000	101.729681
2249.000000	101.729289
2248.000000	101.729057
2247.000000	101.728521
2246.000000	101.727308
2245.000000	101.725572
2244.000000	101.723909
2243.000000	101.722900
2242.000000	101.722723
2241.000000	101.723056
2240.000000	101.723343
2239.000000	101.723241
2238.000000	101.722807
2237.000000	101.722349
2236.000000	101.722154
2235.000000	101.722318
2234.000000	101.722715
2233.000000	101.723088
2232.000000	101.723226
2231.000000	101.723042
2230.000000	101.722499
2229.000000	101.721625
2228.000000	101.720681
2227.000000	101.720126
2226.000000	101.720217
2225.000000	101.720737
2224.000000	101.721199
2223.000000	101.721382
2222.000000	101.721433
2221.000000	101.721504
2220.000000	101.721527
2219.000000	101.721396
2218.000000	101.721186
2217.000000	101.721072
2216.000000	101.721125
2215.000000	101.721272
2214.000000	101.721416
2213.000000	101.721522
2212.000000	101.721619
2211.000000	101.721751
2210.000000	101.721948
2209.000000	101.722201
2208.000000	101.722476
2207.000000	101.722753
2206.000000	101.723041
2205.000000	101.723331
2204.000000	101.723579
2203.000000	101.723753
2202.000000	101.723894
2201.000000	101.724104
2200.000000	101.724449
2199.000000	101.724916
2198.000000	101.725448
2197.000000	101.725975
2196.000000	101.726417
2195.000000	101.726714
2194.000000	101.726887
2193.000000	101.727044
2192.000000	101.727283
2191.000000	101.727599
2190.000000	101.727914
2189.000000	101.728165
2188.000000	101.728350
2187.000000	101.728562
2186.000000	101.728958
2185.000000	101.729617
2184.000000	101.730370
2183.000000	101.730880
2182.000000	101.731018
2181.000000	101.731023
2180.000000	101.731238
2179.000000	101.731689
2178.000000	101.732123
2177.000000	101.732344
2176.000000	101.732345
2175.000000	101.732205
2174.000000	101.732057
2173.000000	101.732126
2172.000000	101.732579
2171.000000	101.733305
2170.000000	101.733993
2169.000000	101.734453
2168.000000	101.734718
2167.000000	101.734831
2166.000000	101.734737
2165.000000	101.734414
2164.000000	101.733961
2163.000000	101.733526
2162.000000	101.733252
2161.000000	101.733219
2160.000000	101.733271
2159.000000	101.733011
2158.000000	101.732241
2157.000000	101.731371
2156.000000	101.731060
2155.000000	101.731465
2154.000000	101.732204
2153.000000	101.733000
2152.000000	101.733964
2151.000000	101.735121
2150.000000	101.736081
2149.000000	101.736430
2148.000000	101.736237
2147.000000	101.735943
2146.000000	101.735868
2145.000000	101.735966
2144.000000	101.736038
2143.000000	101.736070
2142.000000	101.736308
2141.000000	101.736980
2140.000000	101.737960
2139.000000	101.738751
2138.000000	101.738983
2137.000000	101.738803
2136.000000	101.738718
2135.000000	101.739025
2134.000000	101.739554
2133.000000	101.739977
2132.000000	101.740206
2131.000000	101.740392
2130.000000	101.740655
2129.000000	101.740942
2128.000000	101.741150
2127.000000	101.741310
2126.000000	101.741588
2125.000000	101.742122
2124.000000	101.742871
2123.000000	101.743624
2122.000000	101.744209
2121.000000	101.744650
2120.000000	101.745068
2119.000000	101.745468
2118.000000	101.745766
2117.000000	101.745994
2116.000000	101.746333
2115.000000	101.746860
2114.000000	101.747422
2113.000000	101.747857
2112.000000	101.748250
2111.000000	101.748874
2110.000000	101.749915
2109.000000	101.751268
2108.000000	101.752560
2107.000000	101.753350
2106.000000	101.753389
2105.000000	101.752791
2104.000000	101.752002
2103.000000	101.751443
2102.000000	101.751216
2101.000000	101.751253
2100.000000	101.751642
2099.000000	101.752594
2098.000000	101.754072
2097.000000	101.755626
2096.000000	101.756762
2095.000000	101.757371
2094.000000	101.757716
2093.000000	101.758086
2092.000000	101.758543
2091.000000	101.758964
2090.000000	101.759235
2089.000000	101.759407
2088.000000	101.759674
2087.000000	101.760149
2086.000000	101.760644
2085.000000	101.760739
2084.000000	101.760134
2083.000000	101.758977
2082.000000	101.757836
2081.000000	101.757322
2080.000000	101.757704
2079.000000	101.758769
2078.000000	101.759988
2077.000000	101.760850
2076.000000	101.761136
2075.000000	101.761023
2074.000000	101.760972
2073.000000	101.761354
2072.000000	101.762069
2071.000000	101.762562
2070.000000	101.762399
2069.000000	101.761784
2068.000000	101.761363
2067.000000	101.761511
2066.000000	101.761964
2065.000000	101.762163
2064.000000	101.761821
2063.000000	101.761133
2062.000000	101.760571
2061.000000	101.760476
2060.000000	101.760727
2059.000000	101.760810
2058.000000	101.760345
2057.000000	101.759445
2056.000000	101.758373
2055.000000	101.756984
2054.000000	101.754927
2053.000000	101.752427
2052.000000	101.750434
2051.000000	101.749732
2050.000000	101.750182
2049.000000	101.750982
2048.000000	101.751404
2047.000000	101.751110
2046.000000	101.749983
2045.000000	101.748033
2044.000000	101.745499
2043.000000	101.742850
2042.000000	101.740627
2041.000000	101.739278
2040.000000	101.738960
2039.000000	101.739345
2038.000000	101.739698
2037.000000	101.739403
2036.000000	101.738403
2035.000000	101.737048
2034.000000	101.735598
2033.000000	101.733993
2032.000000	101.732099
2031.000000	101.730045
2030.000000	101.728258
2029.000000	101.727168
2028.000000	101.726858
2027.000000	101.726970
2026.000000	101.726959
2025.000000	101.726506
2024.000000	101.725683
2023.000000	101.724748
2022.000000	101.723906
2021.000000	101.723267
2020.000000	101.722828
2019.000000	101.722362
2018.000000	101.721485
2017.000000	101.720005
2016.000000	101.718169
2015.000000	101.716449
2014.000000	101.715135
2013.000000	101.714221
2012.000000	101.713566
2011.000000	101.712956
2010.000000	101.712070
2009.000000	101.710636
2008.000000	101.708740
2007.000000	101.706889
2006.000000	101.705647
2005.000000	101.705247
2004.000000	101.705538
2003.000000	101.706117
2002.000000	101.706511
2001.000000	101.706354
2000.000000	101.705519
1999.000000	101.704202
1998.000000	101.702765
1997.000000	101.701492
1996.000000	101.700494
1995.000000	101.699748
1994.000000	101.699137
1993.000000	101.698484
1992.000000	101.697684
1991.000000	101.696839
1990.000000	101.696224
1989.000000	101.696011
1988.000000	101.696016
1987.000000	101.695749
1986.000000	101.694887
1985.000000	101.693663
1984.000000	101.692637
1983.000000	101.692084
1982.000000	101.691878
1981.000000	101.691972
1980.000000	101.692635
1979.000000	101.693983
1978.000000	101.695464
1977.000000	101.696255
1976.000000	101.696117
1975.000000	101.695466
1974.000000	101.694719
1973.000000	101.693889
1972.000000	101.692889
1971.000000	101.691916
1970.000000	101.691378
1969.000000	101.691527
1968.000000	101.692142
1967.000000	101.692457
1966.000000	101.691725
1965.000000	101.690028
1964.000000	101.688295
1963.000000	101.687310
1962.000000	101.686987
1961.000000	101.686846
1960.000000	101.686916
1959.000000	101.687585
1958.000000	101.688694
1957.000000	101.689504
1956.000000	101.689644
1955.000000	101.689458
1954.000000	101.689319
1953.000000	101.689207
1952.000000	101.689100
1951.000000	101.689051
1950.000000	101.688816
1949.000000	101.687949
1948.000000	101.686486
1947.000000	101.685074
1946.000000	101.684097
1945.000000	101.683199
1944.000000	101.682070
1943.000000	101.681183
1942.000000	101.681175
1941.000000	101.681776
1940.000000	101.682002
1939.000000	101.681114
1938.000000	101.678987
1937.000000	101.676012
1936.000000	101.673069
1935.000000	101.671136
1934.000000	101.670492
1933.000000	101.670408
1932.000000	101.669887
1931.000000	101.668601
1930.000000	101.667081
1929.000000	101.665915
1928.000000	101.665154
1927.000000	101.664572
1926.000000	101.663971
1925.000000	101.663385
1924.000000	101.662890
1923.000000	101.662545
1922.000000	101.662344
1921.000000	101.662107
1920.000000	101.661599
1919.000000	101.660833
1918.000000	101.659936
1917.000000	101.658752
1916.000000	101.656868
1915.000000	101.654164
1914.000000	101.650920
1913.000000	101.647602
1912.000000	101.644686
1911.000000	101.642580
1910.000000	101.641427
1909.000000	101.640622
1908.000000	101.639126
1907.000000	101.636573
1906.000000	101.633495
1905.000000	101.630765
1904.000000	101.628666
1903.000000	101.626946
1902.000000	101.625205
1901.000000	101.622728
1900.000000	101.618960
1899.000000	101.614603
1898.000000	101.611323
1897.000000	101.610241
1896.000000	101.610805
1895.000000	101.611670
1894.000000	101.612272
1893.000000	101.612693
1892.000000	101.612539
1891.000000	101.610979
1890.000000	101.607679
1889.000000	101.603277
1888.000000	101.598859
1887.000000	101.595103
1886.000000	101.591818
1885.000000	101.588314
1884.000000	101.584598
1883.000000	101.582286
1882.000000	101.583426
1881.000000	101.587731
1880.000000	101.592109
1879.000000	101.593813
1878.000000	101.592977
1877.000000	101.591557
1876.000000	101.590725
1875.000000	101.590116
1874.000000	101.589259
1873.000000	101.588323
1872.000000	101.587417
1871.000000	101.586469
1870.000000	101.585981
1869.000000	101.586680
1868.000000	101.588070
1867.000000	101.589145
1866.000000	101.590148
1865.000000	101.591853
1864.000000	101.594170
1863.000000	101.596324
1862.000000	101.598058
1861.000000	101.599972
1860.000000	101.602546
1859.000000	101.605533
1858.000000	101.608495
1857.000000	101.611291
1856.000000	101.613930
1855.000000	101.616409
1854.000000	101.618659
1853.000000	101.620473
1852.000000	101.621767
1851.000000	101.623159
1850.000000	101.624965
1849.000000	101.626699
1848.000000	101.627995
1847.000000	101.629650
1846.000000	101.632756
1845.000000	101.636813
1844.000000	101.639892
1843.000000	101.641517
1842.000000	101.643339
1841.000000	101.645876
1840.000000	101.647877
1839.000000	101.648429
1838.000000	101.647872
1837.000000	101.646878
1836.000000	101.645327
1835.000000	101.643360
1834.000000	101.642422
1833.000000	101.644193
1832.000000	101.649036
1831.000000	101.655253
1830.000000	101.659341
1829.000000	101.659260
1828.000000	101.656815
1827.000000	101.654894
1826.000000	101.654161
1825.000000	101.653379
1824.000000	101.651584
1823.000000	101.649321
1822.000000	101.647609
1821.000000	101.646593
1820.000000	101.645775
1819.000000	101.644795
1818.000000	101.643842
1817.000000	101.643384
1816.000000	101.643133
1815.000000	101.642338
1814.000000	101.640900
1813.000000	101.639391
1812.000000	101.638367
1811.000000	101.637610
1810.000000	101.637250
1809.000000	101.638222
1808.000000	101.640315
1807.000000	101.641863
1806.000000	101.641660
1805.000000	101.639750
1804.000000	101.636688
1803.000000	101.633503
1802.000000	101.631951
1801.000000	101.632817
1800.000000	101.634473
1799.000000	101.634608
1798.000000	101.633961
1797.000000	101.634856
1796.000000	101.636956
1795.000000	101.637322
1794.000000	101.634400
1793.000000	101.630263
1792.000000	101.628249
1791.000000	101.628713
1790.000000	101.630693
1789.000000	101.634226
1788.000000	101.639211
1787.000000	101.644577
1786.000000	101.649282
1785.000000	101.653304
1784.000000	101.657121
1783.000000	101.661202
1782.000000	101.665704
1781.000000	101.669579
1780.000000	101.671724
1779.000000	101.672243
1778.000000	101.672971
1777.000000	101.675292
1776.000000	101.678654
1775.000000	101.681777
1774.000000	101.683982
1773.000000	101.685271
1772.000000	101.685898
1771.000000	101.686379
1770.000000	101.688181
1769.000000	101.693270
1768.000000	101.702289
1767.000000	101.712879
1766.000000	101.721498
1765.000000	101.726958
1764.000000	101.731079
1763.000000	101.736736
1762.000000	101.744975
1761.000000	101.753418
1760.000000	101.759271
1759.000000	101.761574
1758.000000	101.761210
1757.000000	101.759101
1756.000000	101.755850
1755.000000	101.752348
1754.000000	101.749635
1753.000000	101.749018
1752.000000	101.751992
1751.000000	101.758212
1750.000000	101.763832
1749.000000	101.765560
1748.000000	101.764059
1747.000000	101.762569
1746.000000	101.762788
1745.000000	101.763403
1744.000000	101.762571
1743.000000	101.759989
1742.000000	101.757390
1741.000000	101.757018
1740.000000	101.759111
1739.000000	101.761119
1738.000000	101.761321
1737.000000	101.760740
1736.000000	101.760945
1735.000000	101.762126
1734.000000	101.762896
1733.000000	101.762223
1732.000000	101.761909
1731.000000	101.762574
1730.000000	101.762733
1729.000000	101.760930
1728.000000	101.757318
1727.000000	101.753387
1726.000000	101.750471
1725.000000	101.749243
1724.000000	101.749415
1723.000000	101.748946
1722.000000	101.746029
1721.000000	101.741103
1720.000000	101.736233
1719.000000	101.733047
1718.000000	101.731216
1717.000000	101.729654
1716.000000	101.728093
1715.000000	101.726931
1714.000000	101.726797
1713.000000	101.727713
1712.000000	101.728333
1711.000000	101.727239
1710.000000	101.724440
1709.000000	101.721291
1708.000000	101.718974
1707.000000	101.717005
1706.000000	101.713810
1705.000000	101.709212
1704.000000	101.704811
1703.000000	101.701739
1702.000000	101.699819
1701.000000	101.698349
1700.000000	101.696177
1699.000000	101.692437
1698.000000	101.689347
1697.000000	101.688982
1696.000000	101.690994
1695.000000	101.692404
1694.000000	101.691638
1693.000000	101.689778
1692.000000	101.687946
1691.000000	101.686794
1690.000000	101.686691
1689.000000	101.687258
1688.000000	101.687492
1687.000000	101.686597
1686.000000	101.684444
1685.000000	101.682321
1684.000000	101.681466
1683.000000	101.681115
1682.000000	101.681062
1681.000000	101.680874
1680.000000	101.680258
1679.000000	101.679438
1678.000000	101.678802
1677.000000	101.678548
1676.000000	101.678748
1675.000000	101.679070
1674.000000	101.678736
1673.000000	101.677621
1672.000000	101.676465
1671.000000	101.675882
1670.000000	101.675939
1669.000000	101.676016
1668.000000	101.676241
1667.000000	101.677509
1666.000000	101.679770
1665.000000	101.682168
1664.000000	101.683771
1663.000000	101.683957
1662.000000	101.682884
1661.000000	101.681277
1660.000000	101.679903
1659.000000	101.679261
1658.000000	101.679440
1657.000000	101.680078
1656.000000	101.680584
1655.000000	101.680794
1654.000000	101.681208
1653.000000	101.682147
1652.000000	101.682472
1651.000000	101.682844
1650.000000	101.683098
1649.000000	101.683274
1648.000000	101.683618
1647.000000	101.683877
1646.000000	101.683022
1645.000000	101.681505
1644.000000	101.680519
1643.000000	101.680231
1642.000000	101.680382
1641.000000	101.680760
1640.000000	101.681424
1639.000000	101.682447
1638.000000	101.683761
1637.000000	101.685515
1636.000000	101.687603
1635.000000	101.689053
1634.000000	101.688980
1633.000000	101.687767
1632.000000	101.685978
1631.000000	101.684377
1630.000000	101.683573
1629.000000	101.683444
1628.000000	101.683322
1627.000000	101.683096
1626.000000	101.683309
1625.000000	101.684330
1624.000000	101.686467
1623.000000	101.689605
1622.000000	101.692616
1621.000000	101.694165
1620.000000	101.694224
1619.000000	101.693880
1618.000000	101.694059
1617.000000	101.694262
1616.000000	101.693396
1615.000000	101.692887
1614.000000	101.694485
1613.000000	101.697458
1612.000000	101.700199
1611.000000	101.702177
1610.000000	101.703842
1609.000000	101.705148
1608.000000	101.705887
1607.000000	101.706738
1606.000000	101.708264
1605.000000	101.709514
1604.000000	101.709779
1603.000000	101.710224
1602.000000	101.712336
1601.000000	101.715657
1600.000000	101.718511
1599.000000	101.720474
1598.000000	101.722479
1597.000000	101.725057
1596.000000	101.727811
1595.000000	101.730539
1594.000000	101.733787
1593.000000	101.737692
1592.000000	101.741593
1591.000000	101.745215
1590.000000	101.749034
1589.000000	101.752679
1588.000000	101.754282
1587.000000	101.752387
1586.000000	101.748054
1585.000000	101.744298
1584.000000	101.743567
1583.000000	101.746416
1582.000000	101.751125
1581.000000	101.755127
1580.000000	101.757465
1579.000000	101.759602
1578.000000	101.763302
1577.000000	101.767999
1576.000000	101.769830
1575.000000	101.766483
1574.000000	101.760809
1573.000000	101.755679
1572.000000	101.752557
1571.000000	101.752593
1570.000000	101.755627
1569.000000	101.758245
1568.000000	101.758276
1567.000000	101.757769
1566.000000	101.758384
1565.000000	101.760107
1564.000000	101.762045
1563.000000	101.763649
1562.000000	101.763822
1561.000000	101.760936
1560.000000	101.755720
1559.000000	101.752688
1558.000000	101.750621
1557.000000	101.749520
1556.000000	101.749738
1555.000000	101.749783
1554.000000	101.748103
1553.000000	101.743905
1552.000000	101.738210
1551.000000	101.731793
1550.000000	101.724442
1549.000000	101.716748
1548.000000	101.710712
1547.000000	101.708235
1546.000000	101.709098
1545.000000	101.711118
1544.000000	101.711678
1543.000000	101.710269
1542.000000	101.708476
1541.000000	101.707141
1540.000000	101.701651
1539.000000	101.688572
1538.000000	101.673934
1537.000000	101.662008
1536.000000	101.651663
1535.000000	101.641738
1534.000000	101.633258
1533.000000	101.627434
1532.000000	101.623233
1531.000000	101.618022
1530.000000	101.610027
1529.000000	101.599625
1528.000000	101.588265
1527.000000	101.577260
1526.000000	101.567233
1525.000000	101.558336
1524.000000	101.550714
1523.000000	101.545150
1522.000000	101.543433
1521.000000	101.545327
1520.000000	101.546405
1519.000000	101.543849
1518.000000	101.538570
1517.000000	101.533390
1516.000000	101.529720
1515.000000	101.526034
1514.000000	101.520365
1513.000000	101.512771
1512.000000	101.505444
1511.000000	101.499351
1510.000000	101.493002
1509.000000	101.484807
1508.000000	101.476568
1507.000000	101.472120
1506.000000	101.471827
1505.000000	101.473205
1504.000000	101.472979
1503.000000	101.468778
1502.000000	101.461154
1501.000000	101.452713
1500.000000	101.446536
1499.000000	101.443592
1498.000000	101.441981
1497.000000	101.440047
1496.000000	101.437517
1495.000000	101.433562
1494.000000	101.428161
1493.000000	101.423263
1492.000000	101.421537
1491.000000	101.423760
1490.000000	101.426826
1489.000000	101.426546
1488.000000	101.422411
1487.000000	101.416367
1486.000000	101.411204
1485.000000	101.408586
1484.000000	101.408027
1483.000000	101.408624
1482.000000	101.409604
1481.000000	101.410897
1480.000000	101.412578
1479.000000	101.414744
1478.000000	101.417553
1477.000000	101.420804
1476.000000	101.422957
1475.000000	101.422522
1474.000000	101.422092
1473.000000	101.427134
1472.000000	101.438547
1471.000000	101.449534
1470.000000	101.455168
1469.000000	101.456451
1468.000000	101.456643
1467.000000	101.457957
1466.000000	101.460993
1465.000000	101.464967
1464.000000	101.468283
1463.000000	101.469593
1462.000000	101.468386
1461.000000	101.465378
1460.000000	101.462176
1459.000000	101.460867
1458.000000	101.462613
1457.000000	101.466434
1456.000000	101.469628
1455.000000	101.471138
1454.000000	101.471381
1453.000000	101.471638
1452.000000	101.473452
1451.000000	101.477010
1450.000000	101.480968
1449.000000	101.484120
1448.000000	101.486198
1447.000000	101.487236
1446.000000	101.487644
1445.000000	101.488239
1444.000000	101.489966
1443.000000	101.492841
1442.000000	101.495910
1441.000000	101.498351
1440.000000	101.500267
1439.000000	101.502219
1438.000000	101.504479
1437.000000	101.507164
1436.000000	101.510067
1435.000000	101.512602
1434.000000	101.514251
1433.000000	101.515027
1432.000000	101.515524
1431.000000	101.516709
1430.000000	101.519142
1429.000000	101.522681
1428.000000	101.526903
1427.000000	101.531316
1426.000000	101.535441
1425.000000	101.538869
1424.000000	101.541599
1423.000000	101.543995
1422.000000	101.546500
1421.000000	101.549598
1420.000000	101.553689
1419.000000	101.558330
1418.000000	101.562109
1417.000000	101.564818
1416.000000	101.567551
1415.000000	101.571069
1414.000000	101.575215
1413.000000	101.579374
1412.000000	101.583193
1411.000000	101.586786
1410.000000	101.590358
1409.000000	101.593970
1408.000000	101.597580
1407.000000	101.601140
1406.000000	101.604788
1405.000000	101.608776
1404.000000	101.613233
1403.000000	101.617844
1402.000000	101.622090
1401.000000	101.626002
1400.000000	101.630216
1399.000000	101.635014
1398.000000	101.639532
1397.000000	101.642901
1396.000000	101.645361
1395.000000	101.647870
1394.000000	101.650991
1393.000000	101.654700
1392.000000	101.659378
1391.000000	101.665356
1390.000000	101.671998
1389.000000	101.677680
1388.000000	101.680844
1387.000000	101.681478
1386.000000	101.681748
1385.000000	101.684149
1384.000000	101.689208
1383.000000	101.695059
1382.000000	101.698992
1381.000000	101.700235
1380.000000	101.700694
1379.000000	101.702872
1378.000000	101.707399
1377.000000	101.713102
1376.000000	101.718871
1375.000000	101.724399
1374.000000	101.729256
1373.000000	101.732912
1372.000000	101.736225
1371.000000	101.741031
1370.000000	101.748120
1369.000000	101.755742
1368.000000	101.761275
1367.000000	101.763719
1366.000000	101.763894
1365.000000	101.763133
1364.000000	101.762589
1363.000000	101.762871
1362.000000	101.763368
1361.000000	101.762543
1360.000000	101.759765
1359.000000	101.756377
1358.000000	101.754541
1357.000000	101.755146
1356.000000	101.757517
1355.000000	101.760755
1354.000000	101.764243
1353.000000	101.766828
1352.000000	101.766799
1351.000000	101.763714
1350.000000	101.759974
1349.000000	101.758359
1348.000000	101.759259
1347.000000	101.760912
1346.000000	101.761947
1345.000000	101.762318
1344.000000	101.762278
1343.000000	101.761684
1342.000000	101.760647
1341.000000	101.759739
1340.000000	101.759140
1339.000000	101.758460
1338.000000	101.757892
1337.000000	101.758475
1336.000000	101.760519
1335.000000	101.762663
1334.000000	101.763459
1333.000000	101.763293
1332.000000	101.763656
1331.000000	101.764758
1330.000000	101.765096
1329.000000	101.763579
1328.000000	101.761063
1327.000000	101.759073
1326.000000	101.757962
1325.000000	101.757039
1324.000000	101.756391
1323.000000	101.756861
1322.000000	101.758351
1321.000000	101.759603
1320.000000	101.759958
1319.000000	101.760011
1318.000000	101.760081
1317.000000	101.759457
1316.000000	101.758010
1315.000000	101.757363
1314.000000	101.759257
1313.000000	101.763127
1312.000000	101.766275
1311.000000	101.766570
1310.000000	101.764445
1309.000000	101.762333
1308.000000	101.762381
1307.000000	101.764380
1306.000000	101.766000
1305.000000	101.765231
1304.000000	101.762814
1303.000000	101.761491
1302.000000	101.762646
1301.000000	101.764418
1300.000000	101.763835
1299.000000	101.760108
1298.000000	101.755221
1297.000000	101.751747
1296.000000	101.750640
1295.000000	101.750985
1294.000000	101.750960
1293.000000	101.749079
1292.000000	101.745217
1291.000000	101.740847
1290.000000	101.738034
1289.000000	101.737823
1288.000000	101.739312
1287.000000	101.740043
1286.000000	101.737449
1285.000000	101.730565
1284.000000	101.720887
1283.000000	101.711483
1282.000000	101.704870
1281.000000	101.701674
1280.000000	101.701160
1279.000000	101.702472
1278.000000	101.704893
1277.000000	101.707408
1276.000000	101.708666
1275.000000	101.707614
1274.000000	101.704059
1273.000000	101.698668
1272.000000	101.692521
1271.000000	101.686654
1270.000000	101.682105
1269.000000	101.680369
1268.000000	101.683064
1267.000000	101.690086
1266.000000	101.698261
1265.000000	101.703389
1264.000000	101.704089
1263.000000	101.702620
1262.000000	101.701648
1261.000000	101.701181
1260.000000	101.699263
1259.000000	101.694756
1258.000000	101.688254
1257.000000	101.680756
1256.000000	101.672416
1255.000000	101.662634
1254.000000	101.650971
1253.000000	101.638125
1252.000000	101.626129
1251.000000	101.617137
1250.000000	101.611522
1249.000000	101.607413
1248.000000	101.602333
1247.000000	101.595009
1246.000000	101.585606
1245.000000	101.574976
1244.000000	101.563937
1243.000000	101.552824
1242.000000	101.541564
1241.000000	101.530390
1240.000000	101.519973
1239.000000	101.510119
1238.000000	101.498925
1237.000000	101.484567
1236.000000	101.467669
1235.000000	101.450443
1234.000000	101.433498
1233.000000	101.415213
1232.000000	101.394650
1231.000000	101.373071
1230.000000	101.351654
1229.000000	101.329553
1228.000000	101.305628
1227.000000	101.280480
1226.000000	101.254846
1225.000000	101.226730
1224.000000	101.192071
1223.000000	101.148376
1222.000000	101.096690
1221.000000	101.040330
1220.000000	100.982789
1219.000000	100.926387
1218.000000	100.871235
1217.000000	100.815077
1216.000000	100.754864
1215.000000	100.688784
1214.000000	100.616892
1213.000000	100.540592
1212.000000	100.462342
1211.000000	100.385305
1210.000000	100.312227
1209.000000	100.244160
1208.000000	100.179984
1207.000000	100.116756
1206.000000	100.051263
1205.000000	99.982631
1204.000000	99.913204
1203.000000	99.845874
1202.000000	99.781066
1201.000000	99.717144
1200.000000	99.652537
1199.000000	99.586034
1198.000000	99.516508
1197.000000	99.444785
1196.000000	99.374573
1195.000000	99.308480
1194.000000	99.243629
1193.000000	99.174276
1192.000000	99.098546
1191.000000	99.019727
1190.000000	98.941256
1189.000000	98.863612
1188.000000	98.786184
1187.000000	98.708867
1186.000000	98.631279
1185.000000	98.553104
1184.000000	98.475082
1183.000000	98.396698
1182.000000	98.313395
1181.000000	98.219904
1180.000000	98.116601
1179.000000	98.009187
1178.000000	97.901754
1177.000000	97.793575
1176.000000	97.682813
1175.000000	97.569491
1174.000000	97.454356
1173.000000	97.338585
1172.000000	97.225080
1171.000000	97.116496
1170.000000	97.012023
1169.000000	96.909930
1168.000000	96.812600
1167.000000	96.724579
1166.000000	96.647173
1165.000000	96.581404
1164.000000	96.535478
1163.000000	96.521215
1162.000000	96.541043
1161.000000	96.583695
1160.000000	96.633114
1159.000000	96.675820
1158.000000	96.699778
1157.000000	96.694593
1156.000000	96.657221
1155.000000	96.594030
1154.000000	96.515042
1153.000000	96.427998
1152.000000	96.337678
1151.000000	96.246311
1150.000000	96.153415
1149.000000	96.059064
1148.000000	95.967470
1147.000000	95.882881
1146.000000	95.802417
1145.000000	95.718927
1144.000000	95.631207
1143.000000	95.545430
1142.000000	95.465917
1141.000000	95.390743
1140.000000	95.317276
1139.000000	95.245233
1138.000000	95.172600
1137.000000	95.094905
1136.000000	95.010935
1135.000000	94.924400
1134.000000	94.838774
1133.000000	94.755059
1132.000000	94.674489
1131.000000	94.597710
1130.000000	94.521662
1129.000000	94.443706
1128.000000	94.368017
1127.000000	94.300238
1126.000000	94.236436
1125.000000	94.166109
1124.000000	94.086584
1123.000000	94.005504
1122.000000	93.928420
1121.000000	93.853581
1120.000000	93.780444
1119.000000	93.712905
1118.000000	93.650923
1117.000000	93.588389
1116.000000	93.522622
1115.000000	93.457632
1114.000000	93.395510
1113.000000	93.333456
1112.000000	93.271716
1111.000000	93.214949
1110.000000	93.162584
1109.000000	93.106493
1108.000000	93.041345
1107.000000	92.969788
1106.000000	92.896190
1105.000000	92.823174
1104.000000	92.754731
1103.000000	92.693707
1102.000000	92.635474
1101.000000	92.573038
1100.000000	92.508693
1099.000000	92.450490
1098.000000	92.398630
1097.000000	92.346026
1096.000000	92.292269
1095.000000	92.244781
1094.000000	92.205419
1093.000000	92.168352
1092.000000	92.132606
1091.000000	92.104451
1090.000000	92.085721
1089.000000	92.071883
1088.000000	92.063103
1087.000000	92.064779
1086.000000	92.075672
1085.000000	92.088139
1084.000000	92.101502
1083.000000	92.121819
1082.000000	92.146822
1081.000000	92.165577
1080.000000	92.176573
1079.000000	92.192252
1078.000000	92.220521
1077.000000	92.253375
1076.000000	92.278440
1075.000000	92.290217
1074.000000	92.285737
1073.000000	92.260617
1072.000000	92.214746
1071.000000	92.152648
1070.000000	92.073797
1069.000000	91.970762
1068.000000	91.839985
1067.000000	91.686193
1066.000000	91.514527
1065.000000	91.328012
1064.000000	91.134920
1063.000000	90.947493
1062.000000	90.769718
1061.000000	90.596678
1060.000000	90.428485
1059.000000	90.273297
1058.000000	90.133962
1057.000000	90.004258
1056.000000	89.881884
1055.000000	89.772552
1054.000000	89.677003
1053.000000	89.586503
1052.000000	89.496728
1051.000000	89.414274
1050.000000	89.343715
1049.000000	89.280735
1048.000000	89.222944
1047.000000	89.173832
1046.000000	89.131623
1045.000000	89.087030
1044.000000	89.035601
1043.000000	88.981732
1042.000000	88.928892
1041.000000	88.876466
1040.000000	88.827296
1039.000000	88.786992
1038.000000	88.754306
1037.000000	88.723201
1036.000000	88.694878
1035.000000	88.675856
1034.000000	88.664300
1033.000000	88.651597
1032.000000	88.638119
1031.000000	88.633938
1030.000000	88.642726
1029.000000	88.658144
1028.000000	88.676881
1027.000000	88.701219
1026.000000	88.727269
1025.000000	88.745196
1024.000000	88.754064
1023.000000	88.763510
1022.000000	88.778288
1021.000000	88.793235
1020.000000	88.804755
1019.000000	88.814584
1018.000000	88.821112
1017.000000	88.820181
1016.000000	88.815774
1015.000000	88.816961
1014.000000	88.823287
1013.000000	88.826466
1012.000000	88.827074
1011.000000	88.835068
1010.000000	88.852369
1009.000000	88.869864
1008.000000	88.884507
1007.000000	88.905390
1006.000000	88.939246
1005.000000	88.982732
1004.000000	89.031946
1003.000000	89.087308
1002.000000	89.146335
1001.000000	89.203743
1000.000000	89.261423
999.000000	89.326767
998.000000	89.399256
997.000000	89.470400
996.000000	89.538492
995.000000	89.611083
994.000000	89.690896
993.000000	89.771939
992.000000	89.852156
991.000000	89.937611
990.000000	90.030793
989.000000	90.125940
988.000000	90.219206
987.000000	90.313525
986.000000	90.411138
985.000000	90.511243
984.000000	90.616426
983.000000	90.730940
982.000000	90.851167
981.000000	90.968138
980.000000	91.080944
979.000000	91.197285
978.000000	91.319768
977.000000	91.442558
976.000000	91.562862
975.000000	91.685048
974.000000	91.811689
973.000000	91.940764
972.000000	92.073072
971.000000	92.211785
970.000000	92.352710
969.000000	92.485315
968.000000	92.606181
967.000000	92.722840
966.000000	92.842826
965.000000	92.967443
964.000000	93.097017
963.000000	93.232316
962.000000	93.368563
961.000000	93.496876
960.000000	93.613914
959.000000	93.723218
958.000000	93.827200
957.000000	93.925922
956.000000	94.023514
955.000000	94.126282
954.000000	94.233370
953.000000	94.337959
952.000000	94.437740
951.000000	94.535040
950.000000	94.627227
949.000000	94.708067
948.000000	94.779980
947.000000	94.854241
946.000000	94.935885
945.000000	95.017550
944.000000	95.091444
943.000000	95.158690
942.000000	95.224318
941.000000	95.290994
940.000000	95.360191
939.000000	95.432019
938.000000	95.501809
937.000000	95.564088
936.000000	95.621148
935.000000	95.680617
934.000000	95.744326
933.000000	95.807897
932.000000	95.871154
931.000000	95.938756
930.000000	96.009277
929.000000	96.074043
928.000000	96.129264
927.000000	96.179892
926.000000	96.229332
925.000000	96.275040
924.000000	96.317081
923.000000	96.360855
922.000000	96.407438
921.000000	96.450492
920.000000	96.486786
919.000000	96.520869
918.000000	96.555429
917.000000	96.586551
916.000000	96.613878
915.000000	96.646698
914.000000	96.693504
913.000000	96.752595
912.000000	96.818298
911.000000	96.889681
910.000000	96.967776
909.000000	97.050692
908.000000	97.137420
907.000000	97.230922
906.000000	97.331888
905.000000	97.434302
904.000000	97.532381
903.000000	97.627940
902.000000	97.726443
901.000000	97.829172
900.000000	97.932887
899.000000	98.034040
898.000000	98.130601
897.000000	98.222516
896.000000	98.312381
895.000000	98.402844
894.000000	98.492363
893.000000	98.576751
892.000000	98.654794
891.000000	98.727909
890.000000	98.794376
889.000000	98.849572
888.000000	98.893002
887.000000	98.929669
886.000000	98.963060
885.000000	98.992435
884.000000	99.019047
883.000000	99.049070
882.000000	99.087607
881.000000	99.135132
880.000000	99.191973
879.000000	99.259975
878.000000	99.336782
877.000000	99.414888
876.000000	99.490047
875.000000	99.564901
874.000000	99.641229
873.000000	99.715202
872.000000	99.784557
871.000000	99.854473
870.000000	99.930996
869.000000	100.012365
868.000000	100.091151
867.000000	100.161919
866.000000	100.223659
865.000000	100.278167
864.000000	100.329506
863.000000	100.382597
862.000000	100.439460
861.000000	100.498307
860.000000	100.557364
859.000000	100.616924
858.000000	100.676754
857.000000	100.734859
856.000000	100.790422
855.000000	100.845250
854.000000	100.901159
853.000000	100.958518
852.000000	101.017538
851.000000	101.077273
850.000000	101.132628
849.000000	101.176479
848.000000	101.206720
847.000000	101.229271
846.000000	101.253551
845.000000	101.286370
844.000000	101.328289
843.000000	101.371865
842.000000	101.405121
841.000000	101.422183
840.000000	101.429728
839.000000	101.437871
838.000000	101.446408
837.000000	101.447404
836.000000	101.440521
835.000000	101.436295
834.000000	101.442132
833.000000	101.454058
832.000000	101.466006
831.000000	101.477812
830.000000	101.487774
829.000000	101.486565
828.000000	101.469756
827.000000	101.452203
826.000000	101.457563
825.000000	101.491611
824.000000	101.534148
823.000000	101.558766
822.000000	101.554011
821.000000	101.524506
820.000000	101.479154
819.000000	101.422568
818.000000	101.354493
817.000000	101.273712
816.000000	101.180740
815.000000	101.074792
814.000000	100.947905
813.000000	100.785459
812.000000	100.574759
811.000000	100.311111
810.000000	99.994498
809.000000	99.624394
808.000000	99.201641
807.000000	98.732902
806.000000	98.230503
805.000000	97.711518
804.000000	97.199626
803.000000	96.721161
802.000000	96.293197
801.000000	95.920630
800.000000	95.609430
799.000000	95.375329
798.000000	95.233324
797.000000	95.184117
796.000000	95.213857
795.000000	95.299615
794.000000	95.413058
793.000000	95.528480
792.000000	95.632418
791.000000	95.721010
790.000000	95.787730
789.000000	95.820350
788.000000	95.809842
787.000000	95.754318
786.000000	95.653619
785.000000	95.508717
784.000000	95.328629
783.000000	95.130011
782.000000	94.927996
781.000000	94.736276
780.000000	94.577496
779.000000	94.480501
778.000000	94.460060
777.000000	94.507385
776.000000	94.604660
775.000000	94.740266
774.000000	94.907155
773.000000	95.097241
772.000000	95.303004
771.000000	95.517036
770.000000	95.726968
769.000000	95.919478
768.000000	96.092697
767.000000	96.256351
766.000000	96.416221
765.000000	96.566627
764.000000	96.702006
763.000000	96.827217
762.000000	96.950730
761.000000	97.074468
760.000000	97.196131
759.000000	97.316033
758.000000	97.436268
757.000000	97.557087
756.000000	97.677465
755.000000	97.794641
754.000000	97.901211
753.000000	97.989860
752.000000	98.064934
751.000000	98.142250
750.000000	98.231736
749.000000	98.325985
748.000000	98.411955
747.000000	98.488202
746.000000	98.562710
745.000000	98.637513
744.000000	98.705279
743.000000	98.762006
742.000000	98.815568
741.000000	98.877752
740.000000	98.950875
739.000000	99.025339
738.000000	99.090037
737.000000	99.143819
736.000000	99.195398
735.000000	99.251490
734.000000	99.307502
733.000000	99.352762
732.000000	99.383137
731.000000	99.404777
730.000000	99.426148
729.000000	99.450536
728.000000	99.477385
727.000000	99.506763
726.000000	99.540089
725.000000	99.578996
724.000000	99.624177
723.000000	99.673108
722.000000	99.719761
721.000000	99.760434
720.000000	99.799438
719.000000	99.844039
718.000000	99.893495
717.000000	99.938862
716.000000	99.974589
715.000000	100.005094
714.000000	100.038310
713.000000	100.076804
712.000000	100.116838
711.000000	100.151925
710.000000	100.175967
709.000000	100.187277
708.000000	100.191261
707.000000	100.194427
706.000000	100.192658
705.000000	100.170201
704.000000	100.112813
703.000000	100.016695
702.000000	99.882273
701.000000	99.705632
700.000000	99.481743
699.000000	99.214477
698.000000	98.921061
697.000000	98.631766
696.000000	98.388035
695.000000	98.232198
694.000000	98.189652
693.000000	98.257519
692.000000	98.408376
691.000000	98.603860
690.000000	98.807774
689.000000	98.994925
688.000000	99.156056
687.000000	99.296287
686.000000	99.425441
685.000000	99.547186
684.000000	99.657569
683.000000	99.752779
682.000000	99.834896
681.000000	99.909296
680.000000	99.978828
679.000000	100.043097
678.000000	100.102971
677.000000	100.162586
676.000000	100.226759
675.000000	100.296583
674.000000	100.364631
673.000000	100.416484
672.000000	100.442401
671.000000	100.447576
670.000000	100.450484
669.000000	100.473198
668.000000	100.523748
667.000000	100.588176
666.000000	100.652189
665.000000	100.710792
664.000000	100.762387
663.000000	100.797947
662.000000	100.806322
661.000000	100.792639
660.000000	100.780182
659.000000	100.788345
658.000000	100.814244
657.000000	100.840828
656.000000	100.859737
655.000000	100.875326
654.000000	100.886902
653.000000	100.882671
652.000000	100.856496
651.000000	100.820317
650.000000	100.795136
