4000.000000	102.174052
3999.000000	102.173442
3998.000000	102.172539
3997.000000	102.170949
3996.000000	102.169665
3995.000000	102.169817
3994.000000	102.171410
3993.000000	102.173161
3992.000000	102.173365
3991.000000	102.170986
3990.000000	102.166319
3989.000000	102.161069
3988.000000	102.157524
3987.000000	102.157231
3986.000000	102.160177
3985.000000	102.164921
3984.000000	102.169627
3983.000000	102.173178
3982.000000	102.175314
3981.000000	102.175996
3980.000000	102.175141
3979.000000	102.173112
3978.000000	102.171193
3977.000000	102.171008
3976.000000	102.172996
3975.000000	102.175629
3974.000000	102.176649
3973.000000	102.175286
3972.000000	102.173043
3971.000000	102.172187
3970.000000	102.173517
3969.000000	102.175608
3968.000000	102.176155
3967.000000	102.173924
3966.000000	102.169489
3965.000000	102.164419
3964.000000	102.159874
3963.000000	102.156005
3962.000000	102.152541
3961.000000	102.149703
3960.000000	102.148134
3959.000000	102.147989
3958.000000	102.148521
3957.000000	102.148717
3956.000000	102.148236
3955.000000	102.147585
3954.000000	102.147453
3953.000000	102.148095
3952.000000	102.149216
3951.000000	102.150200
3950.000000	102.150575
3949.000000	102.150475
3948.000000	102.150720
3947.000000	102.152179
3946.000000	102.154878
3945.000000	102.157711
3944.000000	102.159124
3943.000000	102.158273
3942.000000	102.155486
3941.000000	102.151972
3940.000000	102.149162
3939.000000	102.148017
3938.000000	102.148691
3937.000000	102.150676
3936.000000	102.153237
3935.000000	102.155803
3934.000000	102.158015
3933.000000	102.159565
3932.000000	102.160158
3931.000000	102.159746
3930.000000	102.158742
3929.000000	102.157887
3928.000000	102.157786
3927.000000	102.158500
3926.000000	102.159593
3925.000000	102.160628
3924.000000	102.161623
3923.000000	102.163044
3922.000000	102.165341
3921.000000	102.168317
3920.000000	102.170912
3919.000000	102.171783
3918.000000	102.170346
3917.000000	102.167342
3916.000000	102.164476
3915.000000	102.163088
3914.000000	102.163266
3913.000000	102.164197
3912.000000	102.165007
3911.000000	102.165487
3910.000000	102.166087
3909.000000	102.167263
3908.000000	102.168948
3907.000000	102.170605
3906.000000	102.171643
3905.000000	102.171871
3904.000000	102.171489
3903.000000	102.170694
3902.000000	102.169526
3901.000000	102.168051
3900.000000	102.166479
3899.000000	102.165107
3898.000000	102.164138
3897.000000	102.163662
3896.000000	102.163609
3895.000000	102.163666
3894.000000	102.163430
3893.000000	102.162771
3892.000000	102.162086
3891.000000	102.161930
3890.000000	102.162446
3889.000000	102.163290
3888.000000	102.163815
3887.000000	102.163476
3886.000000	102.162259
3885.000000	102.160750
3884.000000	102.159594
3883.000000	102.158933
3882.000000	102.158495
3881.000000	102.157973
3880.000000	102.157282
3879.000000	102.156566
3878.000000	102.156005
3877.000000	102.155632
3876.000000	102.155296
3875.000000	102.154819
3874.000000	102.154149
3873.000000	102.153342
3872.000000	102.152514
3871.000000	102.151843
3870.000000	102.151482
3869.000000	102.151400
3868.000000	102.151363
3867.000000	102.151140
3866.000000	102.150658
3865.000000	102.150065
3864.000000	102.149673
3863.000000	102.149649
3862.000000	102.149893
3861.000000	102.150176
3860.000000	102.150333
3859.000000	102.150361
3858.000000	102.150368
3857.000000	102.150480
3856.000000	102.150721
3855.000000	102.150908
3854.000000	102.150850
3853.000000	102.150586
3852.000000	102.150329
3851.000000	102.150259
3850.000000	102.150400
3849.000000	102.150627
3848.000000	102.150767
3847.000000	102.150705
3846.000000	102.150445
3845.000000	102.150079
3844.000000	102.149720
3843.000000	102.149439
3842.000000	102.149263
3841.000000	102.149211
3840.000000	102.149312
3839.000000	102.149547
3838.000000	102.149786
3837.000000	102.149891
3836.000000	102.149895
3835.000000	102.149993
3834.000000	102.150383
3833.000000	102.151099
3832.000000	102.151968
3831.000000	102.152703
3830.000000	102.153066
3829.000000	102.152958
3828.000000	102.152410
3827.000000	102.151630
3826.000000	102.150997
3825.000000	102.150830
3824.000000	102.151172
3823.000000	102.151679
3822.000000	102.151808
3821.000000	102.151348
3820.000000	102.150534
3819.000000	102.149839
3818.000000	102.149601
3817.000000	102.149814
3816.000000	102.150115
3815.000000	102.150136
3814.000000	102.149853
3813.000000	102.149483
3812.000000	102.149211
3811.000000	102.149097
3810.000000	102.149128
3809.000000	102.149257
3808.000000	102.149382
3807.000000	102.149354
3806.000000	102.149068
3805.000000	102.148604
3804.000000	102.148342
3803.000000	102.148768
3802.000000	102.150200
3801.000000	102.152225
3800.000000	102.153790
3799.000000	102.154411
3798.000000	102.154467
3797.000000	102.154505
3796.000000	102.154745
3795.000000	102.155107
3794.000000	102.155619
3793.000000	102.156450
3792.000000	102.157491
3791.000000	102.158216
3790.000000	102.158219
3789.000000	102.157775
3788.000000	102.157724
3787.000000	102.158767
3786.000000	102.160798
3785.000000	102.162916
3784.000000	102.164173
3783.000000	102.164221
3782.000000	102.163093
3781.000000	102.160726
3780.000000	102.157156
3779.000000	102.153024
3778.000000	102.149523
3777.000000	102.147826
3776.000000	102.148694
3775.000000	102.152203
3774.000000	102.157865
3773.000000	102.164783
3772.000000	102.171356
3771.000000	102.175748
3770.000000	102.177140
3769.000000	102.176010
3768.000000	102.173390
3767.000000	102.170260
3766.000000	102.167201
3765.000000	102.164453
3764.000000	102.161980
3763.000000	102.159538
3762.000000	102.156678
3761.000000	102.153203
3760.000000	102.149994
3759.000000	102.148238
3758.000000	102.147997
3757.000000	102.148341
3756.000000	102.148407
3755.000000	102.147625
3754.000000	102.145360
3753.000000	102.141419
3752.000000	102.137320
3751.000000	102.135558
3750.000000	102.135841
3749.000000	102.135436
3748.000000	102.133483
3747.000000	102.131758
3746.000000	102.132372
3745.000000	102.135719
3744.000000	102.139407
3743.000000	102.141345
3742.000000	102.142388
3741.000000	102.143926
3740.000000	102.146222
3739.000000	102.148796
3738.000000	102.150577
3737.000000	102.150340
3736.000000	102.148152
3735.000000	102.145867
3734.000000	102.144933
3733.000000	102.144868
3732.000000	102.144025
3731.000000	102.141435
3730.000000	102.138049
3729.000000	102.135828
3728.000000	102.135698
3727.000000	102.136528
3726.000000	102.135976
3725.000000	102.132608
3724.000000	102.127356
3723.000000	102.123132
3722.000000	102.122530
3721.000000	102.125612
3720.000000	102.129900
3719.000000	102.132040
3718.000000	102.129918
3717.000000	102.123876
3716.000000	102.116268
3715.000000	102.109898
3714.000000	102.106240
3713.000000	102.104651
3712.000000	102.103298
3711.000000	102.100345
3710.000000	102.095207
3709.000000	102.089257
3708.000000	102.084384
3707.000000	102.081207
3706.000000	102.078746
3705.000000	102.075642
3704.000000	102.071581
3703.000000	102.067738
3702.000000	102.065526
3701.000000	102.064319
3700.000000	102.061780
3699.000000	102.056591
3698.000000	102.049551
3697.000000	102.042670
3696.000000	102.037706
3695.000000	102.034884
3694.000000	102.032504
3693.000000	102.027814
3692.000000	102.019058
3691.000000	102.007194
3690.000000	101.995466
3689.000000	101.986146
3688.000000	101.978893
3687.000000	101.973150
3686.000000	101.968754
3685.000000	101.964533
3684.000000	101.958831
3683.000000	101.951114
3682.000000	101.942524
3681.000000	101.934502
3680.000000	101.926921
3679.000000	101.917932
3678.000000	101.905436
3677.000000	101.889246
3676.000000	101.873337
3675.000000	101.861783
3674.000000	101.853567
3673.000000	101.846467
3672.000000	101.840551
3671.000000	101.836363
3670.000000	101.833273
3669.000000	101.828275
3668.000000	101.818360
3667.000000	101.804034
3666.000000	101.788141
3665.000000	101.772916
3664.000000	101.759009
3663.000000	101.746254
3662.000000	101.735002
3661.000000	101.726299
3660.000000	101.720689
3659.000000	101.717012
3658.000000	101.712253
3657.000000	101.703319
3656.000000	101.689351
3655.000000	101.672226
3654.000000	101.654804
3653.000000	101.638491
3652.000000	101.622971
3651.000000	101.608736
3650.000000	101.599418
3649.000000	101.597420
3648.000000	101.598385
3647.000000	101.595763
3646.000000	101.587753
3645.000000	101.576944
3644.000000	101.566454
3643.000000	101.557338
3642.000000	101.548807
3641.000000	101.539983
3640.000000	101.530830
3639.000000	101.521858
3638.000000	101.513677
3637.000000	101.507086
3636.000000	101.502630
3635.000000	101.499306
3634.000000	101.494308
3633.000000	101.485160
3632.000000	101.472263
3631.000000	101.459176
3630.000000	101.451018
3629.000000	101.451039
3628.000000	101.455038
3627.000000	101.455574
3626.000000	101.450654
3625.000000	101.441756
3624.000000	101.429905
3623.000000	101.416255
3622.000000	101.403747
3621.000000	101.397352
3620.000000	101.401595
3619.000000	101.415537
3618.000000	101.431092
3617.000000	101.440167
3616.000000	101.441476
3615.000000	101.439306
3614.000000	101.438745
3613.000000	101.441618
3612.000000	101.446097
3611.000000	101.450500
3610.000000	101.455935
3609.000000	101.464501
3608.000000	101.475618
3607.000000	101.485078
3606.000000	101.488885
3605.000000	101.487055
3604.000000	101.483079
3603.000000	101.481061
3602.000000	101.482900
3601.000000	101.486864
3600.000000	101.489072
3599.000000	101.487027
3598.000000	101.482134
3597.000000	101.478575
3596.000000	101.479495
3595.000000	101.484462
3594.000000	101.490553
3593.000000	101.495556
3592.000000	101.499662
3591.000000	101.503995
3590.000000	101.508525
3589.000000	101.512337
3588.000000	101.515263
3587.000000	101.516931
3586.000000	101.515358
3585.000000	101.509460
3584.000000	101.500921
3583.000000	101.492507
3582.000000	101.485414
3581.000000	101.478446
3580.000000	101.469759
3579.000000	101.459668
3578.000000	101.451485
3577.000000	101.448897
3576.000000	101.452184
3575.000000	101.457375
3574.000000	101.459512
3573.000000	101.456726
3572.000000	101.450808
3571.000000	101.444387
3570.000000	101.438490
3569.000000	101.432821
3568.000000	101.427663
3567.000000	101.423705
3566.000000	101.419930
3565.000000	101.414873
3564.000000	101.409365
3563.000000	101.405606
3562.000000	101.404448
3561.000000	101.404507
3560.000000	101.403622
3559.000000	101.400854
3558.000000	101.396825
3557.000000	101.392444
3556.000000	101.387813
3555.000000	101.382481
3554.000000	101.376575
3553.000000	101.371306
3552.000000	101.368004
3551.000000	101.366951
3550.000000	101.367338
3549.000000	101.367881
3548.000000	101.367370
3547.000000	101.365152
3546.000000	101.361526
3545.000000	101.357544
3544.000000	101.354134
3543.000000	101.351401
3542.000000	101.348825
3541.000000	101.345961
3540.000000	101.342912
3539.000000	101.340211
3538.000000	101.338251
3537.000000	101.336888
3536.000000	101.335567
3535.000000	101.333876
3534.000000	101.331853
3533.000000	101.329685
3532.000000	101.327337
3531.000000	101.324652
3530.000000	101.321739
3529.000000	101.319022
3528.000000	101.316812
3527.000000	101.314978
3526.000000	101.313112
3525.000000	101.310968
3524.000000	101.308665
3523.000000	101.306474
3522.000000	101.304515
3521.000000	101.302702
3520.000000	101.300882
3519.000000	101.298968
3518.000000	101.296964
3517.000000	101.294937
3516.000000	101.292949
3515.000000	101.291008
3514.000000	101.289072
3513.000000	101.287099
3512.000000	101.285083
3511.000000	101.283044
3510.000000	101.281009
3509.000000	101.279010
3508.000000	101.277063
3507.000000	101.275165
3506.000000	101.273291
3505.000000	101.271400
3504.000000	101.269467
3503.000000	101.267494
3502.000000	101.265500
3501.000000	101.263497
3500.000000	101.261487
3499.000000	101.259462
3498.000000	101.257414
3497.000000	101.255335
3496.000000	101.253218
3495.000000	101.251061
3494.000000	101.248867
3493.000000	101.246650
3492.000000	101.244429
3491.000000	101.242221
3490.000000	101.240034
3489.000000	101.237862
3488.000000	101.235696
3487.000000	101.233517
3486.000000	101.231307
3485.000000	101.229060
3484.000000	101.226781
3483.000000	101.224484
3482.000000	101.222176
3481.000000	101.219855
3480.000000	101.217512
3479.000000	101.215137
3478.000000	101.212725
3477.000000	101.210281
3476.000000	101.207813
3475.000000	101.205329
3474.000000	101.202837
3473.000000	101.200341
3472.000000	101.197836
3471.000000	101.195320
3470.000000	101.192788
3469.000000	101.190239
3468.000000	101.187673
3467.000000	101.185087
3466.000000	101.182476
3465.000000	101.179832
3464.000000	101.177154
3463.000000	101.174452
3462.000000	101.171739
3461.000000	101.169028
3460.000000	101.166323
3459.000000	101.163630
3458.000000	101.160953
3457.000000	101.158291
3456.000000	101.155624
3455.000000	101.152905
3454.000000	101.150086
3453.000000	101.147210
3452.000000	101.144464
3451.000000	101.142063
3450.000000	101.139959
3449.000000	101.137808
3448.000000	101.135260
3447.000000	101.132170
3446.000000	101.128544
3445.000000	101.124534
3444.000000	101.120569
3443.000000	101.117283
3442.000000	101.115053
3441.000000	101.113702
3440.000000	101.112779
3439.000000	101.111852
3438.000000	101.110484
3437.000000	101.108229
3436.000000	101.104939
3435.000000	101.101124
3434.000000	101.097755
3433.000000	101.095494
3432.000000	101.094192
3431.000000	101.093125
3430.000000	101.091698
3429.000000	101.089821
3428.000000	101.087659
3427.000000	101.085144
3426.000000	101.081889
3425.000000	101.077708
3424.000000	101.073254
3423.000000	101.069961
3422.000000	101.069013
3421.000000	101.070280
3420.000000	101.072250
3419.000000	101.073203
3418.000000	101.072462
3417.000000	101.070381
3416.000000	101.067536
3415.000000	101.064268
3414.000000	101.060894
3413.000000	101.057934
3412.000000	101.055888
3411.000000	101.054987
3410.000000	101.055323
3409.000000	101.056988
3408.000000	101.059850
3407.000000	101.063354
3406.000000	101.066676
3405.000000	101.068973
3404.000000	101.069487
3403.000000	101.067837
3402.000000	101.064686
3401.000000	101.062014
3400.000000	101.061932
3399.000000	101.064949
3398.000000	101.069429
3397.000000	101.072847
3396.000000	101.073889
3395.000000	101.073142
3394.000000	101.072135
3393.000000	101.071929
3392.000000	101.072460
3391.000000	101.072929
3390.000000	101.072628
3389.000000	101.071522
3388.000000	101.070238
3387.000000	101.069531
3386.000000	101.069720
3385.000000	101.070608
3384.000000	101.071900
3383.000000	101.073617
3382.000000	101.075996
3381.000000	101.079090
3380.000000	101.082568
3379.000000	101.085845
3378.000000	101.088398
3377.000000	101.090057
3376.000000	101.091026
3375.000000	101.091669
3374.000000	101.092233
3373.000000	101.092802
3372.000000	101.093495
3371.000000	101.094587
3370.000000	101.096317
3369.000000	101.098639
3368.000000	101.101210
3367.000000	101.103597
3366.000000	101.105492
3365.000000	101.106814
3364.000000	101.107742
3363.000000	101.108656
3362.000000	101.109946
3361.000000	101.111742
3360.000000	101.113821
3359.000000	101.115795
3358.000000	101.117406
3357.000000	101.118623
3356.000000	101.119614
3355.000000	101.120650
3354.000000	101.122001
3353.000000	101.123791
3352.000000	101.125873
3351.000000	101.127953
3350.000000	101.129829
3349.000000	101.131503
3348.000000	101.133045
3347.000000	101.134452
3346.000000	101.135722
3345.000000	101.136990
3344.000000	101.138490
3343.000000	101.140327
3342.000000	101.142409
3341.000000	101.144536
3340.000000	101.146527
3339.000000	101.148328
3338.000000	101.149970
3337.000000	101.151544
3336.000000	101.153156
3335.000000	101.154868
3334.000000	101.156688
3333.000000	101.158607
3332.000000	101.160633
3331.000000	101.162762
3330.000000	101.164941
3329.000000	101.167054
3328.000000	101.168993
3327.000000	101.170729
3326.000000	101.172346
3325.000000	101.173993
3324.000000	101.175784
3323.000000	101.177742
3322.000000	101.179836
3321.000000	101.182055
3320.000000	101.184399
3319.000000	101.186813
3318.000000	101.189192
3317.000000	101.191473
3316.000000	101.193669
3315.000000	101.195793
3314.000000	101.197802
3313.000000	101.199699
3312.000000	101.201608
3311.000000	101.203670
3310.000000	101.205906
3309.000000	101.208218
3308.000000	101.210538
3307.000000	101.212888
3306.000000	101.215274
3305.000000	101.217624
3304.000000	101.219863
3303.000000	101.222000
3302.000000	101.224119
3301.000000	101.226307
3300.000000	101.228596
3299.000000	101.230968
3298.000000	101.233382
3297.000000	101.235792
3296.000000	101.238159
3295.000000	101.240465
3294.000000	101.242718
3293.000000	101.244941
3292.000000	101.247163
3291.000000	101.249408
3290.000000	101.251682
3289.000000	101.253977
3288.000000	101.256278
3287.000000	101.258574
3286.000000	101.260860
3285.000000	101.263138
3284.000000	101.265411
3283.000000	101.267677
3282.000000	101.269932
3281.000000	101.272170
3280.000000	101.274387
3279.000000	101.276579
3278.000000	101.278741
3277.000000	101.280872
3276.000000	101.282974
3275.000000	101.285051
3274.000000	101.287110
3273.000000	101.289157
3272.000000	101.291199
3271.000000	101.293246
3270.000000	101.295296
3269.000000	101.297346
3268.000000	101.299386
3267.000000	101.301403
3266.000000	101.303387
3265.000000	101.305348
3264.000000	101.307319
3263.000000	101.309338
3262.000000	101.311430
3261.000000	101.313573
3260.000000	101.315692
3259.000000	101.317721
3258.000000	101.319686
3257.000000	101.321707
3256.000000	101.323889
3255.000000	101.326236
3254.000000	101.328688
3253.000000	101.331176
3252.000000	101.333549
3251.000000	101.335566
3250.000000	101.337092
3249.000000	101.338349
3248.000000	101.339810
3247.000000	101.341777
3246.000000	101.344175
3245.000000	101.346786
3244.000000	101.349559
3243.000000	101.352496
3242.000000	101.355360
3241.000000	101.357709
3240.000000	101.359243
3239.000000	101.360027
3238.000000	101.360447
3237.000000	101.361059
3236.000000	101.362418
3235.000000	101.364851
3234.000000	101.368227
3233.000000	101.371914
3232.000000	101.375164
3231.000000	101.377686
3230.000000	101.379921
3229.000000	101.382663
3228.000000	101.386258
3227.000000	101.390197
3226.000000	101.393718
3225.000000	101.396738
3224.000000	101.399904
3223.000000	101.403635
3222.000000	101.407446
3221.000000	101.410479
3220.000000	101.412531
3219.000000	101.414232
3218.000000	101.416342
3217.000000	101.419147
3216.000000	101.422455
3215.000000	101.425780
3214.000000	101.428497
3213.000000	101.430230
3212.000000	101.431286
3211.000000	101.432578
3210.000000	101.434832
3209.000000	101.437954
3208.000000	101.441209
3207.000000	101.443996
3206.000000	101.446424
3205.000000	101.449093
3204.000000	101.452443
3203.000000	101.456356
3202.000000	101.460293
3201.000000	101.463724
3200.000000	101.466527
3199.000000	101.468966
3198.000000	101.471410
3197.000000	101.474040
3196.000000	101.476805
3195.000000	101.479607
3194.000000	101.482414
3193.000000	101.485237
3192.000000	101.488065
3191.000000	101.490857
3190.000000	101.493572
3189.000000	101.496214
3188.000000	101.498856
3187.000000	101.501574
3186.000000	101.504382
3185.000000	101.507224
3184.000000	101.510014
3183.000000	101.512717
3182.000000	101.515371
3181.000000	101.518036
3180.000000	101.520743
3179.000000	101.523500
3178.000000	101.526306
3177.000000	101.529136
3176.000000	101.531921
3175.000000	101.534588
3174.000000	101.537158
3173.000000	101.539763
3172.000000	101.542518
3171.000000	101.545410
3170.000000	101.548344
3169.000000	101.551280
3168.000000	101.554262
3167.000000	101.557263
3166.000000	101.560112
3165.000000	101.562654
3164.000000	101.564966
3163.000000	101.567387
3162.000000	101.570234
3161.000000	101.573508
3160.000000	101.576859
3159.000000	101.579878
3158.000000	101.582436
3157.000000	101.584587
3156.000000	101.586446
3155.000000	101.588156
3154.000000	101.589898
3153.000000	101.591902
3152.000000	101.594328
3151.000000	101.597140
3150.000000	101.600134
3149.000000	101.603110
3148.000000	101.606007
3147.000000	101.608851
3146.000000	101.611653
3145.000000	101.614371
3144.000000	101.616943
3143.000000	101.619336
3142.000000	101.621576
3141.000000	101.623755
3140.000000	101.625989
3139.000000	101.628344
3138.000000	101.630778
3137.000000	101.633199
3136.000000	101.635547
3135.000000	101.637827
3134.000000	101.640060
3133.000000	101.642263
3132.000000	101.644471
3131.000000	101.646744
3130.000000	101.649130
3129.000000	101.651592
3128.000000	101.653998
3127.000000	101.656232
3126.000000	101.658287
3125.000000	101.660253
3124.000000	101.662218
3123.000000	101.664210
3122.000000	101.666289
3121.000000	101.668624
3120.000000	101.671354
3119.000000	101.674353
3118.000000	101.677161
3117.000000	101.679351
3116.000000	101.680857
3115.000000	101.682125
3114.000000	101.683800
3113.000000	101.686157
3112.000000	101.688998
3111.000000	101.691950
3110.000000	101.694824
3109.000000	101.697578
3108.000000	101.700142
3107.000000	101.702466
3106.000000	101.704663
3105.000000	101.706919
3104.000000	101.709202
3103.000000	101.711229
3102.000000	101.712812
3101.000000	101.714136
3100.000000	101.715536
3099.000000	101.717068
3098.000000	101.718522
3097.000000	101.719949
3096.000000	101.721896
3095.000000	101.724909
3094.000000	101.728889
3093.000000	101.733078
3092.000000	101.736686
3091.000000	101.739370
3090.000000	101.741137
3089.000000	101.742123
3088.000000	101.742634
3087.000000	101.743176
3086.000000	101.744152
3085.000000	101.745542
3084.000000	101.747013
3083.000000	101.748342
3082.000000	101.749592
3081.000000	101.750867
3080.000000	101.752043
3079.000000	101.752819
3078.000000	101.753085
3077.000000	101.753212
3076.000000	101.753904
3075.000000	101.755592
3074.000000	101.757907
3073.000000	101.759846
3072.000000	101.760575
3071.000000	101.759998
3070.000000	101.758727
3069.000000	101.757595
3068.000000	101.757211
3067.000000	101.757803
3066.000000	101.759101
3065.000000	101.760353
3064.000000	101.760806
3063.000000	101.760464
3062.000000	101.760302
3061.000000	101.761424
3060.000000	101.763899
3059.000000	101.766497
3058.000000	101.767718
3057.000000	101.767115
3056.000000	101.765585
3055.000000	101.764579
3054.000000	101.765010
3053.000000	101.766879
3052.000000	101.769519
3051.000000	101.772002
3050.000000	101.773557
3049.000000	101.773895
3048.000000	101.773339
3047.000000	101.772600
3046.000000	101.772302
3045.000000	101.772618
3044.000000	101.773263
3043.000000	101.773873
3042.000000	101.774463
3041.000000	101.775429
3040.000000	101.776908
3039.000000	101.778201
3038.000000	101.778158
3037.000000	101.776311
3036.000000	101.773516
3035.000000	101.771401
3034.000000	101.771224
3033.000000	101.773186
3032.000000	101.776531
3031.000000	101.780151
3030.000000	101.783328
3029.000000	101.786035
3028.000000	101.788287
3027.000000	101.789346
3026.000000	101.788232
3025.000000	101.785232
3024.000000	101.782102
3023.000000	101.780046
3022.000000	101.778206
3021.000000	101.775144
3020.000000	101.771290
3019.000000	101.768629
3018.000000	101.767994
3017.000000	101.767992
3016.000000	101.766988
3015.000000	101.764947
3014.000000	101.762544
3013.000000	101.759374
3012.000000	101.754204
3011.000000	101.746713
3010.000000	101.738028
3009.000000	101.729691
3008.000000	101.722880
3007.000000	101.718469
3006.000000	101.716799
3005.000000	101.716994
3004.000000	101.717199
3003.000000	101.716045
3002.000000	101.713503
3001.000000	101.709987
3000.000000	101.705268
2999.000000	101.699242
2998.000000	101.693523
2997.000000	101.690915
2996.000000	101.692559
2995.000000	101.696099
2994.000000	101.697437
2993.000000	101.694040
2992.000000	101.686076
2991.000000	101.674999
2990.000000	101.662200
2989.000000	101.649092
2988.000000	101.637061
2987.000000	101.626126
2986.000000	101.614201
2985.000000	101.598947
2984.000000	101.580579
2983.000000	101.562120
2982.000000	101.546484
2981.000000	101.533733
2980.000000	101.521454
2979.000000	101.507460
2978.000000	101.491711
2977.000000	101.475787
2976.000000	101.461092
2975.000000	101.447936
2974.000000	101.436198
2973.000000	101.426093
2972.000000	101.417466
2971.000000	101.408404
2970.000000	101.395609
2969.000000	101.377075
2968.000000	101.353961
2967.000000	101.329026
2966.000000	101.303569
2965.000000	101.277305
2964.000000	101.251200
2963.000000	101.228420
2962.000000	101.210979
2961.000000	101.196333
2960.000000	101.179388
2959.000000	101.158384
2958.000000	101.137622
2957.000000	101.123591
2956.000000	101.119131
2955.000000	101.122120
2954.000000	101.128964
2953.000000	101.137631
2952.000000	101.146874
2951.000000	101.154147
2950.000000	101.155999
2949.000000	101.150545
2948.000000	101.138451
2947.000000	101.121307
2946.000000	101.099820
2945.000000	101.073713
2944.000000	101.042206
2943.000000	101.003995
2942.000000	100.957845
2941.000000	100.904360
2940.000000	100.846581
2939.000000	100.787496
2938.000000	100.726997
2937.000000	100.662415
2936.000000	100.592340
2935.000000	100.519198
2934.000000	100.447913
2933.000000	100.382674
2932.000000	100.324860
2931.000000	100.273088
2930.000000	100.224848
2929.000000	100.178964
2928.000000	100.137334
2927.000000	100.104349
2926.000000	100.084757
2925.000000	100.082202
2924.000000	100.098923
2923.000000	100.135052
2922.000000	100.187557
2921.000000	100.251112
2920.000000	100.321105
2919.000000	100.395483
2918.000000	100.473471
2917.000000	100.553570
2916.000000	100.633645
2915.000000	100.712105
2914.000000	100.787891
2913.000000	100.859534
2912.000000	100.924974
2911.000000	100.982251
2910.000000	101.030338
2909.000000	101.070086
2908.000000	101.104530
2907.000000	101.137068
2906.000000	101.168421
2905.000000	101.196162
2904.000000	101.218055
2903.000000	101.235253
2902.000000	101.251319
2901.000000	101.269330
2900.000000	101.290604
2899.000000	101.314984
2898.000000	101.340729
2897.000000	101.364674
2896.000000	101.384511
2895.000000	101.400946
2894.000000	101.416309
2893.000000	101.431348
2892.000000	101.445201
2891.000000	101.458397
2890.000000	101.473725
2889.000000	101.493178
2888.000000	101.515360
2887.000000	101.536673
2886.000000	101.553923
2885.000000	101.565341
2884.000000	101.570714
2883.000000	101.571948
2882.000000	101.572516
2881.000000	101.574609
2880.000000	101.576861
2879.000000	101.575696
2878.000000	101.568817
2877.000000	101.556981
2876.000000	101.542974
2875.000000	101.529628
2874.000000	101.518379
2873.000000	101.508734
2872.000000	101.499221
2871.000000	101.489428
2870.000000	101.480671
2869.000000	101.473798
2868.000000	101.466836
2867.000000	101.456134
2866.000000	101.439829
2865.000000	101.418700
2864.000000	101.393124
2863.000000	101.360773
2862.000000	101.318983
2861.000000	101.268980
2860.000000	101.216283
2859.000000	101.166648
2858.000000	101.122543
2857.000000	101.084022
2856.000000	101.051982
2855.000000	101.029621
2854.000000	101.021042
2853.000000	101.029354
2852.000000	101.056117
2851.000000	101.101206
2850.000000	101.162099
2849.000000	101.233619
2848.000000	101.309559
2847.000000	101.385115
2846.000000	101.457672
2845.000000	101.525628
2844.000000	101.587205
2843.000000	101.640275
2842.000000	101.682862
2841.000000	101.714350
2840.000000	101.737189
2839.000000	101.756968
2838.000000	101.778916
2837.000000	101.803453
2836.000000	101.826400
2835.000000	101.844352
2834.000000	101.858617
2833.000000	101.872762
2832.000000	101.887454
2831.000000	101.899796
2830.000000	101.907649
2829.000000	101.912655
2828.000000	101.918246
2827.000000	101.925779
2826.000000	101.933586
2825.000000	101.939252
2824.000000	101.942086
2823.000000	101.943624
2822.000000	101.946205
2821.000000	101.950967
2820.000000	101.957038
2819.000000	101.962696
2818.000000	101.967086
2817.000000	101.970387
2816.000000	101.972758
2815.000000	101.974273
2814.000000	101.975985
2813.000000	101.979838
2812.000000	101.986719
2811.000000	101.995339
2810.000000	102.003715
2809.000000	102.011043
2808.000000	102.017307
2807.000000	102.021742
2806.000000	102.023124
2805.000000	102.021638
2804.000000	102.019417
2803.000000	102.018815
2802.000000	102.020612
2801.000000	102.024093
2800.000000	102.028296
2799.000000	102.032975
2798.000000	102.038719
2797.000000	102.046197
2796.000000	102.054757
2795.000000	102.061637
2794.000000	102.063466
2793.000000	102.059327
2792.000000	102.052272
2791.000000	102.047099
2790.000000	102.046197
2789.000000	102.047979
2788.000000	102.049542
2787.000000	102.050336
2786.000000	102.052363
2785.000000	102.056841
2784.000000	102.061877
2783.000000	102.064364
2782.000000	102.063568
2781.000000	102.061677
2780.000000	102.061074
2779.000000	102.062193
2778.000000	102.064162
2777.000000	102.066340
2776.000000	102.068523
2775.000000	102.070393
2774.000000	102.071701
2773.000000	102.072799
2772.000000	102.074290
2771.000000	102.076075
2770.000000	102.077275
2769.000000	102.077326
2768.000000	102.076723
2767.000000	102.076487
2766.000000	102.077174
2765.000000	102.078549
2764.000000	102.079951
2763.000000	102.080735
2762.000000	102.080607
2761.000000	102.079841
2760.000000	102.079162
2759.000000	102.079135
2758.000000	102.079654
2757.000000	102.080148
2756.000000	102.080235
2755.000000	102.080107
2754.000000	102.080262
2753.000000	102.080954
2752.000000	102.081969
2751.000000	102.082816
2750.000000	102.083160
2749.000000	102.083107
2748.000000	102.083121
2747.000000	102.083568
2746.000000	102.084316
2745.000000	102.084849
2744.000000	102.084757
2743.000000	102.084069
2742.000000	102.083251
2741.000000	102.082901
2740.000000	102.083359
2739.000000	102.084511
2738.000000	102.085869
2737.000000	102.086978
2736.000000	102.087742
2735.000000	102.088318
2734.000000	102.088832
2733.000000	102.089286
2732.000000	102.089699
2731.000000	102.090163
2730.000000	102.090711
2729.000000	102.091265
2728.000000	102.091766
2727.000000	102.092246
2726.000000	102.092704
2725.000000	102.093035
2724.000000	102.093187
2723.000000	102.093360
2722.000000	102.093868
2721.000000	102.094788
2720.000000	102.095823
2719.000000	102.096582
2718.000000	102.096972
2717.000000	102.097199
2716.000000	102.097427
2715.000000	102.097579
2714.000000	102.097580
2713.000000	102.097652
2712.000000	102.098176
2711.000000	102.099292
2710.000000	102.100715
2709.000000	102.101944
2708.000000	102.102639
2707.000000	102.102757
2706.000000	102.102473
2705.000000	102.102063
2704.000000	102.101815
2703.000000	102.101869
2702.000000	102.102118
2701.000000	102.102312
2700.000000	102.102322
2699.000000	102.102250
2698.000000	102.102269
2697.000000	102.102438
2696.000000	102.102680
2695.000000	102.102920
2694.000000	102.103159
2693.000000	102.103419
2692.000000	102.103662
2691.000000	102.103794
2690.000000	102.103772
2689.000000	102.103706
2688.000000	102.103816
2687.000000	102.104257
2686.000000	102.104964
2685.000000	102.105682
2684.000000	102.106128
2683.000000	102.106177
2682.000000	102.105901
2681.000000	102.105454
2680.000000	102.104930
2679.000000	102.104334
2678.000000	102.103727
2677.000000	102.103301
2676.000000	102.103244
2675.000000	102.103522
2674.000000	102.103851
2673.000000	102.103947
2672.000000	102.103795
2671.000000	102.103617
2670.000000	102.103628
2669.000000	102.103833
2668.000000	102.104081
2667.000000	102.104234
2666.000000	102.104265
2665.000000	102.104218
2664.000000	102.104155
2663.000000	102.104117
2662.000000	102.104123
2661.000000	102.104173
2660.000000	102.104258
2659.000000	102.104366
2658.000000	102.104486
2657.000000	102.104612
2656.000000	102.104746
2655.000000	102.104891
2654.000000	102.105040
2653.000000	102.105177
2652.000000	102.105290
2651.000000	102.105381
2650.000000	102.105466
2649.000000	102.105562
2648.000000	102.105678
2647.000000	102.105806
2646.000000	102.105925
2645.000000	102.106017
2644.000000	102.106076
2643.000000	102.106125
2642.000000	102.106213
2641.000000	102.106374
2640.000000	102.106611
2639.000000	102.106897
2638.000000	102.107203
2637.000000	102.107502
2636.000000	102.107762
2635.000000	102.107965
2634.000000	102.108122
2633.000000	102.108286
2632.000000	102.108522
2631.000000	102.108867
2630.000000	102.109320
2629.000000	102.109828
2628.000000	102.110302
2627.000000	102.110660
2626.000000	102.110884
2625.000000	102.111056
2624.000000	102.111299
2623.000000	102.111676
2622.000000	102.112174
2621.000000	102.112760
2620.000000	102.113384
2619.000000	102.113961
2618.000000	102.114417
2617.000000	102.114739
2616.000000	102.114937
2615.000000	102.114994
2614.000000	102.114931
2613.000000	102.114886
2612.000000	102.114972
2611.000000	102.115132
2610.000000	102.115232
2609.000000	102.115322
2608.000000	102.115616
2607.000000	102.116162
2606.000000	102.116705
2605.000000	102.116979
2604.000000	102.117041
2603.000000	102.117178
2602.000000	102.117546
2601.000000	102.118037
2600.000000	102.118508
2599.000000	102.118965
2598.000000	102.119457
2597.000000	102.119938
2596.000000	102.120333
2595.000000	102.120683
2594.000000	102.121148
2593.000000	102.121820
2592.000000	102.122543
2591.000000	102.123016
2590.000000	102.123104
2589.000000	102.122950
2588.000000	102.122847
2587.000000	102.122932
2586.000000	102.123136
2585.000000	102.123360
2584.000000	102.123563
2583.000000	102.123752
2582.000000	102.123936
2581.000000	102.124126
2580.000000	102.124327
2579.000000	102.124524
2578.000000	102.124696
2577.000000	102.124846
2576.000000	102.125004
2575.000000	102.125192
2574.000000	102.125416
2573.000000	102.125670
2572.000000	102.125944
2571.000000	102.126228
2570.000000	102.126517
2569.000000	102.126809
2568.000000	102.127104
2567.000000	102.127401
2566.000000	102.127698
2565.000000	102.127987
2564.000000	102.128263
2563.000000	102.128521
2562.000000	102.128763
2561.000000	102.128992
2560.000000	102.129214
2559.000000	102.129432
2558.000000	102.129648
2557.000000	102.129862
2556.000000	102.130063
2555.000000	102.130237
2554.000000	102.130377
2553.000000	102.130491
2552.000000	102.130593
2551.000000	102.130704
2550.000000	102.130836
2549.000000	102.130998
2548.000000	102.131182
2547.000000	102.131364
2546.000000	102.131508
2545.000000	102.131591
2544.000000	102.131649
2543.000000	102.131758
2542.000000	102.131964
2541.000000	102.132243
2540.000000	102.132522
2539.000000	102.132756
2538.000000	102.132937
2537.000000	102.133077
2536.000000	102.133220
2535.000000	102.133465
2534.000000	102.133915
2533.000000	102.134541
2532.000000	102.135129
2531.000000	102.135442
2530.000000	102.135452
2529.000000	102.135393
2528.000000	102.135558
2527.000000	102.136037
2526.000000	102.136669
2525.000000	102.137186
2524.000000	102.137391
2523.000000	102.137210
2522.000000	102.136686
2521.000000	102.135965
2520.000000	102.135276
2519.000000	102.134860
2518.000000	102.134892
2517.000000	102.135426
2516.000000	102.136319
2515.000000	102.137259
2514.000000	102.137980
2513.000000	102.138449
2512.000000	102.138752
2511.000000	102.138801
2510.000000	102.138322
2509.000000	102.137284
2508.000000	102.136250
2507.000000	102.135992
2506.000000	102.136711
2505.000000	102.137789
2504.000000	102.138341
2503.000000	102.138052
2502.000000	102.137463
2501.000000	102.137495
2500.000000	102.138652
2499.000000	102.140611
2498.000000	102.142539
2497.000000	102.143852
2496.000000	102.144547
2495.000000	102.144840
2494.000000	102.144769
2493.000000	102.144409
2492.000000	102.144291
2491.000000	102.145109
2490.000000	102.146910
2489.000000	102.148850
2488.000000	102.149999
2487.000000	102.150210
2486.000000	102.150029
2485.000000	102.149974
2484.000000	102.150118
2483.000000	102.150251
2482.000000	102.150134
2481.000000	102.149537
2480.000000	102.148289
2479.000000	102.146503
2478.000000	102.144737
2477.000000	102.143743
2476.000000	102.143882
2475.000000	102.144839
2474.000000	102.146063
2473.000000	102.147514
2472.000000	102.149690
2471.000000	102.152791
2470.000000	102.156074
2469.000000	102.158269
2468.000000	102.158649
2467.000000	102.157526
2466.000000	102.155935
2465.000000	102.154861
2464.000000	102.154643
2463.000000	102.154937
2462.000000	102.155270
2461.000000	102.155703
2460.000000	102.156812
2459.000000	102.158864
2458.000000	102.161248
2457.000000	102.162993
2456.000000	102.163731
2455.000000	102.163781
2454.000000	102.163492
2453.000000	102.163025
2452.000000	102.162678
2451.000000	102.162848
2450.000000	102.163473
2449.000000	102.163985
2448.000000	102.163995
2447.000000	102.163668
2446.000000	102.163203
2445.000000	102.162371
2444.000000	102.160892
2443.000000	102.159029
2442.000000	102.157590
2441.000000	102.157353
2440.000000	102.158541
2439.000000	102.160639
2438.000000	102.162647
2437.000000	102.163874
2436.000000	102.164518
2435.000000	102.165179
2434.000000	102.165915
2433.000000	102.166235
2432.000000	102.166072
2431.000000	102.166161
2430.000000	102.167151
2429.000000	102.168729
2428.000000	102.170017
2427.000000	102.170606
2426.000000	102.170708
2425.000000	102.170515
2424.000000	102.169982
2423.000000	102.169198
2422.000000	102.168458
2421.000000	102.167930
2420.000000	102.167577
2419.000000	102.167422
2418.000000	102.167557
2417.000000	102.167902
2416.000000	102.168258
2415.000000	102.168624
2414.000000	102.169199
2413.000000	102.170021
2412.000000	102.170800
2411.000000	102.171236
2410.000000	102.171296
2409.000000	102.171136
2408.000000	102.170950
2407.000000	102.170926
2406.000000	102.171203
2405.000000	102.171748
2404.000000	102.172344
2403.000000	102.172773
2402.000000	102.173029
2401.000000	102.173278
2400.000000	102.173670
2399.000000	102.174222
2398.000000	102.174855
2397.000000	102.175441
2396.000000	102.175901
2395.000000	102.176258
2394.000000	102.176617
2393.000000	102.177059
2392.000000	102.177561
2391.000000	102.178033
2390.000000	102.178430
2389.000000	102.178786
2388.000000	102.179152
2387.000000	102.179552
2386.000000	102.180002
2385.000000	102.180519
2384.000000	102.181091
2383.000000	102.181673
2382.000000	102.182217
2381.000000	102.182723
2380.000000	102.183225
2379.000000	102.183741
2378.000000	102.184269
2377.000000	102.184796
2376.000000	102.185310
2375.000000	102.185798
2374.000000	102.186242
2373.000000	102.186640
2372.000000	102.187003
2371.000000	102.187341
2370.000000	102.187664
2369.000000	102.187974
2368.000000	102.188273
2367.000000	102.188557
2366.000000	102.188826
2365.000000	102.189076
2364.000000	102.189306
2363.000000	102.189513
2362.000000	102.189692
2361.000000	102.189838
2360.000000	102.189946
2359.000000	102.190014
2358.000000	102.190045
2357.000000	102.190047
2356.000000	102.190033
2355.000000	102.190006
2354.000000	102.189960
2353.000000	102.189879
2352.000000	102.189749
2351.000000	102.189564
2350.000000	102.189334
2349.000000	102.189076
2348.000000	102.188802
2347.000000	102.188514
2346.000000	102.188207
2345.000000	102.187875
2344.000000	102.187510
2343.000000	102.187111
2342.000000	102.186681
2341.000000	102.186229
2340.000000	102.185768
2339.000000	102.185297
2338.000000	102.184802
2337.000000	102.184267
2336.000000	102.183680
2335.000000	102.183049
2334.000000	102.182393
2333.000000	102.181729
2332.000000	102.181062
2331.000000	102.180389
2330.000000	102.179713
2329.000000	102.179032
2328.000000	102.178351
2327.000000	102.177675
2326.000000	102.177009
2325.000000	102.176344
2324.000000	102.175667
2323.000000	102.174990
2322.000000	102.174317
2321.000000	102.173612
2320.000000	102.172800
2319.000000	102.171879
2318.000000	102.170967
2317.000000	102.170207
2316.000000	102.169625
2315.000000	102.169114
2314.000000	102.168552
2313.000000	102.167874
2312.000000	102.167101
2311.000000	102.166333
2310.000000	102.165738
2309.000000	102.165403
2308.000000	102.165242
2307.000000	102.165067
2306.000000	102.164733
2305.000000	102.164178
2304.000000	102.163401
2303.000000	102.162490
2302.000000	102.161649
2301.000000	102.161100
2300.000000	102.160891
2299.000000	102.160806
2298.000000	102.160509
2297.000000	102.159808
2296.000000	102.158846
2295.000000	102.158000
2294.000000	102.157598
2293.000000	102.157641
2292.000000	102.157794
2291.000000	102.157697
2290.000000	102.157307
2289.000000	102.156847
2288.000000	102.156455
2287.000000	102.156041
2286.000000	102.155528
2285.000000	102.155032
2284.000000	102.154676
2283.000000	102.154359
2282.000000	102.153867
2281.000000	102.153137
2280.000000	102.152245
2279.000000	102.151246
2278.000000	102.150169
2277.000000	102.149161
2276.000000	102.148438
2275.000000	102.148093
2274.000000	102.147998
2273.000000	102.147924
2272.000000	102.147732
2271.000000	102.147434
2270.000000	102.147169
2269.000000	102.147053
2268.000000	102.147006
2267.000000	102.146782
2266.000000	102.146232
2265.000000	102.145510
2264.000000	102.144963
2263.000000	102.144772
2262.000000	102.144793
2261.000000	102.144730
2260.000000	102.144434
2259.000000	102.143944
2258.000000	102.143335
2257.000000	102.142653
2256.000000	102.141974
2255.000000	102.141416
2254.000000	102.141049
2253.000000	102.140848
2252.000000	102.140704
2251.000000	102.140471
2250.000000	102.140035
2249.000000	102.139405
2248.000000	102.138744
2247.000000	102.138273
2246.000000	102.138093
2245.000000	102.138153
2244.000000	102.138327
2243.000000	102.138500
2242.000000	102.138601
2241.000000	102.138579
2240.000000	102.138403
2239.000000	102.138087
2238.000000	102.137706
2237.000000	102.137390
2236.000000	102.137261
2235.000000	102.137336
2234.000000	102.137482
2233.000000	102.137495
2232.000000	102.137278
2231.000000	102.136917
2230.000000	102.136602
2229.000000	102.136436
2228.000000	102.136332
2227.000000	102.136118
2226.000000	102.135739
2225.000000	102.135336
2224.000000	102.135116
2223.000000	102.135158
2222.000000	102.135397
2221.000000	102.135722
2220.000000	102.136033
2219.000000	102.136243
2218.000000	102.136304
2217.000000	102.136251
2216.000000	102.136187
2215.000000	102.136190
2214.000000	102.136238
2213.000000	102.136256
2212.000000	102.136204
2211.000000	102.136114
2210.000000	102.136056
2209.000000	102.136081
2208.000000	102.136186
2207.000000	102.136323
2206.000000	102.136432
2205.000000	102.136481
2204.000000	102.136479
2203.000000	102.136458
2202.000000	102.136447
2201.000000	102.136448
2200.000000	102.136438
2199.000000	102.136404
2198.000000	102.136361
2197.000000	102.136347
2196.000000	102.136383
2195.000000	102.136451
2194.000000	102.136498
2193.000000	102.136487
2192.000000	102.136427
2191.000000	102.136388
2190.000000	102.136433
2189.000000	102.136563
2188.000000	102.136710
2187.000000	102.136811
2186.000000	102.136875
2185.000000	102.136966
2184.000000	102.137115
2183.000000	102.137256
2182.000000	102.137284
2181.000000	102.137172
2180.000000	102.137037
2179.000000	102.137040
2178.000000	102.137211
2177.000000	102.137439
2176.000000	102.137631
2175.000000	102.137769
2174.000000	102.137822
2173.000000	102.137740
2172.000000	102.137598
2171.000000	102.137601
2170.000000	102.137873
2169.000000	102.138331
2168.000000	102.138828
2167.000000	102.139319
2166.000000	102.139823
2165.000000	102.140318
2164.000000	102.140763
2163.000000	102.141151
2162.000000	102.141488
2161.000000	102.141770
2160.000000	102.141986
2159.000000	102.142122
2158.000000	102.142135
2157.000000	102.142000
2156.000000	102.141778
2155.000000	102.141553
2154.000000	102.141337
2153.000000	102.141141
2152.000000	102.141119
2151.000000	102.141469
2150.000000	102.142171
2149.000000	102.142943
2148.000000	102.143521
2147.000000	102.143888
2146.000000	102.144176
2145.000000	102.144453
2144.000000	102.144649
2143.000000	102.144670
2142.000000	102.144551
2141.000000	102.144515
2140.000000	102.144818
2139.000000	102.145494
2138.000000	102.146302
2137.000000	102.146930
2136.000000	102.147307
2135.000000	102.147582
2134.000000	102.147916
2133.000000	102.148312
2132.000000	102.148675
2131.000000	102.148958
2130.000000	102.149217
2129.000000	102.149534
2128.000000	102.149939
2127.000000	102.150398
2126.000000	102.150862
2125.000000	102.151303
2124.000000	102.151727
2123.000000	102.152145
2122.000000	102.152552
2121.000000	102.152935
2120.000000	102.153299
2119.000000	102.153665
2118.000000	102.154053
2117.000000	102.154469
2116.000000	102.154907
2115.000000	102.155360
2114.000000	102.155818
2113.000000	102.156279
2112.000000	102.156744
2111.000000	102.157222
2110.000000	102.157712
2109.000000	102.158208
2108.000000	102.158703
2107.000000	102.159193
2106.000000	102.159681
2105.000000	102.160174
2104.000000	102.160677
2103.000000	102.161186
2102.000000	102.161692
2101.000000	102.162188
2100.000000	102.162667
2099.000000	102.163125
2098.000000	102.163559
2097.000000	102.163981
2096.000000	102.164416
2095.000000	102.164893
2094.000000	102.165396
2093.000000	102.165856
2092.000000	102.166215
2091.000000	102.166472
2090.000000	102.166698
2089.000000	102.166996
2088.000000	102.167445
2087.000000	102.168070
2086.000000	102.168818
2085.000000	102.169551
2084.000000	102.170119
2083.000000	102.170456
2082.000000	102.170593
2081.000000	102.170625
2080.000000	102.170688
2079.000000	102.170871
2078.000000	102.171092
2077.000000	102.171133
2076.000000	102.170927
2075.000000	102.170702
2074.000000	102.170709
2073.000000	102.170908
2072.000000	102.171144
2071.000000	102.171551
2070.000000	102.172403
2069.000000	102.173528
2068.000000	102.174246
2067.000000	102.174137
2066.000000	102.173581
2065.000000	102.173328
2064.000000	102.173615
2063.000000	102.174034
2062.000000	102.174202
2061.000000	102.174134
2060.000000	102.173926
2059.000000	102.173402
2058.000000	102.172358
2057.000000	102.171028
2056.000000	102.170087
2055.000000	102.170033
2054.000000	102.170760
2053.000000	102.171740
2052.000000	102.172590
2051.000000	102.173333
2050.000000	102.174070
2049.000000	102.174643
2048.000000	102.174812
2047.000000	102.174563
2046.000000	102.174025
2045.000000	102.173188
2044.000000	102.171975
2043.000000	102.170601
2042.000000	102.169621
2041.000000	102.169433
2040.000000	102.169866
2039.000000	102.170305
2038.000000	102.170234
2037.000000	102.169607
2036.000000	102.168793
2035.000000	102.168198
2034.000000	102.167888
2033.000000	102.167576
2032.000000	102.166995
2031.000000	102.166247
2030.000000	102.165704
2029.000000	102.165542
2028.000000	102.165486
2027.000000	102.165097
2026.000000	102.164227
2025.000000	102.163096
2024.000000	102.162001
2023.000000	102.161102
2022.000000	102.160454
2021.000000	102.160121
2020.000000	102.160115
2019.000000	102.160242
2018.000000	102.160101
2017.000000	102.159363
2016.000000	102.158091
2015.000000	102.156773
2014.000000	102.155922
2013.000000	102.155630
2012.000000	102.155527
2011.000000	102.155127
2010.000000	102.154261
2009.000000	102.153163
2008.000000	102.152217
2007.000000	102.151646
2006.000000	102.151410
2005.000000	102.151284
2004.000000	102.151002
2003.000000	102.150434
2002.000000	102.149715
2001.000000	102.149210
2000.000000	102.149201
1999.000000	102.149572
1998.000000	102.149903
1997.000000	102.149920
1996.000000	102.149755
1995.000000	102.149761
1994.000000	102.150140
1993.000000	102.150746
1992.000000	102.151175
1991.000000	102.151091
1990.000000	102.150470
1989.000000	102.149593
1988.000000	102.148860
1987.000000	102.148535
1986.000000	102.148631
1985.000000	102.148999
1984.000000	102.149488
1983.000000	102.149952
1982.000000	102.150155
1981.000000	102.149848
1980.000000	102.149043
1979.000000	102.148142
1978.000000	102.147659
1977.000000	102.147732
1976.000000	102.148025
1975.000000	102.148101
1974.000000	102.147855
1973.000000	102.147490
1972.000000	102.147173
1971.000000	102.146876
1970.000000	102.146549
1969.000000	102.146309
1968.000000	102.146397
1967.000000	102.146966
1966.000000	102.147932
1965.000000	102.149006
1964.000000	102.149861
1963.000000	102.150280
1962.000000	102.150165
1961.000000	102.149481
1960.000000	102.148275
1959.000000	102.146828
1958.000000	102.145674
1957.000000	102.145280
1956.000000	102.145705
1955.000000	102.146561
1954.000000	102.147342
1953.000000	102.147803
1952.000000	102.148002
1951.000000	102.148177
1950.000000	102.148534
1949.000000	102.149045
1948.000000	102.149399
1947.000000	102.149218
1946.000000	102.148397
1945.000000	102.147224
1944.000000	102.146199
1943.000000	102.145754
1942.000000	102.145993
1941.000000	102.146608
1940.000000	102.147113
1939.000000	102.147239
1938.000000	102.147084
1937.000000	102.146840
1936.000000	102.146445
1935.000000	102.145673
1934.000000	102.144590
1933.000000	102.143624
1932.000000	102.143188
1931.000000	102.143337
1930.000000	102.143691
1929.000000	102.143781
1928.000000	102.143429
1927.000000	102.142913
1926.000000	102.142761
1925.000000	102.143218
1924.000000	102.144055
1923.000000	102.144798
1922.000000	102.145147
1921.000000	102.145100
1920.000000	102.144644
1919.000000	102.143584
1918.000000	102.141785
1917.000000	102.139301
1916.000000	102.136236
1915.000000	102.132784
1914.000000	102.129735
1913.000000	102.128294
1912.000000	102.128856
1911.000000	102.130291
1910.000000	102.130900
1909.000000	102.130334
1908.000000	102.129746
1907.000000	102.130065
1906.000000	102.130658
1905.000000	102.129795
1904.000000	102.126390
1903.000000	102.120967
1902.000000	102.115334
1901.000000	102.111363
1900.000000	102.109425
1899.000000	102.108304
1898.000000	102.106907
1897.000000	102.105394
1896.000000	102.104365
1895.000000	102.103430
1894.000000	102.101640
1893.000000	102.099174
1892.000000	102.097204
1891.000000	102.096201
1890.000000	102.095568
1889.000000	102.094878
1888.000000	102.094299
1887.000000	102.093409
1886.000000	102.091117
1885.000000	102.087410
1884.000000	102.084013
1883.000000	102.082336
1882.000000	102.081670
1881.000000	102.080488
1880.000000	102.078625
1879.000000	102.077428
1878.000000	102.078238
1877.000000	102.081006
1876.000000	102.084332
1875.000000	102.086672
1874.000000	102.087403
1873.000000	102.087068
1872.000000	102.086605
1871.000000	102.086343
1870.000000	102.086066
1869.000000	102.085952
1868.000000	102.086640
1867.000000	102.087883
1866.000000	102.088373
1865.000000	102.087482
1864.000000	102.086058
1863.000000	102.085390
1862.000000	102.086147
1861.000000	102.088385
1860.000000	102.091800
1859.000000	102.095582
1858.000000	102.098870
1857.000000	102.101984
1856.000000	102.106387
1855.000000	102.112773
1854.000000	102.119802
1853.000000	102.125423
1852.000000	102.128660
1851.000000	102.129670
1850.000000	102.129311
1849.000000	102.128943
1848.000000	102.130024
1847.000000	102.132866
1846.000000	102.135978
1845.000000	102.137026
1844.000000	102.135136
1843.000000	102.132188
1842.000000	102.130740
1841.000000	102.131545
1840.000000	102.133566
1839.000000	102.135318
1838.000000	102.136114
1837.000000	102.136472
1836.000000	102.137334
1835.000000	102.138868
1834.000000	102.140479
1833.000000	102.141767
1832.000000	102.142805
1831.000000	102.143960
1830.000000	102.145690
1829.000000	102.147741
1828.000000	102.148917
1827.000000	102.147988
1826.000000	102.144721
1825.000000	102.140640
1824.000000	102.138242
1823.000000	102.138506
1822.000000	102.140136
1821.000000	102.141155
1820.000000	102.140536
1819.000000	102.138656
1818.000000	102.136542
1817.000000	102.134938
1816.000000	102.134232
1815.000000	102.134275
1814.000000	102.134236
1813.000000	102.133320
1812.000000	102.132059
1811.000000	102.132310
1810.000000	102.134463
1809.000000	102.136329
1808.000000	102.136218
1807.000000	102.134918
1806.000000	102.134242
1805.000000	102.135271
1804.000000	102.138098
1803.000000	102.141571
1802.000000	102.143355
1801.000000	102.141425
1800.000000	102.136110
1799.000000	102.129809
1798.000000	102.124131
1797.000000	102.119646
1796.000000	102.117517
1795.000000	102.118937
1794.000000	102.123961
1793.000000	102.131240
1792.000000	102.138374
1791.000000	102.142556
1790.000000	102.141516
1789.000000	102.135684
1788.000000	102.128642
1787.000000	102.123969
1786.000000	102.121651
1785.000000	102.118863
1784.000000	102.114948
1783.000000	102.112542
1782.000000	102.114159
1781.000000	102.119513
1780.000000	102.125598
1779.000000	102.129889
1778.000000	102.132103
1777.000000	102.133553
1776.000000	102.135137
1775.000000	102.135419
1774.000000	102.131527
1773.000000	102.122470
1772.000000	102.112442
1771.000000	102.107796
1770.000000	102.109292
1769.000000	102.111855
1768.000000	102.111127
1767.000000	102.106890
1766.000000	102.100800
1765.000000	102.092843
1764.000000	102.081551
1763.000000	102.066178
1762.000000	102.047208
1761.000000	102.024907
1760.000000	101.999067
1759.000000	101.969704
1758.000000	101.936120
1757.000000	101.898302
1756.000000	101.858884
1755.000000	101.821733
1754.000000	101.787594
1753.000000	101.753091
1752.000000	101.714165
1751.000000	101.670725
1750.000000	101.627400
1749.000000	101.588932
1748.000000	101.558107
1747.000000	101.536117
1746.000000	101.523094
1745.000000	101.518736
1744.000000	101.522834
1743.000000	101.534540
1742.000000	101.551583
1741.000000	101.572734
1740.000000	101.600608
1739.000000	101.637222
1738.000000	101.678510
1737.000000	101.718369
1736.000000	101.755007
1735.000000	101.791017
1734.000000	101.828408
1733.000000	101.864485
1732.000000	101.896035
1731.000000	101.922596
1730.000000	101.944475
1729.000000	101.963086
1728.000000	101.979728
1727.000000	101.994379
1726.000000	102.006044
1725.000000	102.013841
1724.000000	102.017964
1723.000000	102.020774
1722.000000	102.025294
1721.000000	102.033118
1720.000000	102.043118
1719.000000	102.052061
1718.000000	102.056289
1717.000000	102.055151
1716.000000	102.053781
1715.000000	102.056560
1714.000000	102.062300
1713.000000	102.069122
1712.000000	102.076499
1711.000000	102.082582
1710.000000	102.084224
1709.000000	102.080996
1708.000000	102.076479
1707.000000	102.075035
1706.000000	102.078368
1705.000000	102.084697
1704.000000	102.091514
1703.000000	102.096118
1702.000000	102.095208
1701.000000	102.086919
1700.000000	102.077387
1699.000000	102.074210
1698.000000	102.072999
1697.000000	102.066351
1696.000000	102.056474
1695.000000	102.051631
1694.000000	102.052828
1693.000000	102.054439
1692.000000	102.053510
1691.000000	102.050939
1690.000000	102.048535
1689.000000	102.047548
1688.000000	102.048223
1687.000000	102.049456
1686.000000	102.049228
1685.000000	102.044853
1684.000000	102.036917
1683.000000	102.028406
1682.000000	102.019431
1681.000000	102.009693
1680.000000	102.000930
1679.000000	101.995903
1678.000000	101.994711
1677.000000	101.994896
1676.000000	101.993201
1675.000000	101.987588
1674.000000	101.978873
1673.000000	101.969309
1672.000000	101.960204
1671.000000	101.952556
1670.000000	101.947338
1669.000000	101.945242
1668.000000	101.945680
1667.000000	101.946624
1666.000000	101.946123
1665.000000	101.943413
1664.000000	101.939931
1663.000000	101.938112
1662.000000	101.937701
1661.000000	101.936188
1660.000000	101.932354
1659.000000	101.927394
1658.000000	101.922735
1657.000000	101.919019
1656.000000	101.916012
1655.000000	101.914380
1654.000000	101.915947
1653.000000	101.918830
1652.000000	101.918587
1651.000000	101.916725
1650.000000	101.916420
1649.000000	101.916941
1648.000000	101.917075
1647.000000	101.914878
1646.000000	101.910658
1645.000000	101.906515
1644.000000	101.904304
1643.000000	101.903832
1642.000000	101.904094
1641.000000	101.904353
1640.000000	101.904557
1639.000000	101.904868
1638.000000	101.904925
1637.000000	101.904046
1636.000000	101.902229
1635.000000	101.900106
1634.000000	101.898157
1633.000000	101.896177
1632.000000	101.894097
1631.000000	101.892411
1630.000000	101.891578
1629.000000	101.891671
1628.000000	101.892057
1627.000000	101.891563
1626.000000	101.889692
1625.000000	101.887549
1624.000000	101.887131
1623.000000	101.889132
1622.000000	101.891580
1621.000000	101.892399
1620.000000	101.891602
1619.000000	101.890629
1618.000000	101.891137
1617.000000	101.893590
1616.000000	101.896106
1615.000000	101.896581
1614.000000	101.895587
1613.000000	101.894986
1612.000000	101.895827
1611.000000	101.897525
1610.000000	101.898810
1609.000000	101.899722
1608.000000	101.901441
1607.000000	101.904235
1606.000000	101.907019
1605.000000	101.908890
1604.000000	101.909876
1603.000000	101.910623
1602.000000	101.911758
1601.000000	101.913370
1600.000000	101.914953
1599.000000	101.915876
1598.000000	101.916093
1597.000000	101.916221
1596.000000	101.917002
1595.000000	101.918807
1594.000000	101.921616
1593.000000	101.925214
1592.000000	101.929128
1591.000000	101.932668
1590.000000	101.935574
1589.000000	101.938483
1588.000000	101.942128
1587.000000	101.946263
1586.000000	101.949833
1585.000000	101.952258
1584.000000	101.953905
1583.000000	101.955428
1582.000000	101.957193
1581.000000	101.959211
1580.000000	101.961308
1579.000000	101.963363
1578.000000	101.965597
1577.000000	101.968571
1576.000000	101.972477
1575.000000	101.976465
1574.000000	101.979649
1573.000000	101.982097
1572.000000	101.984276
1571.000000	101.986716
1570.000000	101.989607
1569.000000	101.992615
1568.000000	101.995253
1567.000000	101.997440
1566.000000	101.999474
1565.000000	102.001787
1564.000000	102.004605
1563.000000	102.007843
1562.000000	102.011262
1561.000000	102.014765
1560.000000	102.018271
1559.000000	102.021386
1558.000000	102.023807
1557.000000	102.026102
1556.000000	102.028810
1555.000000	102.031500
1554.000000	102.034163
1553.000000	102.036778
1552.000000	102.039720
1551.000000	102.043374
1550.000000	102.047894
1549.000000	102.052357
1548.000000	102.055530
1547.000000	102.056971
1546.000000	102.057276
1545.000000	102.057548
1544.000000	102.058666
1543.000000	102.060728
1542.000000	102.063228
1541.000000	102.065578
1540.000000	102.068306
1539.000000	102.071470
1538.000000	102.073921
1537.000000	102.075279
1536.000000	102.075774
1535.000000	102.076438
1534.000000	102.078469
1533.000000	102.082058
1532.000000	102.086389
1531.000000	102.092090
1530.000000	102.099751
1529.000000	102.108445
1528.000000	102.116844
1527.000000	102.124450
1526.000000	102.131325
1525.000000	102.136569
1524.000000	102.138672
1523.000000	102.137367
1522.000000	102.134420
1521.000000	102.133071
1520.000000	102.135611
1519.000000	102.141939
1518.000000	102.151033
1517.000000	102.160972
1516.000000	102.168754
1515.000000	102.172786
1514.000000	102.174192
1513.000000	102.174259
1512.000000	102.173419
1511.000000	102.172484
1510.000000	102.172258
1509.000000	102.172552
1508.000000	102.172481
1507.000000	102.172310
1506.000000	102.171209
1505.000000	102.169196
1504.000000	102.169267
1503.000000	102.172111
1502.000000	102.176445
1501.000000	102.179561
1500.000000	102.178961
1499.000000	102.174165
1498.000000	102.168127
1497.000000	102.165036
1496.000000	102.167123
1495.000000	102.172002
1494.000000	102.173914
1493.000000	102.169469
1492.000000	102.160992
1491.000000	102.155065
1490.000000	102.155399
1489.000000	102.156435
1488.000000	102.151322
1487.000000	102.141351
1486.000000	102.131365
1485.000000	102.124960
1484.000000	102.122755
1483.000000	102.121948
1482.000000	102.118789
1481.000000	102.111861
1480.000000	102.103819
1479.000000	102.097254
1478.000000	102.090252
1477.000000	102.078171
1476.000000	102.060275
1475.000000	102.040442
1474.000000	102.019870
1473.000000	101.993762
1472.000000	101.958635
1471.000000	101.919108
1470.000000	101.881286
1469.000000	101.847761
1468.000000	101.820560
1467.000000	101.802251
1466.000000	101.794198
1465.000000	101.795368
1464.000000	101.802193
1463.000000	101.811040
1462.000000	101.819986
1461.000000	101.827909
1460.000000	101.833320
1459.000000	101.834206
1458.000000	101.830245
1457.000000	101.826249
1456.000000	101.829042
1455.000000	101.839356
1454.000000	101.853053
1453.000000	101.865606
1452.000000	101.874419
1451.000000	101.879605
1450.000000	101.883528
1449.000000	101.887768
1448.000000	101.892187
1447.000000	101.895942
1446.000000	101.898753
1445.000000	101.901109
1444.000000	101.903482
1443.000000	101.906381
1442.000000	101.909537
1441.000000	101.911745
1440.000000	101.912328
1439.000000	101.912899
1438.000000	101.917182
1437.000000	101.927452
1436.000000	101.940255
1435.000000	101.949809
1434.000000	101.954836
1433.000000	101.957070
1432.000000	101.958649
1431.000000	101.961432
1430.000000	101.965714
1429.000000	101.969046
1428.000000	101.968904
1427.000000	101.966134
1426.000000	101.964172
1425.000000	101.965993
1424.000000	101.971107
1423.000000	101.976755
1422.000000	101.981382
1421.000000	101.985182
1420.000000	101.988296
1419.000000	101.990955
1418.000000	101.994038
1417.000000	101.997096
1416.000000	101.998776
1415.000000	101.999052
1414.000000	101.999625
1413.000000	102.002122
1412.000000	102.006199
1411.000000	102.009903
1410.000000	102.012119
1409.000000	102.013634
1408.000000	102.016143
1407.000000	102.020516
1406.000000	102.026150
1405.000000	102.032246
1404.000000	102.038851
1403.000000	102.046751
1402.000000	102.056122
1401.000000	102.065604
1400.000000	102.072937
1399.000000	102.076654
1398.000000	102.077452
1397.000000	102.077087
1396.000000	102.077110
1395.000000	102.079009
1394.000000	102.083634
1393.000000	102.089730
1392.000000	102.094867
1391.000000	102.098325
1390.000000	102.101126
1389.000000	102.103497
1388.000000	102.103432
1387.000000	102.099124
1386.000000	102.092414
1385.000000	102.087302
1384.000000	102.085337
1383.000000	102.084663
1382.000000	102.082520
1381.000000	102.078040
1380.000000	102.073268
1379.000000	102.071473
1378.000000	102.074700
1377.000000	102.082713
1376.000000	102.093543
1375.000000	102.104316
1374.000000	102.112443
1373.000000	102.117283
1372.000000	102.120290
1371.000000	102.123024
1370.000000	102.125625
1369.000000	102.127510
1368.000000	102.128707
1367.000000	102.130451
1366.000000	102.134094
1365.000000	102.139505
1364.000000	102.144883
1363.000000	102.148298
1362.000000	102.149666
1361.000000	102.150837
1360.000000	102.153336
1359.000000	102.156675
1358.000000	102.159044
1357.000000	102.159118
1356.000000	102.157231
1355.000000	102.155207
1354.000000	102.155060
1353.000000	102.157468
1352.000000	102.161378
1351.000000	102.164698
1350.000000	102.165593
1349.000000	102.164004
1348.000000	102.161657
1347.000000	102.160695
1346.000000	102.162149
1345.000000	102.165518
1344.000000	102.169268
1343.000000	102.171851
1342.000000	102.172652
1341.000000	102.172378
1340.000000	102.172313
1339.000000	102.172612
1338.000000	102.171941
1337.000000	102.169488
1336.000000	102.166609
1335.000000	102.165797
1334.000000	102.168150
1333.000000	102.172351
1332.000000	102.176158
1331.000000	102.178287
1330.000000	102.178725
1329.000000	102.177911
1328.000000	102.176301
1327.000000	102.174541
1326.000000	102.173415
1325.000000	102.173429
1324.000000	102.174374
1323.000000	102.175539
1322.000000	102.176276
1321.000000	102.176345
1320.000000	102.175830
1319.000000	102.174790
1318.000000	102.172994
1317.000000	102.170236
1316.000000	102.167070
1315.000000	102.164822
1314.000000	102.164457
1313.000000	102.165599
1312.000000	102.167180
1311.000000	102.168912
1310.000000	102.171488
1309.000000	102.175260
1308.000000	102.179252
1307.000000	102.181556
1306.000000	102.180578
1305.000000	102.176220
1304.000000	102.170315
1303.000000	102.166031
1302.000000	102.165924
1301.000000	102.169997
1300.000000	102.175634
1299.000000	102.179522
1298.000000	102.179870
1297.000000	102.177311
1296.000000	102.174226
1295.000000	102.172718
1294.000000	102.172541
1293.000000	102.171195
1292.000000	102.166613
1291.000000	102.159561
1290.000000	102.152771
1289.000000	102.147914
1288.000000	102.144446
1287.000000	102.141277
1286.000000	102.138225
1285.000000	102.135419
1284.000000	102.132431
1283.000000	102.128894
1282.000000	102.125250
1281.000000	102.122081
1280.000000	102.119160
1279.000000	102.116037
1278.000000	102.113486
1277.000000	102.113491
1276.000000	102.117329
1275.000000	102.123838
1274.000000	102.129913
1273.000000	102.132944
1272.000000	102.132730
1271.000000	102.130935
1270.000000	102.128840
1269.000000	102.126075
1268.000000	102.121810
1267.000000	102.116674
1266.000000	102.112723
1265.000000	102.111279
1264.000000	102.111372
1263.000000	102.110781
1262.000000	102.108413
1261.000000	102.105290
1260.000000	102.102933
1259.000000	102.100989
1258.000000	102.097267
1257.000000	102.090441
1256.000000	102.082018
1255.000000	102.074652
1254.000000	102.068694
1253.000000	102.061693
1252.000000	102.051795
1251.000000	102.040426
1250.000000	102.030771
1249.000000	102.024359
1248.000000	102.019967
1247.000000	102.015261
1246.000000	102.008760
1245.000000	102.000670
1244.000000	101.992434
1243.000000	101.985092
1242.000000	101.977862
1241.000000	101.969122
1240.000000	101.958872
1239.000000	101.948722
1238.000000	101.938903
1237.000000	101.927383
1236.000000	101.913575
1235.000000	101.901033
1234.000000	101.893632
1233.000000	101.889582
1232.000000	101.882017
1231.000000	101.865917
1230.000000	101.842633
1229.000000	101.817276
1228.000000	101.793276
1227.000000	101.770303
1226.000000	101.746023
1225.000000	101.718589
1224.000000	101.687849
1223.000000	101.654762
1222.000000	101.619417
1221.000000	101.579620
1220.000000	101.532177
1219.000000	101.476164
1218.000000	101.414902
1217.000000	101.354275
1216.000000	101.298514
1215.000000	101.247022
1214.000000	101.195400
1213.000000	101.140008
1212.000000	101.081039
1211.000000	101.020577
1210.000000	100.959043
1209.000000	100.895623
1208.000000	100.830928
1207.000000	100.766031
1206.000000	100.699590
1205.000000	100.630127
1204.000000	100.561266
1203.000000	100.499720
1202.000000	100.446416
1201.000000	100.394250
1200.000000	100.336981
1199.000000	100.276170
1198.000000	100.216797
1197.000000	100.160175
1196.000000	100.104551
1195.000000	100.048754
1194.000000	99.991391
1193.000000	99.929769
1192.000000	99.863784
1191.000000	99.798261
1190.000000	99.737001
1189.000000	99.676363
1188.000000	99.609093
1187.000000	99.533509
1186.000000	99.455269
1185.000000	99.380805
1184.000000	99.312283
1183.000000	99.248160
1182.000000	99.185132
1181.000000	99.119402
1180.000000	99.048478
1179.000000	98.972272
1178.000000	98.892037
1177.000000	98.809410
1176.000000	98.726834
1175.000000	98.646218
1174.000000	98.565614
1173.000000	98.480030
1172.000000	98.387749
1171.000000	98.293408
1170.000000	98.202731
1169.000000	98.116948
1168.000000	98.035025
1167.000000	97.958956
1166.000000	97.894059
1165.000000	97.845844
1164.000000	97.818683
1163.000000	97.815253
1162.000000	97.834533
1161.000000	97.870885
1160.000000	97.915256
1159.000000	97.955903
1158.000000	97.979840
1157.000000	97.978299
1156.000000	97.951926
1155.000000	97.908217
1154.000000	97.853470
1153.000000	97.789905
1152.000000	97.720522
1151.000000	97.651693
1150.000000	97.588221
1149.000000	97.529092
1148.000000	97.470498
1147.000000	97.410417
1146.000000	97.348810
1145.000000	97.286455
1144.000000	97.225263
1143.000000	97.166977
1142.000000	97.110335
1141.000000	97.052317
1140.000000	96.992666
1139.000000	96.933573
1138.000000	96.874573
1137.000000	96.812151
1136.000000	96.745305
1135.000000	96.676993
1134.000000	96.608897
1133.000000	96.539263
1132.000000	96.467147
1131.000000	96.394086
1130.000000	96.320052
1129.000000	96.242530
1128.000000	96.161129
1127.000000	96.078587
1126.000000	95.995972
1125.000000	95.911627
1124.000000	95.826101
1123.000000	95.742748
1122.000000	95.661813
1121.000000	95.579335
1120.000000	95.493686
1119.000000	95.408030
1118.000000	95.325010
1117.000000	95.244595
1116.000000	95.167970
1115.000000	95.096852
1114.000000	95.027463
1113.000000	94.952252
1112.000000	94.869851
1111.000000	94.786994
1110.000000	94.709061
1109.000000	94.635204
1108.000000	94.563656
1107.000000	94.494619
1106.000000	94.426715
1105.000000	94.358138
1104.000000	94.292174
1103.000000	94.233179
1102.000000	94.176148
1101.000000	94.109684
1100.000000	94.031639
1099.000000	93.952768
1098.000000	93.881897
1097.000000	93.817156
1096.000000	93.754839
1095.000000	93.697349
1094.000000	93.647296
1093.000000	93.601445
1092.000000	93.554888
1091.000000	93.505319
1090.000000	93.451684
1089.000000	93.396265
1088.000000	93.349129
1087.000000	93.320763
1086.000000	93.307121
1085.000000	93.290759
1084.000000	93.260262
1083.000000	93.220866
1082.000000	93.184196
1081.000000	93.156233
1080.000000	93.137421
1079.000000	93.125063
1078.000000	93.112006
1077.000000	93.090971
1076.000000	93.062575
1075.000000	93.031691
1074.000000	92.995497
1073.000000	92.944332
1072.000000	92.874773
1071.000000	92.791513
1070.000000	92.695336
1069.000000	92.580427
1068.000000	92.446190
1067.000000	92.300809
1066.000000	92.149916
1065.000000	91.992628
1064.000000	91.832470
1063.000000	91.680177
1062.000000	91.539915
1061.000000	91.403494
1060.000000	91.264059
1059.000000	91.125616
1058.000000	90.994096
1057.000000	90.869069
1056.000000	90.749459
1055.000000	90.637414
1054.000000	90.530648
1053.000000	90.419631
1052.000000	90.297680
1051.000000	90.165868
1050.000000	90.024865
1049.000000	89.872930
1048.000000	89.715576
1047.000000	89.564525
1046.000000	89.422534
1045.000000	89.280349
1044.000000	89.130868
1043.000000	88.975234
1042.000000	88.813773
1041.000000	88.643652
1040.000000	88.469028
1039.000000	88.301782
1038.000000	88.148393
1037.000000	88.006819
1036.000000	87.877922
1035.000000	87.766765
1034.000000	87.670050
1033.000000	87.576314
1032.000000	87.482527
1031.000000	87.397224
1030.000000	87.323805
1029.000000	87.254838
1028.000000	87.186883
1027.000000	87.126886
1026.000000	87.078791
1025.000000	87.036801
1024.000000	86.996343
1023.000000	86.959302
1022.000000	86.924668
1021.000000	86.886585
1020.000000	86.845106
1019.000000	86.806587
1018.000000	86.771135
1017.000000	86.732650
1016.000000	86.692875
1015.000000	86.660966
1014.000000	86.636905
1013.000000	86.610451
1012.000000	86.579492
1011.000000	86.554062
1010.000000	86.538420
1009.000000	86.524496
1008.000000	86.507385
1007.000000	86.492450
1006.000000	86.482208
1005.000000	86.471109
1004.000000	86.459053
1003.000000	86.456024
1002.000000	86.466813
1001.000000	86.483517
1000.000000	86.498846
999.000000	86.515406
998.000000	86.536829
997.000000	86.560897
996.000000	86.585809
995.000000	86.612598
994.000000	86.638279
993.000000	86.658169
992.000000	86.677913
991.000000	86.711207
990.000000	86.762499
989.000000	86.823345
988.000000	86.888129
987.000000	86.961071
986.000000	87.044996
985.000000	87.136291
984.000000	87.234713
983.000000	87.346101
982.000000	87.471589
981.000000	87.605367
980.000000	87.745928
979.000000	87.898014
978.000000	88.060595
977.000000	88.224572
976.000000	88.385932
975.000000	88.550870
974.000000	88.725255
973.000000	88.908908
972.000000	89.101644
971.000000	89.304073
970.000000	89.510577
969.000000	89.712190
968.000000	89.908209
967.000000	90.104600
966.000000	90.299839
965.000000	90.483930
964.000000	90.654181
963.000000	90.821096
962.000000	90.994675
961.000000	91.173441
960.000000	91.349952
959.000000	91.518781
958.000000	91.676453
957.000000	91.821639
956.000000	91.958646
955.000000	92.094634
954.000000	92.231479
953.000000	92.365315
952.000000	92.493141
951.000000	92.613425
950.000000	92.722464
949.000000	92.818480
948.000000	92.907696
947.000000	92.997688
946.000000	93.086198
945.000000	93.165900
944.000000	93.238047
943.000000	93.310312
942.000000	93.382569
941.000000	93.447319
940.000000	93.504468
939.000000	93.562974
938.000000	93.626072
937.000000	93.687262
936.000000	93.743778
935.000000	93.802086
934.000000	93.866298
933.000000	93.932208
932.000000	93.997097
931.000000	94.065268
930.000000	94.139554
929.000000	94.216418
928.000000	94.292785
927.000000	94.368516
926.000000	94.439618
925.000000	94.499682
924.000000	94.551818
923.000000	94.608614
922.000000	94.675399
921.000000	94.743435
920.000000	94.804629
919.000000	94.862733
918.000000	94.923361
917.000000	94.982299
916.000000	95.031959
915.000000	95.073513
914.000000	95.116085
913.000000	95.168756
912.000000	95.237979
911.000000	95.326632
910.000000	95.430302
909.000000	95.539587
908.000000	95.650275
907.000000	95.766200
906.000000	95.889920
905.000000	96.018242
904.000000	96.150539
903.000000	96.293495
902.000000	96.451911
901.000000	96.620273
900.000000	96.788076
899.000000	96.948941
898.000000	97.101011
897.000000	97.243866
896.000000	97.379448
895.000000	97.512018
894.000000	97.643211
893.000000	97.770194
892.000000	97.890930
891.000000	98.007115
890.000000	98.119579
889.000000	98.225347
888.000000	98.322183
887.000000	98.412034
886.000000	98.497408
885.000000	98.578680
884.000000	98.657655
883.000000	98.738998
882.000000	98.824715
881.000000	98.911558
880.000000	98.997196
879.000000	99.084271
878.000000	99.174659
877.000000	99.264783
876.000000	99.351617
875.000000	99.439182
874.000000	99.533833
873.000000	99.636036
872.000000	99.741242
871.000000	99.845996
870.000000	99.949054
869.000000	100.049064
868.000000	100.145202
867.000000	100.238356
866.000000	100.328362
865.000000	100.411839
864.000000	100.486150
863.000000	100.554114
862.000000	100.621260
861.000000	100.689108
860.000000	100.754808
859.000000	100.817182
858.000000	100.879276
857.000000	100.943726
856.000000	101.008573
855.000000	101.069694
854.000000	101.125573
853.000000	101.177334
852.000000	101.224771
851.000000	101.265128
850.000000	101.296745
849.000000	101.321690
848.000000	101.342597
847.000000	101.357851
846.000000	101.362653
845.000000	101.355456
844.000000	101.341024
843.000000	101.325685
842.000000	101.311173
841.000000	101.294399
840.000000	101.271216
839.000000	101.238578
838.000000	101.195410
837.000000	101.144345
836.000000	101.091397
835.000000	101.041358
834.000000	100.994749
833.000000	100.951548
832.000000	100.915419
831.000000	100.890196
830.000000	100.874473
829.000000	100.865154
828.000000	100.864726
827.000000	100.877949
826.000000	100.901559
825.000000	100.925278
824.000000	100.943985
823.000000	100.960456
822.000000	100.974682
821.000000	100.979694
820.000000	100.970405
819.000000	100.948755
818.000000	100.918104
817.000000	100.878643
816.000000	100.829398
815.000000	100.768286
814.000000	100.688035
813.000000	100.577941
812.000000	100.432452
811.000000	100.252720
810.000000	100.037022
809.000000	99.775812
808.000000	99.460641
807.000000	99.093314
806.000000	98.683233
805.000000	98.243114
804.000000	97.793680
803.000000	97.365365
802.000000	96.986054
801.000000	96.670764
800.000000	96.428223
799.000000	96.268888
798.000000	96.197771
797.000000	96.205047
796.000000	96.270679
795.000000	96.373696
794.000000	96.493557
793.000000	96.610947
792.000000	96.714940
791.000000	96.805901
790.000000	96.886312
789.000000	96.950994
788.000000	96.988212
787.000000	96.985838
786.000000	96.934777
785.000000	96.833417
784.000000	96.694202
783.000000	96.541275
782.000000	96.396003
781.000000	96.267901
780.000000	96.163194
779.000000	96.095825
778.000000	96.082764
777.000000	96.131480
776.000000	96.236704
775.000000	96.385458
774.000000	96.560556
773.000000	96.743013
772.000000	96.917473
771.000000	97.076559
770.000000	97.218635
769.000000	97.342041
768.000000	97.442875
767.000000	97.517905
766.000000	97.568513
765.000000	97.601229
764.000000	97.624179
763.000000	97.643382
762.000000	97.663660
761.000000	97.692300
760.000000	97.737384
759.000000	97.799769
758.000000	97.870480
757.000000	97.940445
756.000000	98.010125
755.000000	98.085247
754.000000	98.166085
753.000000	98.245933
752.000000	98.317264
751.000000	98.374252
750.000000	98.413409
749.000000	98.439993
748.000000	98.472225
747.000000	98.530233
746.000000	98.618493
745.000000	98.723844
744.000000	98.830333
743.000000	98.930415
742.000000	99.023134
741.000000	99.110458
740.000000	99.197773
739.000000	99.291012
738.000000	99.389972
737.000000	99.488619
736.000000	99.582886
735.000000	99.673064
734.000000	99.757945
733.000000	99.832412
732.000000	99.891652
731.000000	99.932802
730.000000	99.953474
729.000000	99.956477
728.000000	99.956341
727.000000	99.971258
726.000000	100.004189
725.000000	100.039715
724.000000	100.064748
723.000000	100.085887
722.000000	100.120787
721.000000	100.177359
720.000000	100.247343
719.000000	100.317157
718.000000	100.378918
717.000000	100.431879
716.000000	100.479177
715.000000	100.524673
714.000000	100.569879
713.000000	100.612782
712.000000	100.650058
711.000000	100.679550
710.000000	100.700373
709.000000	100.712873
708.000000	100.719550
707.000000	100.723560
706.000000	100.724914
705.000000	100.719244
704.000000	100.699483
703.000000	100.655778
702.000000	100.575012
701.000000	100.446469
700.000000	100.270531
699.000000	100.059199
698.000000	99.829264
697.000000	99.601930
696.000000	99.409237
695.000000	99.288866
694.000000	99.263287
693.000000	99.324763
692.000000	99.441833
691.000000	99.579513
690.000000	99.714888
689.000000	99.839196
688.000000	99.952051
687.000000	100.055245
686.000000	100.149058
685.000000	100.232301
684.000000	100.304389
683.000000	100.366015
682.000000	100.418780
681.000000	100.465757
680.000000	100.510355
679.000000	100.551111
678.000000	100.580433
677.000000	100.594740
676.000000	100.604544
675.000000	100.628066
674.000000	100.671866
673.000000	100.723175
672.000000	100.763777
671.000000	100.788500
670.000000	100.808754
669.000000	100.846336
668.000000	100.914332
667.000000	100.987955
666.000000	101.035787
665.000000	101.061483
664.000000	101.081631
663.000000	101.106361
662.000000	101.135025
661.000000	101.162716
660.000000	101.189284
659.000000	101.212894
658.000000	101.218275
657.000000	101.186174
656.000000	101.117504
655.000000	101.041176
654.000000	100.991642
653.000000	100.981419
652.000000	101.000325
651.000000	101.029714
650.000000	101.052115
