4000.000000	99.674105
3999.000000	99.671802
3998.000000	99.664118
3997.000000	99.653184
3996.000000	99.643691
3995.000000	99.638904
3994.000000	99.639399
3993.000000	99.643412
3992.000000	99.648102
3991.000000	99.651607
3990.000000	99.653648
3989.000000	99.654646
3988.000000	99.654867
3987.000000	99.654480
3986.000000	99.654095
3985.000000	99.654515
3984.000000	99.655577
3983.000000	99.655697
3982.000000	99.653189
3981.000000	99.648003
3980.000000	99.641881
3979.000000	99.636727
3978.000000	99.633121
3977.000000	99.630591
3976.000000	99.628821
3975.000000	99.628122
3974.000000	99.628739
3973.000000	99.630150
3972.000000	99.631388
3971.000000	99.631947
3970.000000	99.632074
3969.000000	99.632079
3968.000000	99.631696
3967.000000	99.630522
3966.000000	99.628981
3965.000000	99.628466
3964.000000	99.630261
3963.000000	99.634383
3962.000000	99.639535
3961.000000	99.644116
3960.000000	99.647001
3959.000000	99.647546
3958.000000	99.645627
3957.000000	99.641903
3956.000000	99.637856
3955.000000	99.635010
3954.000000	99.633624
3953.000000	99.632451
3952.000000	99.629867
3951.000000	99.625438
3950.000000	99.620491
3949.000000	99.617034
3948.000000	99.616093
3947.000000	99.617178
3946.000000	99.619315
3945.000000	99.622332
3944.000000	99.626951
3943.000000	99.633508
3942.000000	99.640737
3941.000000	99.646502
3940.000000	99.649589
3939.000000	99.650208
3938.000000	99.649252
3937.000000	99.647469
3936.000000	99.645418
3935.000000	99.643866
3934.000000	99.643429
3933.000000	99.643652
3932.000000	99.642809
3931.000000	99.639529
3930.000000	99.634486
3929.000000	99.629914
3928.000000	99.627693
3927.000000	99.628199
3926.000000	99.630608
3925.000000	99.633711
3924.000000	99.636549
3923.000000	99.638596
3922.000000	99.639496
3921.000000	99.638802
3920.000000	99.636424
3919.000000	99.633232
3918.000000	99.630752
3917.000000	99.629952
3916.000000	99.630537
3915.000000	99.631642
3914.000000	99.632883
3913.000000	99.634436
3912.000000	99.636459
3911.000000	99.638776
3910.000000	99.641191
3909.000000	99.643647
3908.000000	99.645857
3907.000000	99.647081
3906.000000	99.646558
3905.000000	99.644381
3904.000000	99.641643
3903.000000	99.639571
3902.000000	99.638657
3901.000000	99.638593
3900.000000	99.638776
3899.000000	99.638864
3898.000000	99.638908
3897.000000	99.639141
3896.000000	99.639667
3895.000000	99.640285
3894.000000	99.640623
3893.000000	99.640450
3892.000000	99.639910
3891.000000	99.639433
3890.000000	99.639384
3889.000000	99.639736
3888.000000	99.640075
3887.000000	99.640029
3886.000000	99.639641
3885.000000	99.639247
3884.000000	99.639159
3883.000000	99.639462
3882.000000	99.640076
3881.000000	99.640837
3880.000000	99.641482
3879.000000	99.641834
3878.000000	99.641914
3877.000000	99.641824
3876.000000	99.641699
3875.000000	99.641721
3874.000000	99.641982
3873.000000	99.642402
3872.000000	99.642817
3871.000000	99.643131
3870.000000	99.643366
3869.000000	99.643564
3868.000000	99.643728
3867.000000	99.643815
3866.000000	99.643786
3865.000000	99.643677
3864.000000	99.643601
3863.000000	99.643648
3862.000000	99.643831
3861.000000	99.644083
3860.000000	99.644301
3859.000000	99.644455
3858.000000	99.644623
3857.000000	99.644902
3856.000000	99.645252
3855.000000	99.645469
3854.000000	99.645476
3853.000000	99.645269
3852.000000	99.644914
3851.000000	99.644672
3850.000000	99.644607
3849.000000	99.644486
3848.000000	99.644138
3847.000000	99.643678
3846.000000	99.643471
3845.000000	99.643849
3844.000000	99.644766
3843.000000	99.645673
3842.000000	99.645994
3841.000000	99.645589
3840.000000	99.644823
3839.000000	99.644265
3838.000000	99.644183
3837.000000	99.644511
3836.000000	99.645116
3835.000000	99.645821
3834.000000	99.646287
3833.000000	99.646023
3832.000000	99.644690
3831.000000	99.642539
3830.000000	99.640383
3829.000000	99.639009
3828.000000	99.638757
3827.000000	99.639594
3826.000000	99.641399
3825.000000	99.643890
3824.000000	99.646083
3823.000000	99.646458
3822.000000	99.644664
3821.000000	99.641982
3820.000000	99.639784
3819.000000	99.638824
3818.000000	99.639054
3817.000000	99.639899
3816.000000	99.640444
3815.000000	99.639780
3814.000000	99.638143
3813.000000	99.636986
3812.000000	99.637824
3811.000000	99.641116
3810.000000	99.645633
3809.000000	99.648991
3808.000000	99.649812
3807.000000	99.649181
3806.000000	99.649517
3805.000000	99.651777
3804.000000	99.654518
3803.000000	99.656005
3802.000000	99.656834
3801.000000	99.658913
3800.000000	99.662868
3799.000000	99.667454
3798.000000	99.670536
3797.000000	99.670785
3796.000000	99.668423
3795.000000	99.664735
3794.000000	99.661210
3793.000000	99.658912
3792.000000	99.658367
3791.000000	99.659539
3790.000000	99.661665
3789.000000	99.663463
3788.000000	99.663896
3787.000000	99.662879
3786.000000	99.661228
3785.000000	99.659817
3784.000000	99.658987
3783.000000	99.658884
3782.000000	99.659935
3781.000000	99.662569
3780.000000	99.666224
3779.000000	99.668671
3778.000000	99.667762
3777.000000	99.663585
3776.000000	99.658204
3775.000000	99.653730
3774.000000	99.651016
3773.000000	99.649727
3772.000000	99.649248
3771.000000	99.649467
3770.000000	99.650585
3769.000000	99.652382
3768.000000	99.654375
3767.000000	99.656461
3766.000000	99.658846
3765.000000	99.661658
3764.000000	99.664704
3763.000000	99.667333
3762.000000	99.668601
3761.000000	99.668130
3760.000000	99.666970
3759.000000	99.666665
3758.000000	99.667577
3757.000000	99.668806
3756.000000	99.669298
3755.000000	99.668678
3754.000000	99.667400
3753.000000	99.666179
3752.000000	99.665225
3751.000000	99.663630
3750.000000	99.660502
3749.000000	99.657106
3748.000000	99.654513
3747.000000	99.651903
3746.000000	99.648883
3745.000000	99.647216
3744.000000	99.646980
3743.000000	99.646319
3742.000000	99.645132
3741.000000	99.644358
3740.000000	99.644517
3739.000000	99.645464
3738.000000	99.646621
3737.000000	99.648118
3736.000000	99.650530
3735.000000	99.652594
3734.000000	99.651873
3733.000000	99.647783
3732.000000	99.642107
3731.000000	99.637208
3730.000000	99.633992
3729.000000	99.631927
3728.000000	99.630357
3727.000000	99.629503
3726.000000	99.629827
3725.000000	99.630682
3724.000000	99.630379
3723.000000	99.627730
3722.000000	99.623285
3721.000000	99.618713
3720.000000	99.615293
3719.000000	99.613049
3718.000000	99.611223
3717.000000	99.609260
3716.000000	99.606828
3715.000000	99.603317
3714.000000	99.598164
3713.000000	99.592155
3712.000000	99.587781
3711.000000	99.586176
3710.000000	99.585767
3709.000000	99.584565
3708.000000	99.581827
3707.000000	99.577960
3706.000000	99.573577
3705.000000	99.569115
3704.000000	99.565057
3703.000000	99.562113
3702.000000	99.560516
3701.000000	99.559268
3700.000000	99.557370
3699.000000	99.555229
3698.000000	99.553914
3697.000000	99.553955
3696.000000	99.554959
3695.000000	99.555859
3694.000000	99.555271
3693.000000	99.551660
3692.000000	99.544406
3691.000000	99.535210
3690.000000	99.527757
3689.000000	99.523704
3688.000000	99.521217
3687.000000	99.518509
3686.000000	99.515354
3685.000000	99.512226
3684.000000	99.509598
3683.000000	99.507711
3682.000000	99.506718
3681.000000	99.506967
3680.000000	99.507990
3679.000000	99.507182
3678.000000	99.500483
3677.000000	99.486147
3676.000000	99.468536
3675.000000	99.453512
3674.000000	99.443248
3673.000000	99.436899
3672.000000	99.432245
3671.000000	99.427490
3670.000000	99.422240
3669.000000	99.415857
3668.000000	99.408281
3667.000000	99.400279
3666.000000	99.391720
3665.000000	99.381964
3664.000000	99.371134
3663.000000	99.360148
3662.000000	99.349943
3661.000000	99.341159
3660.000000	99.334117
3659.000000	99.328700
3658.000000	99.323977
3657.000000	99.318725
3656.000000	99.312552
3655.000000	99.307085
3654.000000	99.304879
3653.000000	99.306022
3652.000000	99.307621
3651.000000	99.306618
3650.000000	99.301688
3649.000000	99.291703
3648.000000	99.277424
3647.000000	99.262988
3646.000000	99.251536
3645.000000	99.242723
3644.000000	99.234327
3643.000000	99.224340
3642.000000	99.212084
3641.000000	99.198633
3640.000000	99.186385
3639.000000	99.177913
3638.000000	99.174079
3637.000000	99.173036
3636.000000	99.171488
3635.000000	99.167061
3634.000000	99.159485
3633.000000	99.149662
3632.000000	99.138499
3631.000000	99.127698
3630.000000	99.121406
3629.000000	99.121417
3628.000000	99.121311
3627.000000	99.117040
3626.000000	99.112315
3625.000000	99.110774
3624.000000	99.112075
3623.000000	99.113313
3622.000000	99.112162
3621.000000	99.109597
3620.000000	99.109956
3619.000000	99.116335
3618.000000	99.126973
3617.000000	99.137899
3616.000000	99.146221
3615.000000	99.151181
3614.000000	99.154227
3613.000000	99.157250
3612.000000	99.160313
3611.000000	99.162001
3610.000000	99.161527
3609.000000	99.160037
3608.000000	99.159196
3607.000000	99.158755
3606.000000	99.157164
3605.000000	99.153851
3604.000000	99.150055
3603.000000	99.148387
3602.000000	99.151305
3601.000000	99.159092
3600.000000	99.168892
3599.000000	99.176256
3598.000000	99.178185
3597.000000	99.175364
3596.000000	99.171549
3595.000000	99.170539
3594.000000	99.173180
3593.000000	99.177509
3592.000000	99.181264
3591.000000	99.183229
3590.000000	99.183204
3589.000000	99.182537
3588.000000	99.183610
3587.000000	99.186712
3586.000000	99.189561
3585.000000	99.190657
3584.000000	99.190638
3583.000000	99.191375
3582.000000	99.194140
3581.000000	99.198410
3580.000000	99.202111
3579.000000	99.203320
3578.000000	99.201544
3577.000000	99.197392
3576.000000	99.191712
3575.000000	99.185059
3574.000000	99.178009
3573.000000	99.171416
3572.000000	99.166161
3571.000000	99.162445
3570.000000	99.159694
3569.000000	99.157570
3568.000000	99.157059
3567.000000	99.159134
3566.000000	99.162634
3565.000000	99.164909
3564.000000	99.163758
3563.000000	99.158815
3562.000000	99.152177
3561.000000	99.147142
3560.000000	99.145450
3559.000000	99.145954
3558.000000	99.146168
3557.000000	99.144785
3556.000000	99.142376
3555.000000	99.140104
3554.000000	99.138570
3553.000000	99.137902
3552.000000	99.138140
3551.000000	99.139090
3550.000000	99.139990
3549.000000	99.139756
3548.000000	99.137840
3547.000000	99.134747
3546.000000	99.131464
3545.000000	99.128703
3544.000000	99.126926
3543.000000	99.126625
3542.000000	99.128001
3541.000000	99.130420
3540.000000	99.132575
3539.000000	99.133454
3538.000000	99.133037
3537.000000	99.131990
3536.000000	99.130827
3535.000000	99.129564
3534.000000	99.128015
3533.000000	99.126205
3532.000000	99.124499
3531.000000	99.123486
3530.000000	99.123765
3529.000000	99.125589
3528.000000	99.128433
3527.000000	99.130979
3526.000000	99.131884
3525.000000	99.130750
3524.000000	99.128509
3523.000000	99.126773
3522.000000	99.126473
3521.000000	99.127138
3520.000000	99.127405
3519.000000	99.126200
3518.000000	99.123417
3517.000000	99.119900
3516.000000	99.116886
3515.000000	99.115293
3514.000000	99.115232
3513.000000	99.115925
3512.000000	99.116366
3511.000000	99.116312
3510.000000	99.116373
3509.000000	99.117084
3508.000000	99.118286
3507.000000	99.119484
3506.000000	99.120476
3505.000000	99.121454
3504.000000	99.122613
3503.000000	99.123898
3502.000000	99.125124
3501.000000	99.126122
3500.000000	99.126700
3499.000000	99.126840
3498.000000	99.127096
3497.000000	99.128382
3496.000000	99.130961
3495.000000	99.133760
3494.000000	99.135107
3493.000000	99.134198
3492.000000	99.131653
3491.000000	99.128790
3490.000000	99.126536
3489.000000	99.125052
3488.000000	99.124125
3487.000000	99.123522
3486.000000	99.122946
3485.000000	99.121996
3484.000000	99.120421
3483.000000	99.118454
3482.000000	99.116829
3481.000000	99.116350
3480.000000	99.117295
3479.000000	99.118964
3478.000000	99.119862
3477.000000	99.118819
3476.000000	99.116164
3475.000000	99.113715
3474.000000	99.113058
3473.000000	99.113846
3472.000000	99.114064
3471.000000	99.112034
3470.000000	99.107876
3469.000000	99.103234
3468.000000	99.099776
3467.000000	99.097944
3466.000000	99.097129
3465.000000	99.096606
3464.000000	99.096241
3463.000000	99.096299
3462.000000	99.096765
3461.000000	99.097141
3460.000000	99.096944
3459.000000	99.096218
3458.000000	99.095386
3457.000000	99.094699
3456.000000	99.094044
3455.000000	99.093271
3454.000000	99.092427
3453.000000	99.091563
3452.000000	99.090471
3451.000000	99.088831
3450.000000	99.086631
3449.000000	99.084321
3448.000000	99.082480
3447.000000	99.081283
3446.000000	99.080361
3445.000000	99.079282
3444.000000	99.078054
3443.000000	99.077052
3442.000000	99.076427
3441.000000	99.075763
3440.000000	99.074481
3439.000000	99.072529
3438.000000	99.070507
3437.000000	99.069064
3436.000000	99.068229
3435.000000	99.067421
3434.000000	99.066031
3433.000000	99.064034
3432.000000	99.062129
3431.000000	99.061177
3430.000000	99.061316
3429.000000	99.061705
3428.000000	99.061307
3427.000000	99.060011
3426.000000	99.058675
3425.000000	99.057987
3424.000000	99.057677
3423.000000	99.057107
3422.000000	99.056362
3421.000000	99.056225
3420.000000	99.057071
3419.000000	99.058274
3418.000000	99.058790
3417.000000	99.058196
3416.000000	99.056895
3415.000000	99.055588
3414.000000	99.054693
3413.000000	99.054218
3412.000000	99.054069
3411.000000	99.054267
3410.000000	99.054879
3409.000000	99.055851
3408.000000	99.056969
3407.000000	99.057914
3406.000000	99.058384
3405.000000	99.058216
3404.000000	99.057479
3403.000000	99.056513
3402.000000	99.055794
3401.000000	99.055632
3400.000000	99.056029
3399.000000	99.056744
3398.000000	99.057467
3397.000000	99.057985
3396.000000	99.058250
3395.000000	99.058359
3394.000000	99.058480
3393.000000	99.058734
3392.000000	99.059110
3391.000000	99.059489
3390.000000	99.059741
3389.000000	99.059828
3388.000000	99.059824
3387.000000	99.059870
3386.000000	99.060074
3385.000000	99.060437
3384.000000	99.060867
3383.000000	99.061251
3382.000000	99.061536
3381.000000	99.061739
3380.000000	99.061923
3379.000000	99.062152
3378.000000	99.062459
3377.000000	99.062833
3376.000000	99.063222
3375.000000	99.063575
3374.000000	99.063901
3373.000000	99.064285
3372.000000	99.064819
3371.000000	99.065509
3370.000000	99.066232
3369.000000	99.066792
3368.000000	99.067021
3367.000000	99.066905
3366.000000	99.066727
3365.000000	99.066902
3364.000000	99.067627
3363.000000	99.068704
3362.000000	99.069704
3361.000000	99.070333
3360.000000	99.070612
3359.000000	99.070855
3358.000000	99.071453
3357.000000	99.072550
3356.000000	99.073869
3355.000000	99.074968
3354.000000	99.075705
3353.000000	99.076301
3352.000000	99.076897
3351.000000	99.077250
3350.000000	99.077114
3349.000000	99.076852
3348.000000	99.077312
3347.000000	99.078981
3346.000000	99.081499
3345.000000	99.084086
3344.000000	99.086290
3343.000000	99.088086
3342.000000	99.089417
3341.000000	99.090090
3340.000000	99.090159
3339.000000	99.090046
3338.000000	99.090020
3337.000000	99.089854
3336.000000	99.089358
3335.000000	99.088920
3334.000000	99.089106
3333.000000	99.089876
3332.000000	99.090574
3331.000000	99.090693
3330.000000	99.090341
3329.000000	99.089904
3328.000000	99.089577
3327.000000	99.089434
3326.000000	99.089698
3325.000000	99.090683
3324.000000	99.092527
3323.000000	99.095083
3322.000000	99.097909
3321.000000	99.100360
3320.000000	99.101907
3319.000000	99.102456
3318.000000	99.102334
3317.000000	99.101958
3316.000000	99.101602
3315.000000	99.101498
3314.000000	99.101907
3313.000000	99.102898
3312.000000	99.104174
3311.000000	99.105236
3310.000000	99.105804
3309.000000	99.105988
3308.000000	99.106115
3307.000000	99.106468
3306.000000	99.107103
3305.000000	99.107900
3304.000000	99.108700
3303.000000	99.109411
3302.000000	99.110018
3301.000000	99.110529
3300.000000	99.110978
3299.000000	99.111428
3298.000000	99.111957
3297.000000	99.112588
3296.000000	99.113284
3295.000000	99.113990
3294.000000	99.114672
3293.000000	99.115338
3292.000000	99.116001
3291.000000	99.116670
3290.000000	99.117338
3289.000000	99.118002
3288.000000	99.118655
3287.000000	99.119295
3286.000000	99.119928
3285.000000	99.120560
3284.000000	99.121194
3283.000000	99.121824
3282.000000	99.122441
3281.000000	99.123038
3280.000000	99.123616
3279.000000	99.124181
3278.000000	99.124745
3277.000000	99.125312
3276.000000	99.125886
3275.000000	99.126460
3274.000000	99.127026
3273.000000	99.127577
3272.000000	99.128106
3271.000000	99.128612
3270.000000	99.129097
3269.000000	99.129568
3268.000000	99.130036
3267.000000	99.130507
3266.000000	99.130982
3265.000000	99.131462
3264.000000	99.131947
3263.000000	99.132436
3262.000000	99.132931
3261.000000	99.133432
3260.000000	99.133939
3259.000000	99.134452
3258.000000	99.134966
3257.000000	99.135476
3256.000000	99.135972
3255.000000	99.136445
3254.000000	99.136897
3253.000000	99.137336
3252.000000	99.137776
3251.000000	99.138224
3250.000000	99.138678
3249.000000	99.139136
3248.000000	99.139593
3247.000000	99.140052
3246.000000	99.140538
3245.000000	99.141087
3244.000000	99.141686
3243.000000	99.142268
3242.000000	99.142773
3241.000000	99.143207
3240.000000	99.143648
3239.000000	99.144192
3238.000000	99.144887
3237.000000	99.145692
3236.000000	99.146483
3235.000000	99.147121
3234.000000	99.147524
3233.000000	99.147691
3232.000000	99.147678
3231.000000	99.147626
3230.000000	99.147786
3229.000000	99.148449
3228.000000	99.149745
3227.000000	99.151512
3226.000000	99.153347
3225.000000	99.154852
3224.000000	99.155849
3223.000000	99.156443
3222.000000	99.156902
3221.000000	99.157428
3220.000000	99.157998
3219.000000	99.158417
3218.000000	99.158514
3217.000000	99.158286
3216.000000	99.157964
3215.000000	99.157954
3214.000000	99.158589
3213.000000	99.159826
3212.000000	99.161237
3211.000000	99.162431
3210.000000	99.163503
3209.000000	99.164896
3208.000000	99.166822
3207.000000	99.168950
3206.000000	99.170672
3205.000000	99.171660
3204.000000	99.172110
3203.000000	99.172551
3202.000000	99.173426
3201.000000	99.174762
3200.000000	99.176205
3199.000000	99.177353
3198.000000	99.178116
3197.000000	99.178754
3196.000000	99.179612
3195.000000	99.180806
3194.000000	99.182113
3193.000000	99.183161
3192.000000	99.183764
3191.000000	99.184134
3190.000000	99.184760
3189.000000	99.185951
3188.000000	99.187565
3187.000000	99.189179
3186.000000	99.190520
3185.000000	99.191683
3184.000000	99.192952
3183.000000	99.194485
3182.000000	99.196188
3181.000000	99.197805
3180.000000	99.199110
3179.000000	99.200037
3178.000000	99.200711
3177.000000	99.201424
3176.000000	99.202450
3175.000000	99.203868
3174.000000	99.205517
3173.000000	99.207119
3172.000000	99.208498
3171.000000	99.209653
3170.000000	99.210718
3169.000000	99.211862
3168.000000	99.213212
3167.000000	99.214817
3166.000000	99.216652
3165.000000	99.218591
3164.000000	99.220417
3163.000000	99.221908
3162.000000	99.222979
3161.000000	99.223710
3160.000000	99.224257
3159.000000	99.224785
3158.000000	99.225472
3157.000000	99.226463
3156.000000	99.227800
3155.000000	99.229401
3154.000000	99.231118
3153.000000	99.232769
3152.000000	99.234166
3151.000000	99.235200
3150.000000	99.235964
3149.000000	99.236755
3148.000000	99.237825
3147.000000	99.239151
3146.000000	99.240479
3145.000000	99.241581
3144.000000	99.242473
3143.000000	99.243361
3142.000000	99.244383
3141.000000	99.245466
3140.000000	99.246436
3139.000000	99.247199
3138.000000	99.247827
3137.000000	99.248522
3136.000000	99.249483
3135.000000	99.250772
3134.000000	99.252251
3133.000000	99.253654
3132.000000	99.254790
3131.000000	99.255695
3130.000000	99.256586
3129.000000	99.257674
3128.000000	99.258978
3127.000000	99.260356
3126.000000	99.261659
3125.000000	99.262828
3124.000000	99.263880
3123.000000	99.264867
3122.000000	99.265852
3121.000000	99.266900
3120.000000	99.268022
3119.000000	99.269174
3118.000000	99.270321
3117.000000	99.271516
3116.000000	99.272869
3115.000000	99.274446
3114.000000	99.276199
3113.000000	99.277973
3112.000000	99.279556
3111.000000	99.280780
3110.000000	99.281614
3109.000000	99.282175
3108.000000	99.282658
3107.000000	99.283258
3106.000000	99.284166
3105.000000	99.285523
3104.000000	99.287307
3103.000000	99.289292
3102.000000	99.291172
3101.000000	99.292766
3100.000000	99.294067
3099.000000	99.295150
3098.000000	99.296131
3097.000000	99.297177
3096.000000	99.298458
3095.000000	99.300034
3094.000000	99.301803
3093.000000	99.303573
3092.000000	99.305200
3091.000000	99.306640
3090.000000	99.307901
3089.000000	99.309022
3088.000000	99.310095
3087.000000	99.311254
3086.000000	99.312596
3085.000000	99.314127
3084.000000	99.315760
3083.000000	99.317383
3082.000000	99.318918
3081.000000	99.320360
3080.000000	99.321745
3079.000000	99.323089
3078.000000	99.324327
3077.000000	99.325363
3076.000000	99.326200
3075.000000	99.327007
3074.000000	99.328028
3073.000000	99.329398
3072.000000	99.331030
3071.000000	99.332673
3070.000000	99.334133
3069.000000	99.335429
3068.000000	99.336747
3067.000000	99.338266
3066.000000	99.339993
3065.000000	99.341767
3064.000000	99.343402
3063.000000	99.344839
3062.000000	99.346206
3061.000000	99.347716
3060.000000	99.349518
3059.000000	99.351592
3058.000000	99.353747
3057.000000	99.355659
3056.000000	99.356948
3055.000000	99.357410
3054.000000	99.357340
3053.000000	99.357537
3052.000000	99.358595
3051.000000	99.360208
3050.000000	99.361520
3049.000000	99.362232
3048.000000	99.362947
3047.000000	99.364218
3046.000000	99.365680
3045.000000	99.366556
3044.000000	99.366780
3043.000000	99.367077
3042.000000	99.367907
3041.000000	99.368894
3040.000000	99.369543
3039.000000	99.370272
3038.000000	99.372345
3037.000000	99.376689
3036.000000	99.382802
3035.000000	99.388917
3034.000000	99.393481
3033.000000	99.396487
3032.000000	99.399126
3031.000000	99.402149
3030.000000	99.404885
3029.000000	99.406123
3028.000000	99.405632
3027.000000	99.404528
3026.000000	99.404302
3025.000000	99.405738
3024.000000	99.408679
3023.000000	99.412247
3022.000000	99.415196
3021.000000	99.416519
3020.000000	99.416125
3019.000000	99.414973
3018.000000	99.414360
3017.000000	99.414942
3016.000000	99.416379
3015.000000	99.417904
3014.000000	99.419255
3013.000000	99.421116
3012.000000	99.424523
3011.000000	99.429686
3010.000000	99.435339
3009.000000	99.439580
3008.000000	99.441672
3007.000000	99.442868
3006.000000	99.445364
3005.000000	99.450482
3004.000000	99.457771
3003.000000	99.465546
3002.000000	99.472174
3001.000000	99.476997
3000.000000	99.480344
2999.000000	99.482871
2998.000000	99.484963
2997.000000	99.486707
2996.000000	99.488320
2995.000000	99.490474
2994.000000	99.494120
2993.000000	99.499830
2992.000000	99.507038
2991.000000	99.513897
2990.000000	99.518251
2989.000000	99.519227
2988.000000	99.517917
2987.000000	99.516515
2986.000000	99.517096
2985.000000	99.521365
2984.000000	99.530681
2983.000000	99.544874
2982.000000	99.560852
2981.000000	99.573899
2980.000000	99.581501
2979.000000	99.585284
2978.000000	99.588540
2977.000000	99.592334
2976.000000	99.595000
2975.000000	99.595018
2974.000000	99.593003
2973.000000	99.590936
2972.000000	99.590735
2971.000000	99.593644
2970.000000	99.599368
2969.000000	99.604831
2968.000000	99.605169
2967.000000	99.597598
2966.000000	99.584349
2965.000000	99.571080
2964.000000	99.562127
2963.000000	99.558047
2962.000000	99.557375
2961.000000	99.559177
2960.000000	99.563297
2959.000000	99.569076
2958.000000	99.574819
2957.000000	99.578465
2956.000000	99.578611
2955.000000	99.575337
2954.000000	99.570525
2953.000000	99.566966
2952.000000	99.566560
2951.000000	99.569280
2950.000000	99.573869
2949.000000	99.579106
2948.000000	99.584132
2947.000000	99.588119
2946.000000	99.590440
2945.000000	99.591215
2944.000000	99.591232
2943.000000	99.591302
2942.000000	99.591998
2941.000000	99.593906
2940.000000	99.597623
2939.000000	99.603387
2938.000000	99.610927
2937.000000	99.619650
2936.000000	99.628770
2935.000000	99.637407
2934.000000	99.644933
2933.000000	99.651178
2932.000000	99.655944
2931.000000	99.658566
2930.000000	99.658726
2929.000000	99.657807
2928.000000	99.658541
2927.000000	99.662535
2926.000000	99.668551
2925.000000	99.673733
2924.000000	99.676187
2923.000000	99.675683
2922.000000	99.672176
2921.000000	99.665081
2920.000000	99.654845
2919.000000	99.644556
2918.000000	99.638590
2917.000000	99.638960
2916.000000	99.643301
2915.000000	99.646835
2914.000000	99.646640
2913.000000	99.643806
2912.000000	99.641408
2911.000000	99.640932
2910.000000	99.641182
2909.000000	99.640212
2908.000000	99.637458
2907.000000	99.633990
2906.000000	99.631457
2905.000000	99.631049
2904.000000	99.632821
2903.000000	99.635497
2902.000000	99.637032
2901.000000	99.636186
2900.000000	99.633402
2899.000000	99.630153
2898.000000	99.627652
2897.000000	99.626172
2896.000000	99.625339
2895.000000	99.624647
2894.000000	99.623780
2893.000000	99.622801
2892.000000	99.622084
2891.000000	99.621902
2890.000000	99.622080
2889.000000	99.622156
2888.000000	99.621813
2887.000000	99.621032
2886.000000	99.619842
2885.000000	99.618178
2884.000000	99.616079
2883.000000	99.613947
2882.000000	99.612451
2881.000000	99.612089
2880.000000	99.612880
2879.000000	99.614353
2878.000000	99.615723
2877.000000	99.616296
2876.000000	99.615749
2875.000000	99.614149
2874.000000	99.611852
2873.000000	99.609421
2872.000000	99.607583
2871.000000	99.606972
2870.000000	99.607673
2869.000000	99.608979
2868.000000	99.609843
2867.000000	99.609730
2866.000000	99.608903
2865.000000	99.607919
2864.000000	99.606963
2863.000000	99.605816
2862.000000	99.604443
2861.000000	99.603369
2860.000000	99.603255
2859.000000	99.604089
2858.000000	99.604931
2857.000000	99.604678
2856.000000	99.603164
2855.000000	99.601449
2854.000000	99.600957
2853.000000	99.602183
2852.000000	99.604175
2851.000000	99.605205
2850.000000	99.603996
2849.000000	99.600400
2848.000000	99.595237
2847.000000	99.589782
2846.000000	99.585258
2845.000000	99.582470
2844.000000	99.581460
2843.000000	99.581302
2842.000000	99.580571
2841.000000	99.578398
2840.000000	99.575114
2839.000000	99.571806
2838.000000	99.569317
2837.000000	99.567761
2836.000000	99.566865
2835.000000	99.566459
2834.000000	99.566530
2833.000000	99.566998
2832.000000	99.567520
2831.000000	99.567462
2830.000000	99.566259
2829.000000	99.564066
2828.000000	99.561879
2827.000000	99.560480
2826.000000	99.559404
2825.000000	99.557542
2824.000000	99.554834
2823.000000	99.552727
2822.000000	99.552579
2821.000000	99.554079
2820.000000	99.555517
2819.000000	99.555455
2818.000000	99.553829
2817.000000	99.551612
2816.000000	99.549831
2815.000000	99.548893
2814.000000	99.548557
2813.000000	99.548359
2812.000000	99.548086
2811.000000	99.547865
2810.000000	99.547921
2809.000000	99.548469
2808.000000	99.549711
2807.000000	99.551489
2806.000000	99.552991
2805.000000	99.553280
2804.000000	99.552310
2803.000000	99.551126
2802.000000	99.550823
2801.000000	99.551501
2800.000000	99.552598
2799.000000	99.553811
2798.000000	99.555217
2797.000000	99.556737
2796.000000	99.558048
2795.000000	99.558975
2794.000000	99.559576
2793.000000	99.559893
2792.000000	99.559919
2791.000000	99.559802
2790.000000	99.559797
2789.000000	99.559972
2788.000000	99.560229
2787.000000	99.560667
2786.000000	99.561636
2785.000000	99.563299
2784.000000	99.565253
2783.000000	99.566734
2782.000000	99.567259
2781.000000	99.566920
2780.000000	99.566242
2779.000000	99.565815
2778.000000	99.565969
2777.000000	99.566691
2776.000000	99.567758
2775.000000	99.568974
2774.000000	99.570282
2773.000000	99.571597
2772.000000	99.572664
2771.000000	99.573229
2770.000000	99.573277
2769.000000	99.573045
2768.000000	99.572811
2767.000000	99.572744
2766.000000	99.572938
2765.000000	99.573437
2764.000000	99.574205
2763.000000	99.575132
2762.000000	99.576084
2761.000000	99.576904
2760.000000	99.577391
2759.000000	99.577365
2758.000000	99.576822
2757.000000	99.576024
2756.000000	99.575426
2755.000000	99.575452
2754.000000	99.576256
2753.000000	99.577576
2752.000000	99.578848
2751.000000	99.579612
2750.000000	99.579769
2749.000000	99.579501
2748.000000	99.579060
2747.000000	99.578669
2746.000000	99.578529
2745.000000	99.578748
2744.000000	99.579324
2743.000000	99.580294
2742.000000	99.581787
2741.000000	99.583728
2740.000000	99.585574
2739.000000	99.586619
2738.000000	99.586691
2737.000000	99.586305
2736.000000	99.586129
2735.000000	99.586395
2734.000000	99.586954
2733.000000	99.587664
2732.000000	99.588456
2731.000000	99.589163
2730.000000	99.589581
2729.000000	99.589724
2728.000000	99.589792
2727.000000	99.589895
2726.000000	99.589986
2725.000000	99.590057
2724.000000	99.590223
2723.000000	99.590584
2722.000000	99.591097
2721.000000	99.591624
2720.000000	99.592050
2719.000000	99.592343
2718.000000	99.592537
2717.000000	99.592686
2716.000000	99.592840
2715.000000	99.593016
2714.000000	99.593204
2713.000000	99.593409
2712.000000	99.593657
2711.000000	99.593948
2710.000000	99.594245
2709.000000	99.594508
2708.000000	99.594726
2707.000000	99.594912
2706.000000	99.595082
2705.000000	99.595241
2704.000000	99.595383
2703.000000	99.595503
2702.000000	99.595601
2701.000000	99.595682
2700.000000	99.595744
2699.000000	99.595786
2698.000000	99.595808
2697.000000	99.595812
2696.000000	99.595802
2695.000000	99.595784
2694.000000	99.595762
2693.000000	99.595738
2692.000000	99.595715
2691.000000	99.595694
2690.000000	99.595674
2689.000000	99.595648
2688.000000	99.595608
2687.000000	99.595549
2686.000000	99.595474
2685.000000	99.595392
2684.000000	99.595313
2683.000000	99.595247
2682.000000	99.595196
2681.000000	99.595160
2680.000000	99.595134
2679.000000	99.595109
2678.000000	99.595081
2677.000000	99.595046
2676.000000	99.595011
2675.000000	99.594981
2674.000000	99.594963
2673.000000	99.594954
2672.000000	99.594938
2671.000000	99.594900
2670.000000	99.594827
2669.000000	99.594718
2668.000000	99.594579
2667.000000	99.594423
2666.000000	99.594257
2665.000000	99.594081
2664.000000	99.593895
2663.000000	99.593697
2662.000000	99.593487
2661.000000	99.593270
2660.000000	99.593054
2659.000000	99.592847
2658.000000	99.592652
2657.000000	99.592485
2656.000000	99.592360
2655.000000	99.592271
2654.000000	99.592176
2653.000000	99.592012
2652.000000	99.591734
2651.000000	99.591373
2650.000000	99.591052
2649.000000	99.590918
2648.000000	99.591051
2647.000000	99.591402
2646.000000	99.591796
2645.000000	99.592026
2644.000000	99.591955
2643.000000	99.591621
2642.000000	99.591221
2641.000000	99.590947
2640.000000	99.590864
2639.000000	99.590946
2638.000000	99.591166
2637.000000	99.591497
2636.000000	99.591847
2635.000000	99.592076
2634.000000	99.592084
2633.000000	99.591824
2632.000000	99.591240
2631.000000	99.590321
2630.000000	99.589257
2629.000000	99.588429
2628.000000	99.588129
2627.000000	99.588330
2626.000000	99.588756
2625.000000	99.589142
2624.000000	99.589369
2623.000000	99.589395
2622.000000	99.589179
2621.000000	99.588712
2620.000000	99.588136
2619.000000	99.587823
2618.000000	99.588243
2617.000000	99.589624
2616.000000	99.591693
2615.000000	99.593681
2614.000000	99.594795
2613.000000	99.594763
2612.000000	99.593897
2611.000000	99.592790
2610.000000	99.591917
2609.000000	99.591516
2608.000000	99.591683
2607.000000	99.592380
2606.000000	99.593361
2605.000000	99.594226
2604.000000	99.594650
2603.000000	99.594501
2602.000000	99.593789
2601.000000	99.592616
2600.000000	99.591258
2599.000000	99.590208
2598.000000	99.589960
2597.000000	99.590601
2596.000000	99.591705
2595.000000	99.592691
2594.000000	99.593300
2593.000000	99.593650
2592.000000	99.593896
2591.000000	99.593989
2590.000000	99.593793
2589.000000	99.593345
2588.000000	99.592923
2587.000000	99.592818
2586.000000	99.593100
2585.000000	99.593618
2584.000000	99.594170
2583.000000	99.594632
2582.000000	99.594947
2581.000000	99.595071
2580.000000	99.594973
2579.000000	99.594682
2578.000000	99.594298
2577.000000	99.593948
2576.000000	99.593741
2575.000000	99.593740
2574.000000	99.593930
2573.000000	99.594199
2572.000000	99.594390
2571.000000	99.594412
2570.000000	99.594279
2569.000000	99.594078
2568.000000	99.593896
2567.000000	99.593778
2566.000000	99.593731
2565.000000	99.593740
2564.000000	99.593797
2563.000000	99.593912
2562.000000	99.594091
2561.000000	99.594311
2560.000000	99.594512
2559.000000	99.594639
2558.000000	99.594681
2557.000000	99.594681
2556.000000	99.594708
2555.000000	99.594800
2554.000000	99.594954
2553.000000	99.595133
2552.000000	99.595295
2551.000000	99.595411
2550.000000	99.595471
2549.000000	99.595483
2548.000000	99.595465
2547.000000	99.595468
2546.000000	99.595541
2545.000000	99.595697
2544.000000	99.595906
2543.000000	99.596120
2542.000000	99.596315
2541.000000	99.596475
2540.000000	99.596573
2539.000000	99.596582
2538.000000	99.596513
2537.000000	99.596450
2536.000000	99.596515
2535.000000	99.596783
2534.000000	99.597226
2533.000000	99.597728
2532.000000	99.598185
2531.000000	99.598604
2530.000000	99.599064
2529.000000	99.599567
2528.000000	99.599972
2527.000000	99.600139
2526.000000	99.600101
2525.000000	99.600061
2524.000000	99.600219
2523.000000	99.600628
2522.000000	99.601236
2521.000000	99.601929
2520.000000	99.602560
2519.000000	99.603010
2518.000000	99.603274
2517.000000	99.603466
2516.000000	99.603722
2515.000000	99.604101
2514.000000	99.604608
2513.000000	99.605270
2512.000000	99.606103
2511.000000	99.607035
2510.000000	99.607882
2509.000000	99.608442
2508.000000	99.608627
2507.000000	99.608538
2506.000000	99.608436
2505.000000	99.608595
2504.000000	99.609131
2503.000000	99.609977
2502.000000	99.610997
2501.000000	99.612073
2500.000000	99.613060
2499.000000	99.613766
2498.000000	99.614084
2497.000000	99.614107
2496.000000	99.614086
2495.000000	99.614233
2494.000000	99.614586
2493.000000	99.615062
2492.000000	99.615545
2491.000000	99.615962
2490.000000	99.616318
2489.000000	99.616652
2488.000000	99.616969
2487.000000	99.617217
2486.000000	99.617361
2485.000000	99.617442
2484.000000	99.617559
2483.000000	99.617793
2482.000000	99.618146
2481.000000	99.618560
2480.000000	99.618967
2479.000000	99.619330
2478.000000	99.619650
2477.000000	99.619946
2476.000000	99.620241
2475.000000	99.620550
2474.000000	99.620870
2473.000000	99.621194
2472.000000	99.621519
2471.000000	99.621851
2470.000000	99.622199
2469.000000	99.622569
2468.000000	99.622959
2467.000000	99.623360
2466.000000	99.623766
2465.000000	99.624172
2464.000000	99.624578
2463.000000	99.624986
2462.000000	99.625400
2461.000000	99.625823
2460.000000	99.626254
2459.000000	99.626695
2458.000000	99.627149
2457.000000	99.627623
2456.000000	99.628130
2455.000000	99.628676
2454.000000	99.629255
2453.000000	99.629855
2452.000000	99.630460
2451.000000	99.631061
2450.000000	99.631659
2449.000000	99.632259
2448.000000	99.632871
2447.000000	99.633501
2446.000000	99.634150
2445.000000	99.634814
2444.000000	99.635482
2443.000000	99.636145
2442.000000	99.636801
2441.000000	99.637474
2440.000000	99.638196
2439.000000	99.638969
2438.000000	99.639758
2437.000000	99.640520
2436.000000	99.641231
2435.000000	99.641862
2434.000000	99.642376
2433.000000	99.642773
2432.000000	99.643129
2431.000000	99.643554
2430.000000	99.644105
2429.000000	99.644758
2428.000000	99.645460
2427.000000	99.646188
2426.000000	99.646923
2425.000000	99.647607
2424.000000	99.648131
2423.000000	99.648404
2422.000000	99.648474
2421.000000	99.648559
2420.000000	99.648938
2419.000000	99.649737
2418.000000	99.650798
2417.000000	99.651777
2416.000000	99.652402
2415.000000	99.652601
2414.000000	99.652443
2413.000000	99.652075
2412.000000	99.651682
2411.000000	99.651427
2410.000000	99.651412
2409.000000	99.651662
2408.000000	99.652143
2407.000000	99.652764
2406.000000	99.653373
2405.000000	99.653795
2404.000000	99.653938
2403.000000	99.653836
2402.000000	99.653623
2401.000000	99.653469
2400.000000	99.653486
2399.000000	99.653694
2398.000000	99.654029
2397.000000	99.654387
2396.000000	99.654665
2395.000000	99.654798
2394.000000	99.654778
2393.000000	99.654647
2392.000000	99.654482
2391.000000	99.654376
2390.000000	99.654424
2389.000000	99.654682
2388.000000	99.655125
2387.000000	99.655637
2386.000000	99.656088
2385.000000	99.656408
2384.000000	99.656609
2383.000000	99.656755
2382.000000	99.656915
2381.000000	99.657121
2380.000000	99.657362
2379.000000	99.657600
2378.000000	99.657797
2377.000000	99.657941
2376.000000	99.658076
2375.000000	99.658265
2374.000000	99.658531
2373.000000	99.658837
2372.000000	99.659103
2371.000000	99.659277
2370.000000	99.659348
2369.000000	99.659358
2368.000000	99.659408
2367.000000	99.659594
2366.000000	99.659964
2365.000000	99.660489
2364.000000	99.661078
2363.000000	99.661595
2362.000000	99.661901
2361.000000	99.661911
2360.000000	99.661645
2359.000000	99.661237
2358.000000	99.660858
2357.000000	99.660641
2356.000000	99.660645
2355.000000	99.660808
2354.000000	99.660957
2353.000000	99.660936
2352.000000	99.660765
2351.000000	99.660589
2350.000000	99.660449
2349.000000	99.660277
2348.000000	99.659990
2347.000000	99.659628
2346.000000	99.659349
2345.000000	99.659256
2344.000000	99.659253
2343.000000	99.659020
2342.000000	99.658372
2341.000000	99.657419
2340.000000	99.656425
2339.000000	99.655589
2338.000000	99.654900
2337.000000	99.654215
2336.000000	99.653393
2335.000000	99.652427
2334.000000	99.651506
2333.000000	99.650911
2332.000000	99.650796
2331.000000	99.650979
2330.000000	99.650912
2329.000000	99.650235
2328.000000	99.648952
2327.000000	99.647350
2326.000000	99.645631
2325.000000	99.643869
2324.000000	99.642299
2323.000000	99.641125
2322.000000	99.640395
2321.000000	99.639877
2320.000000	99.639298
2319.000000	99.638507
2318.000000	99.637433
2317.000000	99.636038
2316.000000	99.634352
2315.000000	99.632666
2314.000000	99.631415
2313.000000	99.630818
2312.000000	99.630630
2311.000000	99.630336
2310.000000	99.629579
2309.000000	99.628401
2308.000000	99.627104
2307.000000	99.625973
2306.000000	99.625115
2305.000000	99.624476
2304.000000	99.623940
2303.000000	99.623373
2302.000000	99.622698
2301.000000	99.621949
2300.000000	99.621215
2299.000000	99.620539
2298.000000	99.619872
2297.000000	99.619150
2296.000000	99.618386
2295.000000	99.617679
2294.000000	99.617154
2293.000000	99.616870
2292.000000	99.616754
2291.000000	99.616603
2290.000000	99.616228
2289.000000	99.615621
2288.000000	99.614953
2287.000000	99.614359
2286.000000	99.613842
2285.000000	99.613368
2284.000000	99.612997
2283.000000	99.612850
2282.000000	99.612956
2281.000000	99.613150
2280.000000	99.613181
2279.000000	99.612889
2278.000000	99.612271
2277.000000	99.611458
2276.000000	99.610688
2275.000000	99.610191
2274.000000	99.609992
2273.000000	99.609828
2272.000000	99.609327
2271.000000	99.608323
2270.000000	99.607084
2269.000000	99.606176
2268.000000	99.606034
2267.000000	99.606601
2266.000000	99.607359
2265.000000	99.607883
2264.000000	99.608152
2263.000000	99.608348
2262.000000	99.608565
2261.000000	99.608722
2260.000000	99.608647
2259.000000	99.608126
2258.000000	99.607014
2257.000000	99.605484
2256.000000	99.604118
2255.000000	99.603548
2254.000000	99.603955
2253.000000	99.604983
2252.000000	99.606024
2251.000000	99.606547
2250.000000	99.606293
2249.000000	99.605509
2248.000000	99.604920
2247.000000	99.605158
2246.000000	99.606181
2245.000000	99.607390
2244.000000	99.608257
2243.000000	99.608537
2242.000000	99.607984
2241.000000	99.606376
2240.000000	99.603976
2239.000000	99.601574
2238.000000	99.599817
2237.000000	99.598811
2236.000000	99.598522
2235.000000	99.599156
2234.000000	99.600828
2233.000000	99.603104
2232.000000	99.605236
2231.000000	99.606771
2230.000000	99.607652
2229.000000	99.607832
2228.000000	99.607146
2227.000000	99.605506
2226.000000	99.603060
2225.000000	99.600225
2224.000000	99.597635
2223.000000	99.595846
2222.000000	99.594932
2221.000000	99.594405
2220.000000	99.593682
2219.000000	99.592584
2218.000000	99.591340
2217.000000	99.590382
2216.000000	99.590294
2215.000000	99.591604
2214.000000	99.594237
2213.000000	99.597202
2212.000000	99.599201
2211.000000	99.599668
2210.000000	99.598976
2209.000000	99.597803
2208.000000	99.596630
2207.000000	99.595795
2206.000000	99.595695
2205.000000	99.596559
2204.000000	99.598053
2203.000000	99.599334
2202.000000	99.599713
2201.000000	99.599242
2200.000000	99.598589
2199.000000	99.598274
2198.000000	99.598171
2197.000000	99.597876
2196.000000	99.597376
2195.000000	99.597041
2194.000000	99.597030
2193.000000	99.597095
2192.000000	99.597036
2191.000000	99.597030
2190.000000	99.597309
2189.000000	99.597757
2188.000000	99.598033
2187.000000	99.597963
2186.000000	99.597623
2185.000000	99.597197
2184.000000	99.596955
2183.000000	99.597236
2182.000000	99.598179
2181.000000	99.599508
2180.000000	99.600740
2179.000000	99.601611
2178.000000	99.602159
2177.000000	99.602413
2176.000000	99.602268
2175.000000	99.601672
2174.000000	99.600726
2173.000000	99.599595
2172.000000	99.598498
2171.000000	99.597790
2170.000000	99.597845
2169.000000	99.598693
2168.000000	99.599797
2167.000000	99.600375
2166.000000	99.600047
2165.000000	99.599119
2164.000000	99.598333
2163.000000	99.598276
2162.000000	99.599014
2161.000000	99.600191
2160.000000	99.601423
2159.000000	99.602581
2158.000000	99.603665
2157.000000	99.604516
2156.000000	99.604792
2155.000000	99.604323
2154.000000	99.603439
2153.000000	99.602828
2152.000000	99.602939
2151.000000	99.603579
2150.000000	99.604201
2149.000000	99.604606
2148.000000	99.605191
2147.000000	99.606367
2146.000000	99.607890
2145.000000	99.608979
2144.000000	99.609152
2143.000000	99.608744
2142.000000	99.608605
2141.000000	99.609334
2140.000000	99.610934
2139.000000	99.612958
2138.000000	99.614776
2137.000000	99.615862
2136.000000	99.616091
2135.000000	99.615920
2134.000000	99.616128
2133.000000	99.617128
2132.000000	99.618576
2131.000000	99.619734
2130.000000	99.620210
2129.000000	99.620251
2128.000000	99.620330
2127.000000	99.620564
2126.000000	99.620650
2125.000000	99.620328
2124.000000	99.619756
2123.000000	99.619401
2122.000000	99.619549
2121.000000	99.620084
2120.000000	99.620739
2119.000000	99.621412
2118.000000	99.622098
2117.000000	99.622638
2116.000000	99.622752
2115.000000	99.622383
2114.000000	99.621877
2113.000000	99.621732
2112.000000	99.622193
2111.000000	99.623119
2110.000000	99.624138
2109.000000	99.624906
2108.000000	99.625352
2107.000000	99.625678
2106.000000	99.626109
2105.000000	99.626634
2104.000000	99.627058
2103.000000	99.627275
2102.000000	99.627403
2101.000000	99.627634
2100.000000	99.628034
2099.000000	99.628571
2098.000000	99.629211
2097.000000	99.629893
2096.000000	99.630498
2095.000000	99.630942
2094.000000	99.631267
2093.000000	99.631576
2092.000000	99.631897
2091.000000	99.632169
2090.000000	99.632368
2089.000000	99.632588
2088.000000	99.632954
2087.000000	99.633494
2086.000000	99.634136
2085.000000	99.634770
2084.000000	99.635334
2083.000000	99.635824
2082.000000	99.636263
2081.000000	99.636665
2080.000000	99.637021
2079.000000	99.637315
2078.000000	99.637558
2077.000000	99.637813
2076.000000	99.638149
2075.000000	99.638585
2074.000000	99.639056
2073.000000	99.639451
2072.000000	99.639708
2071.000000	99.639850
2070.000000	99.639940
2069.000000	99.640031
2068.000000	99.640156
2067.000000	99.640355
2066.000000	99.640661
2065.000000	99.641028
2064.000000	99.641314
2063.000000	99.641387
2062.000000	99.641249
2061.000000	99.641039
2060.000000	99.640887
2059.000000	99.640797
2058.000000	99.640699
2057.000000	99.640555
2056.000000	99.640389
2055.000000	99.640227
2054.000000	99.640044
2053.000000	99.639793
2052.000000	99.639468
2051.000000	99.639107
2050.000000	99.638744
2049.000000	99.638368
2048.000000	99.637957
2047.000000	99.637509
2046.000000	99.637044
2045.000000	99.636571
2044.000000	99.636083
2043.000000	99.635572
2042.000000	99.635037
2041.000000	99.634486
2040.000000	99.633931
2039.000000	99.633375
2038.000000	99.632805
2037.000000	99.632202
2036.000000	99.631559
2035.000000	99.630890
2034.000000	99.630221
2033.000000	99.629560
2032.000000	99.628861
2031.000000	99.628073
2030.000000	99.627202
2029.000000	99.626344
2028.000000	99.625560
2027.000000	99.624773
2026.000000	99.623854
2025.000000	99.622808
2024.000000	99.621832
2023.000000	99.621146
2022.000000	99.620776
2021.000000	99.620455
2020.000000	99.619808
2019.000000	99.618730
2018.000000	99.617529
2017.000000	99.616602
2016.000000	99.615897
2015.000000	99.614936
2014.000000	99.613433
2013.000000	99.611686
2012.000000	99.610266
2011.000000	99.609463
2010.000000	99.609245
2009.000000	99.609512
2008.000000	99.610133
2007.000000	99.610773
2006.000000	99.610969
2005.000000	99.610437
2004.000000	99.609204
2003.000000	99.607472
2002.000000	99.605557
2001.000000	99.603927
2000.000000	99.602954
1999.000000	99.602510
1998.000000	99.601979
1997.000000	99.600831
1996.000000	99.599080
1995.000000	99.597171
1994.000000	99.595556
1993.000000	99.594377
1992.000000	99.593473
1991.000000	99.592741
1990.000000	99.592482
1989.000000	99.593200
1988.000000	99.594913
1987.000000	99.596837
1986.000000	99.597999
1985.000000	99.598114
1984.000000	99.597654
1983.000000	99.597172
1982.000000	99.596848
1981.000000	99.596702
1980.000000	99.596890
1979.000000	99.597571
1978.000000	99.598697
1977.000000	99.600009
1976.000000	99.601113
1975.000000	99.601496
1974.000000	99.600683
1973.000000	99.598656
1972.000000	99.596100
1971.000000	99.594050
1970.000000	99.593084
1969.000000	99.592980
1968.000000	99.593203
1967.000000	99.593600
1966.000000	99.594358
1965.000000	99.595279
1964.000000	99.595563
1963.000000	99.594611
1962.000000	99.592760
1961.000000	99.591048
1960.000000	99.590181
1959.000000	99.589996
1958.000000	99.589939
1957.000000	99.589730
1956.000000	99.589493
1955.000000	99.589377
1954.000000	99.589278
1953.000000	99.588946
1952.000000	99.588287
1951.000000	99.587474
1950.000000	99.586748
1949.000000	99.586188
1948.000000	99.585709
1947.000000	99.585217
1946.000000	99.584710
1945.000000	99.584252
1944.000000	99.583922
1943.000000	99.583728
1942.000000	99.583488
1941.000000	99.582835
1940.000000	99.581505
1939.000000	99.579633
1938.000000	99.577746
1937.000000	99.576343
1936.000000	99.575469
1935.000000	99.574779
1934.000000	99.573913
1933.000000	99.572657
1932.000000	99.571033
1931.000000	99.569448
1930.000000	99.568526
1929.000000	99.568512
1928.000000	99.568900
1927.000000	99.568894
1926.000000	99.568258
1925.000000	99.567423
1924.000000	99.566700
1923.000000	99.565744
1922.000000	99.564127
1921.000000	99.562195
1920.000000	99.560664
1919.000000	99.559519
1918.000000	99.557945
1917.000000	99.555560
1916.000000	99.553217
1915.000000	99.552038
1914.000000	99.552267
1913.000000	99.553239
1912.000000	99.553870
1911.000000	99.553178
1910.000000	99.550899
1909.000000	99.548125
1908.000000	99.546592
1907.000000	99.546615
1906.000000	99.546435
1905.000000	99.544256
1904.000000	99.540407
1903.000000	99.536679
1902.000000	99.533895
1901.000000	99.531208
1900.000000	99.527595
1899.000000	99.523142
1898.000000	99.518787
1897.000000	99.515435
1896.000000	99.513602
1895.000000	99.513187
1894.000000	99.513190
1893.000000	99.512393
1892.000000	99.510633
1891.000000	99.508995
1890.000000	99.508639
1889.000000	99.509358
1888.000000	99.509648
1887.000000	99.508279
1886.000000	99.505467
1885.000000	99.502793
1884.000000	99.501984
1883.000000	99.503254
1882.000000	99.504904
1881.000000	99.504896
1880.000000	99.502820
1879.000000	99.500242
1878.000000	99.499228
1877.000000	99.500480
1876.000000	99.502894
1875.000000	99.504686
1874.000000	99.504837
1873.000000	99.503655
1872.000000	99.502356
1871.000000	99.502175
1870.000000	99.503637
1869.000000	99.506117
1868.000000	99.508342
1867.000000	99.509661
1866.000000	99.510367
1865.000000	99.510987
1864.000000	99.511612
1863.000000	99.511882
1862.000000	99.511695
1861.000000	99.511653
1860.000000	99.512477
1859.000000	99.514036
1858.000000	99.515411
1857.000000	99.516051
1856.000000	99.516249
1855.000000	99.516354
1854.000000	99.516519
1853.000000	99.517328
1852.000000	99.519574
1851.000000	99.523127
1850.000000	99.526686
1849.000000	99.528996
1848.000000	99.530004
1847.000000	99.530549
1846.000000	99.531424
1845.000000	99.533108
1844.000000	99.535656
1843.000000	99.538156
1842.000000	99.539568
1841.000000	99.539996
1840.000000	99.540182
1839.000000	99.540583
1838.000000	99.541016
1837.000000	99.540948
1836.000000	99.540110
1835.000000	99.538797
1834.000000	99.537812
1833.000000	99.537977
1832.000000	99.539510
1831.000000	99.542052
1830.000000	99.544962
1829.000000	99.547398
1828.000000	99.548678
1827.000000	99.548594
1826.000000	99.547277
1825.000000	99.545334
1824.000000	99.543760
1823.000000	99.543050
1822.000000	99.542702
1821.000000	99.542079
1820.000000	99.541517
1819.000000	99.542018
1818.000000	99.543573
1817.000000	99.544655
1816.000000	99.544162
1815.000000	99.542894
1814.000000	99.542392
1813.000000	99.543055
1812.000000	99.544070
1811.000000	99.544598
1810.000000	99.544098
1809.000000	99.542334
1808.000000	99.540086
1807.000000	99.538703
1806.000000	99.538519
1805.000000	99.538607
1804.000000	99.538149
1803.000000	99.537448
1802.000000	99.537409
1801.000000	99.538508
1800.000000	99.540677
1799.000000	99.543486
1798.000000	99.545840
1797.000000	99.546644
1796.000000	99.546069
1795.000000	99.545258
1794.000000	99.544986
1793.000000	99.545041
1792.000000	99.545150
1791.000000	99.545831
1790.000000	99.547441
1789.000000	99.549730
1788.000000	99.552470
1787.000000	99.555427
1786.000000	99.557806
1785.000000	99.558628
1784.000000	99.557965
1783.000000	99.557049
1782.000000	99.556973
1781.000000	99.557860
1780.000000	99.559400
1779.000000	99.561548
1778.000000	99.564219
1777.000000	99.566763
1776.000000	99.568366
1775.000000	99.568993
1774.000000	99.569757
1773.000000	99.572050
1772.000000	99.575584
1771.000000	99.578739
1770.000000	99.581123
1769.000000	99.583275
1768.000000	99.585162
1767.000000	99.586501
1766.000000	99.587416
1765.000000	99.588298
1764.000000	99.589248
1763.000000	99.590132
1762.000000	99.590906
1761.000000	99.591433
1760.000000	99.591599
1759.000000	99.591836
1758.000000	99.592975
1757.000000	99.595494
1756.000000	99.598726
1755.000000	99.601591
1754.000000	99.603959
1753.000000	99.606198
1752.000000	99.608046
1751.000000	99.608724
1750.000000	99.608310
1749.000000	99.608099
1748.000000	99.608915
1747.000000	99.610263
1746.000000	99.611378
1745.000000	99.612018
1744.000000	99.612227
1743.000000	99.612042
1742.000000	99.611604
1741.000000	99.611273
1740.000000	99.611661
1739.000000	99.613237
1738.000000	99.615966
1737.000000	99.619313
1736.000000	99.622357
1735.000000	99.623644
1734.000000	99.621896
1733.000000	99.617470
1732.000000	99.612443
1731.000000	99.608755
1730.000000	99.607285
1729.000000	99.608013
1728.000000	99.609635
1727.000000	99.610565
1726.000000	99.610169
1725.000000	99.608913
1724.000000	99.607431
1723.000000	99.605803
1722.000000	99.603711
1721.000000	99.601186
1720.000000	99.598771
1719.000000	99.597359
1718.000000	99.597529
1717.000000	99.598163
1716.000000	99.597979
1715.000000	99.597201
1714.000000	99.595835
1713.000000	99.593460
1712.000000	99.590321
1711.000000	99.587134
1710.000000	99.584303
1709.000000	99.581574
1708.000000	99.578557
1707.000000	99.575356
1706.000000	99.572445
1705.000000	99.570050
1704.000000	99.568208
1703.000000	99.566887
1702.000000	99.565801
1701.000000	99.564370
1700.000000	99.562376
1699.000000	99.560161
1698.000000	99.557802
1697.000000	99.554914
1696.000000	99.551457
1695.000000	99.548221
1694.000000	99.545663
1693.000000	99.543545
1692.000000	99.541560
1691.000000	99.539480
1690.000000	99.537175
1689.000000	99.534663
1688.000000	99.532057
1687.000000	99.529456
1686.000000	99.526888
1685.000000	99.524488
1684.000000	99.522418
1683.000000	99.520436
1682.000000	99.518226
1681.000000	99.515821
1680.000000	99.513323
1679.000000	99.510867
1678.000000	99.508523
1677.000000	99.506273
1676.000000	99.504049
1675.000000	99.501829
1674.000000	99.499673
1673.000000	99.497638
1672.000000	99.495703
1671.000000	99.493732
1670.000000	99.491496
1669.000000	99.488907
1668.000000	99.486138
1667.000000	99.483379
1666.000000	99.480761
1665.000000	99.478330
1664.000000	99.476068
1663.000000	99.473913
1662.000000	99.471539
1661.000000	99.468723
1660.000000	99.465796
1659.000000	99.463370
1658.000000	99.461590
1657.000000	99.460291
1656.000000	99.458615
1655.000000	99.455190
1654.000000	99.450186
1653.000000	99.448692
1652.000000	99.451762
1651.000000	99.453812
1650.000000	99.453997
1649.000000	99.453221
1648.000000	99.452119
1647.000000	99.450738
1646.000000	99.449282
1645.000000	99.446745
1644.000000	99.442952
1643.000000	99.439127
1642.000000	99.436820
1641.000000	99.435968
1640.000000	99.435802
1639.000000	99.436016
1638.000000	99.436194
1637.000000	99.434881
1636.000000	99.430908
1635.000000	99.425602
1634.000000	99.422043
1633.000000	99.421463
1632.000000	99.422719
1631.000000	99.424024
1630.000000	99.423984
1629.000000	99.423320
1628.000000	99.423788
1627.000000	99.425636
1626.000000	99.427595
1625.000000	99.429045
1624.000000	99.430862
1623.000000	99.433620
1622.000000	99.436006
1621.000000	99.436900
1620.000000	99.436767
1619.000000	99.436835
1618.000000	99.438633
1617.000000	99.443893
1616.000000	99.451763
1615.000000	99.458427
1614.000000	99.463027
1613.000000	99.467324
1612.000000	99.471577
1611.000000	99.474598
1610.000000	99.476373
1609.000000	99.478795
1608.000000	99.482678
1607.000000	99.486442
1606.000000	99.489288
1605.000000	99.492570
1604.000000	99.496790
1603.000000	99.499982
1602.000000	99.500589
1601.000000	99.500057
1600.000000	99.500835
1599.000000	99.503354
1598.000000	99.506478
1597.000000	99.509465
1596.000000	99.512560
1595.000000	99.516173
1594.000000	99.520241
1593.000000	99.524354
1592.000000	99.527857
1591.000000	99.530106
1590.000000	99.531218
1589.000000	99.532085
1588.000000	99.533157
1587.000000	99.533945
1586.000000	99.534276
1585.000000	99.534943
1584.000000	99.536512
1583.000000	99.538600
1582.000000	99.540954
1581.000000	99.544333
1580.000000	99.549392
1579.000000	99.555236
1578.000000	99.559728
1577.000000	99.561299
1576.000000	99.560254
1575.000000	99.557608
1574.000000	99.554771
1573.000000	99.553361
1572.000000	99.553422
1571.000000	99.554128
1570.000000	99.555707
1569.000000	99.559321
1568.000000	99.563778
1567.000000	99.566603
1566.000000	99.567401
1565.000000	99.568245
1564.000000	99.570433
1563.000000	99.573335
1562.000000	99.575366
1561.000000	99.575098
1560.000000	99.573146
1559.000000	99.571579
1558.000000	99.569048
1557.000000	99.567392
1556.000000	99.569026
1555.000000	99.571307
1554.000000	99.574784
1553.000000	99.578863
1552.000000	99.583796
1551.000000	99.588405
1550.000000	99.591865
1549.000000	99.593645
1548.000000	99.594089
1547.000000	99.593945
1546.000000	99.594293
1545.000000	99.595959
1544.000000	99.598652
1543.000000	99.601125
1542.000000	99.602678
1541.000000	99.603273
1540.000000	99.602808
1539.000000	99.599734
1538.000000	99.592983
1537.000000	99.583968
1536.000000	99.574172
1535.000000	99.565005
1534.000000	99.558997
1533.000000	99.558567
1532.000000	99.561443
1531.000000	99.563582
1530.000000	99.563011
1529.000000	99.560300
1528.000000	99.557409
1527.000000	99.555644
1526.000000	99.554800
1525.000000	99.554050
1524.000000	99.553634
1523.000000	99.554839
1522.000000	99.558110
1521.000000	99.560944
1520.000000	99.560368
1519.000000	99.557472
1518.000000	99.555859
1517.000000	99.557388
1516.000000	99.560283
1515.000000	99.561542
1514.000000	99.560894
1513.000000	99.559712
1512.000000	99.558682
1511.000000	99.557760
1510.000000	99.556920
1509.000000	99.556405
1508.000000	99.557030
1507.000000	99.560768
1506.000000	99.566458
1505.000000	99.570045
1504.000000	99.571003
1503.000000	99.570979
1502.000000	99.571207
1501.000000	99.571417
1500.000000	99.571036
1499.000000	99.570230
1498.000000	99.570022
1497.000000	99.570688
1496.000000	99.571383
1495.000000	99.571704
1494.000000	99.572171
1493.000000	99.573277
1492.000000	99.574852
1491.000000	99.576298
1490.000000	99.577317
1489.000000	99.578044
1488.000000	99.578885
1487.000000	99.580001
1486.000000	99.580923
1485.000000	99.581532
1484.000000	99.582272
1483.000000	99.583417
1482.000000	99.584691
1481.000000	99.585479
1480.000000	99.585550
1479.000000	99.585367
1478.000000	99.585608
1477.000000	99.586638
1476.000000	99.588433
1475.000000	99.590682
1474.000000	99.592813
1473.000000	99.594188
1472.000000	99.594662
1471.000000	99.594897
1470.000000	99.595396
1469.000000	99.596020
1468.000000	99.596543
1467.000000	99.597075
1466.000000	99.597927
1465.000000	99.599117
1464.000000	99.600334
1463.000000	99.601418
1462.000000	99.602266
1461.000000	99.602428
1460.000000	99.601522
1459.000000	99.600082
1458.000000	99.600763
1457.000000	99.605921
1456.000000	99.612108
1455.000000	99.614599
1454.000000	99.613686
1453.000000	99.611256
1452.000000	99.608576
1451.000000	99.606298
1450.000000	99.604860
1449.000000	99.603881
1448.000000	99.602384
1447.000000	99.600171
1446.000000	99.598125
1445.000000	99.596766
1444.000000	99.595797
1443.000000	99.594800
1442.000000	99.593704
1441.000000	99.592753
1440.000000	99.592239
1439.000000	99.592543
1438.000000	99.594252
1437.000000	99.597117
1436.000000	99.598661
1435.000000	99.597020
1434.000000	99.593750
1433.000000	99.591116
1432.000000	99.589935
1431.000000	99.589675
1430.000000	99.589576
1429.000000	99.589354
1428.000000	99.588951
1427.000000	99.588609
1426.000000	99.589014
1425.000000	99.590933
1424.000000	99.593902
1423.000000	99.596533
1422.000000	99.598503
1421.000000	99.600263
1420.000000	99.601361
1419.000000	99.601148
1418.000000	99.600602
1417.000000	99.600912
1416.000000	99.601875
1415.000000	99.602738
1414.000000	99.603520
1413.000000	99.604973
1412.000000	99.607583
1411.000000	99.610918
1410.000000	99.614392
1409.000000	99.617109
1408.000000	99.617835
1407.000000	99.616430
1406.000000	99.615053
1405.000000	99.616660
1404.000000	99.621205
1403.000000	99.625663
1402.000000	99.628296
1401.000000	99.630371
1400.000000	99.634224
1399.000000	99.640237
1398.000000	99.646313
1397.000000	99.650443
1396.000000	99.652252
1395.000000	99.652330
1394.000000	99.651622
1393.000000	99.650424
1392.000000	99.648183
1391.000000	99.645401
1390.000000	99.643901
1389.000000	99.644959
1388.000000	99.647763
1387.000000	99.650058
1386.000000	99.650995
1385.000000	99.652220
1384.000000	99.655605
1383.000000	99.661443
1382.000000	99.668512
1381.000000	99.674712
1380.000000	99.677907
1379.000000	99.676861
1378.000000	99.672402
1377.000000	99.667220
1376.000000	99.663623
1375.000000	99.661778
1374.000000	99.660635
1373.000000	99.659757
1372.000000	99.659241
1371.000000	99.658465
1370.000000	99.656413
1369.000000	99.653450
1368.000000	99.651374
1367.000000	99.651608
1366.000000	99.653708
1365.000000	99.655600
1364.000000	99.655153
1363.000000	99.652060
1362.000000	99.648488
1361.000000	99.647199
1360.000000	99.648800
1359.000000	99.651479
1358.000000	99.653072
1357.000000	99.653045
1356.000000	99.652622
1355.000000	99.653297
1354.000000	99.655284
1353.000000	99.657270
1352.000000	99.657934
1351.000000	99.657336
1350.000000	99.656650
1349.000000	99.656947
1348.000000	99.658025
1347.000000	99.659071
1346.000000	99.660279
1345.000000	99.662695
1344.000000	99.666218
1343.000000	99.669008
1342.000000	99.669541
1341.000000	99.668423
1340.000000	99.667383
1339.000000	99.667008
1338.000000	99.666832
1337.000000	99.666974
1336.000000	99.667883
1335.000000	99.668978
1334.000000	99.668952
1333.000000	99.667483
1332.000000	99.665726
1331.000000	99.664758
1330.000000	99.664346
1329.000000	99.663682
1328.000000	99.662605
1327.000000	99.661634
1326.000000	99.661467
1325.000000	99.662791
1324.000000	99.665650
1323.000000	99.668968
1322.000000	99.671366
1321.000000	99.672444
1320.000000	99.672621
1319.000000	99.671909
1318.000000	99.669807
1317.000000	99.666619
1316.000000	99.663850
1315.000000	99.662910
1314.000000	99.663980
1313.000000	99.666207
1312.000000	99.668453
1311.000000	99.669773
1310.000000	99.669781
1309.000000	99.668970
1308.000000	99.668400
1307.000000	99.668628
1306.000000	99.669215
1305.000000	99.669559
1304.000000	99.669486
1303.000000	99.668892
1302.000000	99.667557
1301.000000	99.665838
1300.000000	99.664940
1299.000000	99.665742
1298.000000	99.667512
1297.000000	99.668466
1296.000000	99.667594
1295.000000	99.665417
1294.000000	99.663107
1293.000000	99.661528
1292.000000	99.661239
1291.000000	99.662588
1290.000000	99.665186
1289.000000	99.667748
1288.000000	99.669075
1287.000000	99.669084
1286.000000	99.668553
1285.000000	99.668180
1284.000000	99.668210
1283.000000	99.668500
1282.000000	99.668310
1281.000000	99.666467
1280.000000	99.662650
1279.000000	99.658388
1278.000000	99.656011
1277.000000	99.656483
1276.000000	99.658839
1275.000000	99.661422
1274.000000	99.663015
1273.000000	99.663059
1272.000000	99.661941
1271.000000	99.661331
1270.000000	99.663139
1269.000000	99.667452
1268.000000	99.672019
1267.000000	99.674157
1266.000000	99.672822
1265.000000	99.668781
1264.000000	99.663694
1263.000000	99.659488
1262.000000	99.657552
1261.000000	99.657838
1260.000000	99.659226
1259.000000	99.660923
1258.000000	99.662656
1257.000000	99.663228
1256.000000	99.660480
1255.000000	99.653925
1254.000000	99.646399
1253.000000	99.641546
1252.000000	99.640003
1251.000000	99.639166
1250.000000	99.636339
1249.000000	99.631042
1248.000000	99.624596
1247.000000	99.618846
1246.000000	99.615296
1245.000000	99.614229
1244.000000	99.614316
1243.000000	99.613630
1242.000000	99.610952
1241.000000	99.605670
1240.000000	99.597182
1239.000000	99.585750
1238.000000	99.573689
1237.000000	99.564294
1236.000000	99.559216
1235.000000	99.557552
1234.000000	99.557313
1233.000000	99.556642
1232.000000	99.553491
1231.000000	99.545627
1230.000000	99.532238
1229.000000	99.515261
1228.000000	99.498301
1227.000000	99.483572
1226.000000	99.469569
1225.000000	99.452010
1224.000000	99.427756
1223.000000	99.398079
1222.000000	99.367686
1221.000000	99.340208
1220.000000	99.315303
1219.000000	99.290326
1218.000000	99.263541
1217.000000	99.234838
1216.000000	99.204347
1215.000000	99.171881
1214.000000	99.137765
1213.000000	99.103236
1212.000000	99.069683
1211.000000	99.037624
1210.000000	99.006019
1209.000000	98.972541
1208.000000	98.935521
1207.000000	98.896459
1206.000000	98.859845
1205.000000	98.829140
1204.000000	98.803026
1203.000000	98.776655
1202.000000	98.746607
1201.000000	98.713705
1200.000000	98.680731
1199.000000	98.648541
1198.000000	98.615496
1197.000000	98.580137
1196.000000	98.543111
1195.000000	98.506440
1194.000000	98.472017
1193.000000	98.441042
1192.000000	98.413333
1191.000000	98.386010
1190.000000	98.354170
1189.000000	98.314915
1188.000000	98.270544
1187.000000	98.226332
1186.000000	98.185159
1185.000000	98.145938
1184.000000	98.107134
1183.000000	98.068978
1182.000000	98.030921
1181.000000	97.989464
1180.000000	97.941280
1179.000000	97.887724
1178.000000	97.833820
1177.000000	97.782462
1176.000000	97.731464
1175.000000	97.676901
1174.000000	97.617950
1173.000000	97.557539
1172.000000	97.499103
1171.000000	97.444137
1170.000000	97.392756
1169.000000	97.344893
1168.000000	97.299645
1167.000000	97.254594
1166.000000	97.208731
1165.000000	97.166962
1164.000000	97.139132
1163.000000	97.132242
1162.000000	97.144141
1161.000000	97.165488
1160.000000	97.186367
1159.000000	97.199852
1158.000000	97.202153
1157.000000	97.193146
1156.000000	97.176010
1155.000000	97.153709
1154.000000	97.126257
1153.000000	97.092982
1152.000000	97.055780
1151.000000	97.017550
1150.000000	96.978954
1149.000000	96.939715
1148.000000	96.901493
1147.000000	96.865625
1146.000000	96.829209
1145.000000	96.788165
1144.000000	96.744055
1143.000000	96.703199
1142.000000	96.668250
1141.000000	96.635054
1140.000000	96.599145
1139.000000	96.561001
1138.000000	96.522919
1137.000000	96.484468
1136.000000	96.443935
1135.000000	96.402070
1134.000000	96.361951
1133.000000	96.326033
1132.000000	96.294199
1131.000000	96.263323
1130.000000	96.228693
1129.000000	96.187969
1128.000000	96.143855
1127.000000	96.100883
1126.000000	96.059879
1125.000000	96.018086
1124.000000	95.974113
1123.000000	95.929515
1122.000000	95.885713
1121.000000	95.842930
1120.000000	95.802433
1119.000000	95.766015
1118.000000	95.732262
1117.000000	95.696413
1116.000000	95.655024
1115.000000	95.608415
1114.000000	95.558525
1113.000000	95.507820
1112.000000	95.460876
1111.000000	95.422769
1110.000000	95.393657
1109.000000	95.367484
1108.000000	95.337539
1107.000000	95.301754
1106.000000	95.262574
1105.000000	95.224411
1104.000000	95.191137
1103.000000	95.162676
1102.000000	95.134284
1101.000000	95.102196
1100.000000	95.069114
1099.000000	95.040289
1098.000000	95.014801
1097.000000	94.986815
1096.000000	94.954535
1095.000000	94.922157
1094.000000	94.892356
1093.000000	94.862621
1092.000000	94.829857
1091.000000	94.793174
1090.000000	94.751628
1089.000000	94.705422
1088.000000	94.660780
1087.000000	94.627303
1086.000000	94.607592
1085.000000	94.593913
1084.000000	94.576824
1083.000000	94.552787
1082.000000	94.522869
1081.000000	94.489940
1080.000000	94.459209
1079.000000	94.436138
1078.000000	94.420508
1077.000000	94.405353
1076.000000	94.382873
1075.000000	94.348899
1074.000000	94.303176
1073.000000	94.250301
1072.000000	94.199324
1071.000000	94.155963
1070.000000	94.114578
1069.000000	94.063191
1068.000000	93.996092
1067.000000	93.916744
1066.000000	93.830648
1065.000000	93.742631
1064.000000	93.659881
1063.000000	93.588155
1062.000000	93.523694
1061.000000	93.457534
1060.000000	93.389145
1059.000000	93.327174
1058.000000	93.275180
1057.000000	93.225952
1056.000000	93.172683
1055.000000	93.116492
1054.000000	93.059042
1053.000000	92.995943
1052.000000	92.922315
1051.000000	92.838235
1050.000000	92.744871
1049.000000	92.642651
1048.000000	92.536698
1047.000000	92.435249
1046.000000	92.338670
1045.000000	92.238322
1044.000000	92.129439
1043.000000	92.017297
1042.000000	91.907843
1041.000000	91.800424
1040.000000	91.693776
1039.000000	91.591428
1038.000000	91.496443
1037.000000	91.407393
1036.000000	91.323233
1035.000000	91.245454
1034.000000	91.172506
1033.000000	91.099990
1032.000000	91.029972
1031.000000	90.972152
1030.000000	90.931414
1029.000000	90.901129
1028.000000	90.872219
1027.000000	90.841908
1026.000000	90.810046
1025.000000	90.774513
1024.000000	90.735371
1023.000000	90.697485
1022.000000	90.664254
1021.000000	90.633332
1020.000000	90.601535
1019.000000	90.569256
1018.000000	90.537852
1017.000000	90.507346
1016.000000	90.477797
1015.000000	90.447985
1014.000000	90.413273
1013.000000	90.371468
1012.000000	90.330090
1011.000000	90.299719
1010.000000	90.280115
1009.000000	90.261430
1008.000000	90.239380
1007.000000	90.219322
1006.000000	90.203629
1005.000000	90.185554
1004.000000	90.159633
1003.000000	90.130072
1002.000000	90.105137
1001.000000	90.089874
1000.000000	90.086291
999.000000	90.092918
998.000000	90.101883
997.000000	90.104306
996.000000	90.100960
995.000000	90.100227
994.000000	90.104525
993.000000	90.107707
992.000000	90.107764
991.000000	90.112229
990.000000	90.126918
989.000000	90.147918
988.000000	90.169072
987.000000	90.190034
986.000000	90.212611
985.000000	90.236030
984.000000	90.260466
983.000000	90.289821
982.000000	90.327142
981.000000	90.371772
980.000000	90.423258
979.000000	90.482928
978.000000	90.549629
977.000000	90.619058
976.000000	90.689140
975.000000	90.761603
974.000000	90.837500
973.000000	90.915976
972.000000	90.997632
971.000000	91.083845
970.000000	91.172856
969.000000	91.261949
968.000000	91.352829
967.000000	91.448675
966.000000	91.546577
965.000000	91.639475
964.000000	91.725140
963.000000	91.806676
962.000000	91.885146
961.000000	91.959419
960.000000	92.033221
959.000000	92.113907
958.000000	92.202459
957.000000	92.291632
956.000000	92.375317
955.000000	92.453026
954.000000	92.524576
953.000000	92.588270
952.000000	92.646335
951.000000	92.704730
950.000000	92.764447
949.000000	92.819605
948.000000	92.867400
947.000000	92.913549
946.000000	92.963798
945.000000	93.015181
944.000000	93.060608
943.000000	93.098229
942.000000	93.131704
941.000000	93.163752
940.000000	93.193964
939.000000	93.222557
938.000000	93.252957
937.000000	93.289291
936.000000	93.331682
935.000000	93.374759
934.000000	93.412480
933.000000	93.444749
932.000000	93.476589
931.000000	93.510142
930.000000	93.542229
929.000000	93.572534
928.000000	93.608255
927.000000	93.654417
926.000000	93.703696
925.000000	93.743514
924.000000	93.771250
923.000000	93.795473
922.000000	93.823741
921.000000	93.856474
920.000000	93.891887
919.000000	93.928951
918.000000	93.964723
917.000000	93.995867
916.000000	94.024304
915.000000	94.055818
914.000000	94.092231
913.000000	94.130038
912.000000	94.166896
911.000000	94.204241
910.000000	94.243922
909.000000	94.288207
908.000000	94.342536
907.000000	94.411267
906.000000	94.489919
905.000000	94.567635
904.000000	94.638611
903.000000	94.706467
902.000000	94.777982
901.000000	94.858350
900.000000	94.951148
899.000000	95.054987
898.000000	95.159496
897.000000	95.252459
896.000000	95.332834
895.000000	95.410881
894.000000	95.494520
893.000000	95.581748
892.000000	95.667683
891.000000	95.751928
890.000000	95.835651
889.000000	95.916863
888.000000	95.992558
887.000000	96.062309
886.000000	96.127226
885.000000	96.188318
884.000000	96.247867
883.000000	96.309368
882.000000	96.373649
881.000000	96.437159
880.000000	96.495748
879.000000	96.548387
878.000000	96.596639
877.000000	96.642788
876.000000	96.689394
875.000000	96.738956
874.000000	96.793562
873.000000	96.855745
872.000000	96.927835
871.000000	97.008029
870.000000	97.089243
869.000000	97.164984
868.000000	97.234134
867.000000	97.296988
866.000000	97.350361
865.000000	97.392449
864.000000	97.430744
863.000000	97.478570
862.000000	97.542662
861.000000	97.618262
860.000000	97.696016
859.000000	97.768587
858.000000	97.830976
857.000000	97.881123
856.000000	97.923013
855.000000	97.965028
854.000000	98.012097
853.000000	98.061486
852.000000	98.107391
851.000000	98.146889
850.000000	98.180655
849.000000	98.211213
848.000000	98.241817
847.000000	98.274107
846.000000	98.305667
845.000000	98.332656
844.000000	98.355379
843.000000	98.377384
842.000000	98.397655
841.000000	98.408107
840.000000	98.401870
839.000000	98.380787
838.000000	98.351651
837.000000	98.318229
836.000000	98.281748
835.000000	98.247252
834.000000	98.222857
833.000000	98.210811
832.000000	98.203721
831.000000	98.193052
830.000000	98.179678
829.000000	98.172535
828.000000	98.176148
827.000000	98.182419
826.000000	98.178218
825.000000	98.161183
824.000000	98.144630
823.000000	98.144897
822.000000	98.165915
821.000000	98.197911
820.000000	98.227646
819.000000	98.246177
818.000000	98.249795
817.000000	98.238582
816.000000	98.214650
815.000000	98.179394
814.000000	98.131211
813.000000	98.066264
812.000000	97.981304
811.000000	97.875124
810.000000	97.747463
809.000000	97.597254
808.000000	97.422337
807.000000	97.221572
806.000000	96.998734
805.000000	96.764650
804.000000	96.533196
803.000000	96.313147
802.000000	96.105917
801.000000	95.914264
800.000000	95.750393
799.000000	95.629586
798.000000	95.556348
797.000000	95.521719
796.000000	95.512824
795.000000	95.519181
794.000000	95.531856
793.000000	95.545297
792.000000	95.561506
791.000000	95.585916
790.000000	95.617369
789.000000	95.646396
788.000000	95.663071
787.000000	95.661159
786.000000	95.634974
785.000000	95.579354
784.000000	95.496077
783.000000	95.397029
782.000000	95.298791
781.000000	95.215508
780.000000	95.156054
779.000000	95.123454
778.000000	95.115937
777.000000	95.131150
776.000000	95.168528
775.000000	95.225251
774.000000	95.293580
773.000000	95.367019
772.000000	95.445033
771.000000	95.525506
770.000000	95.597331
769.000000	95.649974
768.000000	95.688448
767.000000	95.729021
766.000000	95.779376
765.000000	95.830913
764.000000	95.871847
763.000000	95.900554
762.000000	95.924109
761.000000	95.950540
760.000000	95.985108
759.000000	96.028026
758.000000	96.072418
757.000000	96.108845
756.000000	96.134612
755.000000	96.155992
754.000000	96.180824
753.000000	96.212644
752.000000	96.252119
751.000000	96.298774
750.000000	96.349329
749.000000	96.398556
748.000000	96.443952
747.000000	96.487174
746.000000	96.530382
745.000000	96.574216
744.000000	96.620315
743.000000	96.673069
742.000000	96.737304
741.000000	96.814681
740.000000	96.900948
739.000000	96.985023
738.000000	97.053910
737.000000	97.102952
736.000000	97.140558
735.000000	97.180372
734.000000	97.229467
733.000000	97.285522
732.000000	97.342353
731.000000	97.394385
730.000000	97.438003
729.000000	97.473229
728.000000	97.503324
727.000000	97.529825
726.000000	97.549799
725.000000	97.561319
724.000000	97.570134
723.000000	97.587404
722.000000	97.621249
721.000000	97.672136
720.000000	97.733615
719.000000	97.794644
718.000000	97.844788
717.000000	97.881261
716.000000	97.908887
715.000000	97.931486
714.000000	97.948201
713.000000	97.961961
712.000000	97.984150
711.000000	98.021303
710.000000	98.060358
709.000000	98.077998
708.000000	98.065887
707.000000	98.039496
706.000000	98.021031
705.000000	98.019113
704.000000	98.025677
703.000000	98.024340
702.000000	97.997171
701.000000	97.929591
700.000000	97.816989
699.000000	97.668836
698.000000	97.506476
697.000000	97.356348
696.000000	97.241506
695.000000	97.174156
694.000000	97.153978
693.000000	97.175029
692.000000	97.232108
691.000000	97.316706
690.000000	97.411188
689.000000	97.494411
688.000000	97.555189
687.000000	97.598382
686.000000	97.638298
685.000000	97.688588
684.000000	97.754287
683.000000	97.826748
682.000000	97.888515
681.000000	97.928517
680.000000	97.950532
679.000000	97.963541
678.000000	97.970539
677.000000	97.975165
676.000000	97.990562
675.000000	98.025498
674.000000	98.070278
673.000000	98.108661
672.000000	98.139013
671.000000	98.172429
670.000000	98.214083
669.000000	98.257197
668.000000	98.296908
667.000000	98.336668
666.000000	98.374721
665.000000	98.404508
664.000000	98.421638
663.000000	98.429842
662.000000	98.441283
661.000000	98.466832
660.000000	98.505271
659.000000	98.541954
658.000000	98.559734
657.000000	98.555032
656.000000	98.540549
655.000000	98.529566
654.000000	98.526675
653.000000	98.534383
652.000000	98.557097
651.000000	98.591032
650.000000	98.619488
