4000.000000	100.414574
3999.000000	100.414707
3998.000000	100.414839
3997.000000	100.414980
3996.000000	100.415122
3995.000000	100.415210
3994.000000	100.415190
3993.000000	100.415071
3992.000000	100.414923
3991.000000	100.414809
3990.000000	100.414752
3989.000000	100.414741
3988.000000	100.414756
3987.000000	100.414780
3986.000000	100.414813
3985.000000	100.414861
3984.000000	100.414917
3983.000000	100.414957
3982.000000	100.414961
3981.000000	100.414919
3980.000000	100.414841
3979.000000	100.414761
3978.000000	100.414718
3977.000000	100.414732
3976.000000	100.414788
3975.000000	100.414837
3974.000000	100.414831
3973.000000	100.414757
3972.000000	100.414670
3971.000000	100.414646
3970.000000	100.414706
3969.000000	100.414800
3968.000000	100.414858
3967.000000	100.414870
3966.000000	100.414882
3965.000000	100.414936
3964.000000	100.415025
3963.000000	100.415127
3962.000000	100.415244
3961.000000	100.415374
3960.000000	100.415429
3959.000000	100.415277
3958.000000	100.414855
3957.000000	100.414238
3956.000000	100.413646
3955.000000	100.413332
3954.000000	100.413426
3953.000000	100.413868
3952.000000	100.414434
3951.000000	100.414886
3950.000000	100.415106
3949.000000	100.415113
3948.000000	100.415016
3947.000000	100.414932
3946.000000	100.414924
3945.000000	100.415010
3944.000000	100.415162
3943.000000	100.415257
3942.000000	100.415093
3941.000000	100.414535
3940.000000	100.413712
3939.000000	100.413070
3938.000000	100.413055
3937.000000	100.413752
3936.000000	100.414803
3935.000000	100.415675
3934.000000	100.416043
3933.000000	100.415848
3932.000000	100.415165
3931.000000	100.414163
3930.000000	100.413230
3929.000000	100.412787
3928.000000	100.412929
3927.000000	100.413367
3926.000000	100.413699
3925.000000	100.413742
3924.000000	100.413502
3923.000000	100.412946
3922.000000	100.412099
3921.000000	100.411307
3920.000000	100.411068
3919.000000	100.411487
3918.000000	100.412092
3917.000000	100.412342
3916.000000	100.412121
3915.000000	100.411575
3914.000000	100.410722
3913.000000	100.409545
3912.000000	100.408176
3911.000000	100.406830
3910.000000	100.405546
3909.000000	100.404241
3908.000000	100.402867
3907.000000	100.401598
3906.000000	100.400791
3905.000000	100.400716
3904.000000	100.401250
3903.000000	100.401780
3902.000000	100.401657
3901.000000	100.400944
3900.000000	100.400439
3899.000000	100.400786
3898.000000	100.401757
3897.000000	100.402548
3896.000000	100.402659
3895.000000	100.402154
3894.000000	100.401217
3893.000000	100.400020
3892.000000	100.399051
3891.000000	100.399212
3890.000000	100.400663
3889.000000	100.402180
3888.000000	100.402285
3887.000000	100.400567
3886.000000	100.398070
3885.000000	100.396549
3884.000000	100.396533
3883.000000	100.397085
3882.000000	100.397288
3881.000000	100.397227
3880.000000	100.397622
3879.000000	100.398807
3878.000000	100.400196
3877.000000	100.401200
3876.000000	100.401919
3875.000000	100.402935
3874.000000	100.404786
3873.000000	100.407357
3872.000000	100.409714
3871.000000	100.410849
3870.000000	100.410610
3869.000000	100.409668
3868.000000	100.408570
3867.000000	100.407611
3866.000000	100.407278
3865.000000	100.407817
3864.000000	100.408795
3863.000000	100.409531
3862.000000	100.409862
3861.000000	100.410150
3860.000000	100.410637
3859.000000	100.411250
3858.000000	100.411815
3857.000000	100.412293
3856.000000	100.412752
3855.000000	100.413196
3854.000000	100.413550
3853.000000	100.413842
3852.000000	100.414080
3851.000000	100.414173
3850.000000	100.414182
3849.000000	100.414242
3848.000000	100.414381
3847.000000	100.414545
3846.000000	100.414693
3845.000000	100.414827
3844.000000	100.414951
3843.000000	100.415053
3842.000000	100.415124
3841.000000	100.415151
3840.000000	100.415133
3839.000000	100.415079
3838.000000	100.415007
3837.000000	100.414935
3836.000000	100.414867
3835.000000	100.414794
3834.000000	100.414709
3833.000000	100.414611
3832.000000	100.414513
3831.000000	100.414423
3830.000000	100.414345
3829.000000	100.414269
3828.000000	100.414190
3827.000000	100.414104
3826.000000	100.414013
3825.000000	100.413919
3824.000000	100.413822
3823.000000	100.413720
3822.000000	100.413621
3821.000000	100.413537
3820.000000	100.413470
3819.000000	100.413404
3818.000000	100.413320
3817.000000	100.413212
3816.000000	100.413092
3815.000000	100.412972
3814.000000	100.412858
3813.000000	100.412751
3812.000000	100.412660
3811.000000	100.412600
3810.000000	100.412586
3809.000000	100.412620
3808.000000	100.412700
3807.000000	100.412813
3806.000000	100.412937
3805.000000	100.413048
3804.000000	100.413125
3803.000000	100.413173
3802.000000	100.413212
3801.000000	100.413261
3800.000000	100.413323
3799.000000	100.413387
3798.000000	100.413444
3797.000000	100.413484
3796.000000	100.413500
3795.000000	100.413502
3794.000000	100.413522
3793.000000	100.413588
3792.000000	100.413710
3791.000000	100.413845
3790.000000	100.413902
3789.000000	100.413844
3788.000000	100.413746
3787.000000	100.413733
3786.000000	100.413859
3785.000000	100.414099
3784.000000	100.414420
3783.000000	100.414799
3782.000000	100.415164
3781.000000	100.415402
3780.000000	100.415435
3779.000000	100.415299
3778.000000	100.415098
3777.000000	100.414911
3776.000000	100.414785
3775.000000	100.414725
3774.000000	100.414641
3773.000000	100.414404
3772.000000	100.413992
3771.000000	100.413559
3770.000000	100.413301
3769.000000	100.413261
3768.000000	100.413289
3767.000000	100.413168
3766.000000	100.412836
3765.000000	100.412447
3764.000000	100.412161
3763.000000	100.411914
3762.000000	100.411557
3761.000000	100.411141
3760.000000	100.410781
3759.000000	100.410348
3758.000000	100.409601
3757.000000	100.408642
3756.000000	100.407858
3755.000000	100.407552
3754.000000	100.407762
3753.000000	100.408201
3752.000000	100.408206
3751.000000	100.407322
3750.000000	100.406235
3749.000000	100.405988
3748.000000	100.406354
3747.000000	100.406118
3746.000000	100.404451
3745.000000	100.401914
3744.000000	100.400641
3743.000000	100.401382
3742.000000	100.402054
3741.000000	100.401369
3740.000000	100.400263
3739.000000	100.399737
3738.000000	100.399278
3737.000000	100.397918
3736.000000	100.396132
3735.000000	100.395235
3734.000000	100.395217
3733.000000	100.394888
3732.000000	100.394350
3731.000000	100.394808
3730.000000	100.396216
3729.000000	100.397121
3728.000000	100.396202
3727.000000	100.393223
3726.000000	100.389160
3725.000000	100.385261
3724.000000	100.382177
3723.000000	100.379784
3722.000000	100.377420
3721.000000	100.374371
3720.000000	100.370427
3719.000000	100.366061
3718.000000	100.361778
3717.000000	100.357855
3716.000000	100.354449
3715.000000	100.352097
3714.000000	100.351735
3713.000000	100.352884
3712.000000	100.352499
3711.000000	100.347936
3710.000000	100.340052
3709.000000	100.332159
3708.000000	100.326699
3707.000000	100.323829
3706.000000	100.322021
3705.000000	100.319442
3704.000000	100.315279
3703.000000	100.310009
3702.000000	100.304785
3701.000000	100.300290
3700.000000	100.295936
3699.000000	100.290672
3698.000000	100.284602
3697.000000	100.278933
3696.000000	100.274140
3695.000000	100.269036
3694.000000	100.262482
3693.000000	100.255239
3692.000000	100.248992
3691.000000	100.243941
3690.000000	100.238524
3689.000000	100.232522
3688.000000	100.228051
3687.000000	100.225793
3686.000000	100.223897
3685.000000	100.221002
3684.000000	100.217324
3683.000000	100.213132
3682.000000	100.207808
3681.000000	100.201062
3680.000000	100.194143
3679.000000	100.188223
3678.000000	100.182498
3677.000000	100.174870
3676.000000	100.165349
3675.000000	100.157548
3674.000000	100.151984
3673.000000	100.143803
3672.000000	100.131111
3671.000000	100.117593
3670.000000	100.108108
3669.000000	100.103972
3668.000000	100.101700
3667.000000	100.097427
3666.000000	100.090762
3665.000000	100.083015
3664.000000	100.074794
3663.000000	100.065978
3662.000000	100.056753
3661.000000	100.048013
3660.000000	100.040481
3659.000000	100.033748
3658.000000	100.026781
3657.000000	100.019143
3656.000000	100.012062
3655.000000	100.006398
3654.000000	100.000862
3653.000000	99.994455
3652.000000	99.988558
3651.000000	99.984206
3650.000000	99.979279
3649.000000	99.971412
3648.000000	99.962318
3647.000000	99.955508
3646.000000	99.951840
3645.000000	99.949662
3644.000000	99.946838
3643.000000	99.942111
3642.000000	99.935199
3641.000000	99.927173
3640.000000	99.920178
3639.000000	99.916087
3638.000000	99.914960
3637.000000	99.914688
3636.000000	99.912949
3635.000000	99.909094
3634.000000	99.903582
3633.000000	99.895770
3632.000000	99.884456
3631.000000	99.871772
3630.000000	99.864250
3629.000000	99.867457
3628.000000	99.878867
3627.000000	99.888036
3626.000000	99.887566
3625.000000	99.879786
3624.000000	99.870962
3623.000000	99.864824
3622.000000	99.861974
3621.000000	99.862154
3620.000000	99.865308
3619.000000	99.871046
3618.000000	99.878345
3617.000000	99.885578
3616.000000	99.891609
3615.000000	99.896382
3614.000000	99.900264
3613.000000	99.903190
3612.000000	99.904526
3611.000000	99.903933
3610.000000	99.902944
3609.000000	99.904801
3608.000000	99.911745
3607.000000	99.922664
3606.000000	99.933723
3605.000000	99.941522
3604.000000	99.944908
3603.000000	99.944606
3602.000000	99.942902
3601.000000	99.943053
3600.000000	99.947442
3599.000000	99.955210
3598.000000	99.962867
3597.000000	99.967248
3596.000000	99.967651
3595.000000	99.965268
3594.000000	99.961945
3593.000000	99.958932
3592.000000	99.956793
3591.000000	99.956005
3590.000000	99.956884
3589.000000	99.959019
3588.000000	99.961450
3587.000000	99.964029
3586.000000	99.966941
3585.000000	99.969430
3584.000000	99.970647
3583.000000	99.970683
3582.000000	99.970038
3581.000000	99.968838
3580.000000	99.967070
3579.000000	99.965032
3578.000000	99.963360
3577.000000	99.962597
3576.000000	99.962912
3575.000000	99.964053
3574.000000	99.965298
3573.000000	99.965596
3572.000000	99.963971
3571.000000	99.960300
3570.000000	99.955736
3569.000000	99.952271
3568.000000	99.951192
3567.000000	99.951938
3566.000000	99.952630
3565.000000	99.951815
3564.000000	99.949629
3563.000000	99.947409
3562.000000	99.946343
3561.000000	99.946605
3560.000000	99.947454
3559.000000	99.947926
3558.000000	99.947432
3557.000000	99.946057
3556.000000	99.944401
3555.000000	99.943065
3554.000000	99.942178
3553.000000	99.941411
3552.000000	99.940348
3551.000000	99.938837
3550.000000	99.937077
3549.000000	99.935536
3548.000000	99.934732
3547.000000	99.934919
3546.000000	99.935855
3545.000000	99.936855
3544.000000	99.937178
3543.000000	99.936539
3542.000000	99.935174
3541.000000	99.933634
3540.000000	99.932386
3539.000000	99.931573
3538.000000	99.931128
3537.000000	99.930973
3536.000000	99.931004
3535.000000	99.930992
3534.000000	99.930728
3533.000000	99.930280
3532.000000	99.929981
3531.000000	99.930072
3530.000000	99.930490
3529.000000	99.931027
3528.000000	99.931539
3527.000000	99.931934
3526.000000	99.932152
3525.000000	99.932326
3524.000000	99.932717
3523.000000	99.933257
3522.000000	99.933359
3521.000000	99.932508
3520.000000	99.930908
3519.000000	99.929307
3518.000000	99.928219
3517.000000	99.927552
3516.000000	99.927169
3515.000000	99.927412
3514.000000	99.928738
3513.000000	99.930851
3512.000000	99.932560
3511.000000	99.932771
3510.000000	99.931670
3509.000000	99.930712
3508.000000	99.931266
3507.000000	99.933274
3506.000000	99.935378
3505.000000	99.936159
3504.000000	99.935208
3503.000000	99.933298
3502.000000	99.931703
3501.000000	99.931245
3500.000000	99.931749
3499.000000	99.932162
3498.000000	99.931320
3497.000000	99.928893
3496.000000	99.925725
3495.000000	99.923007
3494.000000	99.921203
3493.000000	99.919997
3492.000000	99.919033
3491.000000	99.918382
3490.000000	99.918306
3489.000000	99.918816
3488.000000	99.919573
3487.000000	99.920086
3486.000000	99.919915
3485.000000	99.918908
3484.000000	99.917386
3483.000000	99.915965
3482.000000	99.915082
3481.000000	99.914707
3480.000000	99.914559
3479.000000	99.914460
3478.000000	99.914348
3477.000000	99.914043
3476.000000	99.913243
3475.000000	99.911888
3474.000000	99.910513
3473.000000	99.910061
3472.000000	99.911128
3471.000000	99.913216
3470.000000	99.914721
3469.000000	99.914054
3468.000000	99.910906
3467.000000	99.906643
3466.000000	99.903310
3465.000000	99.901992
3464.000000	99.902250
3463.000000	99.902901
3462.000000	99.903273
3461.000000	99.903630
3460.000000	99.904366
3459.000000	99.904948
3458.000000	99.904044
3457.000000	99.900932
3456.000000	99.896507
3455.000000	99.892743
3454.000000	99.890934
3453.000000	99.890673
3452.000000	99.890465
3451.000000	99.888937
3450.000000	99.885552
3449.000000	99.880761
3448.000000	99.875967
3447.000000	99.872785
3446.000000	99.871734
3445.000000	99.871699
3444.000000	99.870921
3443.000000	99.868536
3442.000000	99.865032
3441.000000	99.861486
3440.000000	99.858678
3439.000000	99.856815
3438.000000	99.855592
3437.000000	99.854345
3436.000000	99.852603
3435.000000	99.850661
3434.000000	99.849357
3433.000000	99.849043
3432.000000	99.849070
3431.000000	99.848510
3430.000000	99.847187
3429.000000	99.845655
3428.000000	99.844346
3427.000000	99.843263
3426.000000	99.842434
3425.000000	99.842076
3424.000000	99.842139
3423.000000	99.842102
3422.000000	99.841509
3421.000000	99.840513
3420.000000	99.839571
3419.000000	99.838844
3418.000000	99.838221
3417.000000	99.837736
3416.000000	99.837558
3415.000000	99.837592
3414.000000	99.837379
3413.000000	99.836534
3412.000000	99.835142
3411.000000	99.833770
3410.000000	99.832994
3409.000000	99.832939
3408.000000	99.833291
3407.000000	99.833529
3406.000000	99.833322
3405.000000	99.832695
3404.000000	99.831944
3403.000000	99.831375
3402.000000	99.831061
3401.000000	99.830886
3400.000000	99.830770
3399.000000	99.830785
3398.000000	99.830999
3397.000000	99.831285
3396.000000	99.831383
3395.000000	99.831212
3394.000000	99.831031
3393.000000	99.831251
3392.000000	99.832056
3391.000000	99.833220
3390.000000	99.834261
3389.000000	99.834818
3388.000000	99.834776
3387.000000	99.834157
3386.000000	99.833044
3385.000000	99.831709
3384.000000	99.830694
3383.000000	99.830525
3382.000000	99.831299
3381.000000	99.832570
3380.000000	99.833692
3379.000000	99.834356
3378.000000	99.834746
3377.000000	99.835204
3376.000000	99.835779
3375.000000	99.836128
3374.000000	99.835926
3373.000000	99.835333
3372.000000	99.834987
3371.000000	99.835547
3370.000000	99.837285
3369.000000	99.840004
3368.000000	99.843183
3367.000000	99.846165
3366.000000	99.848403
3365.000000	99.849708
3364.000000	99.850170
3363.000000	99.849949
3362.000000	99.849346
3361.000000	99.849038
3360.000000	99.849887
3359.000000	99.852192
3358.000000	99.855214
3357.000000	99.857679
3356.000000	99.858839
3355.000000	99.858868
3354.000000	99.858342
3353.000000	99.857654
3352.000000	99.857059
3351.000000	99.857042
3350.000000	99.858288
3349.000000	99.861190
3348.000000	99.865446
3347.000000	99.870084
3346.000000	99.873954
3345.000000	99.876397
3344.000000	99.877552
3343.000000	99.878070
3342.000000	99.878571
3341.000000	99.879408
3340.000000	99.880888
3339.000000	99.883323
3338.000000	99.886589
3337.000000	99.889844
3336.000000	99.892079
3335.000000	99.893027
3334.000000	99.893264
3333.000000	99.893404
3332.000000	99.893457
3331.000000	99.893131
3330.000000	99.892528
3329.000000	99.892204
3328.000000	99.892548
3327.000000	99.893358
3326.000000	99.894181
3325.000000	99.894955
3324.000000	99.896122
3323.000000	99.898137
3322.000000	99.901029
3321.000000	99.904398
3320.000000	99.907621
3319.000000	99.910090
3318.000000	99.911547
3317.000000	99.912342
3316.000000	99.913242
3315.000000	99.914662
3314.000000	99.916147
3313.000000	99.916850
3312.000000	99.916523
3311.000000	99.915853
3310.000000	99.915853
3309.000000	99.917017
3308.000000	99.919160
3307.000000	99.921746
3306.000000	99.924182
3305.000000	99.925982
3304.000000	99.926913
3303.000000	99.927174
3302.000000	99.927374
3301.000000	99.928108
3300.000000	99.929501
3299.000000	99.931250
3298.000000	99.933012
3297.000000	99.934684
3296.000000	99.936277
3295.000000	99.937676
3294.000000	99.938689
3293.000000	99.939270
3292.000000	99.939624
3291.000000	99.940033
3290.000000	99.940644
3289.000000	99.941454
3288.000000	99.942417
3287.000000	99.943541
3286.000000	99.944887
3285.000000	99.946492
3284.000000	99.948277
3283.000000	99.950029
3282.000000	99.951522
3281.000000	99.952674
3280.000000	99.953579
3279.000000	99.954382
3278.000000	99.955138
3277.000000	99.955800
3276.000000	99.956323
3275.000000	99.956779
3274.000000	99.957391
3273.000000	99.958455
3272.000000	99.960150
3271.000000	99.962333
3270.000000	99.964506
3269.000000	99.966163
3268.000000	99.967227
3267.000000	99.968093
3266.000000	99.969251
3265.000000	99.970835
3264.000000	99.972586
3263.000000	99.974208
3262.000000	99.975612
3261.000000	99.976782
3260.000000	99.977568
3259.000000	99.977850
3258.000000	99.977899
3257.000000	99.978357
3256.000000	99.979652
3255.000000	99.981476
3254.000000	99.982978
3253.000000	99.983583
3252.000000	99.983532
3251.000000	99.983635
3250.000000	99.984568
3249.000000	99.986390
3248.000000	99.988666
3247.000000	99.990874
3246.000000	99.992743
3245.000000	99.994293
3244.000000	99.995617
3243.000000	99.996672
3242.000000	99.997319
3241.000000	99.997607
3240.000000	99.997949
3239.000000	99.998908
3238.000000	100.000705
3237.000000	100.002989
3236.000000	100.005127
3235.000000	100.006721
3234.000000	100.007860
3233.000000	100.008952
3232.000000	100.010419
3231.000000	100.012463
3230.000000	100.014935
3229.000000	100.017321
3228.000000	100.019044
3227.000000	100.020009
3226.000000	100.020831
3225.000000	100.022337
3224.000000	100.024771
3223.000000	100.027681
3222.000000	100.030528
3221.000000	100.033247
3220.000000	100.036049
3219.000000	100.038894
3218.000000	100.041378
3217.000000	100.043169
3216.000000	100.044336
3215.000000	100.045234
3214.000000	100.046195
3213.000000	100.047441
3212.000000	100.049158
3211.000000	100.051453
3210.000000	100.054151
3209.000000	100.056768
3208.000000	100.058854
3207.000000	100.060342
3206.000000	100.061555
3205.000000	100.062941
3204.000000	100.064742
3203.000000	100.066894
3202.000000	100.069136
3201.000000	100.071199
3200.000000	100.072957
3199.000000	100.074445
3198.000000	100.075831
3197.000000	100.077348
3196.000000	100.079155
3195.000000	100.081200
3194.000000	100.083220
3193.000000	100.084946
3192.000000	100.086354
3191.000000	100.087700
3190.000000	100.089290
3189.000000	100.091201
3188.000000	100.093214
3187.000000	100.094991
3186.000000	100.096304
3185.000000	100.097188
3184.000000	100.097990
3183.000000	100.099225
3182.000000	100.101266
3181.000000	100.104078
3180.000000	100.107240
3179.000000	100.110268
3178.000000	100.112852
3177.000000	100.114761
3176.000000	100.115729
3175.000000	100.115672
3174.000000	100.115038
3173.000000	100.114716
3172.000000	100.115423
3171.000000	100.117221
3170.000000	100.119562
3169.000000	100.121654
3168.000000	100.122878
3167.000000	100.123018
3166.000000	100.122342
3165.000000	100.121538
3164.000000	100.121366
3163.000000	100.122218
3162.000000	100.124052
3161.000000	100.126563
3160.000000	100.129419
3159.000000	100.132404
3158.000000	100.135370
3157.000000	100.138036
3156.000000	100.139899
3155.000000	100.140493
3154.000000	100.139855
3153.000000	100.138712
3152.000000	100.138035
3151.000000	100.138420
3150.000000	100.139980
3149.000000	100.142507
3148.000000	100.145539
3147.000000	100.148482
3146.000000	100.151029
3145.000000	100.153407
3144.000000	100.155868
3143.000000	100.158034
3142.000000	100.159205
3141.000000	100.159338
3140.000000	100.159301
3139.000000	100.159973
3138.000000	100.161395
3137.000000	100.163039
3136.000000	100.164534
3135.000000	100.165811
3134.000000	100.166912
3133.000000	100.168036
3132.000000	100.169589
3131.000000	100.171810
3130.000000	100.174465
3129.000000	100.177136
3128.000000	100.179709
3127.000000	100.182188
3126.000000	100.184235
3125.000000	100.185483
3124.000000	100.186337
3123.000000	100.187906
3122.000000	100.190844
3121.000000	100.194572
3120.000000	100.197800
3119.000000	100.199769
3118.000000	100.200750
3117.000000	100.201525
3116.000000	100.202457
3115.000000	100.203158
3114.000000	100.203146
3113.000000	100.202602
3112.000000	100.202375
3111.000000	100.203178
3110.000000	100.204918
3109.000000	100.206974
3108.000000	100.208920
3107.000000	100.210764
3106.000000	100.212560
3105.000000	100.214164
3104.000000	100.215493
3103.000000	100.216729
3102.000000	100.218027
3101.000000	100.219167
3100.000000	100.219766
3099.000000	100.219825
3098.000000	100.219902
3097.000000	100.220659
3096.000000	100.222283
3095.000000	100.224400
3094.000000	100.226426
3093.000000	100.227988
3092.000000	100.229016
3091.000000	100.229575
3090.000000	100.229774
3089.000000	100.229816
3088.000000	100.229994
3087.000000	100.230512
3086.000000	100.231355
3085.000000	100.232340
3084.000000	100.233263
3083.000000	100.233973
3082.000000	100.234397
3081.000000	100.234577
3080.000000	100.234655
3079.000000	100.234741
3078.000000	100.234861
3077.000000	100.235126
3076.000000	100.235828
3075.000000	100.237142
3074.000000	100.238825
3073.000000	100.240268
3072.000000	100.241032
3071.000000	100.241199
3070.000000	100.241247
3069.000000	100.241620
3068.000000	100.242378
3067.000000	100.243283
3066.000000	100.244059
3065.000000	100.244565
3064.000000	100.244821
3063.000000	100.244971
3062.000000	100.245226
3061.000000	100.245767
3060.000000	100.246627
3059.000000	100.247592
3058.000000	100.248251
3057.000000	100.248273
3056.000000	100.247761
3055.000000	100.247260
3054.000000	100.247213
3053.000000	100.247464
3052.000000	100.247480
3051.000000	100.247089
3050.000000	100.246792
3049.000000	100.247193
3048.000000	100.248203
3047.000000	100.249041
3046.000000	100.249108
3045.000000	100.248636
3044.000000	100.248355
3043.000000	100.248533
3042.000000	100.248570
3041.000000	100.247644
3040.000000	100.245631
3039.000000	100.243306
3038.000000	100.241657
3037.000000	100.241087
3036.000000	100.241234
3035.000000	100.241335
3034.000000	100.240699
3033.000000	100.239102
3032.000000	100.237042
3031.000000	100.235531
3030.000000	100.235299
3029.000000	100.235960
3028.000000	100.236096
3027.000000	100.234424
3026.000000	100.230976
3025.000000	100.227198
3024.000000	100.224789
3023.000000	100.224469
3022.000000	100.225805
3021.000000	100.227930
3020.000000	100.230102
3019.000000	100.231582
3018.000000	100.231246
3017.000000	100.227872
3016.000000	100.221177
3015.000000	100.212562
3014.000000	100.204498
3013.000000	100.198981
3012.000000	100.196596
3011.000000	100.196705
3010.000000	100.197903
3009.000000	100.198362
3008.000000	100.196801
3007.000000	100.193897
3006.000000	100.192175
3005.000000	100.193446
3004.000000	100.196370
3003.000000	100.197586
3002.000000	100.195375
3001.000000	100.191172
3000.000000	100.187079
2999.000000	100.182989
2998.000000	100.177156
2997.000000	100.169034
2996.000000	100.160423
2995.000000	100.153857
2994.000000	100.150364
2993.000000	100.148532
2992.000000	100.145101
2991.000000	100.137012
2990.000000	100.124123
2989.000000	100.110218
2988.000000	100.100372
2987.000000	100.096840
2986.000000	100.097772
2985.000000	100.099723
2984.000000	100.100488
2983.000000	100.099284
2982.000000	100.095386
2981.000000	100.087969
2980.000000	100.077455
2979.000000	100.066351
2978.000000	100.058283
2977.000000	100.055846
2976.000000	100.058977
2975.000000	100.065148
2974.000000	100.071556
2973.000000	100.077599
2972.000000	100.085385
2971.000000	100.097756
2970.000000	100.115619
2969.000000	100.136586
2968.000000	100.155867
2967.000000	100.169292
2966.000000	100.176490
2965.000000	100.181200
2964.000000	100.187897
2963.000000	100.198029
2962.000000	100.209847
2961.000000	100.221189
2960.000000	100.230969
2959.000000	100.238179
2958.000000	100.241479
2957.000000	100.240885
2956.000000	100.238653
2955.000000	100.237463
2954.000000	100.238559
2953.000000	100.242405
2952.000000	100.249570
2951.000000	100.259173
2950.000000	100.267425
2949.000000	100.270143
2948.000000	100.267032
2947.000000	100.262245
2946.000000	100.260551
2945.000000	100.264179
2944.000000	100.273022
2943.000000	100.285559
2942.000000	100.298690
2941.000000	100.308602
2940.000000	100.313583
2939.000000	100.315432
2938.000000	100.317046
2937.000000	100.319428
2936.000000	100.322210
2935.000000	100.326195
2934.000000	100.333415
2933.000000	100.344505
2932.000000	100.357327
2931.000000	100.368633
2930.000000	100.376325
2929.000000	100.380155
2928.000000	100.381487
2927.000000	100.382858
2926.000000	100.386556
2925.000000	100.392375
2924.000000	100.397065
2923.000000	100.396983
2922.000000	100.391589
2921.000000	100.384173
2920.000000	100.378827
2919.000000	100.376639
2918.000000	100.375142
2917.000000	100.371540
2916.000000	100.365721
2915.000000	100.359504
2914.000000	100.353361
2913.000000	100.345331
2912.000000	100.333619
2911.000000	100.319068
2910.000000	100.304047
2909.000000	100.289784
2908.000000	100.276309
2907.000000	100.264588
2906.000000	100.256733
2905.000000	100.253537
2904.000000	100.253425
2903.000000	100.254629
2902.000000	100.256992
2901.000000	100.260373
2900.000000	100.262905
2899.000000	100.262446
2898.000000	100.259491
2897.000000	100.256539
2896.000000	100.254511
2895.000000	100.251785
2894.000000	100.247488
2893.000000	100.244023
2892.000000	100.244638
2891.000000	100.249071
2890.000000	100.253124
2889.000000	100.252858
2888.000000	100.248538
2887.000000	100.244143
2886.000000	100.243546
2885.000000	100.247340
2884.000000	100.252885
2883.000000	100.256837
2882.000000	100.257783
2881.000000	100.256977
2880.000000	100.257134
2879.000000	100.260526
2878.000000	100.267579
2877.000000	100.276496
2876.000000	100.284414
2875.000000	100.289633
2874.000000	100.292820
2873.000000	100.295716
2872.000000	100.299002
2871.000000	100.302192
2870.000000	100.305358
2869.000000	100.309504
2868.000000	100.314789
2867.000000	100.319680
2866.000000	100.322856
2865.000000	100.324998
2864.000000	100.327537
2863.000000	100.330403
2862.000000	100.332528
2861.000000	100.334316
2860.000000	100.338123
2859.000000	100.345991
2858.000000	100.357642
2857.000000	100.370566
2856.000000	100.381273
2855.000000	100.386985
2854.000000	100.387483
2853.000000	100.385634
2852.000000	100.384954
2851.000000	100.386009
2850.000000	100.386202
2849.000000	100.383192
2848.000000	100.377291
2847.000000	100.370345
2846.000000	100.363692
2845.000000	100.358069
2844.000000	100.354352
2843.000000	100.353096
2842.000000	100.353567
2841.000000	100.354050
2840.000000	100.353064
2839.000000	100.350117
2838.000000	100.345941
2837.000000	100.342588
2836.000000	100.342526
2835.000000	100.346465
2834.000000	100.352016
2833.000000	100.355301
2832.000000	100.354389
2831.000000	100.350814
2830.000000	100.347718
2829.000000	100.346839
2828.000000	100.347450
2827.000000	100.347909
2826.000000	100.347678
2825.000000	100.347583
2824.000000	100.348308
2823.000000	100.349267
2822.000000	100.349422
2821.000000	100.348898
2820.000000	100.349063
2819.000000	100.350820
2818.000000	100.353331
2817.000000	100.354778
2816.000000	100.354232
2815.000000	100.352559
2814.000000	100.351525
2813.000000	100.352109
2812.000000	100.353701
2811.000000	100.354945
2810.000000	100.355286
2809.000000	100.355443
2808.000000	100.356333
2807.000000	100.357928
2806.000000	100.359371
2805.000000	100.359992
2804.000000	100.360027
2803.000000	100.360321
2802.000000	100.361462
2801.000000	100.363363
2800.000000	100.365516
2799.000000	100.367432
2798.000000	100.368874
2797.000000	100.369836
2796.000000	100.370446
2795.000000	100.370862
2794.000000	100.371300
2793.000000	100.372086
2792.000000	100.373417
2791.000000	100.374981
2790.000000	100.376101
2789.000000	100.376501
2788.000000	100.376751
2787.000000	100.377679
2786.000000	100.379506
2785.000000	100.381739
2784.000000	100.383679
2783.000000	100.384853
2782.000000	100.385084
2781.000000	100.384573
2780.000000	100.383975
2779.000000	100.383978
2778.000000	100.384654
2777.000000	100.385456
2776.000000	100.385866
2775.000000	100.385901
2774.000000	100.385926
2773.000000	100.386208
2772.000000	100.386773
2771.000000	100.387562
2770.000000	100.388487
2769.000000	100.389407
2768.000000	100.390183
2767.000000	100.390737
2766.000000	100.391053
2765.000000	100.391201
2764.000000	100.391395
2763.000000	100.391883
2762.000000	100.392664
2761.000000	100.393428
2760.000000	100.393871
2759.000000	100.393980
2758.000000	100.393915
2757.000000	100.393761
2756.000000	100.393540
2755.000000	100.393361
2754.000000	100.393400
2753.000000	100.393714
2752.000000	100.394200
2751.000000	100.394716
2750.000000	100.395185
2749.000000	100.395596
2748.000000	100.395971
2747.000000	100.396383
2746.000000	100.396909
2745.000000	100.397516
2744.000000	100.398027
2743.000000	100.398277
2742.000000	100.398281
2741.000000	100.398164
2740.000000	100.397953
2739.000000	100.397568
2738.000000	100.397082
2737.000000	100.396882
2736.000000	100.397380
2735.000000	100.398493
2734.000000	100.399722
2733.000000	100.400725
2732.000000	100.401477
2731.000000	100.401963
2730.000000	100.402070
2729.000000	100.401924
2728.000000	100.401967
2727.000000	100.402461
2726.000000	100.403176
2725.000000	100.403745
2724.000000	100.404108
2723.000000	100.404323
2722.000000	100.404150
2721.000000	100.403265
2720.000000	100.401921
2719.000000	100.401010
2718.000000	100.401164
2717.000000	100.402174
2716.000000	100.403308
2715.000000	100.404078
2714.000000	100.404504
2713.000000	100.404811
2712.000000	100.405192
2711.000000	100.405709
2710.000000	100.406214
2709.000000	100.406446
2708.000000	100.406381
2707.000000	100.406358
2706.000000	100.406656
2705.000000	100.407100
2704.000000	100.407275
2703.000000	100.407034
2702.000000	100.406544
2701.000000	100.405910
2700.000000	100.405058
2699.000000	100.404048
2698.000000	100.403315
2697.000000	100.403343
2696.000000	100.404158
2695.000000	100.405259
2694.000000	100.406042
2693.000000	100.406252
2692.000000	100.406036
2691.000000	100.405700
2690.000000	100.405504
2689.000000	100.405603
2688.000000	100.406090
2687.000000	100.406978
2686.000000	100.408099
2685.000000	100.409046
2684.000000	100.409407
2683.000000	100.409087
2682.000000	100.408389
2681.000000	100.407789
2680.000000	100.407535
2679.000000	100.407516
2678.000000	100.407464
2677.000000	100.407219
2676.000000	100.406844
2675.000000	100.406530
2674.000000	100.406406
2673.000000	100.406450
2672.000000	100.406542
2671.000000	100.406552
2670.000000	100.406422
2669.000000	100.406165
2668.000000	100.405854
2667.000000	100.405599
2666.000000	100.405479
2665.000000	100.405488
2664.000000	100.405541
2663.000000	100.405542
2662.000000	100.405460
2661.000000	100.405318
2660.000000	100.405165
2659.000000	100.405050
2658.000000	100.405004
2657.000000	100.405020
2656.000000	100.405048
2655.000000	100.405032
2654.000000	100.404947
2653.000000	100.404811
2652.000000	100.404668
2651.000000	100.404559
2650.000000	100.404499
2649.000000	100.404483
2648.000000	100.404477
2647.000000	100.404428
2646.000000	100.404307
2645.000000	100.404142
2644.000000	100.403991
2643.000000	100.403876
2642.000000	100.403783
2641.000000	100.403697
2640.000000	100.403586
2639.000000	100.403383
2638.000000	100.403032
2637.000000	100.402578
2636.000000	100.402158
2635.000000	100.401870
2634.000000	100.401733
2633.000000	100.401750
2632.000000	100.401924
2631.000000	100.402173
2630.000000	100.402336
2629.000000	100.402341
2628.000000	100.402243
2627.000000	100.402077
2626.000000	100.401786
2625.000000	100.401381
2624.000000	100.401073
2623.000000	100.401087
2622.000000	100.401416
2621.000000	100.401848
2620.000000	100.402166
2619.000000	100.402267
2618.000000	100.402117
2617.000000	100.401745
2616.000000	100.401316
2615.000000	100.401067
2614.000000	100.401072
2613.000000	100.401189
2612.000000	100.401249
2611.000000	100.401256
2610.000000	100.401314
2609.000000	100.401443
2608.000000	100.401575
2607.000000	100.401651
2606.000000	100.401656
2605.000000	100.401579
2604.000000	100.401427
2603.000000	100.401270
2602.000000	100.401190
2601.000000	100.401201
2600.000000	100.401261
2599.000000	100.401344
2598.000000	100.401454
2597.000000	100.401567
2596.000000	100.401605
2595.000000	100.401467
2594.000000	100.401079
2593.000000	100.400458
2592.000000	100.399775
2591.000000	100.399298
2590.000000	100.399194
2589.000000	100.399394
2588.000000	100.399665
2587.000000	100.399852
2586.000000	100.400015
2585.000000	100.400362
2584.000000	100.401062
2583.000000	100.401972
2582.000000	100.402553
2581.000000	100.402254
2580.000000	100.401041
2579.000000	100.399531
2578.000000	100.398377
2577.000000	100.397735
2576.000000	100.397441
2575.000000	100.397408
2574.000000	100.397689
2573.000000	100.398286
2572.000000	100.399125
2571.000000	100.400090
2570.000000	100.400898
2569.000000	100.401033
2568.000000	100.400149
2567.000000	100.398487
2566.000000	100.396786
2565.000000	100.395653
2564.000000	100.395182
2563.000000	100.395155
2562.000000	100.395356
2561.000000	100.395594
2560.000000	100.395670
2559.000000	100.395526
2558.000000	100.395425
2557.000000	100.395775
2556.000000	100.396704
2555.000000	100.397832
2554.000000	100.398517
2553.000000	100.398408
2552.000000	100.397704
2551.000000	100.396944
2550.000000	100.396509
2549.000000	100.396378
2548.000000	100.396330
2547.000000	100.396203
2546.000000	100.395922
2545.000000	100.395443
2544.000000	100.394808
2543.000000	100.394196
2542.000000	100.393809
2541.000000	100.393768
2540.000000	100.394178
2539.000000	100.395152
2538.000000	100.396568
2537.000000	100.397853
2536.000000	100.398299
2535.000000	100.397630
2534.000000	100.396197
2533.000000	100.394650
2532.000000	100.393433
2531.000000	100.392643
2530.000000	100.392159
2529.000000	100.391803
2528.000000	100.391452
2527.000000	100.391104
2526.000000	100.390861
2525.000000	100.390828
2524.000000	100.391054
2523.000000	100.391501
2522.000000	100.391993
2521.000000	100.392196
2520.000000	100.391819
2519.000000	100.390917
2518.000000	100.389945
2517.000000	100.389384
2516.000000	100.389229
2515.000000	100.388995
2514.000000	100.388278
2513.000000	100.387271
2512.000000	100.386566
2511.000000	100.386504
2510.000000	100.386857
2509.000000	100.387097
2508.000000	100.386792
2507.000000	100.385772
2506.000000	100.384258
2505.000000	100.382995
2504.000000	100.382872
2503.000000	100.384156
2502.000000	100.386239
2501.000000	100.388232
2500.000000	100.389752
2499.000000	100.390791
2498.000000	100.391152
2497.000000	100.390547
2496.000000	100.389188
2495.000000	100.387851
2494.000000	100.387133
2493.000000	100.387023
2492.000000	100.387311
2491.000000	100.387977
2490.000000	100.388987
2489.000000	100.389991
2488.000000	100.390614
2487.000000	100.390924
2486.000000	100.391329
2485.000000	100.392028
2484.000000	100.392808
2483.000000	100.393343
2482.000000	100.393498
2481.000000	100.393386
2480.000000	100.393303
2479.000000	100.393560
2478.000000	100.394242
2477.000000	100.395156
2476.000000	100.396096
2475.000000	100.397038
2474.000000	100.397971
2473.000000	100.398682
2472.000000	100.398956
2471.000000	100.398874
2470.000000	100.398689
2469.000000	100.398467
2468.000000	100.398109
2467.000000	100.397741
2466.000000	100.397790
2465.000000	100.398508
2464.000000	100.399666
2463.000000	100.400829
2462.000000	100.401816
2461.000000	100.402668
2460.000000	100.403337
2459.000000	100.403702
2458.000000	100.403827
2457.000000	100.403974
2456.000000	100.404300
2455.000000	100.404750
2454.000000	100.405335
2453.000000	100.406285
2452.000000	100.407741
2451.000000	100.409386
2450.000000	100.410589
2449.000000	100.411032
2448.000000	100.410917
2447.000000	100.410635
2446.000000	100.410355
2445.000000	100.410115
2444.000000	100.410080
2443.000000	100.410422
2442.000000	100.411067
2441.000000	100.411706
2440.000000	100.412084
2439.000000	100.412215
2438.000000	100.412281
2437.000000	100.412441
2436.000000	100.412714
2435.000000	100.413025
2434.000000	100.413302
2433.000000	100.413530
2432.000000	100.413737
2431.000000	100.413942
2430.000000	100.414134
2429.000000	100.414293
2428.000000	100.414420
2427.000000	100.414531
2426.000000	100.414638
2425.000000	100.414740
2424.000000	100.414828
2423.000000	100.414895
2422.000000	100.414938
2421.000000	100.414961
2420.000000	100.414969
2419.000000	100.414976
2418.000000	100.414988
2417.000000	100.415004
2416.000000	100.415019
2415.000000	100.415028
2414.000000	100.415032
2413.000000	100.415035
2412.000000	100.415037
2411.000000	100.415040
2410.000000	100.415040
2409.000000	100.415035
2408.000000	100.415027
2407.000000	100.415021
2406.000000	100.415022
2405.000000	100.415031
2404.000000	100.415044
2403.000000	100.415049
2402.000000	100.415041
2401.000000	100.415018
2400.000000	100.414983
2399.000000	100.414937
2398.000000	100.414880
2397.000000	100.414811
2396.000000	100.414733
2395.000000	100.414649
2394.000000	100.414557
2393.000000	100.414458
2392.000000	100.414350
2391.000000	100.414232
2390.000000	100.414103
2389.000000	100.413969
2388.000000	100.413836
2387.000000	100.413708
2386.000000	100.413582
2385.000000	100.413450
2384.000000	100.413306
2383.000000	100.413149
2382.000000	100.412979
2381.000000	100.412796
2380.000000	100.412603
2379.000000	100.412405
2378.000000	100.412203
2377.000000	100.411995
2376.000000	100.411779
2375.000000	100.411553
2374.000000	100.411321
2373.000000	100.411092
2372.000000	100.410873
2371.000000	100.410671
2370.000000	100.410484
2369.000000	100.410308
2368.000000	100.410136
2367.000000	100.409970
2366.000000	100.409813
2365.000000	100.409672
2364.000000	100.409542
2363.000000	100.409417
2362.000000	100.409305
2361.000000	100.409179
2360.000000	100.409009
2359.000000	100.408816
2358.000000	100.408645
2357.000000	100.408498
2356.000000	100.408390
2355.000000	100.408414
2354.000000	100.408630
2353.000000	100.408897
2352.000000	100.408959
2351.000000	100.408678
2350.000000	100.408117
2349.000000	100.407474
2348.000000	100.407039
2347.000000	100.407039
2346.000000	100.407365
2345.000000	100.407542
2344.000000	100.407257
2343.000000	100.406697
2342.000000	100.406051
2341.000000	100.405133
2340.000000	100.403879
2339.000000	100.402919
2338.000000	100.403045
2337.000000	100.404238
2336.000000	100.405570
2335.000000	100.406141
2334.000000	100.405899
2333.000000	100.405582
2332.000000	100.406163
2331.000000	100.408122
2330.000000	100.410798
2329.000000	100.412621
2328.000000	100.412636
2327.000000	100.411445
2326.000000	100.410350
2325.000000	100.409630
2324.000000	100.408491
2323.000000	100.406536
2322.000000	100.404372
2321.000000	100.402836
2320.000000	100.402153
2319.000000	100.402085
2318.000000	100.402277
2317.000000	100.402294
2316.000000	100.401771
2315.000000	100.400815
2314.000000	100.400072
2313.000000	100.400146
2312.000000	100.401071
2311.000000	100.402368
2310.000000	100.403444
2309.000000	100.403852
2308.000000	100.403482
2307.000000	100.402692
2306.000000	100.402165
2305.000000	100.402354
2304.000000	100.403062
2303.000000	100.403668
2302.000000	100.403784
2301.000000	100.403578
2300.000000	100.403493
2299.000000	100.403737
2298.000000	100.404119
2297.000000	100.404287
2296.000000	100.404041
2295.000000	100.403461
2294.000000	100.402875
2293.000000	100.402689
2292.000000	100.403115
2291.000000	100.403904
2290.000000	100.404396
2289.000000	100.404024
2288.000000	100.402795
2287.000000	100.401272
2286.000000	100.400131
2285.000000	100.399713
2284.000000	100.399933
2283.000000	100.400391
2282.000000	100.400580
2281.000000	100.400240
2280.000000	100.399536
2279.000000	100.398859
2278.000000	100.398392
2277.000000	100.398014
2276.000000	100.397599
2275.000000	100.397210
2274.000000	100.396904
2273.000000	100.396554
2272.000000	100.396093
2271.000000	100.395776
2270.000000	100.395991
2269.000000	100.396866
2268.000000	100.398155
2267.000000	100.399410
2266.000000	100.400145
2265.000000	100.400017
2264.000000	100.399083
2263.000000	100.397833
2262.000000	100.396806
2261.000000	100.396186
2260.000000	100.395881
2259.000000	100.395849
2258.000000	100.396109
2257.000000	100.396533
2256.000000	100.396838
2255.000000	100.396810
2254.000000	100.396420
2253.000000	100.395803
2252.000000	100.395227
2251.000000	100.394922
2250.000000	100.394759
2249.000000	100.394229
2248.000000	100.392972
2247.000000	100.391189
2246.000000	100.389512
2245.000000	100.388451
2244.000000	100.388114
2243.000000	100.388331
2242.000000	100.388773
2241.000000	100.389035
2240.000000	100.388884
2239.000000	100.388411
2238.000000	100.387883
2237.000000	100.387487
2236.000000	100.387289
2235.000000	100.387329
2234.000000	100.387618
2233.000000	100.388060
2232.000000	100.388477
2231.000000	100.388674
2230.000000	100.388520
2229.000000	100.388049
2228.000000	100.387501
2227.000000	100.387177
2226.000000	100.387173
2225.000000	100.387342
2224.000000	100.387475
2223.000000	100.387486
2222.000000	100.387401
2221.000000	100.387278
2220.000000	100.387178
2219.000000	100.387145
2218.000000	100.387164
2217.000000	100.387172
2216.000000	100.387131
2215.000000	100.387061
2214.000000	100.386998
2213.000000	100.386954
2212.000000	100.386923
2211.000000	100.386903
2210.000000	100.386897
2209.000000	100.386905
2208.000000	100.386926
2207.000000	100.386961
2206.000000	100.387008
2205.000000	100.387064
2204.000000	100.387126
2203.000000	100.387193
2202.000000	100.387263
2201.000000	100.387338
2200.000000	100.387415
2199.000000	100.387494
2198.000000	100.387574
2197.000000	100.387646
2196.000000	100.387707
2195.000000	100.387781
2194.000000	100.387910
2193.000000	100.388108
2192.000000	100.388331
2191.000000	100.388512
2190.000000	100.388641
2189.000000	100.388767
2188.000000	100.388885
2187.000000	100.388870
2186.000000	100.388613
2185.000000	100.388207
2184.000000	100.387887
2183.000000	100.387785
2182.000000	100.387826
2181.000000	100.387906
2180.000000	100.388076
2179.000000	100.388447
2178.000000	100.388905
2177.000000	100.389032
2176.000000	100.388460
2175.000000	100.387364
2174.000000	100.386509
2173.000000	100.386622
2172.000000	100.387704
2171.000000	100.389046
2170.000000	100.389968
2169.000000	100.390435
2168.000000	100.390905
2167.000000	100.391709
2166.000000	100.392692
2165.000000	100.393430
2164.000000	100.393631
2163.000000	100.393309
2162.000000	100.392693
2161.000000	100.392091
2160.000000	100.391790
2159.000000	100.391970
2158.000000	100.392603
2157.000000	100.393386
2156.000000	100.393810
2155.000000	100.393459
2154.000000	100.392352
2153.000000	100.390952
2152.000000	100.389792
2151.000000	100.388996
2150.000000	100.388163
2149.000000	100.386817
2148.000000	100.385031
2147.000000	100.383563
2146.000000	100.383248
2145.000000	100.384176
2144.000000	100.385513
2143.000000	100.386207
2142.000000	100.385912
2141.000000	100.385122
2140.000000	100.384509
2139.000000	100.384361
2138.000000	100.384693
2137.000000	100.385566
2136.000000	100.386993
2135.000000	100.388580
2134.000000	100.389650
2133.000000	100.389889
2132.000000	100.389745
2131.000000	100.390046
2130.000000	100.391216
2129.000000	100.392892
2128.000000	100.394264
2127.000000	100.394792
2126.000000	100.394570
2125.000000	100.394107
2124.000000	100.393877
2123.000000	100.394058
2122.000000	100.394599
2121.000000	100.395350
2120.000000	100.396095
2119.000000	100.396617
2118.000000	100.396845
2117.000000	100.396910
2116.000000	100.397000
2115.000000	100.397214
2114.000000	100.397579
2113.000000	100.398120
2112.000000	100.398827
2111.000000	100.399589
2110.000000	100.400244
2109.000000	100.400728
2108.000000	100.401102
2107.000000	100.401461
2106.000000	100.401848
2105.000000	100.402279
2104.000000	100.402760
2103.000000	100.403280
2102.000000	100.403800
2101.000000	100.404286
2100.000000	100.404729
2099.000000	100.405143
2098.000000	100.405550
2097.000000	100.405977
2096.000000	100.406441
2095.000000	100.406934
2094.000000	100.407431
2093.000000	100.407901
2092.000000	100.408325
2091.000000	100.408708
2090.000000	100.409075
2089.000000	100.409461
2088.000000	100.409900
2087.000000	100.410421
2086.000000	100.410988
2085.000000	100.411508
2084.000000	100.411911
2083.000000	100.412200
2082.000000	100.412398
2081.000000	100.412502
2080.000000	100.412548
2079.000000	100.412624
2078.000000	100.412780
2077.000000	100.412977
2076.000000	100.413163
2075.000000	100.413346
2074.000000	100.413541
2073.000000	100.413735
2072.000000	100.413944
2071.000000	100.414224
2070.000000	100.414590
2069.000000	100.414955
2068.000000	100.415195
2067.000000	100.415214
2066.000000	100.414964
2065.000000	100.414495
2064.000000	100.414047
2063.000000	100.413925
2062.000000	100.414254
2061.000000	100.414861
2060.000000	100.415421
2059.000000	100.415729
2058.000000	100.415717
2057.000000	100.415361
2056.000000	100.414761
2055.000000	100.414238
2054.000000	100.414154
2053.000000	100.414605
2052.000000	100.415336
2051.000000	100.415944
2050.000000	100.416125
2049.000000	100.415766
2048.000000	100.415001
2047.000000	100.414200
2046.000000	100.413730
2045.000000	100.413631
2044.000000	100.413623
2043.000000	100.413418
2042.000000	100.412963
2041.000000	100.412381
2040.000000	100.411754
2039.000000	100.411016
2038.000000	100.410083
2037.000000	100.409087
2036.000000	100.408389
2035.000000	100.408194
2034.000000	100.408185
2033.000000	100.407737
2032.000000	100.406599
2031.000000	100.405198
2030.000000	100.404204
2029.000000	100.403909
2028.000000	100.404155
2027.000000	100.404612
2026.000000	100.404942
2025.000000	100.404890
2024.000000	100.404493
2023.000000	100.404136
2022.000000	100.404146
2021.000000	100.404295
2020.000000	100.403973
2019.000000	100.402831
2018.000000	100.401016
2017.000000	100.398953
2016.000000	100.397128
2015.000000	100.395903
2014.000000	100.395296
2013.000000	100.394932
2012.000000	100.394403
2011.000000	100.393722
2010.000000	100.393202
2009.000000	100.392971
2008.000000	100.392845
2007.000000	100.392588
2006.000000	100.392074
2005.000000	100.391225
2004.000000	100.390050
2003.000000	100.388805
2002.000000	100.387870
2001.000000	100.387377
2000.000000	100.387142
1999.000000	100.386884
1998.000000	100.386485
1997.000000	100.385978
1996.000000	100.385436
1995.000000	100.384954
1994.000000	100.384596
1993.000000	100.384270
1992.000000	100.383780
1991.000000	100.383133
1990.000000	100.382603
1989.000000	100.382367
1988.000000	100.382243
1987.000000	100.381923
1986.000000	100.381345
1985.000000	100.380700
1984.000000	100.380160
1983.000000	100.379694
1982.000000	100.379199
1981.000000	100.378684
1980.000000	100.378248
1979.000000	100.377935
1978.000000	100.377702
1977.000000	100.377492
1976.000000	100.377291
1975.000000	100.377100
1974.000000	100.376903
1973.000000	100.376688
1972.000000	100.376486
1971.000000	100.376348
1970.000000	100.376302
1969.000000	100.376318
1968.000000	100.376330
1967.000000	100.376280
1966.000000	100.376131
1965.000000	100.375845
1964.000000	100.375398
1963.000000	100.374848
1962.000000	100.374370
1961.000000	100.374129
1960.000000	100.374145
1959.000000	100.374278
1958.000000	100.374357
1957.000000	100.374320
1956.000000	100.374203
1955.000000	100.374060
1954.000000	100.373877
1953.000000	100.373576
1952.000000	100.373133
1951.000000	100.372715
1950.000000	100.372585
1949.000000	100.372804
1948.000000	100.373034
1947.000000	100.372803
1946.000000	100.371980
1945.000000	100.370867
1944.000000	100.369853
1943.000000	100.369037
1942.000000	100.368371
1941.000000	100.367964
1940.000000	100.367930
1939.000000	100.368070
1938.000000	100.367983
1937.000000	100.367524
1936.000000	100.366966
1935.000000	100.366585
1934.000000	100.366258
1933.000000	100.365653
1932.000000	100.364686
1931.000000	100.363559
1930.000000	100.362368
1929.000000	100.361027
1928.000000	100.359630
1927.000000	100.358520
1926.000000	100.357934
1925.000000	100.357627
1924.000000	100.357074
1923.000000	100.355983
1922.000000	100.354533
1921.000000	100.353140
1920.000000	100.352043
1919.000000	100.351100
1918.000000	100.349927
1917.000000	100.348410
1916.000000	100.346960
1915.000000	100.345844
1914.000000	100.344639
1913.000000	100.342679
1912.000000	100.339978
1911.000000	100.337441
1910.000000	100.335788
1909.000000	100.334671
1908.000000	100.333214
1907.000000	100.331121
1906.000000	100.328959
1905.000000	100.327381
1904.000000	100.326682
1903.000000	100.326632
1902.000000	100.326416
1901.000000	100.325223
1900.000000	100.322969
1899.000000	100.320091
1898.000000	100.316898
1897.000000	100.313455
1896.000000	100.310361
1895.000000	100.308836
1894.000000	100.309382
1893.000000	100.310943
1892.000000	100.311891
1891.000000	100.311354
1890.000000	100.309418
1889.000000	100.306752
1888.000000	100.304272
1887.000000	100.302523
1886.000000	100.301464
1885.000000	100.300893
1884.000000	100.300718
1883.000000	100.300611
1882.000000	100.299669
1881.000000	100.297324
1880.000000	100.294272
1879.000000	100.291648
1878.000000	100.289731
1877.000000	100.288051
1876.000000	100.286685
1875.000000	100.286564
1874.000000	100.287888
1873.000000	100.289260
1872.000000	100.289451
1871.000000	100.289293
1870.000000	100.290603
1869.000000	100.293404
1868.000000	100.295869
1867.000000	100.296944
1866.000000	100.297010
1865.000000	100.297029
1864.000000	100.297960
1863.000000	100.300131
1862.000000	100.302653
1861.000000	100.303945
1860.000000	100.303481
1859.000000	100.302565
1858.000000	100.302877
1857.000000	100.304742
1856.000000	100.307147
1855.000000	100.308864
1854.000000	100.309362
1853.000000	100.309238
1852.000000	100.309897
1851.000000	100.311852
1850.000000	100.314200
1849.000000	100.315649
1848.000000	100.315960
1847.000000	100.316048
1846.000000	100.316833
1845.000000	100.318341
1844.000000	100.319971
1843.000000	100.321739
1842.000000	100.323913
1841.000000	100.326140
1840.000000	100.327986
1839.000000	100.329409
1838.000000	100.330543
1837.000000	100.331263
1836.000000	100.331528
1835.000000	100.331637
1834.000000	100.331980
1833.000000	100.332692
1832.000000	100.333447
1831.000000	100.333578
1830.000000	100.332860
1829.000000	100.332053
1828.000000	100.332066
1827.000000	100.332881
1826.000000	100.333836
1825.000000	100.334169
1824.000000	100.333685
1823.000000	100.333004
1822.000000	100.332657
1821.000000	100.332460
1820.000000	100.331915
1819.000000	100.331029
1818.000000	100.330426
1817.000000	100.330571
1816.000000	100.331475
1815.000000	100.332965
1814.000000	100.334786
1813.000000	100.336464
1812.000000	100.337362
1811.000000	100.337249
1810.000000	100.336401
1809.000000	100.335192
1808.000000	100.334123
1807.000000	100.333775
1806.000000	100.334276
1805.000000	100.335072
1804.000000	100.335564
1803.000000	100.335864
1802.000000	100.336591
1801.000000	100.338022
1800.000000	100.339586
1799.000000	100.340475
1798.000000	100.340298
1797.000000	100.339260
1796.000000	100.338154
1795.000000	100.337886
1794.000000	100.338851
1793.000000	100.340668
1792.000000	100.342435
1791.000000	100.343859
1790.000000	100.345155
1789.000000	100.346216
1788.000000	100.346891
1787.000000	100.347418
1786.000000	100.348174
1785.000000	100.349158
1784.000000	100.350129
1783.000000	100.351136
1782.000000	100.352572
1781.000000	100.354842
1780.000000	100.357697
1779.000000	100.360392
1778.000000	100.362345
1777.000000	100.363467
1776.000000	100.364027
1775.000000	100.364359
1774.000000	100.364996
1773.000000	100.366427
1772.000000	100.368076
1771.000000	100.368948
1770.000000	100.369282
1769.000000	100.370101
1768.000000	100.372172
1767.000000	100.375292
1766.000000	100.378425
1765.000000	100.380873
1764.000000	100.382917
1763.000000	100.385322
1762.000000	100.388067
1761.000000	100.390258
1760.000000	100.391357
1759.000000	100.392054
1758.000000	100.393296
1757.000000	100.395259
1756.000000	100.396944
1755.000000	100.397423
1754.000000	100.397116
1753.000000	100.397169
1752.000000	100.398082
1751.000000	100.399051
1750.000000	100.399807
1749.000000	100.401371
1748.000000	100.404353
1747.000000	100.407953
1746.000000	100.411079
1745.000000	100.413154
1744.000000	100.413668
1743.000000	100.412823
1742.000000	100.412022
1741.000000	100.412433
1740.000000	100.413548
1739.000000	100.414397
1738.000000	100.415035
1737.000000	100.415651
1736.000000	100.416175
1735.000000	100.416273
1734.000000	100.414623
1733.000000	100.412477
1732.000000	100.412235
1731.000000	100.412675
1730.000000	100.412029
1729.000000	100.410350
1728.000000	100.408719
1727.000000	100.407773
1726.000000	100.407667
1725.000000	100.408299
1724.000000	100.408949
1723.000000	100.408905
1722.000000	100.407906
1721.000000	100.406005
1720.000000	100.403585
1719.000000	100.401403
1718.000000	100.399763
1717.000000	100.397983
1716.000000	100.396599
1715.000000	100.396909
1714.000000	100.398565
1713.000000	100.400000
1712.000000	100.400226
1711.000000	100.399401
1710.000000	100.398129
1709.000000	100.396777
1708.000000	100.395375
1707.000000	100.393922
1706.000000	100.392389
1705.000000	100.390561
1704.000000	100.388530
1703.000000	100.386615
1702.000000	100.385098
1701.000000	100.383847
1700.000000	100.382178
1699.000000	100.380514
1698.000000	100.379306
1697.000000	100.378129
1696.000000	100.376760
1695.000000	100.375459
1694.000000	100.374369
1693.000000	100.373218
1692.000000	100.371800
1691.000000	100.370159
1690.000000	100.368446
1689.000000	100.366829
1688.000000	100.365384
1687.000000	100.364099
1686.000000	100.362989
1685.000000	100.361994
1684.000000	100.360830
1683.000000	100.359455
1682.000000	100.358070
1681.000000	100.356777
1680.000000	100.355586
1679.000000	100.354448
1678.000000	100.353273
1677.000000	100.352033
1676.000000	100.350762
1675.000000	100.349469
1674.000000	100.348155
1673.000000	100.346850
1672.000000	100.345549
1671.000000	100.344249
1670.000000	100.342946
1669.000000	100.341702
1668.000000	100.340636
1667.000000	100.339736
1666.000000	100.338859
1665.000000	100.337873
1664.000000	100.336749
1663.000000	100.335544
1662.000000	100.334329
1661.000000	100.333291
1660.000000	100.332581
1659.000000	100.332057
1658.000000	100.331354
1657.000000	100.330114
1656.000000	100.328184
1655.000000	100.326077
1654.000000	100.324863
1653.000000	100.323872
1652.000000	100.323372
1651.000000	100.324162
1650.000000	100.324442
1649.000000	100.323403
1648.000000	100.322078
1647.000000	100.320937
1646.000000	100.319332
1645.000000	100.317721
1644.000000	100.316957
1643.000000	100.317108
1642.000000	100.317586
1641.000000	100.317960
1640.000000	100.318262
1639.000000	100.318741
1638.000000	100.319914
1637.000000	100.322293
1636.000000	100.324934
1635.000000	100.325501
1634.000000	100.324528
1633.000000	100.323088
1632.000000	100.321366
1631.000000	100.319763
1630.000000	100.318677
1629.000000	100.318162
1628.000000	100.318237
1627.000000	100.318948
1626.000000	100.320176
1625.000000	100.322038
1624.000000	100.324299
1623.000000	100.325486
1622.000000	100.324613
1621.000000	100.323452
1620.000000	100.324183
1619.000000	100.327590
1618.000000	100.332750
1617.000000	100.336515
1616.000000	100.337431
1615.000000	100.337924
1614.000000	100.339232
1613.000000	100.340525
1612.000000	100.341510
1611.000000	100.342636
1610.000000	100.344199
1609.000000	100.346723
1608.000000	100.350403
1607.000000	100.353913
1606.000000	100.355836
1605.000000	100.357516
1604.000000	100.361499
1603.000000	100.367884
1602.000000	100.374071
1601.000000	100.377933
1600.000000	100.379492
1599.000000	100.379464
1598.000000	100.378423
1597.000000	100.377510
1596.000000	100.378479
1595.000000	100.382206
1594.000000	100.387621
1593.000000	100.393005
1592.000000	100.397495
1591.000000	100.400729
1590.000000	100.402172
1589.000000	100.401982
1588.000000	100.401620
1587.000000	100.402682
1586.000000	100.405333
1585.000000	100.408397
1584.000000	100.410687
1583.000000	100.411572
1582.000000	100.411738
1581.000000	100.412739
1580.000000	100.414901
1579.000000	100.416743
1578.000000	100.417629
1577.000000	100.418469
1576.000000	100.418785
1575.000000	100.416853
1574.000000	100.413072
1573.000000	100.409130
1572.000000	100.406124
1571.000000	100.404278
1570.000000	100.402543
1569.000000	100.401126
1568.000000	100.401964
1567.000000	100.404261
1566.000000	100.406091
1565.000000	100.407118
1564.000000	100.407747
1563.000000	100.406910
1562.000000	100.403547
1561.000000	100.399582
1560.000000	100.399061
1559.000000	100.397861
1558.000000	100.392663
1557.000000	100.392101
1556.000000	100.395368
1555.000000	100.397683
1554.000000	100.396700
1553.000000	100.393469
1552.000000	100.390192
1551.000000	100.388163
1550.000000	100.387457
1549.000000	100.387194
1548.000000	100.386654
1547.000000	100.385606
1546.000000	100.384310
1545.000000	100.382917
1544.000000	100.381204
1543.000000	100.379258
1542.000000	100.378115
1541.000000	100.377865
1540.000000	100.375908
1539.000000	100.371009
1538.000000	100.365537
1537.000000	100.360329
1536.000000	100.354869
1535.000000	100.348920
1534.000000	100.342068
1533.000000	100.334558
1532.000000	100.328601
1531.000000	100.325778
1530.000000	100.325363
1529.000000	100.325553
1528.000000	100.324702
1527.000000	100.322061
1526.000000	100.318104
1525.000000	100.314283
1524.000000	100.312118
1523.000000	100.312414
1522.000000	100.313923
1521.000000	100.313073
1520.000000	100.308922
1519.000000	100.304033
1518.000000	100.300584
1517.000000	100.298833
1516.000000	100.297409
1515.000000	100.295027
1514.000000	100.291629
1513.000000	100.287905
1512.000000	100.284374
1511.000000	100.281155
1510.000000	100.278068
1509.000000	100.275209
1508.000000	100.273201
1507.000000	100.272047
1506.000000	100.270769
1505.000000	100.269220
1504.000000	100.267285
1503.000000	100.264892
1502.000000	100.262557
1501.000000	100.260941
1500.000000	100.260057
1499.000000	100.259312
1498.000000	100.258420
1497.000000	100.257276
1496.000000	100.255755
1495.000000	100.254443
1494.000000	100.253916
1493.000000	100.254212
1492.000000	100.255216
1491.000000	100.256197
1490.000000	100.255158
1489.000000	100.250866
1488.000000	100.245397
1487.000000	100.242031
1486.000000	100.241006
1485.000000	100.240183
1484.000000	100.238515
1483.000000	100.236767
1482.000000	100.235985
1481.000000	100.235669
1480.000000	100.234836
1479.000000	100.233910
1478.000000	100.233997
1477.000000	100.234769
1476.000000	100.235001
1475.000000	100.235633
1474.000000	100.239116
1473.000000	100.245349
1472.000000	100.250142
1471.000000	100.251520
1470.000000	100.250955
1469.000000	100.249328
1468.000000	100.246741
1467.000000	100.244335
1466.000000	100.243964
1465.000000	100.245735
1464.000000	100.247095
1463.000000	100.246037
1462.000000	100.242938
1461.000000	100.238736
1460.000000	100.234230
1459.000000	100.230442
1458.000000	100.228853
1457.000000	100.229314
1456.000000	100.230189
1455.000000	100.230757
1454.000000	100.230300
1453.000000	100.228190
1452.000000	100.224508
1451.000000	100.220438
1450.000000	100.217664
1449.000000	100.216720
1448.000000	100.216475
1447.000000	100.216195
1446.000000	100.216626
1445.000000	100.218449
1444.000000	100.220479
1443.000000	100.220922
1442.000000	100.219385
1441.000000	100.216640
1440.000000	100.213032
1439.000000	100.208691
1438.000000	100.205465
1437.000000	100.205178
1436.000000	100.206414
1435.000000	100.206738
1434.000000	100.206255
1433.000000	100.205991
1432.000000	100.206564
1431.000000	100.207685
1430.000000	100.209130
1429.000000	100.210878
1428.000000	100.211898
1427.000000	100.210961
1426.000000	100.208664
1425.000000	100.208003
1424.000000	100.210403
1423.000000	100.213378
1422.000000	100.214540
1421.000000	100.214784
1420.000000	100.215885
1419.000000	100.216458
1418.000000	100.215096
1417.000000	100.212888
1416.000000	100.210079
1415.000000	100.206707
1414.000000	100.204359
1413.000000	100.205090
1412.000000	100.208701
1411.000000	100.212478
1410.000000	100.214757
1409.000000	100.216726
1408.000000	100.220110
1407.000000	100.224953
1406.000000	100.229481
1405.000000	100.232561
1404.000000	100.234790
1403.000000	100.237478
1402.000000	100.241405
1401.000000	100.246524
1400.000000	100.252433
1399.000000	100.258436
1398.000000	100.264506
1397.000000	100.270693
1396.000000	100.275528
1395.000000	100.276964
1394.000000	100.275909
1393.000000	100.276640
1392.000000	100.281038
1391.000000	100.287174
1390.000000	100.292441
1389.000000	100.296093
1388.000000	100.299345
1387.000000	100.303675
1386.000000	100.308968
1385.000000	100.313548
1384.000000	100.315886
1383.000000	100.316288
1382.000000	100.317021
1381.000000	100.320165
1380.000000	100.325900
1379.000000	100.332796
1378.000000	100.339366
1377.000000	100.344939
1376.000000	100.349151
1375.000000	100.351606
1374.000000	100.353013
1373.000000	100.355636
1372.000000	100.360388
1371.000000	100.365506
1370.000000	100.369084
1369.000000	100.371900
1368.000000	100.375918
1367.000000	100.381189
1366.000000	100.386138
1365.000000	100.390178
1364.000000	100.394227
1363.000000	100.398714
1362.000000	100.402684
1361.000000	100.405662
1360.000000	100.408253
1359.000000	100.410526
1358.000000	100.411607
1357.000000	100.411081
1356.000000	100.409526
1355.000000	100.407636
1354.000000	100.405861
1353.000000	100.405079
1352.000000	100.406548
1351.000000	100.410379
1350.000000	100.414137
1349.000000	100.415288
1348.000000	100.413701
1347.000000	100.411158
1346.000000	100.409055
1345.000000	100.407669
1344.000000	100.407179
1343.000000	100.408161
1342.000000	100.410630
1341.000000	100.413289
1340.000000	100.414361
1339.000000	100.413493
1338.000000	100.412303
1337.000000	100.412287
1336.000000	100.413060
1335.000000	100.413369
1334.000000	100.412851
1333.000000	100.412201
1332.000000	100.412028
1331.000000	100.412235
1330.000000	100.412523
1329.000000	100.413030
1328.000000	100.414105
1327.000000	100.415853
1326.000000	100.417925
1325.000000	100.419601
1324.000000	100.419721
1323.000000	100.417547
1322.000000	100.414000
1321.000000	100.411211
1320.000000	100.410419
1319.000000	100.411094
1318.000000	100.412296
1317.000000	100.413725
1316.000000	100.414971
1315.000000	100.415213
1314.000000	100.414671
1313.000000	100.415137
1312.000000	100.417707
1311.000000	100.420716
1310.000000	100.421438
1309.000000	100.419250
1308.000000	100.415935
1307.000000	100.413352
1306.000000	100.411868
1305.000000	100.411405
1304.000000	100.412378
1303.000000	100.414946
1302.000000	100.418016
1301.000000	100.419810
1300.000000	100.419360
1299.000000	100.417293
1298.000000	100.415232
1297.000000	100.414360
1296.000000	100.414519
1295.000000	100.414638
1294.000000	100.413877
1293.000000	100.412109
1292.000000	100.409651
1291.000000	100.407312
1290.000000	100.406624
1289.000000	100.408874
1288.000000	100.413263
1287.000000	100.416714
1286.000000	100.416665
1285.000000	100.413572
1284.000000	100.410035
1283.000000	100.407901
1282.000000	100.407122
1281.000000	100.407103
1280.000000	100.407736
1279.000000	100.408717
1278.000000	100.409271
1277.000000	100.409396
1276.000000	100.410320
1275.000000	100.412580
1274.000000	100.414507
1273.000000	100.413839
1272.000000	100.410371
1271.000000	100.406084
1270.000000	100.402951
1269.000000	100.401485
1268.000000	100.401062
1267.000000	100.400698
1266.000000	100.399808
1265.000000	100.398883
1264.000000	100.399131
1263.000000	100.400813
1262.000000	100.402301
1261.000000	100.401510
1260.000000	100.398166
1259.000000	100.394086
1258.000000	100.391552
1257.000000	100.391619
1256.000000	100.393375
1255.000000	100.394115
1254.000000	100.390883
1253.000000	100.382942
1252.000000	100.372885
1251.000000	100.364843
1250.000000	100.361443
1249.000000	100.362326
1248.000000	100.364807
1247.000000	100.365409
1246.000000	100.361885
1245.000000	100.355064
1244.000000	100.348673
1243.000000	100.346234
1242.000000	100.347618
1241.000000	100.349167
1240.000000	100.347365
1239.000000	100.341840
1238.000000	100.334776
1237.000000	100.328154
1236.000000	100.322107
1235.000000	100.315605
1234.000000	100.307936
1233.000000	100.299180
1232.000000	100.289500
1231.000000	100.278493
1230.000000	100.265674
1229.000000	100.251559
1228.000000	100.237679
1227.000000	100.224923
1226.000000	100.211974
1225.000000	100.196083
1224.000000	100.175652
1223.000000	100.151675
1222.000000	100.126426
1221.000000	100.101243
1220.000000	100.076131
1219.000000	100.050911
1218.000000	100.025750
1217.000000	100.000523
1216.000000	99.974601
1215.000000	99.947726
1214.000000	99.920467
1213.000000	99.893041
1212.000000	99.863921
1211.000000	99.830580
1210.000000	99.791889
1209.000000	99.749236
1208.000000	99.705223
1207.000000	99.662128
1206.000000	99.622077
1205.000000	99.587434
1204.000000	99.559154
1203.000000	99.534633
1202.000000	99.508913
1201.000000	99.478859
1200.000000	99.444955
1199.000000	99.408929
1198.000000	99.371733
1197.000000	99.334704
1196.000000	99.300165
1195.000000	99.268599
1194.000000	99.236742
1193.000000	99.200946
1192.000000	99.161369
1191.000000	99.120801
1190.000000	99.080637
1189.000000	99.040620
1188.000000	99.001441
1187.000000	98.964388
1186.000000	98.928790
1185.000000	98.892676
1184.000000	98.855646
1183.000000	98.818159
1182.000000	98.778409
1181.000000	98.733383
1180.000000	98.683198
1179.000000	98.631148
1178.000000	98.579159
1177.000000	98.526552
1176.000000	98.473592
1175.000000	98.422378
1174.000000	98.373232
1173.000000	98.324002
1172.000000	98.274156
1171.000000	98.225866
1170.000000	98.179705
1169.000000	98.133345
1168.000000	98.086543
1167.000000	98.043652
1166.000000	98.008709
1165.000000	97.981413
1164.000000	97.960582
1163.000000	97.948451
1162.000000	97.948282
1161.000000	97.959458
1160.000000	97.977031
1159.000000	97.994320
1158.000000	98.004430
1157.000000	98.001535
1156.000000	97.983537
1155.000000	97.953618
1154.000000	97.918157
1153.000000	97.882632
1152.000000	97.848752
1151.000000	97.814144
1150.000000	97.775172
1149.000000	97.731866
1148.000000	97.689533
1147.000000	97.653148
1146.000000	97.620748
1145.000000	97.585657
1144.000000	97.544811
1143.000000	97.500960
1142.000000	97.456694
1141.000000	97.410906
1140.000000	97.362713
1139.000000	97.314826
1138.000000	97.270862
1137.000000	97.231965
1136.000000	97.197148
1135.000000	97.163776
1134.000000	97.126947
1133.000000	97.082586
1132.000000	97.032991
1131.000000	96.986016
1130.000000	96.946649
1129.000000	96.912004
1128.000000	96.875777
1127.000000	96.834211
1126.000000	96.786557
1125.000000	96.733786
1124.000000	96.679023
1123.000000	96.626100
1122.000000	96.575493
1121.000000	96.524033
1120.000000	96.469943
1119.000000	96.415431
1118.000000	96.363471
1117.000000	96.315326
1116.000000	96.271904
1115.000000	96.233178
1114.000000	96.194815
1113.000000	96.150052
1112.000000	96.097461
1111.000000	96.043037
1110.000000	95.992667
1109.000000	95.946574
1108.000000	95.902768
1107.000000	95.860968
1106.000000	95.820121
1105.000000	95.776808
1104.000000	95.729683
1103.000000	95.681930
1102.000000	95.636479
1101.000000	95.592410
1100.000000	95.548302
1099.000000	95.505810
1098.000000	95.466400
1097.000000	95.428442
1096.000000	95.389782
1095.000000	95.349905
1094.000000	95.307596
1093.000000	95.260202
1092.000000	95.207808
1091.000000	95.155461
1090.000000	95.109318
1089.000000	95.072511
1088.000000	95.044642
1087.000000	95.021714
1086.000000	94.997243
1085.000000	94.968624
1084.000000	94.942292
1083.000000	94.926952
1082.000000	94.921213
1081.000000	94.913839
1080.000000	94.897134
1079.000000	94.873829
1078.000000	94.849644
1077.000000	94.825574
1076.000000	94.800181
1075.000000	94.773751
1074.000000	94.746417
1073.000000	94.715476
1072.000000	94.676508
1071.000000	94.624663
1070.000000	94.555666
1069.000000	94.470169
1068.000000	94.376661
1067.000000	94.284333
1066.000000	94.192557
1065.000000	94.093539
1064.000000	93.985545
1063.000000	93.876541
1062.000000	93.773691
1061.000000	93.676417
1060.000000	93.581854
1059.000000	93.490113
1058.000000	93.401650
1057.000000	93.315471
1056.000000	93.231577
1055.000000	93.149247
1054.000000	93.062591
1053.000000	92.965859
1052.000000	92.864952
1051.000000	92.774697
1050.000000	92.700893
1049.000000	92.633635
1048.000000	92.561121
1047.000000	92.480148
1046.000000	92.390903
1045.000000	92.292528
1044.000000	92.187931
1043.000000	92.084474
1042.000000	91.985918
1041.000000	91.890062
1040.000000	91.796364
1039.000000	91.708499
1038.000000	91.627340
1037.000000	91.549282
1036.000000	91.473775
1035.000000	91.404710
1034.000000	91.342285
1033.000000	91.281801
1032.000000	91.222519
1031.000000	91.168985
1030.000000	91.121298
1029.000000	91.073193
1028.000000	91.022991
1027.000000	90.978076
1026.000000	90.945003
1025.000000	90.922433
1024.000000	90.905921
1023.000000	90.891909
1022.000000	90.875285
1021.000000	90.851361
1020.000000	90.822604
1019.000000	90.795749
1018.000000	90.770710
1017.000000	90.740321
1016.000000	90.702155
1015.000000	90.661978
1014.000000	90.624350
1013.000000	90.589059
1012.000000	90.558423
1011.000000	90.538158
1010.000000	90.527960
1009.000000	90.519781
1008.000000	90.508194
1007.000000	90.495032
1006.000000	90.482714
1005.000000	90.471472
1004.000000	90.463975
1003.000000	90.463469
1002.000000	90.466033
1001.000000	90.464061
1000.000000	90.458685
999.000000	90.458764
998.000000	90.466317
997.000000	90.473893
996.000000	90.478826
995.000000	90.488865
994.000000	90.509307
993.000000	90.534606
992.000000	90.557623
991.000000	90.578676
990.000000	90.600788
989.000000	90.623924
988.000000	90.648772
987.000000	90.679536
986.000000	90.718713
985.000000	90.764431
984.000000	90.815162
983.000000	90.871251
982.000000	90.930828
981.000000	90.991360
980.000000	91.056351
979.000000	91.132938
978.000000	91.221406
977.000000	91.314305
976.000000	91.407013
975.000000	91.501879
974.000000	91.601345
973.000000	91.705125
972.000000	91.814792
971.000000	91.932207
970.000000	92.051793
969.000000	92.163321
968.000000	92.264862
967.000000	92.365036
966.000000	92.470280
965.000000	92.577746
964.000000	92.683053
963.000000	92.786772
962.000000	92.889840
961.000000	92.989884
960.000000	93.085667
959.000000	93.178869
958.000000	93.268689
957.000000	93.351396
956.000000	93.428468
955.000000	93.508372
954.000000	93.595864
953.000000	93.684918
952.000000	93.766439
951.000000	93.837997
950.000000	93.902366
949.000000	93.961342
948.000000	94.015363
947.000000	94.065682
946.000000	94.113026
945.000000	94.156732
944.000000	94.197779
943.000000	94.239424
942.000000	94.282259
941.000000	94.322232
940.000000	94.356695
939.000000	94.389300
938.000000	94.425592
937.000000	94.466020
936.000000	94.506625
935.000000	94.545106
934.000000	94.583092
933.000000	94.622611
932.000000	94.662400
931.000000	94.698695
930.000000	94.729700
929.000000	94.758620
928.000000	94.790743
927.000000	94.827622
926.000000	94.866809
925.000000	94.907654
924.000000	94.952496
923.000000	94.999529
922.000000	95.040186
921.000000	95.069137
920.000000	95.092517
919.000000	95.119457
918.000000	95.148688
917.000000	95.171534
916.000000	95.186777
915.000000	95.204195
914.000000	95.232736
913.000000	95.272800
912.000000	95.321424
911.000000	95.377704
910.000000	95.440317
909.000000	95.505493
908.000000	95.570934
907.000000	95.638532
906.000000	95.711529
905.000000	95.791965
904.000000	95.881182
903.000000	95.979114
902.000000	96.082550
901.000000	96.186991
900.000000	96.289813
899.000000	96.389351
898.000000	96.483212
897.000000	96.571561
896.000000	96.659881
895.000000	96.753904
894.000000	96.852795
893.000000	96.950930
892.000000	97.044120
891.000000	97.130018
890.000000	97.205890
889.000000	97.272217
888.000000	97.336314
887.000000	97.405376
886.000000	97.476344
885.000000	97.539155
884.000000	97.590069
883.000000	97.635696
882.000000	97.683757
881.000000	97.735989
880.000000	97.791229
879.000000	97.849180
878.000000	97.908968
877.000000	97.968890
876.000000	98.029390
875.000000	98.092473
874.000000	98.157935
873.000000	98.224425
872.000000	98.293595
871.000000	98.368181
870.000000	98.446733
869.000000	98.525813
868.000000	98.606536
867.000000	98.692382
866.000000	98.780369
865.000000	98.861064
864.000000	98.928995
863.000000	98.988066
862.000000	99.045598
861.000000	99.105628
860.000000	99.168834
859.000000	99.233145
858.000000	99.292190
857.000000	99.338989
856.000000	99.374915
855.000000	99.411025
854.000000	99.456807
853.000000	99.510285
852.000000	99.562014
851.000000	99.605184
850.000000	99.638580
849.000000	99.663287
848.000000	99.680980
847.000000	99.693861
846.000000	99.702876
845.000000	99.707215
844.000000	99.707855
843.000000	99.709217
842.000000	99.714397
841.000000	99.720935
840.000000	99.723905
839.000000	99.720321
838.000000	99.707628
837.000000	99.682009
836.000000	99.643905
835.000000	99.603068
834.000000	99.571302
833.000000	99.549811
832.000000	99.529720
831.000000	99.505983
830.000000	99.484578
829.000000	99.473243
828.000000	99.470881
827.000000	99.471434
826.000000	99.474621
825.000000	99.486025
824.000000	99.507081
823.000000	99.531395
822.000000	99.552204
821.000000	99.567947
820.000000	99.578423
819.000000	99.580755
818.000000	99.572695
817.000000	99.556410
816.000000	99.534766
815.000000	99.504962
814.000000	99.459668
813.000000	99.394561
812.000000	99.310633
811.000000	99.207416
810.000000	99.077904
809.000000	98.914403
808.000000	98.717911
807.000000	98.497519
806.000000	98.260870
805.000000	98.010876
804.000000	97.754281
803.000000	97.507696
802.000000	97.289613
801.000000	97.109506
800.000000	96.969409
799.000000	96.872030
798.000000	96.820867
797.000000	96.813673
796.000000	96.840733
795.000000	96.889689
794.000000	96.949785
793.000000	97.012455
792.000000	97.070912
791.000000	97.120672
790.000000	97.159800
789.000000	97.187369
788.000000	97.201114
787.000000	97.196940
786.000000	97.171035
785.000000	97.122022
784.000000	97.051010
783.000000	96.961534
782.000000	96.861635
781.000000	96.765163
780.000000	96.688026
779.000000	96.641434
778.000000	96.629186
777.000000	96.650599
776.000000	96.702440
775.000000	96.776886
774.000000	96.862386
773.000000	96.950149
772.000000	97.036827
771.000000	97.118990
770.000000	97.190031
769.000000	97.246299
768.000000	97.292107
767.000000	97.334049
766.000000	97.372672
765.000000	97.403146
764.000000	97.421721
763.000000	97.428539
762.000000	97.427337
761.000000	97.426251
760.000000	97.435968
759.000000	97.462397
758.000000	97.502403
757.000000	97.549294
756.000000	97.599267
755.000000	97.649304
754.000000	97.693791
753.000000	97.729592
752.000000	97.761811
751.000000	97.798458
750.000000	97.840603
749.000000	97.882860
748.000000	97.922422
747.000000	97.962453
746.000000	98.007120
745.000000	98.058297
744.000000	98.117391
743.000000	98.185889
742.000000	98.262663
741.000000	98.342816
740.000000	98.419387
739.000000	98.485845
738.000000	98.539735
737.000000	98.585977
736.000000	98.633616
735.000000	98.686038
734.000000	98.737142
733.000000	98.780118
732.000000	98.816451
731.000000	98.852441
730.000000	98.889861
729.000000	98.924493
728.000000	98.952211
727.000000	98.972461
726.000000	98.987187
725.000000	99.000211
724.000000	99.016811
723.000000	99.040947
722.000000	99.073430
721.000000	99.113741
720.000000	99.160684
719.000000	99.209651
718.000000	99.254003
717.000000	99.292600
716.000000	99.331518
715.000000	99.374418
714.000000	99.415452
713.000000	99.446466
712.000000	99.467307
711.000000	99.483628
710.000000	99.497673
709.000000	99.506659
708.000000	99.507685
707.000000	99.499336
706.000000	99.481297
705.000000	99.457205
704.000000	99.433378
703.000000	99.407630
702.000000	99.363977
701.000000	99.287321
700.000000	99.180442
699.000000	99.058199
698.000000	98.928967
697.000000	98.795570
696.000000	98.674711
695.000000	98.598406
694.000000	98.587392
693.000000	98.631582
692.000000	98.701670
691.000000	98.775341
690.000000	98.846958
689.000000	98.917289
688.000000	98.984522
687.000000	99.046597
686.000000	99.105400
685.000000	99.163896
684.000000	99.220608
683.000000	99.269412
682.000000	99.304967
681.000000	99.328007
680.000000	99.345137
679.000000	99.363141
678.000000	99.384439
677.000000	99.408616
676.000000	99.437154
675.000000	99.474899
674.000000	99.524338
673.000000	99.579667
672.000000	99.629441
671.000000	99.666510
670.000000	99.693737
669.000000	99.719381
668.000000	99.745373
667.000000	99.763651
666.000000	99.769513
665.000000	99.767154
664.000000	99.765303
663.000000	99.771793
662.000000	99.791045
661.000000	99.823343
660.000000	99.861955
659.000000	99.889127
658.000000	99.885473
657.000000	99.851697
656.000000	99.812443
655.000000	99.791190
654.000000	99.785290
653.000000	99.776097
652.000000	99.759424
651.000000	99.750798
650.000000	99.761104
