4000.000000	100.381473
3999.000000	100.380849
3998.000000	100.380224
3997.000000	100.379589
3996.000000	100.378930
3995.000000	100.378242
3994.000000	100.377529
3993.000000	100.376809
3992.000000	100.376106
3991.000000	100.375434
3990.000000	100.374790
3989.000000	100.374162
3988.000000	100.373543
3987.000000	100.372937
3986.000000	100.372362
3985.000000	100.371836
3984.000000	100.371362
3983.000000	100.370931
3982.000000	100.370528
3981.000000	100.370145
3980.000000	100.369788
3979.000000	100.369472
3978.000000	100.369212
3977.000000	100.369012
3976.000000	100.368864
3975.000000	100.368746
3974.000000	100.368639
3973.000000	100.368532
3972.000000	100.368432
3971.000000	100.368356
3970.000000	100.368323
3969.000000	100.368342
3968.000000	100.368410
3967.000000	100.368512
3966.000000	100.368631
3965.000000	100.368753
3964.000000	100.368879
3963.000000	100.369018
3962.000000	100.369180
3961.000000	100.369367
3960.000000	100.369572
3959.000000	100.369779
3958.000000	100.369980
3957.000000	100.370181
3956.000000	100.370399
3955.000000	100.370659
3954.000000	100.370975
3953.000000	100.371338
3952.000000	100.371715
3951.000000	100.372069
3950.000000	100.372380
3949.000000	100.372663
3948.000000	100.372963
3947.000000	100.373324
3946.000000	100.373760
3945.000000	100.374235
3944.000000	100.374689
3943.000000	100.375074
3942.000000	100.375383
3941.000000	100.375647
3940.000000	100.375906
3939.000000	100.376176
3938.000000	100.376442
3937.000000	100.376667
3936.000000	100.376823
3935.000000	100.376905
3934.000000	100.376937
3933.000000	100.376955
3932.000000	100.376983
3931.000000	100.377019
3930.000000	100.377033
3929.000000	100.376981
3928.000000	100.376839
3927.000000	100.376624
3926.000000	100.376394
3925.000000	100.376219
3924.000000	100.376138
3923.000000	100.376139
3922.000000	100.376165
3921.000000	100.376152
3920.000000	100.376066
3919.000000	100.375928
3918.000000	100.375794
3917.000000	100.375720
3916.000000	100.375730
3915.000000	100.375796
3914.000000	100.375863
3913.000000	100.375882
3912.000000	100.375846
3911.000000	100.375791
3910.000000	100.375782
3909.000000	100.375871
3908.000000	100.376063
3907.000000	100.376303
3906.000000	100.376503
3905.000000	100.376592
3904.000000	100.376566
3903.000000	100.376490
3902.000000	100.376458
3901.000000	100.376520
3900.000000	100.376650
3899.000000	100.376755
3898.000000	100.376741
3897.000000	100.376563
3896.000000	100.376246
3895.000000	100.375843
3894.000000	100.375394
3893.000000	100.374899
3892.000000	100.374328
3891.000000	100.373646
3890.000000	100.372852
3889.000000	100.371994
3888.000000	100.371151
3887.000000	100.370411
3886.000000	100.369831
3885.000000	100.369401
3884.000000	100.369048
3883.000000	100.368671
3882.000000	100.368197
3881.000000	100.367621
3880.000000	100.366999
3879.000000	100.366410
3878.000000	100.365890
3877.000000	100.365405
3876.000000	100.364866
3875.000000	100.364179
3874.000000	100.363359
3873.000000	100.362345
3872.000000	100.360977
3871.000000	100.359547
3870.000000	100.358706
3869.000000	100.358781
3868.000000	100.359387
3867.000000	100.359630
3866.000000	100.358421
3865.000000	100.355561
3864.000000	100.352632
3863.000000	100.351810
3862.000000	100.353650
3861.000000	100.356583
3860.000000	100.358336
3859.000000	100.357108
3858.000000	100.351208
3857.000000	100.338687
3856.000000	100.320155
3855.000000	100.302466
3854.000000	100.293534
3853.000000	100.290239
3852.000000	100.286161
3851.000000	100.285572
3850.000000	100.291836
3849.000000	100.302175
3848.000000	100.315119
3847.000000	100.331536
3846.000000	100.351180
3845.000000	100.370657
3844.000000	100.385708
3843.000000	100.394755
3842.000000	100.399189
3841.000000	100.400635
3840.000000	100.397994
3839.000000	100.387853
3838.000000	100.369018
3837.000000	100.346117
3836.000000	100.327125
3835.000000	100.316174
3834.000000	100.311800
3833.000000	100.311972
3832.000000	100.316801
3831.000000	100.326641
3830.000000	100.340361
3829.000000	100.355006
3828.000000	100.367198
3827.000000	100.375984
3826.000000	100.382897
3825.000000	100.388793
3824.000000	100.390985
3823.000000	100.384574
3822.000000	100.368153
3821.000000	100.346479
3820.000000	100.327833
3819.000000	100.318387
3818.000000	100.315905
3817.000000	100.312907
3816.000000	100.306887
3815.000000	100.303101
3814.000000	100.307815
3813.000000	100.320314
3812.000000	100.333921
3811.000000	100.342981
3810.000000	100.345748
3809.000000	100.342875
3808.000000	100.336844
3807.000000	100.331770
3806.000000	100.331255
3805.000000	100.335644
3804.000000	100.341163
3803.000000	100.343461
3802.000000	100.341905
3801.000000	100.339260
3800.000000	100.339234
3799.000000	100.343048
3798.000000	100.348220
3797.000000	100.351411
3796.000000	100.351481
3795.000000	100.349430
3794.000000	100.346844
3793.000000	100.344581
3792.000000	100.342778
3791.000000	100.341594
3790.000000	100.341342
3789.000000	100.342075
3788.000000	100.343514
3787.000000	100.345147
3786.000000	100.346459
3785.000000	100.347279
3784.000000	100.347985
3783.000000	100.349270
3782.000000	100.351370
3781.000000	100.353458
3780.000000	100.354019
3779.000000	100.352047
3778.000000	100.348198
3777.000000	100.344783
3776.000000	100.343818
3775.000000	100.345637
3774.000000	100.349210
3773.000000	100.352861
3772.000000	100.355155
3771.000000	100.355784
3770.000000	100.355967
3769.000000	100.357732
3768.000000	100.362076
3767.000000	100.367108
3766.000000	100.368815
3765.000000	100.364734
3764.000000	100.356604
3763.000000	100.349295
3762.000000	100.347393
3761.000000	100.353036
3760.000000	100.364330
3759.000000	100.375191
3758.000000	100.380008
3757.000000	100.378222
3756.000000	100.373297
3755.000000	100.368861
3754.000000	100.367139
3753.000000	100.368491
3752.000000	100.369343
3751.000000	100.362813
3750.000000	100.346817
3749.000000	100.329807
3748.000000	100.320629
3747.000000	100.318563
3746.000000	100.318406
3745.000000	100.317512
3744.000000	100.316984
3743.000000	100.321925
3742.000000	100.335340
3741.000000	100.352184
3740.000000	100.366053
3739.000000	100.376401
3738.000000	100.386083
3737.000000	100.395169
3736.000000	100.398781
3735.000000	100.391628
3734.000000	100.374401
3733.000000	100.354837
3732.000000	100.341653
3731.000000	100.338352
3730.000000	100.342644
3729.000000	100.348643
3728.000000	100.351211
3727.000000	100.349455
3726.000000	100.346230
3725.000000	100.344794
3724.000000	100.345696
3723.000000	100.346662
3722.000000	100.344959
3721.000000	100.339920
3720.000000	100.333036
3719.000000	100.326466
3718.000000	100.321697
3717.000000	100.318907
3716.000000	100.317276
3715.000000	100.315594
3714.000000	100.313000
3713.000000	100.309473
3712.000000	100.305561
3711.000000	100.301805
3710.000000	100.298304
3709.000000	100.294822
3708.000000	100.291196
3707.000000	100.287387
3706.000000	100.283347
3705.000000	100.279061
3704.000000	100.274562
3703.000000	100.269893
3702.000000	100.265067
3701.000000	100.260047
3700.000000	100.254777
3699.000000	100.249235
3698.000000	100.243464
3697.000000	100.237564
3696.000000	100.231652
3695.000000	100.225810
3694.000000	100.220053
3693.000000	100.214330
3692.000000	100.208560
3691.000000	100.202673
3690.000000	100.196635
3689.000000	100.190469
3688.000000	100.184231
3687.000000	100.177967
3686.000000	100.171670
3685.000000	100.165285
3684.000000	100.158754
3683.000000	100.152059
3682.000000	100.145230
3681.000000	100.138319
3680.000000	100.131356
3679.000000	100.124323
3678.000000	100.117152
3677.000000	100.109767
3676.000000	100.102126
3675.000000	100.094267
3674.000000	100.086288
3673.000000	100.078285
3672.000000	100.070275
3671.000000	100.062187
3670.000000	100.053917
3669.000000	100.045400
3668.000000	100.036666
3667.000000	100.027826
3666.000000	100.018998
3665.000000	100.010260
3664.000000	100.001624
3663.000000	99.993057
3662.000000	99.984514
3661.000000	99.975981
3660.000000	99.967487
3659.000000	99.959099
3658.000000	99.950888
3657.000000	99.942895
3656.000000	99.935105
3655.000000	99.927449
3654.000000	99.919841
3653.000000	99.912223
3652.000000	99.904592
3651.000000	99.897004
3650.000000	99.889524
3649.000000	99.882167
3648.000000	99.874886
3647.000000	99.867632
3646.000000	99.860409
3645.000000	99.853270
3644.000000	99.846313
3643.000000	99.839654
3642.000000	99.833369
3641.000000	99.827459
3640.000000	99.821845
3639.000000	99.816448
3638.000000	99.811264
3637.000000	99.806374
3636.000000	99.801912
3635.000000	99.797967
3634.000000	99.794522
3633.000000	99.791454
3632.000000	99.788597
3631.000000	99.785869
3630.000000	99.783317
3629.000000	99.781119
3628.000000	99.779504
3627.000000	99.778548
3626.000000	99.778142
3625.000000	99.778084
3624.000000	99.778262
3623.000000	99.778642
3622.000000	99.779245
3621.000000	99.780124
3620.000000	99.781308
3619.000000	99.782749
3618.000000	99.784335
3617.000000	99.785949
3616.000000	99.787524
3615.000000	99.789069
3614.000000	99.790653
3613.000000	99.792372
3612.000000	99.794294
3611.000000	99.796434
3610.000000	99.798770
3609.000000	99.801280
3608.000000	99.803970
3607.000000	99.806887
3606.000000	99.810090
3605.000000	99.813600
3604.000000	99.817353
3603.000000	99.821206
3602.000000	99.824996
3601.000000	99.828609
3600.000000	99.832027
3599.000000	99.835310
3598.000000	99.838546
3597.000000	99.841771
3596.000000	99.844941
3595.000000	99.847950
3594.000000	99.850704
3593.000000	99.853184
3592.000000	99.855467
3591.000000	99.857683
3590.000000	99.859937
3589.000000	99.862244
3588.000000	99.864500
3587.000000	99.866534
3586.000000	99.868216
3585.000000	99.869534
3584.000000	99.870573
3583.000000	99.871451
3582.000000	99.872240
3581.000000	99.872934
3580.000000	99.873465
3579.000000	99.873764
3578.000000	99.873823
3577.000000	99.873712
3576.000000	99.873554
3575.000000	99.873459
3574.000000	99.873470
3573.000000	99.873551
3572.000000	99.873623
3571.000000	99.873612
3570.000000	99.873490
3569.000000	99.873275
3568.000000	99.872994
3567.000000	99.872641
3566.000000	99.872146
3565.000000	99.871411
3564.000000	99.870368
3563.000000	99.869020
3562.000000	99.867450
3561.000000	99.865790
3560.000000	99.864165
3559.000000	99.862635
3558.000000	99.861184
3557.000000	99.859749
3556.000000	99.858273
3555.000000	99.856748
3554.000000	99.855232
3553.000000	99.853805
3552.000000	99.852537
3551.000000	99.851448
3550.000000	99.850486
3549.000000	99.849541
3548.000000	99.848487
3547.000000	99.847260
3546.000000	99.845959
3545.000000	99.844774
3544.000000	99.843826
3543.000000	99.843075
3542.000000	99.842343
3541.000000	99.841487
3540.000000	99.840528
3539.000000	99.839656
3538.000000	99.839066
3537.000000	99.838807
3536.000000	99.838767
3535.000000	99.838729
3534.000000	99.838558
3533.000000	99.838254
3532.000000	99.837886
3531.000000	99.837533
3530.000000	99.837228
3529.000000	99.836964
3528.000000	99.836703
3527.000000	99.836395
3526.000000	99.836003
3525.000000	99.835534
3524.000000	99.835053
3523.000000	99.834653
3522.000000	99.834408
3521.000000	99.834339
3520.000000	99.834408
3519.000000	99.834548
3518.000000	99.834701
3517.000000	99.834855
3516.000000	99.835037
3515.000000	99.835291
3514.000000	99.835637
3513.000000	99.836050
3512.000000	99.836471
3511.000000	99.836834
3510.000000	99.837100
3509.000000	99.837272
3508.000000	99.837388
3507.000000	99.837492
3506.000000	99.837602
3505.000000	99.837699
3504.000000	99.837742
3503.000000	99.837705
3502.000000	99.837603
3501.000000	99.837483
3500.000000	99.837397
3499.000000	99.837363
3498.000000	99.837354
3497.000000	99.837316
3496.000000	99.837197
3495.000000	99.836977
3494.000000	99.836674
3493.000000	99.836331
3492.000000	99.835992
3491.000000	99.835676
3490.000000	99.835380
3489.000000	99.835078
3488.000000	99.834750
3487.000000	99.834400
3486.000000	99.834059
3485.000000	99.833771
3484.000000	99.833564
3483.000000	99.833430
3482.000000	99.833324
3481.000000	99.833193
3480.000000	99.832996
3479.000000	99.832725
3478.000000	99.832394
3477.000000	99.832022
3476.000000	99.831614
3475.000000	99.831156
3474.000000	99.830623
3473.000000	99.830002
3472.000000	99.829305
3471.000000	99.828567
3470.000000	99.827828
3469.000000	99.827118
3468.000000	99.826449
3467.000000	99.825811
3466.000000	99.825189
3465.000000	99.824572
3464.000000	99.823965
3463.000000	99.823388
3462.000000	99.822862
3461.000000	99.822383
3460.000000	99.821926
3459.000000	99.821451
3458.000000	99.820929
3457.000000	99.820355
3456.000000	99.819751
3455.000000	99.819143
3454.000000	99.818550
3453.000000	99.817971
3452.000000	99.817395
3451.000000	99.816806
3450.000000	99.816199
3449.000000	99.815578
3448.000000	99.814981
3447.000000	99.814423
3446.000000	99.813825
3445.000000	99.813083
3444.000000	99.812229
3443.000000	99.811371
3442.000000	99.810527
3441.000000	99.809607
3440.000000	99.808559
3439.000000	99.807453
3438.000000	99.806414
3437.000000	99.805476
3436.000000	99.804496
3435.000000	99.803258
3434.000000	99.801686
3433.000000	99.800032
3432.000000	99.798796
3431.000000	99.798356
3430.000000	99.798576
3429.000000	99.798877
3428.000000	99.798834
3427.000000	99.798547
3426.000000	99.798380
3425.000000	99.798444
3424.000000	99.798443
3423.000000	99.798044
3422.000000	99.797170
3421.000000	99.795876
3420.000000	99.794206
3419.000000	99.792387
3418.000000	99.790887
3417.000000	99.790074
3416.000000	99.789953
3415.000000	99.790198
3414.000000	99.790392
3413.000000	99.790232
3412.000000	99.789650
3411.000000	99.788886
3410.000000	99.788340
3409.000000	99.788202
3408.000000	99.788275
3407.000000	99.788242
3406.000000	99.788026
3405.000000	99.787804
3404.000000	99.787791
3403.000000	99.788033
3402.000000	99.788423
3401.000000	99.788819
3400.000000	99.789131
3399.000000	99.789374
3398.000000	99.789615
3397.000000	99.789910
3396.000000	99.790280
3395.000000	99.790716
3394.000000	99.791198
3393.000000	99.791711
3392.000000	99.792244
3391.000000	99.792793
3390.000000	99.793353
3389.000000	99.793924
3388.000000	99.794504
3387.000000	99.795094
3386.000000	99.795696
3385.000000	99.796314
3384.000000	99.796947
3383.000000	99.797596
3382.000000	99.798262
3381.000000	99.798954
3380.000000	99.799696
3379.000000	99.800511
3378.000000	99.801407
3377.000000	99.802363
3376.000000	99.803333
3375.000000	99.804282
3374.000000	99.805193
3373.000000	99.806087
3372.000000	99.806987
3371.000000	99.807882
3370.000000	99.808725
3369.000000	99.809489
3368.000000	99.810215
3367.000000	99.810983
3366.000000	99.811852
3365.000000	99.812804
3364.000000	99.813734
3363.000000	99.814539
3362.000000	99.815219
3361.000000	99.815860
3360.000000	99.816553
3359.000000	99.817339
3358.000000	99.818249
3357.000000	99.819345
3356.000000	99.820623
3355.000000	99.821900
3354.000000	99.822915
3353.000000	99.823527
3352.000000	99.823850
3351.000000	99.824149
3350.000000	99.824591
3349.000000	99.825119
3348.000000	99.825518
3347.000000	99.825640
3346.000000	99.825616
3345.000000	99.825812
3344.000000	99.826518
3343.000000	99.827687
3342.000000	99.828949
3341.000000	99.829954
3340.000000	99.830712
3339.000000	99.831568
3338.000000	99.832828
3337.000000	99.834401
3336.000000	99.835793
3335.000000	99.836559
3334.000000	99.836729
3333.000000	99.836736
3332.000000	99.837005
3331.000000	99.837612
3330.000000	99.838429
3329.000000	99.839374
3328.000000	99.840397
3327.000000	99.841363
3326.000000	99.842112
3325.000000	99.842650
3324.000000	99.843183
3323.000000	99.843937
3322.000000	99.844985
3321.000000	99.846258
3320.000000	99.847603
3319.000000	99.848831
3318.000000	99.849777
3317.000000	99.850386
3316.000000	99.850791
3315.000000	99.851281
3314.000000	99.852111
3313.000000	99.853337
3312.000000	99.854801
3311.000000	99.856265
3310.000000	99.857572
3309.000000	99.858672
3308.000000	99.859503
3307.000000	99.859985
3306.000000	99.860173
3305.000000	99.860364
3304.000000	99.860930
3303.000000	99.862001
3302.000000	99.863365
3301.000000	99.864671
3300.000000	99.865690
3299.000000	99.866381
3298.000000	99.866849
3297.000000	99.867325
3296.000000	99.868085
3295.000000	99.869291
3294.000000	99.870891
3293.000000	99.872721
3292.000000	99.874606
3291.000000	99.876296
3290.000000	99.877441
3289.000000	99.877830
3288.000000	99.877752
3287.000000	99.877983
3286.000000	99.879185
3285.000000	99.881321
3284.000000	99.883631
3283.000000	99.885276
3282.000000	99.886051
3281.000000	99.886404
3280.000000	99.886843
3279.000000	99.887357
3278.000000	99.887506
3277.000000	99.887000
3276.000000	99.886160
3275.000000	99.885794
3274.000000	99.886543
3273.000000	99.888353
3272.000000	99.890503
3271.000000	99.892219
3270.000000	99.893386
3269.000000	99.894655
3268.000000	99.896793
3267.000000	99.899801
3266.000000	99.902589
3265.000000	99.903766
3264.000000	99.902816
3263.000000	99.900484
3262.000000	99.898220
3261.000000	99.896998
3260.000000	99.896804
3259.000000	99.897129
3258.000000	99.897687
3257.000000	99.898596
3256.000000	99.899936
3255.000000	99.901386
3254.000000	99.902466
3253.000000	99.903038
3252.000000	99.903409
3251.000000	99.903937
3250.000000	99.904645
3249.000000	99.905316
3248.000000	99.905865
3247.000000	99.906485
3246.000000	99.907377
3245.000000	99.908479
3244.000000	99.909531
3243.000000	99.910342
3242.000000	99.910943
3241.000000	99.911510
3240.000000	99.912218
3239.000000	99.913121
3238.000000	99.914115
3237.000000	99.914993
3236.000000	99.915627
3235.000000	99.916083
3234.000000	99.916600
3233.000000	99.917382
3232.000000	99.918398
3231.000000	99.919465
3230.000000	99.920421
3229.000000	99.921268
3228.000000	99.922115
3227.000000	99.923045
3226.000000	99.924047
3225.000000	99.925051
3224.000000	99.926006
3223.000000	99.926921
3222.000000	99.927836
3221.000000	99.928782
3220.000000	99.929766
3219.000000	99.930784
3218.000000	99.931849
3217.000000	99.932988
3216.000000	99.934187
3215.000000	99.935330
3214.000000	99.936261
3213.000000	99.936907
3212.000000	99.937408
3211.000000	99.938072
3210.000000	99.939123
3209.000000	99.940490
3208.000000	99.941758
3207.000000	99.942544
3206.000000	99.942853
3205.000000	99.943130
3204.000000	99.943844
3203.000000	99.945073
3202.000000	99.946515
3201.000000	99.947871
3200.000000	99.949111
3199.000000	99.950360
3198.000000	99.951662
3197.000000	99.952931
3196.000000	99.954030
3195.000000	99.954794
3194.000000	99.955028
3193.000000	99.954643
3192.000000	99.953842
3191.000000	99.953036
3190.000000	99.952525
3189.000000	99.952345
3188.000000	99.952501
3187.000000	99.953224
3186.000000	99.954729
3185.000000	99.956751
3184.000000	99.958578
3183.000000	99.959769
3182.000000	99.960673
3181.000000	99.962033
3180.000000	99.964077
3179.000000	99.966110
3178.000000	99.967163
3177.000000	99.966962
3176.000000	99.966094
3175.000000	99.965474
3174.000000	99.965553
3173.000000	99.966120
3172.000000	99.966699
3171.000000	99.967078
3170.000000	99.967513
3169.000000	99.968363
3168.000000	99.969588
3167.000000	99.970688
3166.000000	99.971261
3165.000000	99.971491
3164.000000	99.972009
3163.000000	99.973165
3162.000000	99.974642
3161.000000	99.975778
3160.000000	99.976295
3159.000000	99.976520
3158.000000	99.976994
3157.000000	99.977872
3156.000000	99.978884
3155.000000	99.979751
3154.000000	99.980502
3153.000000	99.981325
3152.000000	99.982296
3151.000000	99.983338
3150.000000	99.984383
3149.000000	99.985426
3148.000000	99.986462
3147.000000	99.987513
3146.000000	99.988717
3145.000000	99.990226
3144.000000	99.991933
3143.000000	99.993440
3142.000000	99.994460
3141.000000	99.995133
3140.000000	99.995865
3139.000000	99.996816
3138.000000	99.997756
3137.000000	99.998410
3136.000000	99.998787
3135.000000	99.999158
3134.000000	99.999823
3133.000000	100.000895
3132.000000	100.002298
3131.000000	100.003955
3130.000000	100.005969
3129.000000	100.008493
3128.000000	100.011366
3127.000000	100.013947
3126.000000	100.015567
3125.000000	100.016133
3124.000000	100.016120
3123.000000	100.016203
3122.000000	100.016751
3121.000000	100.017695
3120.000000	100.018707
3119.000000	100.019489
3118.000000	100.020119
3117.000000	100.021055
3116.000000	100.022660
3115.000000	100.024762
3114.000000	100.026758
3113.000000	100.028218
3112.000000	100.029228
3111.000000	100.030172
3110.000000	100.031252
3109.000000	100.032303
3108.000000	100.033024
3107.000000	100.033327
3106.000000	100.033528
3105.000000	100.034158
3104.000000	100.035474
3103.000000	100.037133
3102.000000	100.038414
3101.000000	100.038943
3100.000000	100.039073
3099.000000	100.039550
3098.000000	100.040746
3097.000000	100.042376
3096.000000	100.043856
3095.000000	100.044879
3094.000000	100.045585
3093.000000	100.046295
3092.000000	100.047116
3091.000000	100.047813
3090.000000	100.048053
3089.000000	100.047838
3088.000000	100.047681
3087.000000	100.048183
3086.000000	100.049335
3085.000000	100.050361
3084.000000	100.050462
3083.000000	100.049709
3082.000000	100.049067
3081.000000	100.049411
3080.000000	100.050733
3079.000000	100.052364
3078.000000	100.053886
3077.000000	100.055603
3076.000000	100.057984
3075.000000	100.060931
3074.000000	100.063645
3073.000000	100.065243
3072.000000	100.065555
3071.000000	100.065243
3070.000000	100.065282
3069.000000	100.066086
3068.000000	100.067245
3067.000000	100.068095
3066.000000	100.068480
3065.000000	100.068905
3064.000000	100.069928
3063.000000	100.071542
3062.000000	100.073252
3061.000000	100.074672
3060.000000	100.075881
3059.000000	100.077124
3058.000000	100.078405
3057.000000	100.079474
3056.000000	100.080123
3055.000000	100.080404
3054.000000	100.080592
3053.000000	100.081022
3052.000000	100.081922
3051.000000	100.083258
3050.000000	100.084727
3049.000000	100.085989
3048.000000	100.086988
3047.000000	100.087988
3046.000000	100.089255
3045.000000	100.090756
3044.000000	100.092181
3043.000000	100.093276
3042.000000	100.094070
3041.000000	100.094834
3040.000000	100.095816
3039.000000	100.096996
3038.000000	100.098094
3037.000000	100.098871
3036.000000	100.099485
3035.000000	100.100514
3034.000000	100.102442
3033.000000	100.105129
3032.000000	100.107748
3031.000000	100.109529
3030.000000	100.110357
3029.000000	100.110746
3028.000000	100.111301
3027.000000	100.112205
3026.000000	100.113264
3025.000000	100.114347
3024.000000	100.115781
3023.000000	100.118090
3022.000000	100.121178
3021.000000	100.123933
3020.000000	100.125065
3019.000000	100.124616
3018.000000	100.124309
3017.000000	100.125902
3016.000000	100.129456
3015.000000	100.133442
3014.000000	100.136337
3013.000000	100.137961
3012.000000	100.139285
3011.000000	100.141424
3010.000000	100.144763
3009.000000	100.148635
3008.000000	100.151840
3007.000000	100.154061
3006.000000	100.156795
3005.000000	100.162088
3004.000000	100.169866
3003.000000	100.177117
3002.000000	100.180650
3001.000000	100.180552
3000.000000	100.180100
2999.000000	100.182008
2998.000000	100.185497
2997.000000	100.187674
2996.000000	100.187253
2995.000000	100.186150
2994.000000	100.187562
2993.000000	100.193349
2992.000000	100.203185
2991.000000	100.214943
2990.000000	100.225539
2989.000000	100.232627
2988.000000	100.236611
2987.000000	100.240446
2986.000000	100.246279
2985.000000	100.252695
2984.000000	100.256756
2983.000000	100.258552
2982.000000	100.261798
2981.000000	100.269089
2980.000000	100.277967
2979.000000	100.283538
2978.000000	100.284406
2977.000000	100.284469
2976.000000	100.288699
2975.000000	100.297926
2974.000000	100.308045
2973.000000	100.313349
2972.000000	100.310357
2971.000000	100.299730
2970.000000	100.285964
2969.000000	100.274634
2968.000000	100.268590
2967.000000	100.266492
2966.000000	100.265048
2965.000000	100.262396
2964.000000	100.259239
2963.000000	100.257149
2962.000000	100.256449
2961.000000	100.255879
2960.000000	100.253984
2959.000000	100.250767
2958.000000	100.248085
2957.000000	100.248109
2956.000000	100.251059
2955.000000	100.254753
2954.000000	100.256937
2953.000000	100.257868
2952.000000	100.259692
2951.000000	100.263235
2950.000000	100.266523
2949.000000	100.267205
2948.000000	100.265678
2947.000000	100.264725
2946.000000	100.266181
2945.000000	100.269091
2944.000000	100.271397
2943.000000	100.272581
2942.000000	100.273858
2941.000000	100.276111
2940.000000	100.278475
2939.000000	100.279241
2938.000000	100.278019
2937.000000	100.276742
2936.000000	100.278215
2935.000000	100.283411
2934.000000	100.290202
2933.000000	100.295011
2932.000000	100.296209
2931.000000	100.295323
2930.000000	100.294912
2929.000000	100.295709
2928.000000	100.296309
2927.000000	100.295519
2926.000000	100.294041
2925.000000	100.293610
2924.000000	100.294850
2923.000000	100.296684
2922.000000	100.297634
2921.000000	100.297173
2920.000000	100.295881
2919.000000	100.294895
2918.000000	100.295066
2917.000000	100.296270
2916.000000	100.297498
2915.000000	100.297811
2914.000000	100.297280
2913.000000	100.296780
2912.000000	100.296977
2911.000000	100.297687
2910.000000	100.298263
2909.000000	100.298365
2908.000000	100.298212
2907.000000	100.298220
2906.000000	100.298579
2905.000000	100.299157
2904.000000	100.299666
2903.000000	100.299870
2902.000000	100.299754
2901.000000	100.299542
2900.000000	100.299491
2899.000000	100.299626
2898.000000	100.299716
2897.000000	100.299562
2896.000000	100.299260
2895.000000	100.299085
2894.000000	100.299179
2893.000000	100.299446
2892.000000	100.299690
2891.000000	100.299814
2890.000000	100.299857
2889.000000	100.299895
2888.000000	100.299940
2887.000000	100.299900
2886.000000	100.299659
2885.000000	100.299218
2884.000000	100.298745
2883.000000	100.298439
2882.000000	100.298315
2881.000000	100.298160
2880.000000	100.297736
2879.000000	100.296998
2878.000000	100.296177
2877.000000	100.295642
2876.000000	100.295593
2875.000000	100.295826
2874.000000	100.295815
2873.000000	100.295199
2872.000000	100.294094
2871.000000	100.292937
2870.000000	100.291926
2869.000000	100.290805
2868.000000	100.289293
2867.000000	100.287585
2866.000000	100.286292
2865.000000	100.285934
2864.000000	100.286625
2863.000000	100.287967
2862.000000	100.289152
2861.000000	100.289356
2860.000000	100.288241
2859.000000	100.286208
2858.000000	100.284031
2857.000000	100.282226
2856.000000	100.280864
2855.000000	100.279821
2854.000000	100.278976
2853.000000	100.278184
2852.000000	100.277242
2851.000000	100.276022
2850.000000	100.274635
2849.000000	100.273409
2848.000000	100.272579
2847.000000	100.272007
2846.000000	100.271261
2845.000000	100.270063
2844.000000	100.268553
2843.000000	100.267011
2842.000000	100.265378
2841.000000	100.263282
2840.000000	100.260624
2839.000000	100.257984
2838.000000	100.256275
2837.000000	100.255919
2836.000000	100.256454
2835.000000	100.256905
2834.000000	100.256525
2833.000000	100.255335
2832.000000	100.254021
2831.000000	100.253306
2830.000000	100.253345
2829.000000	100.253687
2828.000000	100.253753
2827.000000	100.253379
2826.000000	100.252913
2825.000000	100.252892
2824.000000	100.253535
2823.000000	100.254471
2822.000000	100.254917
2821.000000	100.254377
2820.000000	100.253082
2819.000000	100.251797
2818.000000	100.251143
2817.000000	100.251149
2816.000000	100.251411
2815.000000	100.251471
2814.000000	100.251087
2813.000000	100.250349
2812.000000	100.249631
2811.000000	100.249318
2810.000000	100.249489
2809.000000	100.249964
2808.000000	100.250607
2807.000000	100.251433
2806.000000	100.252363
2805.000000	100.253117
2804.000000	100.253523
2803.000000	100.253759
2802.000000	100.254134
2801.000000	100.254699
2800.000000	100.255192
2799.000000	100.255338
2798.000000	100.255126
2797.000000	100.254873
2796.000000	100.255057
2795.000000	100.255972
2794.000000	100.257513
2793.000000	100.259133
2792.000000	100.260289
2791.000000	100.260938
2790.000000	100.261480
2789.000000	100.262183
2788.000000	100.262798
2787.000000	100.262895
2786.000000	100.262354
2785.000000	100.261483
2784.000000	100.260852
2783.000000	100.260939
2782.000000	100.261827
2781.000000	100.263106
2780.000000	100.264246
2779.000000	100.265152
2778.000000	100.266132
2777.000000	100.267363
2776.000000	100.268636
2775.000000	100.269656
2774.000000	100.270383
2773.000000	100.271003
2772.000000	100.271681
2771.000000	100.272413
2770.000000	100.273002
2769.000000	100.273188
2768.000000	100.273039
2767.000000	100.273228
2766.000000	100.274597
2765.000000	100.277305
2764.000000	100.280365
2763.000000	100.282432
2762.000000	100.283115
2761.000000	100.283138
2760.000000	100.283409
2759.000000	100.284052
2758.000000	100.284479
2757.000000	100.284082
2756.000000	100.282832
2755.000000	100.281455
2754.000000	100.280902
2753.000000	100.281500
2752.000000	100.282660
2751.000000	100.283658
2750.000000	100.284595
2749.000000	100.286121
2748.000000	100.288361
2747.000000	100.290569
2746.000000	100.291872
2745.000000	100.292027
2744.000000	100.291461
2743.000000	100.290887
2742.000000	100.290844
2741.000000	100.291342
2740.000000	100.291938
2739.000000	100.292424
2738.000000	100.293402
2737.000000	100.295781
2736.000000	100.299521
2735.000000	100.303200
2734.000000	100.305214
2733.000000	100.305232
2732.000000	100.304191
2731.000000	100.303050
2730.000000	100.301795
2729.000000	100.299771
2728.000000	100.296729
2727.000000	100.293486
2726.000000	100.291508
2725.000000	100.291681
2724.000000	100.293539
2723.000000	100.295660
2722.000000	100.297108
2721.000000	100.298338
2720.000000	100.300330
2719.000000	100.303060
2718.000000	100.305157
2717.000000	100.305221
2716.000000	100.303209
2715.000000	100.300464
2714.000000	100.298514
2713.000000	100.297883
2712.000000	100.298103
2711.000000	100.298464
2710.000000	100.298721
2709.000000	100.299339
2708.000000	100.301086
2707.000000	100.304018
2706.000000	100.306816
2705.000000	100.307703
2704.000000	100.306203
2703.000000	100.303665
2702.000000	100.301791
2701.000000	100.300783
2700.000000	100.299731
2699.000000	100.298337
2698.000000	100.297372
2697.000000	100.297441
2696.000000	100.298216
2695.000000	100.299189
2694.000000	100.300285
2693.000000	100.301359
2692.000000	100.301863
2691.000000	100.301528
2690.000000	100.300824
2689.000000	100.300189
2688.000000	100.299240
2687.000000	100.297485
2686.000000	100.295611
2685.000000	100.295127
2684.000000	100.296625
2683.000000	100.299199
2682.000000	100.301589
2681.000000	100.303403
2680.000000	100.304859
2679.000000	100.306053
2678.000000	100.306903
2677.000000	100.307343
2676.000000	100.307116
2675.000000	100.305801
2674.000000	100.303496
2673.000000	100.301131
2672.000000	100.299525
2671.000000	100.298524
2670.000000	100.297645
2669.000000	100.297262
2668.000000	100.298329
2667.000000	100.300932
2666.000000	100.303702
2665.000000	100.305004
2664.000000	100.304499
2663.000000	100.303112
2662.000000	100.301998
2661.000000	100.301645
2660.000000	100.301822
2659.000000	100.301844
2658.000000	100.300930
2657.000000	100.298921
2656.000000	100.296904
2655.000000	100.296518
2654.000000	100.298376
2653.000000	100.301465
2652.000000	100.304123
2651.000000	100.305717
2650.000000	100.306696
2649.000000	100.307343
2648.000000	100.307269
2647.000000	100.306223
2646.000000	100.304698
2645.000000	100.303436
2644.000000	100.302661
2643.000000	100.302136
2642.000000	100.301596
2641.000000	100.300863
2640.000000	100.299954
2639.000000	100.299410
2638.000000	100.300115
2637.000000	100.302356
2636.000000	100.305124
2635.000000	100.306853
2634.000000	100.306900
2633.000000	100.305862
2632.000000	100.304626
2631.000000	100.303479
2630.000000	100.302240
2629.000000	100.300822
2628.000000	100.299415
2627.000000	100.298459
2626.000000	100.298576
2625.000000	100.300201
2624.000000	100.302945
2623.000000	100.305692
2622.000000	100.307699
2621.000000	100.309377
2620.000000	100.311539
2619.000000	100.313968
2618.000000	100.315272
2617.000000	100.314360
2616.000000	100.311672
2615.000000	100.308795
2614.000000	100.306925
2613.000000	100.306040
2612.000000	100.305690
2611.000000	100.306143
2610.000000	100.308220
2609.000000	100.312001
2608.000000	100.316108
2607.000000	100.318656
2606.000000	100.318860
2605.000000	100.317455
2604.000000	100.315853
2603.000000	100.314986
2602.000000	100.314646
2601.000000	100.313615
2600.000000	100.310700
2599.000000	100.306270
2598.000000	100.302797
2597.000000	100.302849
2596.000000	100.306586
2595.000000	100.311493
2594.000000	100.314863
2593.000000	100.316509
2592.000000	100.318231
2591.000000	100.321346
2590.000000	100.325221
2589.000000	100.327906
2588.000000	100.327803
2587.000000	100.324747
2586.000000	100.320208
2585.000000	100.316443
2584.000000	100.314691
2583.000000	100.314400
2582.000000	100.314343
2581.000000	100.314240
2580.000000	100.314783
2579.000000	100.316166
2578.000000	100.317471
2577.000000	100.317792
2576.000000	100.317345
2575.000000	100.317019
2574.000000	100.317263
2573.000000	100.317792
2572.000000	100.318058
2571.000000	100.317590
2570.000000	100.316169
2569.000000	100.314254
2568.000000	100.313067
2567.000000	100.313552
2566.000000	100.315264
2565.000000	100.316698
2564.000000	100.316979
2563.000000	100.316736
2562.000000	100.317095
2561.000000	100.318359
2560.000000	100.319979
2559.000000	100.321324
2558.000000	100.322204
2557.000000	100.322757
2556.000000	100.323217
2555.000000	100.323747
2554.000000	100.324283
2553.000000	100.324614
2552.000000	100.324701
2551.000000	100.324754
2550.000000	100.324974
2549.000000	100.325299
2548.000000	100.325608
2547.000000	100.325912
2546.000000	100.326243
2545.000000	100.326601
2544.000000	100.326994
2543.000000	100.327416
2542.000000	100.327850
2541.000000	100.328276
2540.000000	100.328689
2539.000000	100.329091
2538.000000	100.329488
2537.000000	100.329881
2536.000000	100.330267
2535.000000	100.330641
2534.000000	100.331005
2533.000000	100.331362
2532.000000	100.331717
2531.000000	100.332070
2530.000000	100.332415
2529.000000	100.332745
2528.000000	100.333061
2527.000000	100.333364
2526.000000	100.333652
2525.000000	100.333915
2524.000000	100.334145
2523.000000	100.334337
2522.000000	100.334493
2521.000000	100.334620
2520.000000	100.334725
2519.000000	100.334807
2518.000000	100.334865
2517.000000	100.334903
2516.000000	100.334932
2515.000000	100.334973
2514.000000	100.335038
2513.000000	100.335133
2512.000000	100.335252
2511.000000	100.335388
2510.000000	100.335541
2509.000000	100.335709
2508.000000	100.335901
2507.000000	100.336144
2506.000000	100.336416
2505.000000	100.336638
2504.000000	100.336764
2503.000000	100.336886
2502.000000	100.337143
2501.000000	100.337531
2500.000000	100.337893
2499.000000	100.338123
2498.000000	100.338262
2497.000000	100.338401
2496.000000	100.338572
2495.000000	100.338759
2494.000000	100.338933
2493.000000	100.339036
2492.000000	100.339068
2491.000000	100.339184
2490.000000	100.339505
2489.000000	100.339767
2488.000000	100.339453
2487.000000	100.338409
2486.000000	100.337258
2485.000000	100.336842
2484.000000	100.337295
2483.000000	100.337975
2482.000000	100.338330
2481.000000	100.338561
2480.000000	100.339091
2479.000000	100.339848
2478.000000	100.340421
2477.000000	100.340682
2476.000000	100.340899
2475.000000	100.341354
2474.000000	100.342173
2473.000000	100.343387
2472.000000	100.344841
2471.000000	100.346036
2470.000000	100.346495
2469.000000	100.346342
2468.000000	100.346320
2467.000000	100.346972
2466.000000	100.347979
2465.000000	100.348569
2464.000000	100.348468
2463.000000	100.348103
2462.000000	100.348037
2461.000000	100.348373
2460.000000	100.348844
2459.000000	100.349197
2458.000000	100.349372
2457.000000	100.349451
2456.000000	100.349612
2455.000000	100.350040
2454.000000	100.350758
2453.000000	100.351572
2452.000000	100.352261
2451.000000	100.352781
2450.000000	100.353237
2449.000000	100.353723
2448.000000	100.354264
2447.000000	100.354855
2446.000000	100.355431
2445.000000	100.355860
2444.000000	100.356086
2443.000000	100.356218
2442.000000	100.356397
2441.000000	100.356631
2440.000000	100.356844
2439.000000	100.357072
2438.000000	100.357486
2437.000000	100.358166
2436.000000	100.358899
2435.000000	100.359391
2434.000000	100.359684
2433.000000	100.360122
2432.000000	100.360781
2431.000000	100.361232
2430.000000	100.361079
2429.000000	100.360487
2428.000000	100.360011
2427.000000	100.359988
2426.000000	100.360357
2425.000000	100.360923
2424.000000	100.361491
2423.000000	100.361836
2422.000000	100.361886
2421.000000	100.361900
2420.000000	100.362145
2419.000000	100.362424
2418.000000	100.362303
2417.000000	100.361845
2416.000000	100.361698
2415.000000	100.362265
2414.000000	100.363163
2413.000000	100.363733
2412.000000	100.363821
2411.000000	100.363716
2410.000000	100.363576
2409.000000	100.363317
2408.000000	100.362969
2407.000000	100.362792
2406.000000	100.363085
2405.000000	100.364143
2404.000000	100.366223
2403.000000	100.369099
2402.000000	100.371651
2401.000000	100.372591
2400.000000	100.371719
2399.000000	100.370174
2398.000000	100.369299
2397.000000	100.369301
2396.000000	100.369488
2395.000000	100.369291
2394.000000	100.368641
2393.000000	100.367687
2392.000000	100.366643
2391.000000	100.365840
2390.000000	100.365511
2389.000000	100.365489
2388.000000	100.365430
2387.000000	100.365274
2386.000000	100.365237
2385.000000	100.365393
2384.000000	100.365592
2383.000000	100.365756
2382.000000	100.365918
2381.000000	100.365904
2380.000000	100.365331
2379.000000	100.364104
2378.000000	100.362720
2377.000000	100.361855
2376.000000	100.361681
2375.000000	100.361813
2374.000000	100.361858
2373.000000	100.361841
2372.000000	100.362000
2371.000000	100.362331
2370.000000	100.362498
2369.000000	100.362189
2368.000000	100.361446
2367.000000	100.360595
2366.000000	100.359933
2365.000000	100.359534
2364.000000	100.359361
2363.000000	100.359366
2362.000000	100.359514
2361.000000	100.359740
2360.000000	100.359909
2359.000000	100.359936
2358.000000	100.359821
2357.000000	100.359613
2356.000000	100.359387
2355.000000	100.359170
2354.000000	100.358971
2353.000000	100.358808
2352.000000	100.358712
2351.000000	100.358687
2350.000000	100.358690
2349.000000	100.358681
2348.000000	100.358650
2347.000000	100.358617
2346.000000	100.358605
2345.000000	100.358615
2344.000000	100.358634
2343.000000	100.358648
2342.000000	100.358659
2341.000000	100.358677
2340.000000	100.358709
2339.000000	100.358750
2338.000000	100.358798
2337.000000	100.358852
2336.000000	100.358913
2335.000000	100.358975
2334.000000	100.359032
2333.000000	100.359077
2332.000000	100.359109
2331.000000	100.359132
2330.000000	100.359152
2329.000000	100.359176
2328.000000	100.359209
2327.000000	100.359256
2326.000000	100.359315
2325.000000	100.359372
2324.000000	100.359411
2323.000000	100.359414
2322.000000	100.359381
2321.000000	100.359324
2320.000000	100.359255
2319.000000	100.359189
2318.000000	100.359130
2317.000000	100.359083
2316.000000	100.359043
2315.000000	100.359014
2314.000000	100.359001
2313.000000	100.359015
2312.000000	100.359043
2311.000000	100.359059
2310.000000	100.359025
2309.000000	100.358940
2308.000000	100.358831
2307.000000	100.358746
2306.000000	100.358691
2305.000000	100.358622
2304.000000	100.358478
2303.000000	100.358320
2302.000000	100.358281
2301.000000	100.358411
2300.000000	100.358595
2299.000000	100.358684
2298.000000	100.358643
2297.000000	100.358536
2296.000000	100.358406
2295.000000	100.358248
2294.000000	100.358065
2293.000000	100.357907
2292.000000	100.357819
2291.000000	100.357810
2290.000000	100.357851
2289.000000	100.357883
2288.000000	100.357851
2287.000000	100.357741
2286.000000	100.357606
2285.000000	100.357506
2284.000000	100.357435
2283.000000	100.357339
2282.000000	100.357196
2281.000000	100.357033
2280.000000	100.356880
2279.000000	100.356721
2278.000000	100.356540
2277.000000	100.356374
2276.000000	100.356272
2275.000000	100.356207
2274.000000	100.356099
2273.000000	100.355928
2272.000000	100.355729
2271.000000	100.355489
2270.000000	100.355149
2269.000000	100.354726
2268.000000	100.354311
2267.000000	100.353962
2266.000000	100.353667
2265.000000	100.353393
2264.000000	100.353116
2263.000000	100.352804
2262.000000	100.352425
2261.000000	100.351980
2260.000000	100.351531
2259.000000	100.351149
2258.000000	100.350837
2257.000000	100.350527
2256.000000	100.350152
2255.000000	100.349711
2254.000000	100.349242
2253.000000	100.348788
2252.000000	100.348390
2251.000000	100.348072
2250.000000	100.347793
2249.000000	100.347467
2248.000000	100.347064
2247.000000	100.346643
2246.000000	100.346275
2245.000000	100.345952
2244.000000	100.345633
2243.000000	100.345321
2242.000000	100.345038
2241.000000	100.344747
2240.000000	100.344422
2239.000000	100.344160
2238.000000	100.344094
2237.000000	100.344216
2236.000000	100.344375
2235.000000	100.344435
2234.000000	100.344369
2233.000000	100.344211
2232.000000	100.344013
2231.000000	100.343852
2230.000000	100.343792
2229.000000	100.343803
2228.000000	100.343772
2227.000000	100.343618
2226.000000	100.343376
2225.000000	100.343144
2224.000000	100.343006
2223.000000	100.343042
2222.000000	100.343329
2221.000000	100.343868
2220.000000	100.344520
2219.000000	100.345070
2218.000000	100.345364
2217.000000	100.345383
2216.000000	100.345279
2215.000000	100.345326
2214.000000	100.345678
2213.000000	100.346217
2212.000000	100.346647
2211.000000	100.346824
2210.000000	100.346933
2209.000000	100.347278
2208.000000	100.347956
2207.000000	100.348778
2206.000000	100.349431
2205.000000	100.349747
2204.000000	100.349790
2203.000000	100.349770
2202.000000	100.349869
2201.000000	100.350103
2200.000000	100.350369
2199.000000	100.350590
2198.000000	100.350786
2197.000000	100.350979
2196.000000	100.351114
2195.000000	100.351119
2194.000000	100.351021
2193.000000	100.350931
2192.000000	100.350949
2191.000000	100.351091
2190.000000	100.351327
2189.000000	100.351614
2188.000000	100.351912
2187.000000	100.352203
2186.000000	100.352493
2185.000000	100.352775
2184.000000	100.353019
2183.000000	100.353207
2182.000000	100.353376
2181.000000	100.353597
2180.000000	100.353925
2179.000000	100.354361
2178.000000	100.354816
2177.000000	100.355130
2176.000000	100.355179
2175.000000	100.354988
2174.000000	100.354738
2173.000000	100.354601
2172.000000	100.354615
2171.000000	100.354688
2170.000000	100.354690
2169.000000	100.354558
2168.000000	100.354358
2167.000000	100.354229
2166.000000	100.354247
2165.000000	100.354359
2164.000000	100.354452
2163.000000	100.354484
2162.000000	100.354494
2161.000000	100.354528
2160.000000	100.354588
2159.000000	100.354650
2158.000000	100.354698
2157.000000	100.354728
2156.000000	100.354745
2155.000000	100.354760
2154.000000	100.354790
2153.000000	100.354847
2152.000000	100.354923
2151.000000	100.354991
2150.000000	100.355025
2149.000000	100.355025
2148.000000	100.355010
2147.000000	100.355004
2146.000000	100.355020
2145.000000	100.355059
2144.000000	100.355122
2143.000000	100.355205
2142.000000	100.355301
2141.000000	100.355398
2140.000000	100.355485
2139.000000	100.355566
2138.000000	100.355656
2137.000000	100.355774
2136.000000	100.355926
2135.000000	100.356105
2134.000000	100.356297
2133.000000	100.356490
2132.000000	100.356677
2131.000000	100.356876
2130.000000	100.357131
2129.000000	100.357463
2128.000000	100.357827
2127.000000	100.358157
2126.000000	100.358428
2125.000000	100.358678
2124.000000	100.358954
2123.000000	100.359271
2122.000000	100.359609
2121.000000	100.359950
2120.000000	100.360299
2119.000000	100.360671
2118.000000	100.361072
2117.000000	100.361504
2116.000000	100.361979
2115.000000	100.362531
2114.000000	100.363167
2113.000000	100.363826
2112.000000	100.364421
2111.000000	100.364921
2110.000000	100.365374
2109.000000	100.365823
2108.000000	100.366270
2107.000000	100.366719
2106.000000	100.367197
2105.000000	100.367697
2104.000000	100.368176
2103.000000	100.368676
2102.000000	100.369343
2101.000000	100.370273
2100.000000	100.371343
2099.000000	100.372223
2098.000000	100.372723
2097.000000	100.372923
2096.000000	100.373116
2095.000000	100.373464
2094.000000	100.373895
2093.000000	100.374273
2092.000000	100.374544
2091.000000	100.374766
2090.000000	100.375066
2089.000000	100.375546
2088.000000	100.376202
2087.000000	100.376908
2086.000000	100.377503
2085.000000	100.377919
2084.000000	100.378213
2083.000000	100.378496
2082.000000	100.378848
2081.000000	100.379281
2080.000000	100.379748
2079.000000	100.380171
2078.000000	100.380458
2077.000000	100.380572
2076.000000	100.380620
2075.000000	100.380829
2074.000000	100.381327
2073.000000	100.381907
2072.000000	100.382152
2071.000000	100.381869
2070.000000	100.381310
2069.000000	100.380924
2068.000000	100.380921
2067.000000	100.381159
2066.000000	100.381346
2065.000000	100.381284
2064.000000	100.380989
2063.000000	100.380654
2062.000000	100.380426
2061.000000	100.380199
2060.000000	100.379770
2059.000000	100.379238
2058.000000	100.378985
2057.000000	100.379091
2056.000000	100.379059
2055.000000	100.378415
2054.000000	100.377330
2053.000000	100.376321
2052.000000	100.375666
2051.000000	100.375283
2050.000000	100.374993
2049.000000	100.374581
2048.000000	100.373772
2047.000000	100.372453
2046.000000	100.370935
2045.000000	100.369738
2044.000000	100.369046
2043.000000	100.368612
2042.000000	100.368076
2041.000000	100.367315
2040.000000	100.366426
2039.000000	100.365535
2038.000000	100.364691
2037.000000	100.363853
2036.000000	100.362938
2035.000000	100.361920
2034.000000	100.360877
2033.000000	100.359876
2032.000000	100.358896
2031.000000	100.357936
2030.000000	100.357096
2029.000000	100.356418
2028.000000	100.355723
2027.000000	100.354797
2026.000000	100.353685
2025.000000	100.352585
2024.000000	100.351479
2023.000000	100.350157
2022.000000	100.348639
2021.000000	100.347298
2020.000000	100.346420
2019.000000	100.345877
2018.000000	100.345328
2017.000000	100.344577
2016.000000	100.343579
2015.000000	100.342339
2014.000000	100.341046
2013.000000	100.340070
2012.000000	100.339582
2011.000000	100.339323
2010.000000	100.338957
2009.000000	100.338494
2008.000000	100.338115
2007.000000	100.337776
2006.000000	100.337258
2005.000000	100.336399
2004.000000	100.335070
2003.000000	100.333174
2002.000000	100.331046
2001.000000	100.329599
2000.000000	100.329429
1999.000000	100.330050
1998.000000	100.330359
1997.000000	100.330007
1996.000000	100.329683
1995.000000	100.329912
1994.000000	100.330153
1993.000000	100.329453
1992.000000	100.327782
1991.000000	100.326244
1990.000000	100.325779
1989.000000	100.326221
1988.000000	100.326835
1987.000000	100.327379
1986.000000	100.328264
1985.000000	100.329673
1984.000000	100.330999
1983.000000	100.331491
1982.000000	100.331162
1981.000000	100.330695
1980.000000	100.330456
1979.000000	100.330027
1978.000000	100.328778
1977.000000	100.326601
1976.000000	100.324042
1975.000000	100.321967
1974.000000	100.321064
1973.000000	100.321432
1972.000000	100.322594
1971.000000	100.324061
1970.000000	100.325731
1969.000000	100.327484
1968.000000	100.328725
1967.000000	100.328950
1966.000000	100.328588
1965.000000	100.328534
1964.000000	100.328864
1963.000000	100.328792
1962.000000	100.327961
1961.000000	100.326963
1960.000000	100.326309
1959.000000	100.325553
1958.000000	100.323982
1957.000000	100.321766
1956.000000	100.319871
1955.000000	100.319014
1954.000000	100.319153
1953.000000	100.319885
1952.000000	100.320921
1951.000000	100.322067
1950.000000	100.323118
1949.000000	100.323821
1948.000000	100.323928
1947.000000	100.323476
1946.000000	100.323009
1945.000000	100.323103
1944.000000	100.323514
1943.000000	100.323163
1942.000000	100.321350
1941.000000	100.318614
1940.000000	100.316031
1939.000000	100.314188
1938.000000	100.313182
1937.000000	100.312987
1936.000000	100.313384
1935.000000	100.313861
1934.000000	100.313944
1933.000000	100.313503
1932.000000	100.312530
1931.000000	100.310785
1930.000000	100.308122
1929.000000	100.304995
1928.000000	100.302268
1927.000000	100.300658
1926.000000	100.300379
1925.000000	100.301227
1924.000000	100.302421
1923.000000	100.302808
1922.000000	100.301940
1921.000000	100.300694
1920.000000	100.300213
1919.000000	100.300379
1918.000000	100.299821
1917.000000	100.297609
1916.000000	100.294101
1915.000000	100.290094
1914.000000	100.286231
1913.000000	100.283304
1912.000000	100.281991
1911.000000	100.281808
1910.000000	100.280998
1909.000000	100.278177
1908.000000	100.273805
1907.000000	100.269645
1906.000000	100.266944
1905.000000	100.265872
1904.000000	100.265933
1903.000000	100.266305
1902.000000	100.266001
1901.000000	100.264236
1900.000000	100.260888
1899.000000	100.256624
1898.000000	100.252409
1897.000000	100.248980
1896.000000	100.246379
1895.000000	100.243969
1894.000000	100.241272
1893.000000	100.238772
1892.000000	100.237483
1891.000000	100.237749
1890.000000	100.238655
1889.000000	100.238840
1888.000000	100.237777
1887.000000	100.235753
1886.000000	100.233224
1885.000000	100.230734
1884.000000	100.228872
1883.000000	100.227788
1882.000000	100.227062
1881.000000	100.226230
1880.000000	100.225236
1879.000000	100.224309
1878.000000	100.223436
1877.000000	100.222340
1876.000000	100.220963
1875.000000	100.219689
1874.000000	100.219105
1873.000000	100.219537
1872.000000	100.220759
1871.000000	100.222206
1870.000000	100.223466
1869.000000	100.224584
1868.000000	100.225759
1867.000000	100.226632
1866.000000	100.226540
1865.000000	100.225728
1864.000000	100.225540
1863.000000	100.227113
1862.000000	100.230140
1861.000000	100.233169
1860.000000	100.235238
1859.000000	100.237027
1858.000000	100.240048
1857.000000	100.244739
1856.000000	100.249583
1855.000000	100.252334
1854.000000	100.252086
1853.000000	100.250024
1852.000000	100.248104
1851.000000	100.247660
1850.000000	100.248909
1849.000000	100.251464
1848.000000	100.254839
1847.000000	100.258807
1846.000000	100.263455
1845.000000	100.268429
1844.000000	100.272176
1843.000000	100.273055
1842.000000	100.271213
1841.000000	100.268532
1840.000000	100.267125
1839.000000	100.267966
1838.000000	100.270430
1837.000000	100.273141
1836.000000	100.275093
1835.000000	100.276084
1834.000000	100.276522
1833.000000	100.277067
1832.000000	100.278189
1831.000000	100.279860
1830.000000	100.281421
1829.000000	100.282542
1828.000000	100.283599
1827.000000	100.284543
1826.000000	100.284390
1825.000000	100.282365
1824.000000	100.279531
1823.000000	100.277972
1822.000000	100.278353
1821.000000	100.279561
1820.000000	100.280312
1819.000000	100.280508
1818.000000	100.280817
1817.000000	100.281542
1816.000000	100.282218
1815.000000	100.282371
1814.000000	100.282107
1813.000000	100.281588
1812.000000	100.280571
1811.000000	100.278552
1810.000000	100.275696
1809.000000	100.273265
1808.000000	100.272519
1807.000000	100.273398
1806.000000	100.274680
1805.000000	100.275392
1804.000000	100.275674
1803.000000	100.276143
1802.000000	100.276989
1801.000000	100.277726
1800.000000	100.278289
1799.000000	100.279060
1798.000000	100.279971
1797.000000	100.280362
1796.000000	100.279828
1795.000000	100.278660
1794.000000	100.277466
1793.000000	100.276481
1792.000000	100.275860
1791.000000	100.275907
1790.000000	100.276545
1789.000000	100.277434
1788.000000	100.278862
1787.000000	100.281675
1786.000000	100.286191
1785.000000	100.291226
1784.000000	100.294828
1783.000000	100.296289
1782.000000	100.296734
1781.000000	100.297255
1780.000000	100.298272
1779.000000	100.299951
1778.000000	100.302541
1777.000000	100.305543
1776.000000	100.307376
1775.000000	100.307278
1774.000000	100.306995
1773.000000	100.309108
1772.000000	100.312833
1771.000000	100.314275
1770.000000	100.312339
1769.000000	100.310435
1768.000000	100.312084
1767.000000	100.316596
1766.000000	100.320212
1765.000000	100.321171
1764.000000	100.321510
1763.000000	100.323877
1762.000000	100.328211
1761.000000	100.332090
1760.000000	100.334847
1759.000000	100.337898
1758.000000	100.342228
1757.000000	100.346642
1756.000000	100.349479
1755.000000	100.351376
1754.000000	100.354192
1753.000000	100.358677
1752.000000	100.363722
1751.000000	100.367437
1750.000000	100.368605
1749.000000	100.367373
1748.000000	100.364666
1747.000000	100.362671
1746.000000	100.363838
1745.000000	100.368357
1744.000000	100.374060
1743.000000	100.378362
1742.000000	100.380640
1741.000000	100.381779
1740.000000	100.381896
1739.000000	100.379917
1738.000000	100.375764
1737.000000	100.370432
1736.000000	100.364535
1735.000000	100.357402
1734.000000	100.348985
1733.000000	100.342352
1732.000000	100.338916
1731.000000	100.337330
1730.000000	100.337011
1729.000000	100.338028
1728.000000	100.340000
1727.000000	100.342124
1726.000000	100.343475
1725.000000	100.343139
1724.000000	100.341069
1723.000000	100.337818
1722.000000	100.333957
1721.000000	100.329783
1720.000000	100.325737
1719.000000	100.322713
1718.000000	100.321312
1717.000000	100.320846
1716.000000	100.319891
1715.000000	100.318051
1714.000000	100.316143
1713.000000	100.314760
1712.000000	100.313363
1711.000000	100.311242
1710.000000	100.308828
1709.000000	100.307227
1708.000000	100.306751
1707.000000	100.306469
1706.000000	100.304893
1705.000000	100.301529
1704.000000	100.297256
1703.000000	100.293067
1702.000000	100.289444
1701.000000	100.286718
1700.000000	100.285007
1699.000000	100.283683
1698.000000	100.281873
1697.000000	100.279523
1696.000000	100.277131
1695.000000	100.275120
1694.000000	100.273247
1693.000000	100.271047
1692.000000	100.268656
1691.000000	100.266598
1690.000000	100.265167
1689.000000	100.263925
1688.000000	100.262036
1687.000000	100.259175
1686.000000	100.255469
1685.000000	100.251317
1684.000000	100.247544
1683.000000	100.245401
1682.000000	100.244930
1681.000000	100.245089
1680.000000	100.244874
1679.000000	100.243788
1678.000000	100.242128
1677.000000	100.240571
1676.000000	100.239357
1675.000000	100.238073
1674.000000	100.236548
1673.000000	100.234711
1672.000000	100.232250
1671.000000	100.228831
1670.000000	100.225156
1669.000000	100.223112
1668.000000	100.223244
1667.000000	100.223774
1666.000000	100.223242
1665.000000	100.221875
1664.000000	100.220389
1663.000000	100.218232
1662.000000	100.214611
1661.000000	100.210443
1660.000000	100.207233
1659.000000	100.204768
1658.000000	100.201210
1657.000000	100.195338
1656.000000	100.188533
1655.000000	100.183878
1654.000000	100.182338
1653.000000	100.180247
1652.000000	100.177904
1651.000000	100.176892
1650.000000	100.176156
1649.000000	100.175696
1648.000000	100.175197
1647.000000	100.174240
1646.000000	100.173987
1645.000000	100.175670
1644.000000	100.178294
1643.000000	100.180698
1642.000000	100.182175
1641.000000	100.181092
1640.000000	100.176089
1639.000000	100.168357
1638.000000	100.161195
1637.000000	100.157476
1636.000000	100.156967
1635.000000	100.157912
1634.000000	100.160239
1633.000000	100.164091
1632.000000	100.168550
1631.000000	100.172245
1630.000000	100.174210
1629.000000	100.174251
1628.000000	100.172220
1627.000000	100.167888
1626.000000	100.162436
1625.000000	100.158438
1624.000000	100.157763
1623.000000	100.159150
1622.000000	100.159842
1621.000000	100.159369
1620.000000	100.159512
1619.000000	100.162089
1618.000000	100.167232
1617.000000	100.173017
1616.000000	100.177476
1615.000000	100.180779
1614.000000	100.183895
1613.000000	100.187388
1612.000000	100.190704
1611.000000	100.192340
1610.000000	100.191673
1609.000000	100.190142
1608.000000	100.189859
1607.000000	100.191375
1606.000000	100.194053
1605.000000	100.197634
1604.000000	100.202872
1603.000000	100.210183
1602.000000	100.218348
1601.000000	100.225414
1600.000000	100.230258
1599.000000	100.232912
1598.000000	100.234197
1597.000000	100.235430
1596.000000	100.237718
1595.000000	100.240860
1594.000000	100.243474
1593.000000	100.244697
1592.000000	100.245262
1591.000000	100.246534
1590.000000	100.248943
1589.000000	100.251523
1588.000000	100.252912
1587.000000	100.252627
1586.000000	100.251694
1585.000000	100.252014
1584.000000	100.254464
1583.000000	100.258199
1582.000000	100.261261
1581.000000	100.262333
1580.000000	100.261677
1579.000000	100.260508
1578.000000	100.259879
1577.000000	100.260377
1576.000000	100.262357
1575.000000	100.265612
1574.000000	100.269211
1573.000000	100.272582
1572.000000	100.275859
1571.000000	100.278929
1570.000000	100.280937
1569.000000	100.281420
1568.000000	100.281275
1567.000000	100.281613
1566.000000	100.282699
1565.000000	100.284196
1564.000000	100.285499
1563.000000	100.286372
1562.000000	100.287021
1561.000000	100.287980
1560.000000	100.289825
1559.000000	100.291634
1558.000000	100.292256
1557.000000	100.292883
1556.000000	100.293618
1555.000000	100.294426
1554.000000	100.295478
1553.000000	100.296583
1552.000000	100.297329
1551.000000	100.297493
1550.000000	100.297103
1549.000000	100.296574
1548.000000	100.296418
1547.000000	100.296956
1546.000000	100.298175
1545.000000	100.299510
1544.000000	100.300100
1543.000000	100.299939
1542.000000	100.300232
1541.000000	100.301944
1540.000000	100.303454
1539.000000	100.302648
1538.000000	100.300276
1537.000000	100.297996
1536.000000	100.296550
1535.000000	100.295935
1534.000000	100.295821
1533.000000	100.295870
1532.000000	100.296073
1531.000000	100.296288
1530.000000	100.296228
1529.000000	100.296001
1528.000000	100.296066
1527.000000	100.296557
1526.000000	100.297023
1525.000000	100.297105
1524.000000	100.297160
1523.000000	100.297674
1522.000000	100.298300
1521.000000	100.298116
1520.000000	100.297200
1519.000000	100.296428
1518.000000	100.296298
1517.000000	100.296785
1516.000000	100.297663
1515.000000	100.298723
1514.000000	100.299716
1513.000000	100.300309
1512.000000	100.300344
1511.000000	100.299986
1510.000000	100.299586
1509.000000	100.299335
1508.000000	100.299209
1507.000000	100.299093
1506.000000	100.299390
1505.000000	100.300330
1504.000000	100.301107
1503.000000	100.301468
1502.000000	100.301759
1501.000000	100.302191
1500.000000	100.302659
1499.000000	100.303034
1498.000000	100.303336
1497.000000	100.303534
1496.000000	100.303405
1495.000000	100.302855
1494.000000	100.302128
1493.000000	100.301653
1492.000000	100.301779
1491.000000	100.302569
1490.000000	100.303850
1489.000000	100.305348
1488.000000	100.306785
1487.000000	100.307777
1486.000000	100.308115
1485.000000	100.308132
1484.000000	100.308410
1483.000000	100.309339
1482.000000	100.310768
1481.000000	100.312134
1480.000000	100.312957
1479.000000	100.313157
1478.000000	100.312941
1477.000000	100.312715
1476.000000	100.312959
1475.000000	100.313769
1474.000000	100.314500
1473.000000	100.314004
1472.000000	100.312169
1471.000000	100.310546
1470.000000	100.310178
1469.000000	100.310907
1468.000000	100.312249
1467.000000	100.313458
1466.000000	100.313411
1465.000000	100.311287
1464.000000	100.308359
1463.000000	100.307156
1462.000000	100.308101
1461.000000	100.309595
1460.000000	100.310210
1459.000000	100.310363
1458.000000	100.311873
1457.000000	100.315143
1456.000000	100.318002
1455.000000	100.318851
1454.000000	100.317918
1453.000000	100.315957
1452.000000	100.313430
1451.000000	100.310973
1450.000000	100.309457
1449.000000	100.308949
1448.000000	100.308451
1447.000000	100.307277
1446.000000	100.306109
1445.000000	100.305056
1444.000000	100.303428
1443.000000	100.301053
1442.000000	100.298691
1441.000000	100.296723
1440.000000	100.293979
1439.000000	100.288963
1438.000000	100.282027
1437.000000	100.276713
1436.000000	100.276523
1435.000000	100.279889
1434.000000	100.282414
1433.000000	100.282454
1432.000000	100.281182
1431.000000	100.280219
1430.000000	100.280015
1429.000000	100.280172
1428.000000	100.280521
1427.000000	100.281173
1426.000000	100.282474
1425.000000	100.284387
1424.000000	100.286214
1423.000000	100.287145
1422.000000	100.287374
1421.000000	100.288461
1420.000000	100.292412
1419.000000	100.299177
1418.000000	100.305335
1417.000000	100.307881
1416.000000	100.306889
1415.000000	100.304374
1414.000000	100.302564
1413.000000	100.302763
1412.000000	100.304957
1411.000000	100.308145
1410.000000	100.311339
1409.000000	100.314624
1408.000000	100.318916
1407.000000	100.324377
1406.000000	100.329656
1405.000000	100.332822
1404.000000	100.333778
1403.000000	100.334700
1402.000000	100.337343
1401.000000	100.341440
1400.000000	100.345370
1399.000000	100.347709
1398.000000	100.348453
1397.000000	100.348418
1396.000000	100.348233
1395.000000	100.348944
1394.000000	100.352271
1393.000000	100.358570
1392.000000	100.366063
1391.000000	100.372829
1390.000000	100.378030
1389.000000	100.381190
1388.000000	100.381505
1387.000000	100.379108
1386.000000	100.376713
1385.000000	100.377229
1384.000000	100.380383
1383.000000	100.383215
1382.000000	100.383277
1381.000000	100.381261
1380.000000	100.379991
1379.000000	100.381143
1378.000000	100.383670
1377.000000	100.385361
1376.000000	100.384999
1375.000000	100.382976
1374.000000	100.380836
1373.000000	100.379984
1372.000000	100.380272
1371.000000	100.380334
1370.000000	100.379420
1369.000000	100.378266
1368.000000	100.378261
1367.000000	100.379696
1366.000000	100.381215
1365.000000	100.381119
1364.000000	100.378993
1363.000000	100.376412
1362.000000	100.375882
1361.000000	100.378310
1360.000000	100.382014
1359.000000	100.384545
1358.000000	100.384867
1357.000000	100.383679
1356.000000	100.382157
1355.000000	100.380739
1354.000000	100.379401
1353.000000	100.378616
1352.000000	100.379140
1351.000000	100.380687
1350.000000	100.381869
1349.000000	100.381818
1348.000000	100.381322
1347.000000	100.381561
1346.000000	100.382238
1345.000000	100.381884
1344.000000	100.380011
1343.000000	100.378104
1342.000000	100.378040
1341.000000	100.379945
1340.000000	100.381965
1339.000000	100.382306
1338.000000	100.381113
1337.000000	100.379749
1336.000000	100.379090
1335.000000	100.379222
1334.000000	100.379953
1333.000000	100.380870
1332.000000	100.381313
1331.000000	100.381086
1330.000000	100.381079
1329.000000	100.382297
1328.000000	100.384203
1327.000000	100.385065
1326.000000	100.384462
1325.000000	100.384254
1324.000000	100.385978
1323.000000	100.388058
1322.000000	100.387303
1321.000000	100.382951
1320.000000	100.377755
1319.000000	100.374749
1318.000000	100.374032
1317.000000	100.373882
1316.000000	100.373713
1315.000000	100.374214
1314.000000	100.375264
1313.000000	100.375521
1312.000000	100.374257
1311.000000	100.372458
1310.000000	100.371793
1309.000000	100.373450
1308.000000	100.377870
1307.000000	100.384114
1306.000000	100.389258
1305.000000	100.390085
1304.000000	100.386234
1303.000000	100.381064
1302.000000	100.378483
1301.000000	100.379052
1300.000000	100.380451
1299.000000	100.380979
1298.000000	100.381130
1297.000000	100.381958
1296.000000	100.383521
1295.000000	100.385340
1294.000000	100.386871
1293.000000	100.386818
1292.000000	100.383463
1291.000000	100.377002
1290.000000	100.370631
1289.000000	100.367644
1288.000000	100.367718
1287.000000	100.367479
1286.000000	100.364690
1285.000000	100.360420
1284.000000	100.356853
1283.000000	100.354642
1282.000000	100.353243
1281.000000	100.352643
1280.000000	100.353391
1279.000000	100.355462
1278.000000	100.358369
1277.000000	100.362067
1276.000000	100.366305
1275.000000	100.369455
1274.000000	100.370130
1273.000000	100.370277
1272.000000	100.373987
1271.000000	100.381382
1270.000000	100.386069
1269.000000	100.381981
1268.000000	100.371401
1267.000000	100.363019
1266.000000	100.362198
1265.000000	100.366639
1264.000000	100.372111
1263.000000	100.377933
1262.000000	100.384368
1261.000000	100.388500
1260.000000	100.387004
1259.000000	100.381332
1258.000000	100.375971
1257.000000	100.371980
1256.000000	100.366099
1255.000000	100.356418
1254.000000	100.345294
1253.000000	100.335575
1252.000000	100.326990
1251.000000	100.317942
1250.000000	100.308230
1249.000000	100.297757
1248.000000	100.284730
1247.000000	100.268193
1246.000000	100.251499
1245.000000	100.240192
1244.000000	100.236040
1243.000000	100.235123
1242.000000	100.232251
1241.000000	100.225541
1240.000000	100.216272
1239.000000	100.206576
1238.000000	100.198573
1237.000000	100.193569
1236.000000	100.189772
1235.000000	100.182049
1234.000000	100.166648
1233.000000	100.145758
1232.000000	100.124804
1231.000000	100.105487
1230.000000	100.084904
1229.000000	100.061805
1228.000000	100.039095
1227.000000	100.018035
1226.000000	99.994262
1225.000000	99.963628
1224.000000	99.928378
1223.000000	99.892225
1222.000000	99.851841
1221.000000	99.800407
1220.000000	99.739179
1219.000000	99.678022
1218.000000	99.622245
1217.000000	99.566126
1216.000000	99.503532
1215.000000	99.437673
1214.000000	99.374518
1213.000000	99.312467
1212.000000	99.246519
1211.000000	99.178744
1210.000000	99.115759
1209.000000	99.057225
1208.000000	98.995622
1207.000000	98.927891
1206.000000	98.859586
1205.000000	98.795702
1204.000000	98.734258
1203.000000	98.671896
1202.000000	98.609747
1201.000000	98.549662
1200.000000	98.489199
1199.000000	98.425172
1198.000000	98.359322
1197.000000	98.295916
1196.000000	98.235850
1195.000000	98.177713
1194.000000	98.122802
1193.000000	98.073032
1192.000000	98.023394
1191.000000	97.963095
1190.000000	97.888163
1189.000000	97.808394
1188.000000	97.736514
1187.000000	97.673035
1186.000000	97.607734
1185.000000	97.534417
1184.000000	97.456600
1183.000000	97.378351
1182.000000	97.298100
1181.000000	97.214733
1180.000000	97.131876
1179.000000	97.050623
1178.000000	96.964763
1177.000000	96.870050
1176.000000	96.772173
1175.000000	96.677555
1174.000000	96.581685
1173.000000	96.476658
1172.000000	96.366382
1171.000000	96.262794
1170.000000	96.169002
1169.000000	96.078237
1168.000000	95.989223
1167.000000	95.910207
1166.000000	95.846449
1165.000000	95.796587
1164.000000	95.764353
1163.000000	95.760720
1162.000000	95.788372
1161.000000	95.834033
1160.000000	95.881550
1159.000000	95.922982
1158.000000	95.951321
1157.000000	95.953748
1156.000000	95.922185
1155.000000	95.864524
1154.000000	95.796974
1153.000000	95.728321
1152.000000	95.658073
1151.000000	95.585280
1150.000000	95.510641
1149.000000	95.432745
1148.000000	95.350239
1147.000000	95.266876
1146.000000	95.188374
1145.000000	95.115082
1144.000000	95.042620
1143.000000	94.968603
1142.000000	94.894520
1141.000000	94.821948
1140.000000	94.750403
1139.000000	94.678119
1138.000000	94.602658
1137.000000	94.522397
1136.000000	94.439545
1135.000000	94.359775
1134.000000	94.286664
1133.000000	94.217844
1132.000000	94.147740
1131.000000	94.072324
1130.000000	93.991265
1129.000000	93.908113
1128.000000	93.828146
1127.000000	93.752864
1126.000000	93.677183
1125.000000	93.595659
1124.000000	93.510109
1123.000000	93.426601
1122.000000	93.346969
1121.000000	93.269446
1120.000000	93.195594
1119.000000	93.128151
1118.000000	93.062578
1117.000000	92.989962
1116.000000	92.909237
1115.000000	92.827952
1114.000000	92.749613
1113.000000	92.669366
1112.000000	92.584751
1111.000000	92.501820
1110.000000	92.427038
1109.000000	92.360350
1108.000000	92.298306
1107.000000	92.237087
1106.000000	92.171956
1105.000000	92.101676
1104.000000	92.033718
1103.000000	91.976643
1102.000000	91.927423
1101.000000	91.875192
1100.000000	91.816756
1099.000000	91.758358
1098.000000	91.702907
1097.000000	91.647403
1096.000000	91.592753
1095.000000	91.543201
1094.000000	91.495071
1093.000000	91.439600
1092.000000	91.379202
1091.000000	91.327663
1090.000000	91.291026
1089.000000	91.260781
1088.000000	91.228907
1087.000000	91.196711
1086.000000	91.165330
1085.000000	91.130367
1084.000000	91.090287
1083.000000	91.048839
1082.000000	91.006268
1081.000000	90.959972
1080.000000	90.915584
1079.000000	90.883219
1078.000000	90.859285
1077.000000	90.826926
1076.000000	90.779098
1075.000000	90.726180
1074.000000	90.675325
1073.000000	90.617201
1072.000000	90.540578
1071.000000	90.445726
1070.000000	90.335351
1069.000000	90.205409
1068.000000	90.054672
1067.000000	89.892793
1066.000000	89.729464
1065.000000	89.564453
1064.000000	89.396520
1063.000000	89.232269
1062.000000	89.077726
1061.000000	88.930341
1060.000000	88.787316
1059.000000	88.652840
1058.000000	88.529810
1057.000000	88.413206
1056.000000	88.297974
1055.000000	88.184043
1054.000000	88.067474
1053.000000	87.936990
1052.000000	87.787424
1051.000000	87.627691
1050.000000	87.467103
1049.000000	87.302996
1048.000000	87.130236
1047.000000	86.952562
1046.000000	86.776082
1045.000000	86.600073
1044.000000	86.420208
1043.000000	86.233908
1042.000000	86.039968
1041.000000	85.841225
1040.000000	85.649272
1039.000000	85.476791
1038.000000	85.322980
1037.000000	85.176076
1036.000000	85.031118
1035.000000	84.894453
1034.000000	84.771023
1033.000000	84.660115
1032.000000	84.563484
1031.000000	84.483261
1030.000000	84.411102
1029.000000	84.334668
1028.000000	84.256293
1027.000000	84.189713
1026.000000	84.137152
1025.000000	84.086214
1024.000000	84.031363
1023.000000	83.980950
1022.000000	83.939091
1021.000000	83.897533
1020.000000	83.850378
1019.000000	83.801675
1018.000000	83.754154
1017.000000	83.705282
1016.000000	83.658102
1015.000000	83.620697
1014.000000	83.590832
1013.000000	83.555718
1012.000000	83.510757
1011.000000	83.464362
1010.000000	83.421713
1009.000000	83.379103
1008.000000	83.337181
1007.000000	83.303669
1006.000000	83.278858
1005.000000	83.254003
1004.000000	83.228467
1003.000000	83.213066
1002.000000	83.211656
1001.000000	83.214501
1000.000000	83.215121
999.000000	83.219310
998.000000	83.231548
997.000000	83.245604
996.000000	83.254838
995.000000	83.261100
994.000000	83.268793
993.000000	83.279564
992.000000	83.295499
991.000000	83.318169
990.000000	83.343910
989.000000	83.370218
988.000000	83.405836
987.000000	83.462720
986.000000	83.539254
985.000000	83.623380
984.000000	83.710121
983.000000	83.802653
982.000000	83.899076
981.000000	83.994309
980.000000	84.094003
979.000000	84.210607
978.000000	84.345704
977.000000	84.490702
976.000000	84.643649
975.000000	84.809912
974.000000	84.987508
973.000000	85.168025
972.000000	85.351272
971.000000	85.542483
970.000000	85.736022
969.000000	85.919517
968.000000	86.094469
967.000000	86.275060
966.000000	86.465181
965.000000	86.653982
964.000000	86.836225
963.000000	87.019561
962.000000	87.207555
961.000000	87.391364
960.000000	87.563347
959.000000	87.725218
958.000000	87.878543
957.000000	88.020265
956.000000	88.152400
955.000000	88.284477
954.000000	88.421351
953.000000	88.558089
952.000000	88.689412
951.000000	88.813983
950.000000	88.928675
949.000000	89.030314
948.000000	89.124650
947.000000	89.222024
946.000000	89.322260
945.000000	89.415627
944.000000	89.500281
943.000000	89.585738
942.000000	89.676100
941.000000	89.762793
940.000000	89.839252
939.000000	89.911330
938.000000	89.986859
937.000000	90.063368
936.000000	90.131818
935.000000	90.186438
934.000000	90.228495
933.000000	90.267624
932.000000	90.321002
931.000000	90.402213
930.000000	90.507006
929.000000	90.616190
928.000000	90.714317
927.000000	90.800001
926.000000	90.879243
925.000000	90.957143
924.000000	91.036614
923.000000	91.116953
922.000000	91.192185
921.000000	91.256823
920.000000	91.312791
919.000000	91.365581
918.000000	91.417439
917.000000	91.471335
916.000000	91.535312
915.000000	91.611429
914.000000	91.685803
913.000000	91.744907
912.000000	91.799817
911.000000	91.877783
910.000000	91.989438
909.000000	92.119494
908.000000	92.250063
907.000000	92.378171
906.000000	92.508297
905.000000	92.643969
904.000000	92.791843
903.000000	92.959024
902.000000	93.138970
901.000000	93.311865
900.000000	93.466621
899.000000	93.613881
898.000000	93.771716
897.000000	93.946388
896.000000	94.131006
895.000000	94.314214
894.000000	94.485673
893.000000	94.641098
892.000000	94.787247
891.000000	94.936464
890.000000	95.092632
889.000000	95.247446
888.000000	95.391742
887.000000	95.522944
886.000000	95.639330
885.000000	95.736349
884.000000	95.815432
883.000000	95.891138
882.000000	95.982223
881.000000	96.095915
880.000000	96.223231
879.000000	96.347483
878.000000	96.457230
877.000000	96.555493
876.000000	96.657683
875.000000	96.776369
874.000000	96.906171
873.000000	97.026859
872.000000	97.122719
871.000000	97.197823
870.000000	97.274145
869.000000	97.375412
868.000000	97.507767
867.000000	97.651578
866.000000	97.775975
865.000000	97.866854
864.000000	97.938281
863.000000	98.014333
862.000000	98.104722
861.000000	98.202949
860.000000	98.300624
859.000000	98.392574
858.000000	98.472265
857.000000	98.535154
856.000000	98.587552
855.000000	98.642882
854.000000	98.707805
853.000000	98.778660
852.000000	98.849947
851.000000	98.917395
850.000000	98.974158
849.000000	99.015556
848.000000	99.049037
847.000000	99.087470
846.000000	99.128542
845.000000	99.152868
844.000000	99.149523
843.000000	99.133816
842.000000	99.130449
841.000000	99.143591
840.000000	99.152362
839.000000	99.133834
838.000000	99.084052
837.000000	99.017943
836.000000	98.954606
835.000000	98.903597
834.000000	98.861538
833.000000	98.820507
832.000000	98.780539
831.000000	98.753069
830.000000	98.749824
829.000000	98.767095
828.000000	98.782390
827.000000	98.771288
826.000000	98.733220
825.000000	98.698697
824.000000	98.701973
823.000000	98.744880
822.000000	98.797015
821.000000	98.832155
820.000000	98.849884
819.000000	98.859417
818.000000	98.859284
817.000000	98.840333
816.000000	98.795104
815.000000	98.714787
814.000000	98.589618
813.000000	98.424586
812.000000	98.242308
811.000000	98.052251
810.000000	97.825859
809.000000	97.523978
808.000000	97.144677
807.000000	96.723282
806.000000	96.288241
805.000000	95.843689
804.000000	95.398835
803.000000	94.982500
802.000000	94.614049
801.000000	94.286805
800.000000	93.998738
799.000000	93.776381
798.000000	93.646817
797.000000	93.603926
796.000000	93.621468
795.000000	93.682676
794.000000	93.778358
793.000000	93.891815
792.000000	94.007634
791.000000	94.124672
790.000000	94.238949
789.000000	94.321753
788.000000	94.337921
787.000000	94.284973
786.000000	94.194167
785.000000	94.089576
784.000000	93.964395
783.000000	93.805160
782.000000	93.624937
781.000000	93.461250
780.000000	93.348127
779.000000	93.298291
778.000000	93.306478
777.000000	93.361327
776.000000	93.455179
775.000000	93.587909
774.000000	93.761590
773.000000	93.965693
772.000000	94.166320
771.000000	94.320935
770.000000	94.415592
769.000000	94.482318
768.000000	94.565635
767.000000	94.672219
766.000000	94.766969
765.000000	94.820563
764.000000	94.844689
763.000000	94.874247
762.000000	94.929945
761.000000	95.007516
760.000000	95.089876
759.000000	95.158936
758.000000	95.209397
757.000000	95.262990
756.000000	95.353887
755.000000	95.484592
754.000000	95.611544
753.000000	95.694694
752.000000	95.746973
751.000000	95.811049
750.000000	95.898508
749.000000	95.980737
748.000000	96.036225
747.000000	96.077089
746.000000	96.126125
745.000000	96.194785
744.000000	96.289344
743.000000	96.411111
742.000000	96.540795
741.000000	96.649323
740.000000	96.738078
739.000000	96.845094
738.000000	96.993824
737.000000	97.154864
736.000000	97.279429
735.000000	97.356671
734.000000	97.417453
733.000000	97.491662
732.000000	97.580762
731.000000	97.666792
730.000000	97.729451
729.000000	97.757367
728.000000	97.760357
727.000000	97.769933
726.000000	97.810893
725.000000	97.871950
724.000000	97.919893
723.000000	97.943637
722.000000	97.969635
721.000000	98.029211
720.000000	98.122828
719.000000	98.224897
718.000000	98.314695
717.000000	98.390244
716.000000	98.455670
715.000000	98.508660
714.000000	98.545093
713.000000	98.569071
712.000000	98.590821
711.000000	98.615225
710.000000	98.638396
709.000000	98.656782
708.000000	98.672335
707.000000	98.684625
706.000000	98.684901
705.000000	98.664722
704.000000	98.623986
703.000000	98.561392
702.000000	98.463715
701.000000	98.316332
700.000000	98.121926
699.000000	97.898012
698.000000	97.660216
697.000000	97.424799
696.000000	97.225612
695.000000	97.106136
694.000000	97.086244
693.000000	97.147715
692.000000	97.255724
691.000000	97.384268
690.000000	97.516266
689.000000	97.639927
688.000000	97.756909
687.000000	97.877258
686.000000	97.997501
685.000000	98.097703
684.000000	98.171044
683.000000	98.237576
682.000000	98.313212
681.000000	98.382372
680.000000	98.420047
679.000000	98.430283
678.000000	98.442008
677.000000	98.472106
676.000000	98.513539
675.000000	98.557638
674.000000	98.607456
673.000000	98.663622
672.000000	98.714206
671.000000	98.746670
670.000000	98.758928
669.000000	98.759579
668.000000	98.771721
667.000000	98.820839
666.000000	98.902622
665.000000	98.991854
664.000000	99.060917
663.000000	99.091366
662.000000	99.091453
661.000000	99.092606
660.000000	99.116402
659.000000	99.154820
658.000000	99.186866
657.000000	99.205675
656.000000	99.222625
655.000000	99.252419
654.000000	99.298778
653.000000	99.353585
652.000000	99.404241
651.000000	99.442094
650.000000	99.468545
