4000.000000	98.754647
3999.000000	98.751908
3998.000000	98.750700
3997.000000	98.750619
3996.000000	98.750806
3995.000000	98.750452
3994.000000	98.749204
3993.000000	98.747370
3992.000000	98.745832
3991.000000	98.745531
3990.000000	98.746843
3989.000000	98.749364
3988.000000	98.752247
3987.000000	98.754681
3986.000000	98.756064
3985.000000	98.756165
3984.000000	98.755391
3983.000000	98.754696
3982.000000	98.754779
3981.000000	98.755170
3980.000000	98.754388
3979.000000	98.751363
3978.000000	98.746637
3977.000000	98.742130
3976.000000	98.739525
3975.000000	98.738877
3974.000000	98.738606
3973.000000	98.736744
3972.000000	98.732402
3971.000000	98.726443
3970.000000	98.721093
3969.000000	98.718500
3968.000000	98.719328
3967.000000	98.722358
3966.000000	98.725235
3965.000000	98.726176
3964.000000	98.725069
3963.000000	98.723067
3962.000000	98.721312
3961.000000	98.720111
3960.000000	98.719230
3959.000000	98.718474
3958.000000	98.717687
3957.000000	98.716549
3956.000000	98.714906
3955.000000	98.713181
3954.000000	98.712099
3953.000000	98.711899
3952.000000	98.712073
3951.000000	98.711957
3950.000000	98.711439
3949.000000	98.710916
3948.000000	98.710641
3947.000000	98.710382
3946.000000	98.709848
3945.000000	98.709118
3944.000000	98.708443
3943.000000	98.707807
3942.000000	98.706972
3941.000000	98.705858
3940.000000	98.704656
3939.000000	98.703618
3938.000000	98.702837
3937.000000	98.702259
3936.000000	98.701821
3935.000000	98.701507
3934.000000	98.701277
3933.000000	98.701018
3932.000000	98.700622
3931.000000	98.700106
3930.000000	98.699554
3929.000000	98.699003
3928.000000	98.698432
3927.000000	98.697835
3926.000000	98.697228
3925.000000	98.696615
3924.000000	98.695992
3923.000000	98.695387
3922.000000	98.694837
3921.000000	98.694338
3920.000000	98.693835
3919.000000	98.693271
3918.000000	98.692636
3917.000000	98.691951
3916.000000	98.691271
3915.000000	98.690634
3914.000000	98.690048
3913.000000	98.689489
3912.000000	98.688896
3911.000000	98.688217
3910.000000	98.687458
3909.000000	98.686659
3908.000000	98.685850
3907.000000	98.685032
3906.000000	98.684204
3905.000000	98.683371
3904.000000	98.682536
3903.000000	98.681703
3902.000000	98.680876
3901.000000	98.680061
3900.000000	98.679259
3899.000000	98.678471
3898.000000	98.677694
3897.000000	98.676926
3896.000000	98.676163
3895.000000	98.675395
3894.000000	98.674606
3893.000000	98.673793
3892.000000	98.672961
3891.000000	98.672122
3890.000000	98.671281
3889.000000	98.670442
3888.000000	98.669610
3887.000000	98.668794
3886.000000	98.667998
3885.000000	98.667222
3884.000000	98.666460
3883.000000	98.665714
3882.000000	98.664984
3881.000000	98.664269
3880.000000	98.663559
3879.000000	98.662847
3878.000000	98.662128
3877.000000	98.661404
3876.000000	98.660679
3875.000000	98.659954
3874.000000	98.659226
3873.000000	98.658496
3872.000000	98.657772
3871.000000	98.657060
3870.000000	98.656358
3869.000000	98.655659
3868.000000	98.654964
3867.000000	98.654283
3866.000000	98.653615
3865.000000	98.652943
3864.000000	98.652250
3863.000000	98.651531
3862.000000	98.650795
3861.000000	98.650045
3860.000000	98.649278
3859.000000	98.648487
3858.000000	98.647673
3857.000000	98.646841
3856.000000	98.646001
3855.000000	98.645161
3854.000000	98.644325
3853.000000	98.643495
3852.000000	98.642684
3851.000000	98.641913
3850.000000	98.641189
3849.000000	98.640503
3848.000000	98.639839
3847.000000	98.639179
3846.000000	98.638510
3845.000000	98.637823
3844.000000	98.637114
3843.000000	98.636380
3842.000000	98.635618
3841.000000	98.634833
3840.000000	98.634037
3839.000000	98.633245
3838.000000	98.632468
3837.000000	98.631712
3836.000000	98.630985
3835.000000	98.630293
3834.000000	98.629644
3833.000000	98.629036
3832.000000	98.628462
3831.000000	98.627908
3830.000000	98.627367
3829.000000	98.626833
3828.000000	98.626315
3827.000000	98.625843
3826.000000	98.625428
3825.000000	98.625021
3824.000000	98.624562
3823.000000	98.624082
3822.000000	98.623690
3821.000000	98.623364
3820.000000	98.622945
3819.000000	98.622396
3818.000000	98.621946
3817.000000	98.621859
3816.000000	98.622021
3815.000000	98.621995
3814.000000	98.621713
3813.000000	98.621555
3812.000000	98.621820
3811.000000	98.622378
3810.000000	98.622873
3809.000000	98.623268
3808.000000	98.623814
3807.000000	98.624292
3806.000000	98.624071
3805.000000	98.622903
3804.000000	98.621224
3803.000000	98.619934
3802.000000	98.619336
3801.000000	98.618865
3800.000000	98.618449
3799.000000	98.618751
3798.000000	98.620105
3797.000000	98.621973
3796.000000	98.623279
3795.000000	98.623560
3794.000000	98.623263
3793.000000	98.622966
3792.000000	98.622655
3791.000000	98.622021
3790.000000	98.621073
3789.000000	98.620117
3788.000000	98.619405
3787.000000	98.619021
3786.000000	98.618932
3785.000000	98.618951
3784.000000	98.618734
3783.000000	98.618076
3782.000000	98.617137
3781.000000	98.616302
3780.000000	98.615763
3779.000000	98.615376
3778.000000	98.614921
3777.000000	98.614339
3776.000000	98.613696
3775.000000	98.613026
3774.000000	98.612300
3773.000000	98.611506
3772.000000	98.610662
3771.000000	98.609756
3770.000000	98.608760
3769.000000	98.607715
3768.000000	98.606680
3767.000000	98.605658
3766.000000	98.604634
3765.000000	98.603605
3764.000000	98.602577
3763.000000	98.601558
3762.000000	98.600556
3761.000000	98.599567
3760.000000	98.598578
3759.000000	98.597577
3758.000000	98.596553
3757.000000	98.595498
3756.000000	98.594405
3755.000000	98.593283
3754.000000	98.592155
3753.000000	98.591035
3752.000000	98.589923
3751.000000	98.588800
3750.000000	98.587656
3749.000000	98.586478
3748.000000	98.585220
3747.000000	98.583824
3746.000000	98.582382
3745.000000	98.581100
3744.000000	98.579928
3743.000000	98.578552
3742.000000	98.576913
3741.000000	98.575163
3740.000000	98.573308
3739.000000	98.571162
3738.000000	98.568988
3737.000000	98.567596
3736.000000	98.567237
3735.000000	98.566954
3734.000000	98.565853
3733.000000	98.564243
3732.000000	98.562758
3731.000000	98.561426
3730.000000	98.560061
3729.000000	98.558939
3728.000000	98.558504
3727.000000	98.558160
3726.000000	98.556395
3725.000000	98.552912
3724.000000	98.549406
3723.000000	98.547654
3722.000000	98.547672
3721.000000	98.548304
3720.000000	98.548787
3719.000000	98.549141
3718.000000	98.549156
3717.000000	98.547533
3716.000000	98.543145
3715.000000	98.536728
3714.000000	98.530598
3713.000000	98.526072
3712.000000	98.521468
3711.000000	98.514694
3710.000000	98.506833
3709.000000	98.500755
3708.000000	98.497591
3707.000000	98.495992
3706.000000	98.493948
3705.000000	98.490922
3704.000000	98.488189
3703.000000	98.487136
3702.000000	98.487360
3701.000000	98.486995
3700.000000	98.484695
3699.000000	98.480700
3698.000000	98.476206
3697.000000	98.471825
3696.000000	98.466998
3695.000000	98.461233
3694.000000	98.454750
3693.000000	98.447984
3692.000000	98.441527
3691.000000	98.436524
3690.000000	98.433648
3689.000000	98.431366
3688.000000	98.427429
3687.000000	98.421587
3686.000000	98.415487
3685.000000	98.410766
3684.000000	98.407470
3683.000000	98.404141
3682.000000	98.399753
3681.000000	98.394707
3680.000000	98.389452
3679.000000	98.383543
3678.000000	98.376938
3677.000000	98.370948
3676.000000	98.365181
3675.000000	98.357486
3674.000000	98.347949
3673.000000	98.338596
3672.000000	98.331439
3671.000000	98.327186
3670.000000	98.324073
3669.000000	98.319852
3668.000000	98.314571
3667.000000	98.309312
3666.000000	98.304538
3665.000000	98.299993
3664.000000	98.295157
3663.000000	98.289678
3662.000000	98.283626
3661.000000	98.277252
3660.000000	98.270736
3659.000000	98.264223
3658.000000	98.257946
3657.000000	98.251759
3656.000000	98.244883
3655.000000	98.237290
3654.000000	98.230185
3653.000000	98.224932
3652.000000	98.221988
3651.000000	98.219518
3650.000000	98.213522
3649.000000	98.202476
3648.000000	98.190036
3647.000000	98.180475
3646.000000	98.174613
3645.000000	98.171173
3644.000000	98.168716
3643.000000	98.166134
3642.000000	98.162791
3641.000000	98.158923
3640.000000	98.155794
3639.000000	98.154196
3638.000000	98.153160
3637.000000	98.151166
3636.000000	98.148309
3635.000000	98.145969
3634.000000	98.143836
3633.000000	98.139455
3632.000000	98.131407
3631.000000	98.122565
3630.000000	98.117043
3629.000000	98.112374
3628.000000	98.104329
3627.000000	98.095344
3626.000000	98.089423
3625.000000	98.086733
3624.000000	98.084799
3623.000000	98.081851
3622.000000	98.079240
3621.000000	98.079476
3620.000000	98.081989
3619.000000	98.083267
3618.000000	98.082055
3617.000000	98.080647
3616.000000	98.081675
3615.000000	98.086161
3614.000000	98.092605
3613.000000	98.097439
3612.000000	98.097846
3611.000000	98.094144
3610.000000	98.089199
3609.000000	98.085595
3608.000000	98.083508
3607.000000	98.081848
3606.000000	98.080589
3605.000000	98.080831
3604.000000	98.083367
3603.000000	98.087378
3602.000000	98.090741
3601.000000	98.091549
3600.000000	98.089924
3599.000000	98.088428
3598.000000	98.089835
3597.000000	98.094609
3596.000000	98.100923
3595.000000	98.106492
3594.000000	98.109957
3593.000000	98.111238
3592.000000	98.110773
3591.000000	98.108972
3590.000000	98.106234
3589.000000	98.102743
3588.000000	98.098282
3587.000000	98.093550
3586.000000	98.090951
3585.000000	98.092216
3584.000000	98.096349
3583.000000	98.100480
3582.000000	98.102298
3581.000000	98.101771
3580.000000	98.100604
3579.000000	98.100180
3578.000000	98.100083
3577.000000	98.098939
3576.000000	98.096363
3575.000000	98.093670
3574.000000	98.092529
3573.000000	98.093184
3572.000000	98.094296
3571.000000	98.094228
3570.000000	98.092312
3569.000000	98.088792
3568.000000	98.083870
3567.000000	98.077710
3566.000000	98.071620
3565.000000	98.067593
3564.000000	98.066500
3563.000000	98.067612
3562.000000	98.069288
3561.000000	98.070075
3560.000000	98.069517
3559.000000	98.068162
3558.000000	98.066885
3557.000000	98.066030
3556.000000	98.065064
3555.000000	98.063052
3554.000000	98.059477
3553.000000	98.054613
3552.000000	98.049402
3551.000000	98.045049
3550.000000	98.042441
3549.000000	98.041673
3548.000000	98.041892
3547.000000	98.041778
3546.000000	98.040543
3545.000000	98.038404
3544.000000	98.036065
3543.000000	98.034088
3542.000000	98.032752
3541.000000	98.032051
3540.000000	98.031585
3539.000000	98.030656
3538.000000	98.028838
3537.000000	98.026447
3536.000000	98.024340
3535.000000	98.023132
3534.000000	98.022640
3533.000000	98.022054
3532.000000	98.020609
3531.000000	98.018164
3530.000000	98.015276
3529.000000	98.012677
3528.000000	98.010586
3527.000000	98.008683
3526.000000	98.006655
3525.000000	98.004593
3524.000000	98.002763
3523.000000	98.001273
3522.000000	98.000206
3521.000000	97.999803
3520.000000	98.000189
3519.000000	98.000940
3518.000000	98.001146
3517.000000	98.000145
3516.000000	97.998048
3515.000000	97.995435
3514.000000	97.992689
3513.000000	97.989885
3512.000000	97.987281
3511.000000	97.985473
3510.000000	97.984857
3509.000000	97.985041
3508.000000	97.985032
3507.000000	97.984176
3506.000000	97.982766
3505.000000	97.981675
3504.000000	97.981423
3503.000000	97.981661
3502.000000	97.981590
3501.000000	97.980774
3500.000000	97.979385
3499.000000	97.977859
3498.000000	97.976475
3497.000000	97.975206
3496.000000	97.973924
3495.000000	97.972717
3494.000000	97.971915
3493.000000	97.971654
3492.000000	97.971420
3491.000000	97.970304
3490.000000	97.967921
3489.000000	97.964921
3488.000000	97.962448
3487.000000	97.960893
3486.000000	97.959579
3485.000000	97.957696
3484.000000	97.955210
3483.000000	97.952743
3482.000000	97.950788
3481.000000	97.949244
3480.000000	97.947719
3479.000000	97.946020
3478.000000	97.944293
3477.000000	97.942754
3476.000000	97.941419
3475.000000	97.940088
3474.000000	97.938546
3473.000000	97.936755
3472.000000	97.934857
3471.000000	97.933059
3470.000000	97.931455
3469.000000	97.929969
3468.000000	97.928451
3467.000000	97.926802
3466.000000	97.925043
3465.000000	97.923258
3464.000000	97.921519
3463.000000	97.919815
3462.000000	97.918090
3461.000000	97.916317
3460.000000	97.914514
3459.000000	97.912710
3458.000000	97.910910
3457.000000	97.909105
3456.000000	97.907288
3455.000000	97.905467
3454.000000	97.903646
3453.000000	97.901825
3452.000000	97.900002
3451.000000	97.898189
3450.000000	97.896405
3449.000000	97.894664
3448.000000	97.892970
3447.000000	97.891315
3446.000000	97.889667
3445.000000	97.887991
3444.000000	97.886287
3443.000000	97.884608
3442.000000	97.882974
3441.000000	97.881294
3440.000000	97.879450
3439.000000	97.877484
3438.000000	97.875652
3437.000000	97.874186
3436.000000	97.873106
3435.000000	97.872213
3434.000000	97.871279
3433.000000	97.870170
3432.000000	97.868788
3431.000000	97.867065
3430.000000	97.865067
3429.000000	97.863023
3428.000000	97.861125
3427.000000	97.859371
3426.000000	97.857664
3425.000000	97.856018
3424.000000	97.854587
3423.000000	97.853416
3422.000000	97.852216
3421.000000	97.850501
3420.000000	97.848064
3419.000000	97.845360
3418.000000	97.843244
3417.000000	97.842168
3416.000000	97.841854
3415.000000	97.841610
3414.000000	97.840984
3413.000000	97.839985
3412.000000	97.838804
3411.000000	97.837578
3410.000000	97.836383
3409.000000	97.835267
3408.000000	97.834184
3407.000000	97.833013
3406.000000	97.831746
3405.000000	97.830549
3404.000000	97.829588
3403.000000	97.828871
3402.000000	97.828318
3401.000000	97.827895
3400.000000	97.827556
3399.000000	97.827133
3398.000000	97.826449
3397.000000	97.825558
3396.000000	97.824728
3395.000000	97.824124
3394.000000	97.823615
3393.000000	97.822951
3392.000000	97.822059
3391.000000	97.821088
3390.000000	97.820233
3389.000000	97.819645
3388.000000	97.819461
3387.000000	97.819755
3386.000000	97.820351
3385.000000	97.820770
3384.000000	97.820481
3383.000000	97.819234
3382.000000	97.817166
3381.000000	97.814802
3380.000000	97.813005
3379.000000	97.812690
3378.000000	97.814299
3377.000000	97.817400
3376.000000	97.820818
3375.000000	97.823394
3374.000000	97.824588
3373.000000	97.824455
3372.000000	97.823291
3371.000000	97.821473
3370.000000	97.819486
3369.000000	97.817845
3368.000000	97.816878
3367.000000	97.816585
3366.000000	97.816703
3365.000000	97.816872
3364.000000	97.816833
3363.000000	97.816569
3362.000000	97.816341
3361.000000	97.816533
3360.000000	97.817356
3359.000000	97.818642
3358.000000	97.819872
3357.000000	97.820471
3356.000000	97.820213
3355.000000	97.819468
3354.000000	97.819038
3353.000000	97.819563
3352.000000	97.821013
3351.000000	97.822717
3350.000000	97.823950
3349.000000	97.824500
3348.000000	97.824643
3347.000000	97.824711
3346.000000	97.824773
3345.000000	97.824757
3344.000000	97.824715
3343.000000	97.824809
3342.000000	97.825068
3341.000000	97.825332
3340.000000	97.825521
3339.000000	97.825849
3338.000000	97.826578
3337.000000	97.827544
3336.000000	97.828113
3335.000000	97.827841
3334.000000	97.827026
3333.000000	97.826459
3332.000000	97.826608
3331.000000	97.827176
3330.000000	97.827500
3329.000000	97.827294
3328.000000	97.826865
3327.000000	97.826689
3326.000000	97.826912
3325.000000	97.827341
3324.000000	97.827769
3323.000000	97.828138
3322.000000	97.828441
3321.000000	97.828653
3320.000000	97.828814
3319.000000	97.829065
3318.000000	97.829515
3317.000000	97.830116
3316.000000	97.830712
3315.000000	97.831217
3314.000000	97.831684
3313.000000	97.832215
3312.000000	97.832802
3311.000000	97.833280
3310.000000	97.833460
3309.000000	97.833361
3308.000000	97.833284
3307.000000	97.833612
3306.000000	97.834519
3305.000000	97.835863
3304.000000	97.837308
3303.000000	97.838516
3302.000000	97.839362
3301.000000	97.840041
3300.000000	97.840930
3299.000000	97.842148
3298.000000	97.843249
3297.000000	97.843532
3296.000000	97.842698
3295.000000	97.841158
3294.000000	97.839792
3293.000000	97.839316
3292.000000	97.839963
3291.000000	97.841569
3290.000000	97.843718
3289.000000	97.845841
3288.000000	97.847419
3287.000000	97.848260
3286.000000	97.848579
3285.000000	97.848826
3284.000000	97.849344
3283.000000	97.850174
3282.000000	97.851153
3281.000000	97.852108
3280.000000	97.852928
3279.000000	97.853501
3278.000000	97.853715
3277.000000	97.853623
3276.000000	97.853554
3275.000000	97.853927
3274.000000	97.854907
3273.000000	97.856242
3272.000000	97.857453
3271.000000	97.858180
3270.000000	97.858399
3269.000000	97.858429
3268.000000	97.858724
3267.000000	97.859547
3266.000000	97.860770
3265.000000	97.862024
3264.000000	97.863045
3263.000000	97.863768
3262.000000	97.864137
3261.000000	97.864081
3260.000000	97.863756
3259.000000	97.863547
3258.000000	97.863656
3257.000000	97.863832
3256.000000	97.863685
3255.000000	97.863167
3254.000000	97.862654
3253.000000	97.862616
3252.000000	97.863275
3251.000000	97.864516
3250.000000	97.865971
3249.000000	97.867224
3248.000000	97.868017
3247.000000	97.868255
3246.000000	97.867897
3245.000000	97.867084
3244.000000	97.866407
3243.000000	97.866608
3242.000000	97.867844
3241.000000	97.869492
3240.000000	97.870756
3239.000000	97.871507
3238.000000	97.872124
3237.000000	97.872827
3236.000000	97.873496
3235.000000	97.874062
3234.000000	97.874703
3233.000000	97.875537
3232.000000	97.876423
3231.000000	97.877185
3230.000000	97.877857
3229.000000	97.878565
3228.000000	97.879308
3227.000000	97.879982
3226.000000	97.880557
3225.000000	97.881130
3224.000000	97.881825
3223.000000	97.882690
3222.000000	97.883688
3221.000000	97.884721
3220.000000	97.885675
3219.000000	97.886484
3218.000000	97.887157
3217.000000	97.887758
3216.000000	97.888369
3215.000000	97.889065
3214.000000	97.889893
3213.000000	97.890854
3212.000000	97.891901
3211.000000	97.892955
3210.000000	97.893943
3209.000000	97.894819
3208.000000	97.895589
3207.000000	97.896340
3206.000000	97.897204
3205.000000	97.898248
3204.000000	97.899411
3203.000000	97.900555
3202.000000	97.901588
3201.000000	97.902494
3200.000000	97.903281
3199.000000	97.903960
3198.000000	97.904609
3197.000000	97.905403
3196.000000	97.906493
3195.000000	97.907869
3194.000000	97.909342
3193.000000	97.910664
3192.000000	97.911700
3191.000000	97.912482
3190.000000	97.913160
3189.000000	97.913857
3188.000000	97.914599
3187.000000	97.915429
3186.000000	97.916482
3185.000000	97.917838
3184.000000	97.919342
3183.000000	97.920740
3182.000000	97.921959
3181.000000	97.923097
3180.000000	97.924188
3179.000000	97.925211
3178.000000	97.926307
3177.000000	97.927714
3176.000000	97.929400
3175.000000	97.931010
3174.000000	97.932246
3173.000000	97.933098
3172.000000	97.933665
3171.000000	97.934009
3170.000000	97.934236
3169.000000	97.934456
3168.000000	97.934675
3167.000000	97.935005
3166.000000	97.935929
3165.000000	97.937830
3164.000000	97.940185
3163.000000	97.941703
3162.000000	97.941639
3161.000000	97.940689
3160.000000	97.940359
3159.000000	97.941517
3158.000000	97.943716
3157.000000	97.945661
3156.000000	97.946266
3155.000000	97.945442
3154.000000	97.944092
3153.000000	97.943227
3152.000000	97.943023
3151.000000	97.943033
3150.000000	97.943206
3149.000000	97.944055
3148.000000	97.945698
3147.000000	97.947440
3146.000000	97.948592
3145.000000	97.949333
3144.000000	97.950449
3143.000000	97.952493
3142.000000	97.955512
3141.000000	97.959270
3140.000000	97.963250
3139.000000	97.966678
3138.000000	97.968960
3137.000000	97.970092
3136.000000	97.970465
3135.000000	97.970390
3134.000000	97.970016
3133.000000	97.969659
3132.000000	97.969880
3131.000000	97.971137
3130.000000	97.973414
3129.000000	97.976110
3128.000000	97.978248
3127.000000	97.979074
3126.000000	97.978611
3125.000000	97.977679
3124.000000	97.977218
3123.000000	97.977528
3122.000000	97.978315
3121.000000	97.979288
3120.000000	97.980496
3119.000000	97.982086
3118.000000	97.983957
3117.000000	97.985755
3116.000000	97.987152
3115.000000	97.988039
3114.000000	97.988562
3113.000000	97.989020
3112.000000	97.989637
3111.000000	97.990412
3110.000000	97.991216
3109.000000	97.991989
3108.000000	97.992792
3107.000000	97.993669
3106.000000	97.994554
3105.000000	97.995335
3104.000000	97.995982
3103.000000	97.996554
3102.000000	97.997131
3101.000000	97.997735
3100.000000	97.998341
3099.000000	97.998924
3098.000000	97.999477
3097.000000	98.000005
3096.000000	98.000514
3095.000000	98.001002
3094.000000	98.001472
3093.000000	98.001929
3092.000000	98.002383
3091.000000	98.002841
3090.000000	98.003305
3089.000000	98.003769
3088.000000	98.004230
3087.000000	98.004686
3086.000000	98.005143
3085.000000	98.005608
3084.000000	98.006090
3083.000000	98.006598
3082.000000	98.007132
3081.000000	98.007688
3080.000000	98.008261
3079.000000	98.008859
3078.000000	98.009490
3077.000000	98.010130
3076.000000	98.010713
3075.000000	98.011175
3074.000000	98.011516
3073.000000	98.011843
3072.000000	98.012298
3071.000000	98.012968
3070.000000	98.013807
3069.000000	98.014652
3068.000000	98.015380
3067.000000	98.016024
3066.000000	98.016716
3065.000000	98.017484
3064.000000	98.018165
3063.000000	98.018664
3062.000000	98.019144
3061.000000	98.019722
3060.000000	98.020113
3059.000000	98.019947
3058.000000	98.019440
3057.000000	98.019306
3056.000000	98.019824
3055.000000	98.020499
3054.000000	98.020900
3053.000000	98.021416
3052.000000	98.022699
3051.000000	98.024606
3050.000000	98.026136
3049.000000	98.026478
3048.000000	98.025946
3047.000000	98.025834
3046.000000	98.027376
3045.000000	98.030759
3044.000000	98.034895
3043.000000	98.038288
3042.000000	98.040341
3041.000000	98.041723
3040.000000	98.043487
3039.000000	98.045994
3038.000000	98.048713
3037.000000	98.050719
3036.000000	98.051194
3035.000000	98.049864
3034.000000	98.047396
3033.000000	98.045240
3032.000000	98.044530
3031.000000	98.045070
3030.000000	98.045654
3029.000000	98.045219
3028.000000	98.043526
3027.000000	98.041116
3026.000000	98.039138
3025.000000	98.038962
3024.000000	98.041217
3023.000000	98.044981
3022.000000	98.048349
3021.000000	98.050167
3020.000000	98.050978
3019.000000	98.052156
3018.000000	98.054496
3017.000000	98.057895
3016.000000	98.061961
3015.000000	98.066406
3014.000000	98.070967
3013.000000	98.075442
3012.000000	98.079924
3011.000000	98.084667
3010.000000	98.089731
3009.000000	98.094960
3008.000000	98.100075
3007.000000	98.104230
3006.000000	98.105710
3005.000000	98.103114
3004.000000	98.097332
3003.000000	98.091642
3002.000000	98.088852
3001.000000	98.088765
3000.000000	98.089372
2999.000000	98.090068
2998.000000	98.092299
2997.000000	98.096933
2996.000000	98.102433
2995.000000	98.106359
2994.000000	98.107719
2993.000000	98.107002
2992.000000	98.104891
2991.000000	98.102130
2990.000000	98.100048
2989.000000	98.099681
2988.000000	98.100348
2987.000000	98.100314
2986.000000	98.099127
2985.000000	98.098216
2984.000000	98.098697
2983.000000	98.099530
2982.000000	98.098695
2981.000000	98.095799
2980.000000	98.092896
2979.000000	98.092697
2978.000000	98.096340
2977.000000	98.102916
2976.000000	98.110921
2975.000000	98.120040
2974.000000	98.131158
2973.000000	98.144484
2972.000000	98.158228
2971.000000	98.170024
2970.000000	98.179648
2969.000000	98.189317
2968.000000	98.200977
2967.000000	98.214066
2966.000000	98.226569
2965.000000	98.237715
2964.000000	98.248698
2963.000000	98.260831
2962.000000	98.273747
2961.000000	98.285653
2960.000000	98.294830
2959.000000	98.300601
2958.000000	98.303225
2957.000000	98.303338
2956.000000	98.301576
2955.000000	98.298357
2954.000000	98.293785
2953.000000	98.288024
2952.000000	98.282206
2951.000000	98.278744
2950.000000	98.279908
2949.000000	98.285746
2948.000000	98.294196
2947.000000	98.303916
2946.000000	98.316351
2945.000000	98.333881
2944.000000	98.356244
2943.000000	98.380147
2942.000000	98.402784
2941.000000	98.424584
2940.000000	98.447736
2939.000000	98.472837
2938.000000	98.497992
2937.000000	98.520957
2936.000000	98.541460
2935.000000	98.561560
2934.000000	98.584341
2933.000000	98.612032
2932.000000	98.644292
2931.000000	98.677773
2930.000000	98.707810
2929.000000	98.731368
2928.000000	98.748728
2927.000000	98.762111
2926.000000	98.772507
2925.000000	98.778188
2924.000000	98.776822
2923.000000	98.768523
2922.000000	98.755415
2921.000000	98.737756
2920.000000	98.712086
2919.000000	98.675069
2918.000000	98.628984
2917.000000	98.581841
2916.000000	98.541478
2915.000000	98.510400
2914.000000	98.486251
2913.000000	98.465298
2912.000000	98.444477
2911.000000	98.421950
2910.000000	98.398069
2909.000000	98.375826
2908.000000	98.358739
2907.000000	98.347801
2906.000000	98.341131
2905.000000	98.336420
2904.000000	98.332374
2903.000000	98.327340
2902.000000	98.318266
2901.000000	98.302996
2900.000000	98.283569
2899.000000	98.265852
2898.000000	98.255036
2897.000000	98.251839
2896.000000	98.253244
2895.000000	98.255820
2894.000000	98.257288
2893.000000	98.255822
2892.000000	98.250137
2891.000000	98.241242
2890.000000	98.232638
2889.000000	98.227262
2888.000000	98.224777
2887.000000	98.222943
2886.000000	98.220972
2885.000000	98.219967
2884.000000	98.220167
2883.000000	98.219702
2882.000000	98.216909
2881.000000	98.212742
2880.000000	98.209825
2879.000000	98.209731
2878.000000	98.211950
2877.000000	98.214981
2876.000000	98.217705
2875.000000	98.220052
2874.000000	98.222999
2873.000000	98.227563
2872.000000	98.233263
2871.000000	98.238081
2870.000000	98.240898
2869.000000	98.243814
2868.000000	98.251025
2867.000000	98.264993
2866.000000	98.284100
2865.000000	98.304297
2864.000000	98.322687
2863.000000	98.339244
2862.000000	98.355662
2861.000000	98.373563
2860.000000	98.393939
2859.000000	98.417193
2858.000000	98.442482
2857.000000	98.467046
2856.000000	98.487155
2855.000000	98.500113
2854.000000	98.504907
2853.000000	98.501105
2852.000000	98.488410
2851.000000	98.467929
2850.000000	98.442524
2849.000000	98.414491
2848.000000	98.383795
2847.000000	98.350345
2846.000000	98.317394
2845.000000	98.290229
2844.000000	98.270822
2843.000000	98.255805
2842.000000	98.240775
2841.000000	98.225161
2840.000000	98.211585
2839.000000	98.201647
2838.000000	98.194271
2837.000000	98.187931
2836.000000	98.182684
2835.000000	98.179287
2834.000000	98.177249
2833.000000	98.174741
2832.000000	98.170529
2831.000000	98.165491
2830.000000	98.161739
2829.000000	98.160182
2828.000000	98.159509
2827.000000	98.158106
2826.000000	98.156423
2825.000000	98.156416
2824.000000	98.158647
2823.000000	98.160988
2822.000000	98.160648
2821.000000	98.156915
2820.000000	98.151823
2819.000000	98.148764
2818.000000	98.150267
2817.000000	98.155828
2816.000000	98.161535
2815.000000	98.163024
2814.000000	98.159528
2813.000000	98.154246
2812.000000	98.150328
2811.000000	98.147680
2810.000000	98.144386
2809.000000	98.140023
2808.000000	98.136256
2807.000000	98.134808
2806.000000	98.136090
2805.000000	98.139479
2804.000000	98.143825
2803.000000	98.147683
2802.000000	98.149935
2801.000000	98.150481
2800.000000	98.150090
2799.000000	98.149644
2798.000000	98.149737
2797.000000	98.150677
2796.000000	98.152451
2795.000000	98.154883
2794.000000	98.158057
2793.000000	98.162137
2792.000000	98.166484
2791.000000	98.169411
2790.000000	98.169476
2789.000000	98.166887
2788.000000	98.163428
2787.000000	98.161075
2786.000000	98.160681
2785.000000	98.161771
2784.000000	98.163294
2783.000000	98.164632
2782.000000	98.165952
2781.000000	98.167521
2780.000000	98.168917
2779.000000	98.169310
2778.000000	98.168530
2777.000000	98.167410
2776.000000	98.166988
2775.000000	98.167580
2774.000000	98.168785
2773.000000	98.170033
2772.000000	98.171004
2771.000000	98.171672
2770.000000	98.172154
2769.000000	98.172581
2768.000000	98.173038
2767.000000	98.173585
2766.000000	98.174306
2765.000000	98.175241
2764.000000	98.176275
2763.000000	98.177163
2762.000000	98.177739
2761.000000	98.178042
2760.000000	98.178196
2759.000000	98.178241
2758.000000	98.178208
2757.000000	98.178295
2756.000000	98.178752
2755.000000	98.179589
2754.000000	98.180576
2753.000000	98.181506
2752.000000	98.182303
2751.000000	98.182890
2750.000000	98.183218
2749.000000	98.183471
2748.000000	98.183972
2747.000000	98.184826
2746.000000	98.185861
2745.000000	98.187002
2744.000000	98.188414
2743.000000	98.190090
2742.000000	98.191608
2741.000000	98.192594
2740.000000	98.193095
2739.000000	98.193277
2738.000000	98.193088
2737.000000	98.192534
2736.000000	98.192021
2735.000000	98.192053
2734.000000	98.192755
2733.000000	98.194035
2732.000000	98.195848
2731.000000	98.197936
2730.000000	98.199667
2729.000000	98.200540
2728.000000	98.200764
2727.000000	98.201012
2726.000000	98.201706
2725.000000	98.202817
2724.000000	98.204212
2723.000000	98.205796
2722.000000	98.207388
2721.000000	98.208771
2720.000000	98.209881
2719.000000	98.210769
2718.000000	98.211462
2717.000000	98.212040
2716.000000	98.212722
2715.000000	98.213675
2714.000000	98.214807
2713.000000	98.215877
2712.000000	98.216744
2711.000000	98.217475
2710.000000	98.218370
2709.000000	98.219888
2708.000000	98.222271
2707.000000	98.225164
2706.000000	98.227822
2705.000000	98.229726
2704.000000	98.230720
2703.000000	98.230673
2702.000000	98.229552
2701.000000	98.227993
2700.000000	98.227177
2699.000000	98.227771
2698.000000	98.229293
2697.000000	98.230743
2696.000000	98.231579
2695.000000	98.231906
2694.000000	98.232115
2693.000000	98.232651
2692.000000	98.233840
2691.000000	98.235532
2690.000000	98.237000
2689.000000	98.237486
2688.000000	98.236778
2687.000000	98.235261
2686.000000	98.233582
2685.000000	98.232310
2684.000000	98.231630
2683.000000	98.231231
2682.000000	98.230674
2681.000000	98.230003
2680.000000	98.229779
2679.000000	98.230412
2678.000000	98.231739
2677.000000	98.233286
2676.000000	98.234618
2675.000000	98.235355
2674.000000	98.235303
2673.000000	98.234858
2672.000000	98.234920
2671.000000	98.235959
2670.000000	98.237373
2669.000000	98.238089
2668.000000	98.237736
2667.000000	98.236912
2666.000000	98.236458
2665.000000	98.236688
2664.000000	98.237257
2663.000000	98.237547
2662.000000	98.237231
2661.000000	98.236676
2660.000000	98.236634
2659.000000	98.237286
2658.000000	98.237773
2657.000000	98.237112
2656.000000	98.235380
2655.000000	98.233540
2654.000000	98.232188
2653.000000	98.231264
2652.000000	98.230968
2651.000000	98.231939
2650.000000	98.234130
2649.000000	98.236241
2648.000000	98.237051
2647.000000	98.236983
2646.000000	98.237584
2645.000000	98.239549
2644.000000	98.241866
2643.000000	98.243164
2642.000000	98.243322
2641.000000	98.243293
2640.000000	98.243636
2639.000000	98.243850
2638.000000	98.243380
2637.000000	98.242607
2636.000000	98.242332
2635.000000	98.242579
2634.000000	98.242517
2633.000000	98.241614
2632.000000	98.240309
2631.000000	98.239336
2630.000000	98.238825
2629.000000	98.238483
2628.000000	98.238301
2627.000000	98.238562
2626.000000	98.239284
2625.000000	98.240076
2624.000000	98.240597
2623.000000	98.240852
2622.000000	98.241000
2621.000000	98.241085
2620.000000	98.241011
2619.000000	98.240689
2618.000000	98.240287
2617.000000	98.240403
2616.000000	98.241739
2615.000000	98.244331
2614.000000	98.247141
2613.000000	98.248806
2612.000000	98.248954
2611.000000	98.248440
2610.000000	98.248379
2609.000000	98.249020
2608.000000	98.249737
2607.000000	98.249881
2606.000000	98.249411
2605.000000	98.248832
2604.000000	98.248818
2603.000000	98.249902
2602.000000	98.252219
2601.000000	98.255254
2600.000000	98.257928
2599.000000	98.259326
2598.000000	98.259376
2597.000000	98.258858
2596.000000	98.258735
2595.000000	98.259326
2594.000000	98.260160
2593.000000	98.260496
2592.000000	98.259958
2591.000000	98.258861
2590.000000	98.258061
2589.000000	98.258333
2588.000000	98.259707
2587.000000	98.261350
2586.000000	98.262228
2585.000000	98.261988
2584.000000	98.261078
2583.000000	98.260168
2582.000000	98.259577
2581.000000	98.259271
2580.000000	98.259098
2579.000000	98.258874
2578.000000	98.258524
2577.000000	98.258345
2576.000000	98.258910
2575.000000	98.260503
2574.000000	98.262781
2573.000000	98.265086
2572.000000	98.266991
2571.000000	98.268369
2570.000000	98.269092
2569.000000	98.269037
2568.000000	98.268378
2567.000000	98.267615
2566.000000	98.267208
2565.000000	98.267253
2564.000000	98.267543
2563.000000	98.267881
2562.000000	98.268293
2561.000000	98.268925
2560.000000	98.269690
2559.000000	98.270105
2558.000000	98.269680
2557.000000	98.268516
2556.000000	98.267405
2555.000000	98.267128
2554.000000	98.267763
2553.000000	98.268828
2552.000000	98.269853
2551.000000	98.270752
2550.000000	98.271617
2549.000000	98.272479
2548.000000	98.273356
2547.000000	98.274292
2546.000000	98.275197
2545.000000	98.275772
2544.000000	98.275799
2543.000000	98.275431
2542.000000	98.275173
2541.000000	98.275450
2540.000000	98.276256
2539.000000	98.277198
2538.000000	98.277836
2537.000000	98.278053
2536.000000	98.278051
2535.000000	98.278090
2534.000000	98.278253
2533.000000	98.278466
2532.000000	98.278675
2531.000000	98.278930
2530.000000	98.279333
2529.000000	98.279946
2528.000000	98.280746
2527.000000	98.281619
2526.000000	98.282394
2525.000000	98.282954
2524.000000	98.283314
2523.000000	98.283592
2522.000000	98.283886
2521.000000	98.284218
2520.000000	98.284593
2519.000000	98.285023
2518.000000	98.285480
2517.000000	98.285906
2516.000000	98.286331
2515.000000	98.286905
2514.000000	98.287732
2513.000000	98.288742
2512.000000	98.289730
2511.000000	98.290516
2510.000000	98.291056
2509.000000	98.291410
2508.000000	98.291701
2507.000000	98.292053
2506.000000	98.292534
2505.000000	98.293135
2504.000000	98.293788
2503.000000	98.294429
2502.000000	98.295063
2501.000000	98.295745
2500.000000	98.296490
2499.000000	98.297208
2498.000000	98.297770
2497.000000	98.298174
2496.000000	98.298581
2495.000000	98.299159
2494.000000	98.299917
2493.000000	98.300721
2492.000000	98.301471
2491.000000	98.302195
2490.000000	98.302967
2489.000000	98.303797
2488.000000	98.304617
2487.000000	98.305338
2486.000000	98.305914
2485.000000	98.306355
2484.000000	98.306727
2483.000000	98.307129
2482.000000	98.307636
2481.000000	98.308273
2480.000000	98.309007
2479.000000	98.309778
2478.000000	98.310535
2477.000000	98.311253
2476.000000	98.311931
2475.000000	98.312569
2474.000000	98.313154
2473.000000	98.313678
2472.000000	98.314173
2471.000000	98.314692
2470.000000	98.315263
2469.000000	98.315854
2468.000000	98.316419
2467.000000	98.316942
2466.000000	98.317446
2465.000000	98.317969
2464.000000	98.318535
2463.000000	98.319131
2462.000000	98.319692
2461.000000	98.320160
2460.000000	98.320551
2459.000000	98.320956
2458.000000	98.321454
2457.000000	98.322037
2456.000000	98.322634
2455.000000	98.323192
2454.000000	98.323735
2453.000000	98.324310
2452.000000	98.324907
2451.000000	98.325477
2450.000000	98.326002
2449.000000	98.326545
2448.000000	98.327189
2447.000000	98.327928
2446.000000	98.328634
2445.000000	98.329173
2444.000000	98.329516
2443.000000	98.329821
2442.000000	98.330306
2441.000000	98.331045
2440.000000	98.331939
2439.000000	98.332867
2438.000000	98.333792
2437.000000	98.334701
2436.000000	98.335535
2435.000000	98.336253
2434.000000	98.336908
2433.000000	98.337608
2432.000000	98.338410
2431.000000	98.339283
2430.000000	98.340178
2429.000000	98.341080
2428.000000	98.341970
2427.000000	98.342809
2426.000000	98.343609
2425.000000	98.344486
2424.000000	98.345550
2423.000000	98.346727
2422.000000	98.347778
2421.000000	98.348554
2420.000000	98.349109
2419.000000	98.349552
2418.000000	98.349910
2417.000000	98.350237
2416.000000	98.350751
2415.000000	98.351714
2414.000000	98.353173
2413.000000	98.354980
2412.000000	98.356999
2411.000000	98.359088
2410.000000	98.360930
2409.000000	98.362111
2408.000000	98.362420
2407.000000	98.362014
2406.000000	98.361311
2405.000000	98.360827
2404.000000	98.361021
2403.000000	98.362021
2402.000000	98.363431
2401.000000	98.364620
2400.000000	98.365372
2399.000000	98.366007
2398.000000	98.366872
2397.000000	98.367956
2396.000000	98.369052
2395.000000	98.370058
2394.000000	98.370964
2393.000000	98.371695
2392.000000	98.372146
2391.000000	98.372356
2390.000000	98.372579
2389.000000	98.373304
2388.000000	98.375108
2387.000000	98.378108
2386.000000	98.381403
2385.000000	98.383436
2384.000000	98.383236
2383.000000	98.381233
2382.000000	98.378878
2381.000000	98.377635
2380.000000	98.378362
2379.000000	98.381110
2378.000000	98.384912
2377.000000	98.387911
2376.000000	98.388423
2375.000000	98.386250
2374.000000	98.382761
2373.000000	98.379690
2372.000000	98.377918
2371.000000	98.377388
2370.000000	98.377824
2369.000000	98.379169
2368.000000	98.381344
2367.000000	98.383812
2366.000000	98.385608
2365.000000	98.385929
2364.000000	98.384741
2363.000000	98.382662
2362.000000	98.380170
2361.000000	98.377040
2360.000000	98.372650
2359.000000	98.366744
2358.000000	98.359901
2357.000000	98.353363
2356.000000	98.348544
2355.000000	98.346529
2354.000000	98.347648
2353.000000	98.351297
2352.000000	98.356302
2351.000000	98.361664
2350.000000	98.366826
2349.000000	98.371244
2348.000000	98.374035
2347.000000	98.374403
2346.000000	98.372619
2345.000000	98.370338
2344.000000	98.369291
2343.000000	98.369518
2342.000000	98.369817
2341.000000	98.369946
2340.000000	98.371122
2339.000000	98.373817
2338.000000	98.376170
2337.000000	98.375713
2336.000000	98.372275
2335.000000	98.368324
2334.000000	98.366466
2333.000000	98.366990
2332.000000	98.368191
2331.000000	98.368461
2330.000000	98.367848
2329.000000	98.367576
2328.000000	98.368492
2327.000000	98.370250
2326.000000	98.371871
2325.000000	98.372752
2324.000000	98.372998
2323.000000	98.372957
2322.000000	98.372844
2321.000000	98.372859
2320.000000	98.373323
2319.000000	98.374399
2318.000000	98.375810
2317.000000	98.377030
2316.000000	98.377734
2315.000000	98.377973
2314.000000	98.377988
2313.000000	98.377998
2312.000000	98.378132
2311.000000	98.378425
2310.000000	98.378845
2309.000000	98.379299
2308.000000	98.379655
2307.000000	98.379831
2306.000000	98.379868
2305.000000	98.379896
2304.000000	98.379986
2303.000000	98.380030
2302.000000	98.379838
2301.000000	98.379380
2300.000000	98.378898
2299.000000	98.378696
2298.000000	98.378848
2297.000000	98.379177
2296.000000	98.379480
2295.000000	98.379718
2294.000000	98.379904
2293.000000	98.379971
2292.000000	98.379865
2291.000000	98.379674
2290.000000	98.379580
2289.000000	98.379670
2288.000000	98.379903
2287.000000	98.380174
2286.000000	98.380383
2285.000000	98.380447
2284.000000	98.380326
2283.000000	98.380068
2282.000000	98.379800
2281.000000	98.379631
2280.000000	98.379573
2279.000000	98.379557
2278.000000	98.379488
2277.000000	98.379315
2276.000000	98.379055
2275.000000	98.378761
2274.000000	98.378453
2273.000000	98.378118
2272.000000	98.377757
2271.000000	98.377426
2270.000000	98.377187
2269.000000	98.377040
2268.000000	98.376910
2267.000000	98.376712
2266.000000	98.376408
2265.000000	98.376043
2264.000000	98.375744
2263.000000	98.375656
2262.000000	98.375834
2261.000000	98.376163
2260.000000	98.376391
2259.000000	98.376312
2258.000000	98.375918
2257.000000	98.375426
2256.000000	98.375105
2255.000000	98.375082
2254.000000	98.375286
2253.000000	98.375537
2252.000000	98.375686
2251.000000	98.375695
2250.000000	98.375576
2249.000000	98.375311
2248.000000	98.374879
2247.000000	98.374360
2246.000000	98.373939
2245.000000	98.373764
2244.000000	98.373776
2243.000000	98.373681
2242.000000	98.373100
2241.000000	98.371863
2240.000000	98.370261
2239.000000	98.368968
2238.000000	98.368537
2237.000000	98.368980
2236.000000	98.369877
2235.000000	98.370845
2234.000000	98.371725
2233.000000	98.372370
2232.000000	98.372579
2231.000000	98.372390
2230.000000	98.372223
2229.000000	98.372457
2228.000000	98.372931
2227.000000	98.373102
2226.000000	98.372735
2225.000000	98.372208
2224.000000	98.372027
2223.000000	98.372181
2222.000000	98.372195
2221.000000	98.371797
2220.000000	98.371291
2219.000000	98.371207
2218.000000	98.371695
2217.000000	98.372427
2216.000000	98.372958
2215.000000	98.373101
2214.000000	98.373107
2213.000000	98.373560
2212.000000	98.374900
2211.000000	98.376903
2210.000000	98.378688
2209.000000	98.379494
2208.000000	98.379450
2207.000000	98.379396
2206.000000	98.379937
2205.000000	98.380890
2204.000000	98.381734
2203.000000	98.382336
2202.000000	98.382964
2201.000000	98.383746
2200.000000	98.384422
2199.000000	98.384723
2198.000000	98.384776
2197.000000	98.384969
2196.000000	98.385446
2195.000000	98.385914
2194.000000	98.385992
2193.000000	98.385646
2192.000000	98.385234
2191.000000	98.385147
2190.000000	98.385499
2189.000000	98.386171
2188.000000	98.386982
2187.000000	98.387716
2186.000000	98.388119
2185.000000	98.388089
2184.000000	98.387831
2183.000000	98.387706
2182.000000	98.387879
2181.000000	98.388252
2180.000000	98.388719
2179.000000	98.389309
2178.000000	98.390000
2177.000000	98.390568
2176.000000	98.390791
2175.000000	98.390708
2174.000000	98.390601
2173.000000	98.390720
2172.000000	98.391073
2171.000000	98.391496
2170.000000	98.391836
2169.000000	98.392072
2168.000000	98.392325
2167.000000	98.392781
2166.000000	98.393523
2165.000000	98.394429
2164.000000	98.395245
2163.000000	98.395795
2162.000000	98.396082
2161.000000	98.396216
2160.000000	98.396325
2159.000000	98.396519
2158.000000	98.396857
2157.000000	98.397311
2156.000000	98.397784
2155.000000	98.398212
2154.000000	98.398640
2153.000000	98.399157
2152.000000	98.399763
2151.000000	98.400352
2150.000000	98.400829
2149.000000	98.401233
2148.000000	98.401732
2147.000000	98.402481
2146.000000	98.403483
2145.000000	98.404568
2144.000000	98.405495
2143.000000	98.406115
2142.000000	98.406428
2141.000000	98.406564
2140.000000	98.406722
2139.000000	98.407067
2138.000000	98.407635
2137.000000	98.408301
2136.000000	98.408890
2135.000000	98.409353
2134.000000	98.409833
2133.000000	98.410498
2132.000000	98.411360
2131.000000	98.412274
2130.000000	98.413088
2129.000000	98.413735
2128.000000	98.414228
2127.000000	98.414640
2126.000000	98.415083
2125.000000	98.415639
2124.000000	98.416304
2123.000000	98.417032
2122.000000	98.417817
2121.000000	98.418695
2120.000000	98.419635
2119.000000	98.420483
2118.000000	98.421060
2117.000000	98.421297
2116.000000	98.421299
2115.000000	98.421318
2114.000000	98.421614
2113.000000	98.422302
2112.000000	98.423259
2111.000000	98.424192
2110.000000	98.424895
2109.000000	98.425439
2108.000000	98.426063
2107.000000	98.426873
2106.000000	98.427733
2105.000000	98.428507
2104.000000	98.429283
2103.000000	98.430207
2102.000000	98.431195
2101.000000	98.432029
2100.000000	98.432705
2099.000000	98.433458
2098.000000	98.434415
2097.000000	98.435474
2096.000000	98.436565
2095.000000	98.437719
2094.000000	98.438741
2093.000000	98.439154
2092.000000	98.438760
2091.000000	98.438014
2090.000000	98.437636
2089.000000	98.437869
2088.000000	98.438482
2087.000000	98.439288
2086.000000	98.440336
2085.000000	98.441539
2084.000000	98.442468
2083.000000	98.442750
2082.000000	98.442476
2081.000000	98.442117
2080.000000	98.442085
2079.000000	98.442486
2078.000000	98.443190
2077.000000	98.443959
2076.000000	98.444604
2075.000000	98.445129
2074.000000	98.445697
2073.000000	98.446386
2072.000000	98.447060
2071.000000	98.447591
2070.000000	98.448072
2069.000000	98.448654
2068.000000	98.449213
2067.000000	98.449355
2066.000000	98.448813
2065.000000	98.447736
2064.000000	98.446647
2063.000000	98.446078
2062.000000	98.446177
2061.000000	98.446590
2060.000000	98.446708
2059.000000	98.446190
2058.000000	98.445257
2057.000000	98.444496
2056.000000	98.444346
2055.000000	98.444752
2054.000000	98.445205
2053.000000	98.445143
2052.000000	98.444431
2051.000000	98.443481
2050.000000	98.442854
2049.000000	98.442708
2048.000000	98.442775
2047.000000	98.442826
2046.000000	98.442845
2045.000000	98.442709
2044.000000	98.442076
2043.000000	98.440863
2042.000000	98.439528
2041.000000	98.438537
2040.000000	98.437722
2039.000000	98.436549
2038.000000	98.434928
2037.000000	98.433426
2036.000000	98.432627
2035.000000	98.432629
2034.000000	98.433178
2033.000000	98.433937
2032.000000	98.434557
2031.000000	98.434734
2030.000000	98.434377
2029.000000	98.433629
2028.000000	98.432681
2027.000000	98.431631
2026.000000	98.430552
2025.000000	98.429532
2024.000000	98.428603
2023.000000	98.427786
2022.000000	98.427173
2021.000000	98.426858
2020.000000	98.426749
2019.000000	98.426654
2018.000000	98.426598
2017.000000	98.426806
2016.000000	98.427219
2015.000000	98.427297
2014.000000	98.426575
2013.000000	98.425234
2012.000000	98.423973
2011.000000	98.423247
2010.000000	98.422930
2009.000000	98.422709
2008.000000	98.422548
2007.000000	98.422580
2006.000000	98.422770
2005.000000	98.422917
2004.000000	98.422892
2003.000000	98.422673
2002.000000	98.422135
2001.000000	98.421116
2000.000000	98.419760
1999.000000	98.418671
1998.000000	98.418493
1997.000000	98.419325
1996.000000	98.420665
1995.000000	98.421883
1994.000000	98.422708
1993.000000	98.423108
1992.000000	98.423048
1991.000000	98.422608
1990.000000	98.422118
1989.000000	98.421896
1988.000000	98.421885
1987.000000	98.421750
1986.000000	98.421358
1985.000000	98.420972
1984.000000	98.420879
1983.000000	98.421000
1982.000000	98.420935
1981.000000	98.420398
1980.000000	98.419479
1979.000000	98.418606
1978.000000	98.418231
1977.000000	98.418455
1976.000000	98.418970
1975.000000	98.419395
1974.000000	98.419679
1973.000000	98.420075
1972.000000	98.420776
1971.000000	98.421683
1970.000000	98.422491
1969.000000	98.422932
1968.000000	98.422954
1967.000000	98.422759
1966.000000	98.422645
1965.000000	98.422745
1964.000000	98.422934
1963.000000	98.423016
1962.000000	98.422937
1961.000000	98.422785
1960.000000	98.422677
1959.000000	98.422670
1958.000000	98.422752
1957.000000	98.422842
1956.000000	98.422844
1955.000000	98.422741
1954.000000	98.422586
1953.000000	98.422382
1952.000000	98.422109
1951.000000	98.421930
1950.000000	98.422189
1949.000000	98.423064
1948.000000	98.424194
1947.000000	98.424813
1946.000000	98.424471
1945.000000	98.423423
1944.000000	98.422443
1943.000000	98.422111
1942.000000	98.422414
1941.000000	98.422967
1940.000000	98.423407
1939.000000	98.423559
1938.000000	98.423386
1937.000000	98.422925
1936.000000	98.422221
1935.000000	98.421285
1934.000000	98.420170
1933.000000	98.419074
1932.000000	98.418404
1931.000000	98.418490
1930.000000	98.419201
1929.000000	98.420062
1928.000000	98.420582
1927.000000	98.420648
1926.000000	98.420392
1925.000000	98.419878
1924.000000	98.419052
1923.000000	98.417889
1922.000000	98.416654
1921.000000	98.415792
1920.000000	98.415441
1919.000000	98.415200
1918.000000	98.414299
1917.000000	98.412337
1916.000000	98.409770
1915.000000	98.407427
1914.000000	98.405861
1913.000000	98.405031
1912.000000	98.404392
1911.000000	98.403335
1910.000000	98.401648
1909.000000	98.399644
1908.000000	98.397754
1907.000000	98.396341
1906.000000	98.395569
1905.000000	98.395252
1904.000000	98.394843
1903.000000	98.393726
1902.000000	98.391942
1901.000000	98.390365
1900.000000	98.389733
1899.000000	98.389881
1898.000000	98.389940
1897.000000	98.389078
1896.000000	98.387038
1895.000000	98.384237
1894.000000	98.381743
1893.000000	98.380700
1892.000000	98.381418
1891.000000	98.383038
1890.000000	98.384060
1889.000000	98.383516
1888.000000	98.381585
1887.000000	98.379057
1886.000000	98.376767
1885.000000	98.375430
1884.000000	98.375230
1883.000000	98.375466
1882.000000	98.375211
1881.000000	98.374392
1880.000000	98.373692
1879.000000	98.373751
1878.000000	98.374736
1877.000000	98.376303
1876.000000	98.377801
1875.000000	98.378546
1874.000000	98.378315
1873.000000	98.377717
1872.000000	98.377598
1871.000000	98.378025
1870.000000	98.378147
1869.000000	98.377241
1868.000000	98.376042
1867.000000	98.376185
1866.000000	98.378371
1865.000000	98.381904
1864.000000	98.385302
1863.000000	98.387350
1862.000000	98.388082
1861.000000	98.388662
1860.000000	98.389965
1859.000000	98.391689
1858.000000	98.393285
1857.000000	98.395009
1856.000000	98.397162
1855.000000	98.399072
1854.000000	98.399955
1853.000000	98.400729
1852.000000	98.402996
1851.000000	98.406823
1850.000000	98.410564
1849.000000	98.412690
1848.000000	98.413268
1847.000000	98.413332
1846.000000	98.413740
1845.000000	98.414741
1844.000000	98.416059
1843.000000	98.417453
1842.000000	98.418911
1841.000000	98.420326
1840.000000	98.421398
1839.000000	98.421875
1838.000000	98.421790
1837.000000	98.421824
1836.000000	98.422865
1835.000000	98.424888
1834.000000	98.426842
1833.000000	98.427761
1832.000000	98.427590
1831.000000	98.427267
1830.000000	98.427742
1829.000000	98.428943
1828.000000	98.430314
1827.000000	98.431635
1826.000000	98.432996
1825.000000	98.434097
1824.000000	98.434387
1823.000000	98.434033
1822.000000	98.433854
1821.000000	98.434436
1820.000000	98.435589
1819.000000	98.436624
1818.000000	98.436820
1817.000000	98.436156
1816.000000	98.435761
1815.000000	98.436778
1814.000000	98.439049
1813.000000	98.440744
1812.000000	98.439886
1811.000000	98.436376
1810.000000	98.432067
1809.000000	98.429447
1808.000000	98.429764
1807.000000	98.432007
1806.000000	98.434151
1805.000000	98.435397
1804.000000	98.436828
1803.000000	98.439256
1802.000000	98.442196
1801.000000	98.444409
1800.000000	98.445682
1799.000000	98.446858
1798.000000	98.447990
1797.000000	98.448407
1796.000000	98.447759
1795.000000	98.446051
1794.000000	98.443873
1793.000000	98.441905
1792.000000	98.440451
1791.000000	98.439847
1790.000000	98.440365
1789.000000	98.442004
1788.000000	98.444510
1787.000000	98.447160
1786.000000	98.449350
1785.000000	98.451903
1784.000000	98.456636
1783.000000	98.463068
1782.000000	98.469339
1781.000000	98.473954
1780.000000	98.476835
1779.000000	98.479252
1778.000000	98.481523
1777.000000	98.482564
1776.000000	98.480710
1775.000000	98.476256
1774.000000	98.473523
1773.000000	98.477502
1772.000000	98.486917
1771.000000	98.496686
1770.000000	98.504979
1769.000000	98.512765
1768.000000	98.520675
1767.000000	98.527588
1766.000000	98.532862
1765.000000	98.537317
1764.000000	98.542201
1763.000000	98.547379
1762.000000	98.551177
1761.000000	98.552492
1760.000000	98.553606
1759.000000	98.557711
1758.000000	98.567081
1757.000000	98.582287
1756.000000	98.599614
1755.000000	98.614919
1754.000000	98.628189
1753.000000	98.642784
1752.000000	98.660692
1751.000000	98.679090
1750.000000	98.693243
1749.000000	98.703549
1748.000000	98.714381
1747.000000	98.727611
1746.000000	98.741891
1745.000000	98.754297
1744.000000	98.762959
1743.000000	98.768090
1742.000000	98.770014
1741.000000	98.767321
1740.000000	98.758690
1739.000000	98.745520
1738.000000	98.731369
1737.000000	98.717249
1736.000000	98.702496
1735.000000	98.688243
1734.000000	98.674684
1733.000000	98.662269
1732.000000	98.652105
1731.000000	98.643009
1730.000000	98.634391
1729.000000	98.626833
1728.000000	98.620396
1727.000000	98.615259
1726.000000	98.612477
1725.000000	98.611140
1724.000000	98.608182
1723.000000	98.601360
1722.000000	98.591527
1721.000000	98.582467
1720.000000	98.578251
1719.000000	98.580493
1718.000000	98.582915
1717.000000	98.576076
1716.000000	98.563296
1715.000000	98.553624
1714.000000	98.548573
1713.000000	98.545470
1712.000000	98.543195
1711.000000	98.542238
1710.000000	98.542981
1709.000000	98.544672
1708.000000	98.545083
1707.000000	98.542403
1706.000000	98.536664
1705.000000	98.530403
1704.000000	98.526902
1703.000000	98.525751
1702.000000	98.525149
1701.000000	98.524849
1700.000000	98.523748
1699.000000	98.522691
1698.000000	98.521116
1697.000000	98.516863
1696.000000	98.510057
1695.000000	98.502831
1694.000000	98.497634
1693.000000	98.494374
1692.000000	98.492067
1691.000000	98.490639
1690.000000	98.490368
1689.000000	98.491326
1688.000000	98.492375
1687.000000	98.492177
1686.000000	98.490746
1685.000000	98.489546
1684.000000	98.488537
1683.000000	98.487146
1682.000000	98.485755
1681.000000	98.484011
1680.000000	98.481709
1679.000000	98.479415
1678.000000	98.478028
1677.000000	98.478146
1676.000000	98.479325
1675.000000	98.479543
1674.000000	98.478021
1673.000000	98.475688
1672.000000	98.473356
1671.000000	98.471392
1670.000000	98.469714
1669.000000	98.468274
1668.000000	98.467406
1667.000000	98.467226
1666.000000	98.467377
1665.000000	98.467323
1664.000000	98.466893
1663.000000	98.465897
1662.000000	98.464418
1661.000000	98.463176
1660.000000	98.462384
1659.000000	98.461764
1658.000000	98.461116
1657.000000	98.460183
1656.000000	98.458426
1655.000000	98.456670
1654.000000	98.457315
1653.000000	98.458151
1652.000000	98.457267
1651.000000	98.456764
1650.000000	98.455764
1649.000000	98.452906
1648.000000	98.448889
1647.000000	98.445379
1646.000000	98.443719
1645.000000	98.443984
1644.000000	98.444994
1643.000000	98.445520
1642.000000	98.445581
1641.000000	98.446184
1640.000000	98.447816
1639.000000	98.450095
1638.000000	98.451876
1637.000000	98.452171
1636.000000	98.449604
1635.000000	98.444445
1634.000000	98.440447
1633.000000	98.439246
1632.000000	98.439708
1631.000000	98.440260
1630.000000	98.439933
1629.000000	98.439124
1628.000000	98.439227
1627.000000	98.440704
1626.000000	98.442793
1625.000000	98.444924
1624.000000	98.447554
1623.000000	98.450500
1622.000000	98.452252
1621.000000	98.451798
1620.000000	98.449345
1619.000000	98.446874
1618.000000	98.447550
1617.000000	98.452660
1616.000000	98.459088
1615.000000	98.463615
1614.000000	98.466131
1613.000000	98.467680
1612.000000	98.469486
1611.000000	98.472707
1610.000000	98.478042
1609.000000	98.484604
1608.000000	98.489909
1607.000000	98.492253
1606.000000	98.492937
1605.000000	98.494448
1604.000000	98.497506
1603.000000	98.501653
1602.000000	98.506680
1601.000000	98.512411
1600.000000	98.517992
1599.000000	98.522532
1598.000000	98.526174
1597.000000	98.529576
1596.000000	98.532875
1595.000000	98.535714
1594.000000	98.538235
1593.000000	98.541330
1592.000000	98.545651
1591.000000	98.550842
1590.000000	98.555921
1589.000000	98.560115
1588.000000	98.563152
1587.000000	98.565167
1586.000000	98.566533
1585.000000	98.568090
1584.000000	98.570566
1583.000000	98.574505
1582.000000	98.580220
1581.000000	98.586711
1580.000000	98.591583
1579.000000	98.593383
1578.000000	98.593585
1577.000000	98.595344
1576.000000	98.599590
1575.000000	98.604614
1574.000000	98.609896
1573.000000	98.615467
1572.000000	98.620969
1571.000000	98.626388
1570.000000	98.631083
1569.000000	98.633574
1568.000000	98.632553
1567.000000	98.628606
1566.000000	98.624572
1565.000000	98.623949
1564.000000	98.626776
1563.000000	98.629914
1562.000000	98.630503
1561.000000	98.630221
1560.000000	98.634519
1559.000000	98.643733
1558.000000	98.650647
1557.000000	98.656142
1556.000000	98.661452
1555.000000	98.665542
1554.000000	98.668635
1553.000000	98.670418
1552.000000	98.670244
1551.000000	98.668163
1550.000000	98.664586
1549.000000	98.660125
1548.000000	98.655411
1547.000000	98.650772
1546.000000	98.647026
1545.000000	98.645153
1544.000000	98.644737
1543.000000	98.644632
1542.000000	98.644405
1541.000000	98.644882
1540.000000	98.645824
1539.000000	98.645206
1538.000000	98.643403
1537.000000	98.640881
1536.000000	98.637630
1535.000000	98.634674
1534.000000	98.633149
1533.000000	98.631698
1532.000000	98.628986
1531.000000	98.626104
1530.000000	98.624349
1529.000000	98.624421
1528.000000	98.626113
1527.000000	98.627646
1526.000000	98.626821
1525.000000	98.622708
1524.000000	98.616239
1523.000000	98.610190
1522.000000	98.607789
1521.000000	98.609030
1520.000000	98.610956
1519.000000	98.611544
1518.000000	98.610764
1517.000000	98.608481
1516.000000	98.603902
1515.000000	98.597769
1514.000000	98.592616
1513.000000	98.590330
1512.000000	98.591056
1511.000000	98.592986
1510.000000	98.593365
1509.000000	98.590817
1508.000000	98.586831
1507.000000	98.584811
1506.000000	98.586012
1505.000000	98.590856
1504.000000	98.597012
1503.000000	98.601543
1502.000000	98.603607
1501.000000	98.603445
1500.000000	98.601774
1499.000000	98.600212
1498.000000	98.600839
1497.000000	98.603155
1496.000000	98.604507
1495.000000	98.603326
1494.000000	98.600287
1493.000000	98.596863
1492.000000	98.594586
1491.000000	98.594635
1490.000000	98.597067
1489.000000	98.600881
1488.000000	98.605216
1487.000000	98.608817
1486.000000	98.610247
1485.000000	98.611040
1484.000000	98.613896
1483.000000	98.620549
1482.000000	98.630971
1481.000000	98.642153
1480.000000	98.649704
1479.000000	98.651476
1478.000000	98.649829
1477.000000	98.650097
1476.000000	98.656369
1475.000000	98.667109
1474.000000	98.678265
1473.000000	98.688763
1472.000000	98.700616
1471.000000	98.715189
1470.000000	98.730654
1469.000000	98.744476
1468.000000	98.755524
1467.000000	98.762742
1466.000000	98.764471
1465.000000	98.760522
1464.000000	98.754074
1463.000000	98.749823
1462.000000	98.748626
1461.000000	98.748791
1460.000000	98.749920
1459.000000	98.753917
1458.000000	98.761084
1457.000000	98.764146
1456.000000	98.758531
1455.000000	98.750842
1454.000000	98.746153
1453.000000	98.743343
1452.000000	98.740199
1451.000000	98.736075
1450.000000	98.732291
1449.000000	98.730434
1448.000000	98.731605
1447.000000	98.734337
1446.000000	98.735428
1445.000000	98.732531
1444.000000	98.726307
1443.000000	98.720983
1442.000000	98.719861
1441.000000	98.721611
1440.000000	98.722116
1439.000000	98.719496
1438.000000	98.714897
1437.000000	98.709979
1436.000000	98.706080
1435.000000	98.704969
1434.000000	98.706520
1433.000000	98.708354
1432.000000	98.708344
1431.000000	98.706236
1430.000000	98.703656
1429.000000	98.701859
1428.000000	98.700917
1427.000000	98.700132
1426.000000	98.699457
1425.000000	98.699491
1424.000000	98.700322
1423.000000	98.701976
1422.000000	98.704096
1421.000000	98.705748
1420.000000	98.705884
1419.000000	98.704749
1418.000000	98.704126
1417.000000	98.704752
1416.000000	98.705703
1415.000000	98.706315
1414.000000	98.706678
1413.000000	98.706912
1412.000000	98.707064
1411.000000	98.707548
1410.000000	98.708706
1409.000000	98.709846
1408.000000	98.709816
1407.000000	98.708124
1406.000000	98.705589
1405.000000	98.703791
1404.000000	98.703601
1403.000000	98.704890
1402.000000	98.706928
1401.000000	98.708810
1400.000000	98.709779
1399.000000	98.709905
1398.000000	98.710472
1397.000000	98.712589
1396.000000	98.715824
1395.000000	98.718392
1394.000000	98.719231
1393.000000	98.719217
1392.000000	98.719682
1391.000000	98.720862
1390.000000	98.722097
1389.000000	98.722899
1388.000000	98.723796
1387.000000	98.725730
1386.000000	98.728625
1385.000000	98.731289
1384.000000	98.732741
1383.000000	98.733132
1382.000000	98.733377
1381.000000	98.734360
1380.000000	98.736477
1379.000000	98.739513
1378.000000	98.742651
1377.000000	98.744815
1376.000000	98.745340
1375.000000	98.744431
1374.000000	98.743220
1373.000000	98.742795
1372.000000	98.743294
1371.000000	98.744196
1370.000000	98.745196
1369.000000	98.746464
1368.000000	98.748264
1367.000000	98.750720
1366.000000	98.753521
1365.000000	98.755770
1364.000000	98.756565
1363.000000	98.755921
1362.000000	98.754846
1361.000000	98.754103
1360.000000	98.753455
1359.000000	98.752692
1358.000000	98.752422
1357.000000	98.753156
1356.000000	98.754269
1355.000000	98.754675
1354.000000	98.754329
1353.000000	98.754111
1352.000000	98.754446
1351.000000	98.754649
1350.000000	98.754103
1349.000000	98.753233
1348.000000	98.752743
1347.000000	98.752629
1346.000000	98.752431
1345.000000	98.752116
1344.000000	98.752151
1343.000000	98.752775
1342.000000	98.753613
1341.000000	98.753998
1340.000000	98.753518
1339.000000	98.752368
1338.000000	98.751220
1337.000000	98.750551
1336.000000	98.750208
1335.000000	98.749821
1334.000000	98.749549
1333.000000	98.750181
1332.000000	98.752293
1331.000000	98.755298
1330.000000	98.757624
1329.000000	98.758163
1328.000000	98.757157
1327.000000	98.755639
1326.000000	98.754307
1325.000000	98.753229
1324.000000	98.752532
1323.000000	98.752774
1322.000000	98.754214
1321.000000	98.755999
1320.000000	98.756652
1319.000000	98.755544
1318.000000	98.753559
1317.000000	98.752231
1316.000000	98.752226
1315.000000	98.753034
1314.000000	98.753764
1313.000000	98.753958
1312.000000	98.753766
1311.000000	98.753560
1310.000000	98.753528
1309.000000	98.753573
1308.000000	98.753583
1307.000000	98.753603
1306.000000	98.753681
1305.000000	98.753667
1304.000000	98.753451
1303.000000	98.753395
1302.000000	98.754039
1301.000000	98.755263
1300.000000	98.756193
1299.000000	98.756292
1298.000000	98.755980
1297.000000	98.755676
1296.000000	98.754718
1295.000000	98.752127
1294.000000	98.748392
1293.000000	98.745621
1292.000000	98.745566
1291.000000	98.747892
1290.000000	98.750409
1289.000000	98.750890
1288.000000	98.748781
1287.000000	98.745555
1286.000000	98.743412
1285.000000	98.743221
1284.000000	98.743945
1283.000000	98.744191
1282.000000	98.743658
1281.000000	98.742530
1280.000000	98.740162
1279.000000	98.735617
1278.000000	98.729407
1277.000000	98.723579
1276.000000	98.719906
1275.000000	98.718839
1274.000000	98.720076
1273.000000	98.722954
1272.000000	98.726113
1271.000000	98.728046
1270.000000	98.728812
1269.000000	98.730371
1268.000000	98.734331
1267.000000	98.739851
1266.000000	98.744402
1265.000000	98.746307
1264.000000	98.746040
1263.000000	98.745297
1262.000000	98.745150
1261.000000	98.745047
1260.000000	98.743608
1259.000000	98.740594
1258.000000	98.737701
1257.000000	98.736626
1256.000000	98.736701
1255.000000	98.735562
1254.000000	98.732309
1253.000000	98.728647
1252.000000	98.726247
1251.000000	98.724243
1250.000000	98.720439
1249.000000	98.713997
1248.000000	98.705607
1247.000000	98.695803
1246.000000	98.684945
1245.000000	98.674618
1244.000000	98.666997
1243.000000	98.661885
1242.000000	98.655887
1241.000000	98.646036
1240.000000	98.633658
1239.000000	98.623401
1238.000000	98.618343
1237.000000	98.616702
1236.000000	98.613541
1235.000000	98.605343
1234.000000	98.593139
1233.000000	98.581570
1232.000000	98.574548
1231.000000	98.571433
1230.000000	98.567619
1229.000000	98.558707
1228.000000	98.543382
1227.000000	98.522656
1226.000000	98.498319
1225.000000	98.472961
1224.000000	98.449540
1223.000000	98.428840
1222.000000	98.408379
1221.000000	98.385687
1220.000000	98.361342
1219.000000	98.336399
1218.000000	98.308485
1217.000000	98.274588
1216.000000	98.237471
1215.000000	98.204434
1214.000000	98.177779
1213.000000	98.150775
1212.000000	98.116140
1211.000000	98.075161
1210.000000	98.035183
1209.000000	98.000530
1208.000000	97.969518
1207.000000	97.938407
1206.000000	97.904331
1205.000000	97.865735
1204.000000	97.823986
1203.000000	97.784344
1202.000000	97.751694
1201.000000	97.724769
1200.000000	97.697105
1199.000000	97.663702
1198.000000	97.624796
1197.000000	97.583893
1196.000000	97.545007
1195.000000	97.511551
1194.000000	97.484503
1193.000000	97.460410
1192.000000	97.433244
1191.000000	97.399460
1190.000000	97.360341
1189.000000	97.319240
1188.000000	97.277937
1187.000000	97.236098
1186.000000	97.192970
1185.000000	97.148778
1184.000000	97.104857
1183.000000	97.062419
1182.000000	97.020825
1181.000000	96.977675
1180.000000	96.931288
1179.000000	96.882338
1178.000000	96.832229
1177.000000	96.780934
1176.000000	96.727696
1175.000000	96.672854
1174.000000	96.617352
1173.000000	96.561244
1172.000000	96.504561
1171.000000	96.449169
1170.000000	96.397563
1169.000000	96.349390
1168.000000	96.300953
1167.000000	96.249734
1166.000000	96.199555
1165.000000	96.160351
1164.000000	96.141711
1163.000000	96.145684
1162.000000	96.165309
1161.000000	96.190101
1160.000000	96.212179
1159.000000	96.226873
1158.000000	96.230855
1157.000000	96.222873
1156.000000	96.204814
1155.000000	96.179059
1154.000000	96.145500
1153.000000	96.103791
1152.000000	96.057423
1151.000000	96.011790
1150.000000	95.968240
1149.000000	95.923987
1148.000000	95.878398
1147.000000	95.835182
1146.000000	95.796939
1145.000000	95.761373
1144.000000	95.724800
1143.000000	95.685958
1142.000000	95.644361
1141.000000	95.598423
1140.000000	95.548335
1139.000000	95.498670
1138.000000	95.455098
1137.000000	95.419169
1136.000000	95.387442
1135.000000	95.354114
1134.000000	95.313933
1133.000000	95.265347
1132.000000	95.212633
1131.000000	95.163107
1130.000000	95.120598
1129.000000	95.082971
1128.000000	95.046317
1127.000000	95.008881
1126.000000	94.970279
1125.000000	94.930377
1124.000000	94.890818
1123.000000	94.854758
1122.000000	94.822725
1121.000000	94.790587
1120.000000	94.753559
1119.000000	94.710966
1118.000000	94.666079
1117.000000	94.623075
1116.000000	94.584671
1115.000000	94.550215
1114.000000	94.515157
1113.000000	94.474957
1112.000000	94.430346
1111.000000	94.386198
1110.000000	94.344871
1109.000000	94.303847
1108.000000	94.260552
1107.000000	94.216125
1106.000000	94.173748
1105.000000	94.136738
1104.000000	94.108228
1103.000000	94.087986
1102.000000	94.069008
1101.000000	94.042427
1100.000000	94.007172
1099.000000	93.969819
1098.000000	93.934042
1097.000000	93.896367
1096.000000	93.854554
1095.000000	93.813973
1094.000000	93.781377
1093.000000	93.756834
1092.000000	93.735970
1091.000000	93.716768
1090.000000	93.700007
1089.000000	93.685091
1088.000000	93.669075
1087.000000	93.649633
1086.000000	93.628149
1085.000000	93.610617
1084.000000	93.604188
1083.000000	93.609669
1082.000000	93.618034
1081.000000	93.618307
1080.000000	93.608580
1079.000000	93.595674
1078.000000	93.585136
1077.000000	93.576229
1076.000000	93.566123
1075.000000	93.552944
1074.000000	93.533762
1073.000000	93.504961
1072.000000	93.466089
1071.000000	93.419337
1070.000000	93.364617
1069.000000	93.299392
1068.000000	93.223761
1067.000000	93.141187
1066.000000	93.053498
1065.000000	92.959784
1064.000000	92.861332
1063.000000	92.763328
1062.000000	92.670782
1061.000000	92.586453
1060.000000	92.512214
1059.000000	92.447308
1058.000000	92.385849
1057.000000	92.321743
1056.000000	92.255542
1055.000000	92.190786
1054.000000	92.125274
1053.000000	92.053625
1052.000000	91.977785
1051.000000	91.905883
1050.000000	91.840025
1049.000000	91.775485
1048.000000	91.712685
1047.000000	91.658186
1046.000000	91.612080
1045.000000	91.565410
1044.000000	91.512124
1043.000000	91.454736
1042.000000	91.396919
1041.000000	91.339607
1040.000000	91.286105
1039.000000	91.241249
1038.000000	91.202129
1037.000000	91.158583
1036.000000	91.106906
1035.000000	91.054905
1034.000000	91.009852
1033.000000	90.970092
1032.000000	90.932553
1031.000000	90.900243
1030.000000	90.876976
1029.000000	90.861093
1028.000000	90.848936
1027.000000	90.839100
1026.000000	90.829779
1025.000000	90.817447
1024.000000	90.801408
1023.000000	90.784935
1022.000000	90.769922
1021.000000	90.755284
1020.000000	90.741402
1019.000000	90.730202
1018.000000	90.720028
1017.000000	90.706659
1016.000000	90.689898
1015.000000	90.672511
1014.000000	90.652750
1013.000000	90.625701
1012.000000	90.592614
1011.000000	90.561060
1010.000000	90.535069
1009.000000	90.513048
1008.000000	90.495628
1007.000000	90.486128
1006.000000	90.481894
1005.000000	90.474773
1004.000000	90.462634
1003.000000	90.451688
1002.000000	90.445484
1001.000000	90.441065
1000.000000	90.438330
999.000000	90.442951
998.000000	90.455793
997.000000	90.468748
996.000000	90.476059
995.000000	90.481791
994.000000	90.491228
993.000000	90.502585
992.000000	90.512274
991.000000	90.521488
990.000000	90.532333
989.000000	90.543722
988.000000	90.556086
987.000000	90.574546
986.000000	90.602491
985.000000	90.636638
984.000000	90.672358
983.000000	90.709555
982.000000	90.750122
981.000000	90.794315
980.000000	90.842930
979.000000	90.898810
978.000000	90.963260
977.000000	91.034548
976.000000	91.111594
975.000000	91.194987
974.000000	91.283074
973.000000	91.371795
972.000000	91.459858
971.000000	91.549477
970.000000	91.640811
969.000000	91.730565
968.000000	91.817461
967.000000	91.904192
966.000000	91.992160
965.000000	92.078714
964.000000	92.161688
963.000000	92.243149
962.000000	92.326814
961.000000	92.414147
960.000000	92.503353
959.000000	92.589654
958.000000	92.667526
957.000000	92.736332
956.000000	92.802491
955.000000	92.871504
954.000000	92.939098
953.000000	92.996345
952.000000	93.043012
951.000000	93.089137
950.000000	93.142155
949.000000	93.198573
948.000000	93.250791
947.000000	93.296426
946.000000	93.338037
945.000000	93.378403
944.000000	93.419239
943.000000	93.460955
942.000000	93.500848
941.000000	93.534358
940.000000	93.560545
939.000000	93.584175
938.000000	93.610639
937.000000	93.640923
936.000000	93.672974
935.000000	93.705689
934.000000	93.740211
933.000000	93.779129
932.000000	93.824653
931.000000	93.875114
930.000000	93.923142
929.000000	93.960451
928.000000	93.985356
927.000000	94.003856
926.000000	94.023625
925.000000	94.049096
924.000000	94.081370
923.000000	94.118808
922.000000	94.157037
921.000000	94.191538
920.000000	94.220962
919.000000	94.246027
918.000000	94.266552
917.000000	94.283223
916.000000	94.301495
915.000000	94.329130
914.000000	94.368886
913.000000	94.416520
912.000000	94.465637
911.000000	94.511466
910.000000	94.551618
909.000000	94.588099
908.000000	94.628067
907.000000	94.677638
906.000000	94.735214
905.000000	94.795891
904.000000	94.861602
903.000000	94.939757
902.000000	95.030487
901.000000	95.121905
900.000000	95.201535
899.000000	95.268270
898.000000	95.330172
897.000000	95.394819
896.000000	95.465053
895.000000	95.540436
894.000000	95.618360
893.000000	95.694871
892.000000	95.767075
891.000000	95.834264
890.000000	95.896032
889.000000	95.951448
888.000000	96.001705
887.000000	96.051364
886.000000	96.104233
885.000000	96.158645
884.000000	96.209003
883.000000	96.252336
882.000000	96.292550
881.000000	96.337783
880.000000	96.393068
879.000000	96.455118
878.000000	96.515376
877.000000	96.569477
876.000000	96.622098
875.000000	96.680045
874.000000	96.741901
873.000000	96.798293
872.000000	96.842470
871.000000	96.877227
870.000000	96.910975
869.000000	96.950089
868.000000	96.996263
867.000000	97.048213
866.000000	97.103332
865.000000	97.158921
864.000000	97.213430
863.000000	97.265909
862.000000	97.314210
861.000000	97.356058
860.000000	97.393240
859.000000	97.432372
858.000000	97.478497
857.000000	97.528783
856.000000	97.575363
855.000000	97.613878
854.000000	97.646360
853.000000	97.675732
852.000000	97.701512
851.000000	97.723388
850.000000	97.745439
849.000000	97.772032
848.000000	97.800516
847.000000	97.822685
846.000000	97.834164
845.000000	97.838416
844.000000	97.840355
843.000000	97.840340
842.000000	97.836863
841.000000	97.831009
840.000000	97.824123
839.000000	97.813796
838.000000	97.796889
837.000000	97.775187
836.000000	97.753564
835.000000	97.733183
834.000000	97.711060
833.000000	97.686730
832.000000	97.664892
831.000000	97.650250
830.000000	97.644010
829.000000	97.647466
828.000000	97.664235
827.000000	97.694037
826.000000	97.726666
825.000000	97.747424
824.000000	97.748774
823.000000	97.734943
822.000000	97.717032
821.000000	97.705152
820.000000	97.701784
819.000000	97.698883
818.000000	97.683207
817.000000	97.647957
816.000000	97.598621
815.000000	97.545394
814.000000	97.490430
813.000000	97.424569
812.000000	97.335746
811.000000	97.217962
810.000000	97.072357
809.000000	96.902314
808.000000	96.709260
807.000000	96.493237
806.000000	96.257353
805.000000	96.011261
804.000000	95.768740
803.000000	95.540633
802.000000	95.331848
801.000000	95.147616
800.000000	94.999957
799.000000	94.902626
798.000000	94.859806
797.000000	94.863482
796.000000	94.900155
795.000000	94.955623
794.000000	95.016534
793.000000	95.074849
792.000000	95.130095
791.000000	95.181601
790.000000	95.220180
789.000000	95.233993
788.000000	95.221835
787.000000	95.193764
786.000000	95.157684
785.000000	95.110990
784.000000	95.047070
783.000000	94.965567
782.000000	94.874588
781.000000	94.786651
780.000000	94.714089
779.000000	94.665112
778.000000	94.642485
777.000000	94.647629
776.000000	94.684733
775.000000	94.756855
774.000000	94.858330
773.000000	94.974333
772.000000	95.087056
771.000000	95.180959
770.000000	95.247729
769.000000	95.292159
768.000000	95.329796
767.000000	95.372404
766.000000	95.417248
765.000000	95.455418
764.000000	95.486785
763.000000	95.519034
762.000000	95.554897
761.000000	95.590352
760.000000	95.625661
759.000000	95.668335
758.000000	95.722131
757.000000	95.780674
756.000000	95.835241
755.000000	95.882850
754.000000	95.924207
753.000000	95.960179
752.000000	95.994230
751.000000	96.032782
750.000000	96.077888
749.000000	96.122774
748.000000	96.159508
747.000000	96.189551
746.000000	96.222990
745.000000	96.268082
744.000000	96.324358
743.000000	96.385438
742.000000	96.445799
741.000000	96.503872
740.000000	96.560086
739.000000	96.614298
738.000000	96.666667
737.000000	96.719936
736.000000	96.777413
735.000000	96.837396
734.000000	96.892308
733.000000	96.935146
732.000000	96.964758
731.000000	96.983758
730.000000	96.994754
729.000000	97.001517
728.000000	97.010698
727.000000	97.027640
726.000000	97.051583
725.000000	97.078869
724.000000	97.109615
723.000000	97.147088
722.000000	97.191031
721.000000	97.235580
720.000000	97.274073
719.000000	97.303278
718.000000	97.323496
717.000000	97.337719
716.000000	97.350518
715.000000	97.364594
714.000000	97.378320
713.000000	97.389283
712.000000	97.399558
711.000000	97.414197
710.000000	97.434427
709.000000	97.455130
708.000000	97.469230
707.000000	97.472510
706.000000	97.464879
705.000000	97.449320
704.000000	97.428778
703.000000	97.401214
702.000000	97.357766
701.000000	97.287699
700.000000	97.185444
699.000000	97.054110
698.000000	96.907173
697.000000	96.769291
696.000000	96.669428
695.000000	96.625292
694.000000	96.634163
693.000000	96.681142
692.000000	96.753266
691.000000	96.841755
690.000000	96.935545
689.000000	97.021878
688.000000	97.094092
687.000000	97.153231
686.000000	97.202306
685.000000	97.244368
684.000000	97.283985
683.000000	97.322910
682.000000	97.355162
681.000000	97.373851
680.000000	97.383584
679.000000	97.399445
678.000000	97.431950
677.000000	97.477923
676.000000	97.525790
675.000000	97.564472
674.000000	97.588632
673.000000	97.602168
672.000000	97.616900
671.000000	97.641478
670.000000	97.672045
669.000000	97.696617
668.000000	97.711545
667.000000	97.729743
666.000000	97.757935
665.000000	97.788915
664.000000	97.822923
663.000000	97.866816
662.000000	97.917692
661.000000	97.958569
660.000000	97.974806
659.000000	97.969703
658.000000	97.959231
657.000000	97.955778
656.000000	97.961207
655.000000	97.971037
654.000000	97.978287
653.000000	97.977172
652.000000	97.969686
651.000000	97.966847
650.000000	97.978643
