4000.000000	99.965092
3999.000000	99.964948
3998.000000	99.966067
3997.000000	99.968047
3996.000000	99.969862
3995.000000	99.970758
3994.000000	99.970615
3993.000000	99.969904
3992.000000	99.969138
3991.000000	99.968391
3990.000000	99.967630
3989.000000	99.967121
3988.000000	99.967178
3987.000000	99.967680
3986.000000	99.967996
3985.000000	99.967477
3984.000000	99.966085
3983.000000	99.964617
3982.000000	99.964167
3981.000000	99.965194
3980.000000	99.967081
3979.000000	99.968636
3978.000000	99.969156
3977.000000	99.968846
3976.000000	99.968346
3975.000000	99.968044
3974.000000	99.967892
3973.000000	99.967723
3972.000000	99.967504
3971.000000	99.967275
3970.000000	99.967037
3969.000000	99.966750
3968.000000	99.966403
3967.000000	99.966006
3966.000000	99.965506
3965.000000	99.964749
3964.000000	99.963626
3963.000000	99.962318
3962.000000	99.961346
3961.000000	99.961171
3960.000000	99.961734
3959.000000	99.962452
3958.000000	99.962687
3957.000000	99.962267
3956.000000	99.961502
3955.000000	99.960861
3954.000000	99.960582
3953.000000	99.960564
3952.000000	99.960538
3951.000000	99.960301
3950.000000	99.959846
3949.000000	99.959328
3948.000000	99.958943
3947.000000	99.958766
3946.000000	99.958747
3945.000000	99.958772
3944.000000	99.958745
3943.000000	99.958639
3942.000000	99.958453
3941.000000	99.958196
3940.000000	99.957884
3939.000000	99.957560
3938.000000	99.957288
3937.000000	99.957109
3936.000000	99.957001
3935.000000	99.956888
3934.000000	99.956706
3933.000000	99.956459
3932.000000	99.956233
3931.000000	99.956119
3930.000000	99.956130
3929.000000	99.956206
3928.000000	99.956280
3927.000000	99.956337
3926.000000	99.956400
3925.000000	99.956487
3924.000000	99.956571
3923.000000	99.956581
3922.000000	99.956466
3921.000000	99.956234
3920.000000	99.955954
3919.000000	99.955744
3918.000000	99.955732
3917.000000	99.955959
3916.000000	99.956295
3915.000000	99.956516
3914.000000	99.956487
3913.000000	99.956240
3912.000000	99.955923
3911.000000	99.955719
3910.000000	99.955763
3909.000000	99.956074
3908.000000	99.956514
3907.000000	99.956822
3906.000000	99.956795
3905.000000	99.956481
3904.000000	99.956253
3903.000000	99.956547
3902.000000	99.957537
3901.000000	99.959023
3900.000000	99.960474
3899.000000	99.961275
3898.000000	99.961044
3897.000000	99.959862
3896.000000	99.958245
3895.000000	99.956788
3894.000000	99.955839
3893.000000	99.955477
3892.000000	99.955606
3891.000000	99.956023
3890.000000	99.956374
3889.000000	99.956404
3888.000000	99.956341
3887.000000	99.956696
3886.000000	99.957697
3885.000000	99.958929
3884.000000	99.959452
3883.000000	99.958747
3882.000000	99.957401
3881.000000	99.956573
3880.000000	99.956939
3879.000000	99.958019
3878.000000	99.958719
3877.000000	99.958511
3876.000000	99.957746
3875.000000	99.957318
3874.000000	99.957929
3873.000000	99.959315
3872.000000	99.960719
3871.000000	99.961808
3870.000000	99.962496
3869.000000	99.962189
3868.000000	99.960108
3867.000000	99.956698
3866.000000	99.953444
3865.000000	99.951126
3864.000000	99.949532
3863.000000	99.948446
3862.000000	99.948117
3861.000000	99.948910
3860.000000	99.950587
3859.000000	99.952468
3858.000000	99.954176
3857.000000	99.955911
3856.000000	99.957853
3855.000000	99.959449
3854.000000	99.959984
3853.000000	99.959843
3852.000000	99.959492
3851.000000	99.958731
3850.000000	99.957847
3849.000000	99.957106
3848.000000	99.956257
3847.000000	99.955122
3846.000000	99.954005
3845.000000	99.953469
3844.000000	99.953728
3843.000000	99.954421
3842.000000	99.954905
3841.000000	99.954858
3840.000000	99.954482
3839.000000	99.954261
3838.000000	99.954490
3837.000000	99.955033
3836.000000	99.955506
3835.000000	99.955663
3834.000000	99.955543
3833.000000	99.955328
3832.000000	99.955215
3831.000000	99.955277
3830.000000	99.955463
3829.000000	99.955676
3828.000000	99.955842
3827.000000	99.955946
3826.000000	99.956003
3825.000000	99.956031
3824.000000	99.956048
3823.000000	99.956077
3822.000000	99.956137
3821.000000	99.956230
3820.000000	99.956329
3819.000000	99.956405
3818.000000	99.956452
3817.000000	99.956475
3816.000000	99.956464
3815.000000	99.956390
3814.000000	99.956240
3813.000000	99.956036
3812.000000	99.955825
3811.000000	99.955635
3810.000000	99.955469
3809.000000	99.955310
3808.000000	99.955141
3807.000000	99.954957
3806.000000	99.954773
3805.000000	99.954612
3804.000000	99.954496
3803.000000	99.954442
3802.000000	99.954437
3801.000000	99.954398
3800.000000	99.954212
3799.000000	99.953828
3798.000000	99.953308
3797.000000	99.952764
3796.000000	99.952256
3795.000000	99.951815
3794.000000	99.951481
3793.000000	99.951279
3792.000000	99.951168
3791.000000	99.951015
3790.000000	99.950667
3789.000000	99.950070
3788.000000	99.949424
3787.000000	99.949103
3786.000000	99.949362
3785.000000	99.950052
3784.000000	99.950617
3783.000000	99.950498
3782.000000	99.949563
3781.000000	99.948149
3780.000000	99.946642
3779.000000	99.945169
3778.000000	99.943741
3777.000000	99.942688
3776.000000	99.942684
3775.000000	99.944013
3774.000000	99.945960
3773.000000	99.947347
3772.000000	99.947643
3771.000000	99.947293
3770.000000	99.946769
3769.000000	99.945588
3768.000000	99.942978
3767.000000	99.939555
3766.000000	99.937443
3765.000000	99.938301
3764.000000	99.941558
3763.000000	99.944951
3762.000000	99.946641
3761.000000	99.946245
3760.000000	99.944451
3759.000000	99.942454
3758.000000	99.941134
3757.000000	99.940730
3756.000000	99.941416
3755.000000	99.943900
3754.000000	99.948922
3753.000000	99.955697
3752.000000	99.962161
3751.000000	99.967657
3750.000000	99.973021
3749.000000	99.977071
3748.000000	99.976981
3747.000000	99.972312
3746.000000	99.965985
3745.000000	99.961046
3744.000000	99.957674
3743.000000	99.953030
3742.000000	99.945679
3741.000000	99.938960
3740.000000	99.936684
3739.000000	99.938769
3738.000000	99.941805
3737.000000	99.942726
3736.000000	99.941362
3735.000000	99.939071
3734.000000	99.936741
3733.000000	99.935222
3732.000000	99.935394
3731.000000	99.936142
3730.000000	99.934868
3729.000000	99.930691
3728.000000	99.925607
3727.000000	99.922292
3726.000000	99.921380
3725.000000	99.921106
3724.000000	99.919450
3723.000000	99.915909
3722.000000	99.911418
3721.000000	99.907536
3720.000000	99.905336
3719.000000	99.904756
3718.000000	99.904740
3717.000000	99.904135
3716.000000	99.902577
3715.000000	99.900796
3714.000000	99.899600
3713.000000	99.898405
3712.000000	99.895628
3711.000000	99.890650
3710.000000	99.884423
3709.000000	99.878485
3708.000000	99.873779
3707.000000	99.870042
3706.000000	99.866358
3705.000000	99.862316
3704.000000	99.858424
3703.000000	99.855429
3702.000000	99.853392
3701.000000	99.851509
3700.000000	99.848902
3699.000000	99.845558
3698.000000	99.842346
3697.000000	99.840145
3696.000000	99.839050
3695.000000	99.838402
3694.000000	99.837346
3693.000000	99.835276
3692.000000	99.832119
3691.000000	99.828584
3690.000000	99.825884
3689.000000	99.824611
3688.000000	99.823978
3687.000000	99.822713
3686.000000	99.820534
3685.000000	99.818140
3684.000000	99.816066
3683.000000	99.813905
3682.000000	99.810801
3681.000000	99.806494
3680.000000	99.801524
3679.000000	99.796620
3678.000000	99.792402
3677.000000	99.789450
3676.000000	99.788001
3675.000000	99.787340
3674.000000	99.785942
3673.000000	99.783270
3672.000000	99.780135
3671.000000	99.777487
3670.000000	99.775506
3669.000000	99.773537
3668.000000	99.770846
3667.000000	99.767509
3666.000000	99.764043
3665.000000	99.760594
3664.000000	99.757023
3663.000000	99.753452
3662.000000	99.750335
3661.000000	99.747935
3660.000000	99.745942
3659.000000	99.743766
3658.000000	99.741230
3657.000000	99.738684
3656.000000	99.736388
3655.000000	99.733789
3654.000000	99.730006
3653.000000	99.725130
3652.000000	99.720277
3651.000000	99.716365
3650.000000	99.713326
3649.000000	99.710324
3648.000000	99.706283
3647.000000	99.701253
3646.000000	99.697009
3645.000000	99.695128
3644.000000	99.695076
3643.000000	99.694668
3642.000000	99.692240
3641.000000	99.688397
3640.000000	99.685382
3639.000000	99.684563
3638.000000	99.684773
3637.000000	99.683368
3636.000000	99.679009
3635.000000	99.672663
3634.000000	99.665817
3633.000000	99.658706
3632.000000	99.651464
3631.000000	99.646292
3630.000000	99.645963
3629.000000	99.650160
3628.000000	99.654410
3627.000000	99.654171
3626.000000	99.650338
3625.000000	99.646531
3624.000000	99.643834
3623.000000	99.641423
3622.000000	99.639389
3621.000000	99.639576
3620.000000	99.643362
3619.000000	99.649427
3618.000000	99.654615
3617.000000	99.656867
3616.000000	99.656699
3615.000000	99.656042
3614.000000	99.656706
3613.000000	99.659431
3612.000000	99.663647
3611.000000	99.668530
3610.000000	99.673946
3609.000000	99.679719
3608.000000	99.684613
3607.000000	99.686886
3606.000000	99.686110
3605.000000	99.683983
3604.000000	99.682796
3603.000000	99.683595
3602.000000	99.686265
3601.000000	99.690414
3600.000000	99.695393
3599.000000	99.699895
3598.000000	99.702495
3597.000000	99.702582
3596.000000	99.700930
3595.000000	99.699280
3594.000000	99.698829
3593.000000	99.699239
3592.000000	99.699532
3591.000000	99.699504
3590.000000	99.700007
3589.000000	99.702091
3588.000000	99.705861
3587.000000	99.710059
3586.000000	99.713060
3585.000000	99.714686
3584.000000	99.716156
3583.000000	99.718228
3582.000000	99.720358
3581.000000	99.721469
3580.000000	99.721127
3579.000000	99.720119
3578.000000	99.720018
3577.000000	99.721941
3576.000000	99.725696
3575.000000	99.729916
3574.000000	99.733066
3573.000000	99.734483
3572.000000	99.734400
3571.000000	99.733430
3570.000000	99.732233
3569.000000	99.731428
3568.000000	99.731366
3567.000000	99.731896
3566.000000	99.732464
3565.000000	99.732749
3564.000000	99.733049
3563.000000	99.733585
3562.000000	99.733984
3561.000000	99.733846
3560.000000	99.733355
3559.000000	99.733114
3558.000000	99.733499
3557.000000	99.734287
3556.000000	99.734859
3555.000000	99.734814
3554.000000	99.734408
3553.000000	99.734302
3552.000000	99.734768
3551.000000	99.735349
3550.000000	99.735494
3549.000000	99.735340
3548.000000	99.735607
3547.000000	99.736812
3546.000000	99.738731
3545.000000	99.740586
3544.000000	99.741795
3543.000000	99.742447
3542.000000	99.743004
3541.000000	99.743682
3540.000000	99.744254
3539.000000	99.744487
3538.000000	99.744651
3537.000000	99.745322
3536.000000	99.746624
3535.000000	99.747956
3534.000000	99.748668
3533.000000	99.748846
3532.000000	99.749126
3531.000000	99.749938
3530.000000	99.751148
3529.000000	99.752301
3528.000000	99.753039
3527.000000	99.753319
3526.000000	99.753402
3525.000000	99.753708
3524.000000	99.754531
3523.000000	99.755864
3522.000000	99.757489
3521.000000	99.759206
3520.000000	99.760881
3519.000000	99.762307
3518.000000	99.763232
3517.000000	99.763585
3516.000000	99.763633
3515.000000	99.763783
3514.000000	99.764227
3513.000000	99.764900
3512.000000	99.765668
3511.000000	99.766438
3510.000000	99.767149
3509.000000	99.767770
3508.000000	99.768334
3507.000000	99.768924
3506.000000	99.769592
3505.000000	99.770306
3504.000000	99.770984
3503.000000	99.771571
3502.000000	99.772056
3501.000000	99.772445
3500.000000	99.772736
3499.000000	99.772932
3498.000000	99.773096
3497.000000	99.773345
3496.000000	99.773756
3495.000000	99.774282
3494.000000	99.774766
3493.000000	99.775081
3492.000000	99.775237
3491.000000	99.775346
3490.000000	99.775519
3489.000000	99.775775
3488.000000	99.776092
3487.000000	99.776462
3486.000000	99.776892
3485.000000	99.777365
3484.000000	99.777822
3483.000000	99.778186
3482.000000	99.778396
3481.000000	99.778430
3480.000000	99.778335
3479.000000	99.778262
3478.000000	99.778400
3477.000000	99.778839
3476.000000	99.779519
3475.000000	99.780247
3474.000000	99.780834
3473.000000	99.781194
3472.000000	99.781338
3471.000000	99.781345
3470.000000	99.781320
3469.000000	99.781386
3468.000000	99.781670
3467.000000	99.782217
3466.000000	99.782918
3465.000000	99.783568
3464.000000	99.784049
3463.000000	99.784441
3462.000000	99.784936
3461.000000	99.785625
3460.000000	99.786374
3459.000000	99.786905
3458.000000	99.787031
3457.000000	99.786811
3456.000000	99.786526
3455.000000	99.786478
3454.000000	99.786798
3453.000000	99.787398
3452.000000	99.788050
3451.000000	99.788579
3450.000000	99.789131
3449.000000	99.790202
3448.000000	99.792212
3447.000000	99.794852
3446.000000	99.797037
3445.000000	99.797878
3444.000000	99.797475
3443.000000	99.796657
3442.000000	99.796065
3441.000000	99.795709
3440.000000	99.795416
3439.000000	99.795228
3438.000000	99.795259
3437.000000	99.795495
3436.000000	99.795965
3435.000000	99.796842
3434.000000	99.798094
3433.000000	99.799186
3432.000000	99.799439
3431.000000	99.798720
3430.000000	99.797695
3429.000000	99.797316
3428.000000	99.797978
3427.000000	99.799135
3426.000000	99.799766
3425.000000	99.799403
3424.000000	99.798751
3423.000000	99.799004
3422.000000	99.800433
3421.000000	99.801937
3420.000000	99.802280
3419.000000	99.801472
3418.000000	99.800516
3417.000000	99.800017
3416.000000	99.799641
3415.000000	99.798904
3414.000000	99.797810
3413.000000	99.796521
3412.000000	99.795000
3411.000000	99.793424
3410.000000	99.792561
3409.000000	99.793141
3408.000000	99.795055
3407.000000	99.797499
3406.000000	99.799804
3405.000000	99.801756
3404.000000	99.803228
3403.000000	99.804010
3402.000000	99.804167
3401.000000	99.804163
3400.000000	99.804388
3399.000000	99.804735
3398.000000	99.804817
3397.000000	99.804511
3396.000000	99.804141
3395.000000	99.804142
3394.000000	99.804660
3393.000000	99.805463
3392.000000	99.806145
3391.000000	99.806428
3390.000000	99.806319
3389.000000	99.806056
3388.000000	99.805961
3387.000000	99.806264
3386.000000	99.806981
3385.000000	99.807892
3384.000000	99.808655
3383.000000	99.809054
3382.000000	99.809112
3381.000000	99.808996
3380.000000	99.808865
3379.000000	99.808834
3378.000000	99.809017
3377.000000	99.809496
3376.000000	99.810199
3375.000000	99.810900
3374.000000	99.811402
3373.000000	99.811709
3372.000000	99.811963
3371.000000	99.812290
3370.000000	99.812676
3369.000000	99.813019
3368.000000	99.813246
3367.000000	99.813369
3366.000000	99.813431
3365.000000	99.813468
3364.000000	99.813481
3363.000000	99.813464
3362.000000	99.813439
3361.000000	99.813471
3360.000000	99.813605
3359.000000	99.813785
3358.000000	99.813863
3357.000000	99.813746
3356.000000	99.813513
3355.000000	99.813356
3354.000000	99.813369
3353.000000	99.813481
3352.000000	99.813619
3351.000000	99.813851
3350.000000	99.814276
3349.000000	99.814808
3348.000000	99.815177
3347.000000	99.815182
3346.000000	99.814909
3345.000000	99.814643
3344.000000	99.814587
3343.000000	99.814663
3342.000000	99.814558
3341.000000	99.813972
3340.000000	99.812866
3339.000000	99.811568
3338.000000	99.810633
3337.000000	99.810565
3336.000000	99.811497
3335.000000	99.812978
3334.000000	99.814137
3333.000000	99.814391
3332.000000	99.814034
3331.000000	99.813928
3330.000000	99.814422
3329.000000	99.814766
3328.000000	99.813894
3327.000000	99.811737
3326.000000	99.809479
3325.000000	99.808375
3324.000000	99.808519
3323.000000	99.808998
3322.000000	99.809094
3321.000000	99.809068
3320.000000	99.809681
3319.000000	99.811220
3318.000000	99.813230
3317.000000	99.815095
3316.000000	99.816577
3315.000000	99.817669
3314.000000	99.818241
3313.000000	99.818201
3312.000000	99.817946
3311.000000	99.818339
3310.000000	99.819951
3309.000000	99.822370
3308.000000	99.824391
3307.000000	99.825032
3306.000000	99.824269
3305.000000	99.822799
3304.000000	99.821253
3303.000000	99.819753
3302.000000	99.818230
3301.000000	99.816950
3300.000000	99.816421
3299.000000	99.816685
3298.000000	99.817044
3297.000000	99.816737
3296.000000	99.815845
3295.000000	99.815207
3294.000000	99.815433
3293.000000	99.816264
3292.000000	99.816940
3291.000000	99.816996
3290.000000	99.816552
3289.000000	99.815999
3288.000000	99.815605
3287.000000	99.815409
3286.000000	99.815343
3285.000000	99.815372
3284.000000	99.815529
3283.000000	99.815819
3282.000000	99.816094
3281.000000	99.816095
3280.000000	99.815689
3279.000000	99.814984
3278.000000	99.814251
3277.000000	99.813704
3276.000000	99.813386
3275.000000	99.813246
3274.000000	99.813211
3273.000000	99.813201
3272.000000	99.813134
3271.000000	99.812970
3270.000000	99.812738
3269.000000	99.812472
3268.000000	99.812159
3267.000000	99.811778
3266.000000	99.811390
3265.000000	99.811113
3264.000000	99.811002
3263.000000	99.810978
3262.000000	99.810854
3261.000000	99.810468
3260.000000	99.809826
3259.000000	99.809201
3258.000000	99.808962
3257.000000	99.809253
3256.000000	99.809791
3255.000000	99.810047
3254.000000	99.809749
3253.000000	99.809116
3252.000000	99.808649
3251.000000	99.808671
3250.000000	99.809123
3249.000000	99.809737
3248.000000	99.810244
3247.000000	99.810485
3246.000000	99.810435
3245.000000	99.810178
3244.000000	99.809804
3243.000000	99.809328
3242.000000	99.808753
3241.000000	99.808176
3240.000000	99.807750
3239.000000	99.807617
3238.000000	99.807951
3237.000000	99.808998
3236.000000	99.810856
3235.000000	99.813192
3234.000000	99.815247
3233.000000	99.816322
3232.000000	99.816281
3231.000000	99.815586
3230.000000	99.814884
3229.000000	99.814532
3228.000000	99.814480
3227.000000	99.814453
3226.000000	99.814183
3225.000000	99.813540
3224.000000	99.812627
3223.000000	99.811797
3222.000000	99.811454
3221.000000	99.811661
3220.000000	99.812018
3219.000000	99.812078
3218.000000	99.811836
3217.000000	99.811625
3216.000000	99.811567
3215.000000	99.811444
3214.000000	99.811174
3213.000000	99.811103
3212.000000	99.811558
3211.000000	99.812282
3210.000000	99.812600
3209.000000	99.812138
3208.000000	99.811123
3207.000000	99.810100
3206.000000	99.809495
3205.000000	99.809473
3204.000000	99.810018
3203.000000	99.810909
3202.000000	99.811705
3201.000000	99.812049
3200.000000	99.811985
3199.000000	99.811850
3198.000000	99.811909
3197.000000	99.812136
3196.000000	99.812371
3195.000000	99.812531
3194.000000	99.812653
3193.000000	99.812776
3192.000000	99.812882
3191.000000	99.812951
3190.000000	99.813002
3189.000000	99.813069
3188.000000	99.813171
3187.000000	99.813313
3186.000000	99.813490
3185.000000	99.813694
3184.000000	99.813902
3183.000000	99.814096
3182.000000	99.814275
3181.000000	99.814460
3180.000000	99.814665
3179.000000	99.814881
3178.000000	99.815085
3177.000000	99.815270
3176.000000	99.815472
3175.000000	99.815731
3174.000000	99.816054
3173.000000	99.816409
3172.000000	99.816756
3171.000000	99.817073
3170.000000	99.817357
3169.000000	99.817610
3168.000000	99.817835
3167.000000	99.818041
3166.000000	99.818239
3165.000000	99.818451
3164.000000	99.818692
3163.000000	99.818964
3162.000000	99.819252
3161.000000	99.819519
3160.000000	99.819720
3159.000000	99.819834
3158.000000	99.819900
3157.000000	99.820015
3156.000000	99.820246
3155.000000	99.820590
3154.000000	99.820977
3153.000000	99.821358
3152.000000	99.821737
3151.000000	99.822130
3150.000000	99.822513
3149.000000	99.822828
3148.000000	99.823040
3147.000000	99.823190
3146.000000	99.823370
3145.000000	99.823650
3144.000000	99.824004
3143.000000	99.824334
3142.000000	99.824554
3141.000000	99.824674
3140.000000	99.824789
3139.000000	99.824985
3138.000000	99.825261
3137.000000	99.825562
3136.000000	99.825864
3135.000000	99.826209
3134.000000	99.826641
3133.000000	99.827123
3132.000000	99.827527
3131.000000	99.827717
3130.000000	99.827627
3129.000000	99.827314
3128.000000	99.826989
3127.000000	99.826939
3126.000000	99.827350
3125.000000	99.828204
3124.000000	99.829292
3123.000000	99.830337
3122.000000	99.831117
3121.000000	99.831507
3120.000000	99.831522
3119.000000	99.831367
3118.000000	99.831349
3117.000000	99.831664
3116.000000	99.832256
3115.000000	99.832885
3114.000000	99.833324
3113.000000	99.833471
3112.000000	99.833337
3111.000000	99.833029
3110.000000	99.832755
3109.000000	99.832738
3108.000000	99.833030
3107.000000	99.833497
3106.000000	99.834015
3105.000000	99.834638
3104.000000	99.835458
3103.000000	99.836332
3102.000000	99.836914
3101.000000	99.837020
3100.000000	99.836863
3099.000000	99.836874
3098.000000	99.837289
3097.000000	99.837965
3096.000000	99.838546
3095.000000	99.838779
3094.000000	99.838660
3093.000000	99.838360
3092.000000	99.838065
3091.000000	99.837866
3090.000000	99.837788
3089.000000	99.837847
3088.000000	99.838066
3087.000000	99.838414
3086.000000	99.838779
3085.000000	99.839082
3084.000000	99.839383
3083.000000	99.839802
3082.000000	99.840367
3081.000000	99.841014
3080.000000	99.841684
3079.000000	99.842325
3078.000000	99.842821
3077.000000	99.843017
3076.000000	99.842893
3075.000000	99.842667
3074.000000	99.842649
3073.000000	99.842984
3072.000000	99.843614
3071.000000	99.844437
3070.000000	99.845376
3069.000000	99.846272
3068.000000	99.846870
3067.000000	99.847044
3066.000000	99.846945
3065.000000	99.846913
3064.000000	99.847165
3063.000000	99.847641
3062.000000	99.848145
3061.000000	99.848542
3060.000000	99.848867
3059.000000	99.849237
3058.000000	99.849708
3057.000000	99.850215
3056.000000	99.850635
3055.000000	99.850904
3054.000000	99.851057
3053.000000	99.851176
3052.000000	99.851303
3051.000000	99.851441
3050.000000	99.851602
3049.000000	99.851872
3048.000000	99.852364
3047.000000	99.853111
3046.000000	99.853985
3045.000000	99.854737
3044.000000	99.855190
3043.000000	99.855338
3042.000000	99.855364
3041.000000	99.855520
3040.000000	99.855952
3039.000000	99.856660
3038.000000	99.857549
3037.000000	99.858485
3036.000000	99.859360
3035.000000	99.860135
3034.000000	99.860811
3033.000000	99.861344
3032.000000	99.861692
3031.000000	99.862014
3030.000000	99.862694
3029.000000	99.863956
3028.000000	99.865464
3027.000000	99.866520
3026.000000	99.866754
3025.000000	99.866485
3024.000000	99.866424
3023.000000	99.867025
3022.000000	99.868282
3021.000000	99.870010
3020.000000	99.872036
3019.000000	99.874053
3018.000000	99.875495
3017.000000	99.875866
3016.000000	99.875214
3015.000000	99.874186
3014.000000	99.873603
3013.000000	99.873891
3012.000000	99.874820
3011.000000	99.875701
3010.000000	99.875882
3009.000000	99.875259
3008.000000	99.874626
3007.000000	99.875592
3006.000000	99.879670
3005.000000	99.886752
3004.000000	99.894471
3003.000000	99.899812
3002.000000	99.901695
3001.000000	99.901630
3000.000000	99.901751
2999.000000	99.902625
2998.000000	99.903357
2997.000000	99.903409
2996.000000	99.903540
2995.000000	99.904734
2994.000000	99.906693
2993.000000	99.908099
2992.000000	99.908495
2991.000000	99.909347
2990.000000	99.912556
2989.000000	99.918140
2988.000000	99.924282
2987.000000	99.929774
2986.000000	99.935412
2985.000000	99.942403
2984.000000	99.950304
2983.000000	99.957422
2982.000000	99.962588
2981.000000	99.965656
2980.000000	99.967025
2979.000000	99.967688
2978.000000	99.969000
2977.000000	99.971125
2976.000000	99.972262
2975.000000	99.970793
2974.000000	99.967554
2973.000000	99.964287
2972.000000	99.960379
2971.000000	99.953578
2970.000000	99.944127
2969.000000	99.935648
2968.000000	99.930815
2967.000000	99.928187
2966.000000	99.924876
2965.000000	99.920659
2964.000000	99.917633
2963.000000	99.916739
2962.000000	99.916405
2961.000000	99.914324
2960.000000	99.909459
2959.000000	99.902903
2958.000000	99.897771
2957.000000	99.897422
2956.000000	99.902395
2955.000000	99.909182
2954.000000	99.913069
2953.000000	99.912406
2952.000000	99.909183
2951.000000	99.906112
2950.000000	99.904311
2949.000000	99.903494
2948.000000	99.902885
2947.000000	99.901576
2946.000000	99.899173
2945.000000	99.896630
2944.000000	99.895766
2943.000000	99.897489
2942.000000	99.900860
2941.000000	99.904077
2940.000000	99.906059
2939.000000	99.906974
2938.000000	99.907615
2937.000000	99.908542
2936.000000	99.909614
2935.000000	99.910195
2934.000000	99.909811
2933.000000	99.908500
2932.000000	99.906539
2931.000000	99.904124
2930.000000	99.901503
2929.000000	99.899201
2928.000000	99.897800
2927.000000	99.897587
2926.000000	99.898595
2925.000000	99.900666
2924.000000	99.903149
2923.000000	99.904857
2922.000000	99.904954
2921.000000	99.903887
2920.000000	99.903081
2919.000000	99.903558
2918.000000	99.905121
2917.000000	99.906815
2916.000000	99.907841
2915.000000	99.908007
2914.000000	99.907685
2913.000000	99.907661
2912.000000	99.908659
2911.000000	99.910670
2910.000000	99.912747
2909.000000	99.913827
2908.000000	99.913743
2907.000000	99.913236
2906.000000	99.913134
2905.000000	99.913618
2904.000000	99.914301
2903.000000	99.914789
2902.000000	99.915089
2901.000000	99.915579
2900.000000	99.916618
2899.000000	99.918105
2898.000000	99.919457
2897.000000	99.920101
2896.000000	99.920006
2895.000000	99.919674
2894.000000	99.919687
2893.000000	99.920338
2892.000000	99.921622
2891.000000	99.923329
2890.000000	99.925052
2889.000000	99.926264
2888.000000	99.926555
2887.000000	99.925871
2886.000000	99.924512
2885.000000	99.922859
2884.000000	99.921202
2883.000000	99.919934
2882.000000	99.919794
2881.000000	99.921427
2880.000000	99.924410
2879.000000	99.927048
2878.000000	99.927831
2877.000000	99.926832
2876.000000	99.925245
2875.000000	99.923743
2874.000000	99.921846
2873.000000	99.919062
2872.000000	99.915831
2871.000000	99.912997
2870.000000	99.910986
2869.000000	99.909816
2868.000000	99.909221
2867.000000	99.908479
2866.000000	99.906808
2865.000000	99.904463
2864.000000	99.902779
2863.000000	99.902538
2862.000000	99.902937
2861.000000	99.902854
2860.000000	99.902473
2859.000000	99.902622
2858.000000	99.903078
2857.000000	99.902787
2856.000000	99.901511
2855.000000	99.900063
2854.000000	99.898853
2853.000000	99.897439
2852.000000	99.895834
2851.000000	99.895109
2850.000000	99.895962
2849.000000	99.897510
2848.000000	99.898242
2847.000000	99.897871
2846.000000	99.897487
2845.000000	99.898090
2844.000000	99.899598
2843.000000	99.901202
2842.000000	99.902106
2841.000000	99.901960
2840.000000	99.900975
2839.000000	99.899827
2838.000000	99.899203
2837.000000	99.899240
2836.000000	99.899530
2835.000000	99.899617
2834.000000	99.899388
2833.000000	99.899023
2832.000000	99.898764
2831.000000	99.898779
2830.000000	99.899083
2829.000000	99.899517
2828.000000	99.899847
2827.000000	99.899952
2826.000000	99.899932
2825.000000	99.899997
2824.000000	99.900271
2823.000000	99.900694
2822.000000	99.901114
2821.000000	99.901424
2820.000000	99.901623
2819.000000	99.901767
2818.000000	99.901907
2817.000000	99.902076
2816.000000	99.902303
2815.000000	99.902597
2814.000000	99.902936
2813.000000	99.903283
2812.000000	99.903621
2811.000000	99.903956
2810.000000	99.904292
2809.000000	99.904626
2808.000000	99.904958
2807.000000	99.905295
2806.000000	99.905643
2805.000000	99.906006
2804.000000	99.906380
2803.000000	99.906754
2802.000000	99.907123
2801.000000	99.907489
2800.000000	99.907864
2799.000000	99.908256
2798.000000	99.908669
2797.000000	99.909103
2796.000000	99.909551
2795.000000	99.910004
2794.000000	99.910455
2793.000000	99.910895
2792.000000	99.911317
2791.000000	99.911721
2790.000000	99.912113
2789.000000	99.912504
2788.000000	99.912898
2787.000000	99.913298
2786.000000	99.913702
2785.000000	99.914108
2784.000000	99.914518
2783.000000	99.914933
2782.000000	99.915354
2781.000000	99.915781
2780.000000	99.916212
2779.000000	99.916642
2778.000000	99.917068
2777.000000	99.917490
2776.000000	99.917907
2775.000000	99.918318
2774.000000	99.918727
2773.000000	99.919135
2772.000000	99.919542
2771.000000	99.919942
2770.000000	99.920330
2769.000000	99.920703
2768.000000	99.921063
2767.000000	99.921416
2766.000000	99.921766
2765.000000	99.922117
2764.000000	99.922462
2763.000000	99.922793
2762.000000	99.923100
2761.000000	99.923385
2760.000000	99.923658
2759.000000	99.923928
2758.000000	99.924196
2757.000000	99.924455
2756.000000	99.924695
2755.000000	99.924912
2754.000000	99.925112
2753.000000	99.925300
2752.000000	99.925477
2751.000000	99.925646
2750.000000	99.925810
2749.000000	99.925981
2748.000000	99.926168
2747.000000	99.926374
2746.000000	99.926589
2745.000000	99.926801
2744.000000	99.926997
2743.000000	99.927170
2742.000000	99.927316
2741.000000	99.927435
2740.000000	99.927534
2739.000000	99.927618
2738.000000	99.927692
2737.000000	99.927758
2736.000000	99.927814
2735.000000	99.927863
2734.000000	99.927908
2733.000000	99.927954
2732.000000	99.928003
2731.000000	99.928047
2730.000000	99.928076
2729.000000	99.928079
2728.000000	99.928057
2727.000000	99.928023
2726.000000	99.927991
2725.000000	99.927972
2724.000000	99.927965
2723.000000	99.927955
2722.000000	99.927930
2721.000000	99.927887
2720.000000	99.927832
2719.000000	99.927774
2718.000000	99.927715
2717.000000	99.927647
2716.000000	99.927565
2715.000000	99.927467
2714.000000	99.927356
2713.000000	99.927230
2712.000000	99.927079
2711.000000	99.926888
2710.000000	99.926652
2709.000000	99.926392
2708.000000	99.926148
2707.000000	99.925961
2706.000000	99.925828
2705.000000	99.925670
2704.000000	99.925370
2703.000000	99.924874
2702.000000	99.924223
2701.000000	99.923551
2700.000000	99.923010
2699.000000	99.922674
2698.000000	99.922516
2697.000000	99.922420
2696.000000	99.922271
2695.000000	99.922038
2694.000000	99.921765
2693.000000	99.921506
2692.000000	99.921251
2691.000000	99.920924
2690.000000	99.920449
2689.000000	99.919830
2688.000000	99.919154
2687.000000	99.918547
2686.000000	99.918115
2685.000000	99.917907
2684.000000	99.917846
2683.000000	99.917734
2682.000000	99.917401
2681.000000	99.916855
2680.000000	99.916266
2679.000000	99.915805
2678.000000	99.915491
2677.000000	99.915252
2676.000000	99.915048
2675.000000	99.914893
2674.000000	99.914795
2673.000000	99.914735
2672.000000	99.914692
2671.000000	99.914664
2670.000000	99.914670
2669.000000	99.914734
2668.000000	99.914870
2667.000000	99.915065
2666.000000	99.915275
2665.000000	99.915467
2664.000000	99.915644
2663.000000	99.915839
2662.000000	99.916075
2661.000000	99.916351
2660.000000	99.916654
2659.000000	99.916951
2658.000000	99.917219
2657.000000	99.917449
2656.000000	99.917654
2655.000000	99.917856
2654.000000	99.918064
2653.000000	99.918279
2652.000000	99.918499
2651.000000	99.918721
2650.000000	99.918946
2649.000000	99.919174
2648.000000	99.919411
2647.000000	99.919669
2646.000000	99.919969
2645.000000	99.920316
2644.000000	99.920693
2643.000000	99.921065
2642.000000	99.921400
2641.000000	99.921691
2640.000000	99.921951
2639.000000	99.922213
2638.000000	99.922505
2637.000000	99.922840
2636.000000	99.923205
2635.000000	99.923546
2634.000000	99.923794
2633.000000	99.923930
2632.000000	99.924000
2631.000000	99.924050
2630.000000	99.924066
2629.000000	99.924022
2628.000000	99.923952
2627.000000	99.923910
2626.000000	99.923884
2625.000000	99.923776
2624.000000	99.923513
2623.000000	99.923118
2622.000000	99.922714
2621.000000	99.922432
2620.000000	99.922321
2619.000000	99.922341
2618.000000	99.922395
2617.000000	99.922408
2616.000000	99.922376
2615.000000	99.922323
2614.000000	99.922256
2613.000000	99.922165
2612.000000	99.922064
2611.000000	99.922003
2610.000000	99.922016
2609.000000	99.922077
2608.000000	99.922114
2607.000000	99.922066
2606.000000	99.921939
2605.000000	99.921780
2604.000000	99.921642
2603.000000	99.921535
2602.000000	99.921438
2601.000000	99.921330
2600.000000	99.921199
2599.000000	99.921051
2598.000000	99.920889
2597.000000	99.920714
2596.000000	99.920531
2595.000000	99.920349
2594.000000	99.920176
2593.000000	99.920016
2592.000000	99.919874
2591.000000	99.919757
2590.000000	99.919668
2589.000000	99.919600
2588.000000	99.919542
2587.000000	99.919489
2586.000000	99.919445
2585.000000	99.919411
2584.000000	99.919387
2583.000000	99.919368
2582.000000	99.919348
2581.000000	99.919327
2580.000000	99.919304
2579.000000	99.919273
2578.000000	99.919229
2577.000000	99.919170
2576.000000	99.919100
2575.000000	99.919033
2574.000000	99.918977
2573.000000	99.918938
2572.000000	99.918909
2571.000000	99.918880
2570.000000	99.918837
2569.000000	99.918770
2568.000000	99.918678
2567.000000	99.918571
2566.000000	99.918463
2565.000000	99.918367
2564.000000	99.918286
2563.000000	99.918212
2562.000000	99.918136
2561.000000	99.918049
2560.000000	99.917951
2559.000000	99.917850
2558.000000	99.917752
2557.000000	99.917665
2556.000000	99.917588
2555.000000	99.917517
2554.000000	99.917448
2553.000000	99.917374
2552.000000	99.917300
2551.000000	99.917234
2550.000000	99.917184
2549.000000	99.917151
2548.000000	99.917131
2547.000000	99.917119
2546.000000	99.917116
2545.000000	99.917125
2544.000000	99.917144
2543.000000	99.917168
2542.000000	99.917189
2541.000000	99.917206
2540.000000	99.917222
2539.000000	99.917248
2538.000000	99.917291
2537.000000	99.917351
2536.000000	99.917418
2535.000000	99.917470
2534.000000	99.917495
2533.000000	99.917503
2532.000000	99.917508
2531.000000	99.917505
2530.000000	99.917486
2529.000000	99.917456
2528.000000	99.917441
2527.000000	99.917474
2526.000000	99.917565
2525.000000	99.917694
2524.000000	99.917812
2523.000000	99.917881
2522.000000	99.917885
2521.000000	99.917860
2520.000000	99.917880
2519.000000	99.917994
2518.000000	99.918185
2517.000000	99.918391
2516.000000	99.918572
2515.000000	99.918714
2514.000000	99.918816
2513.000000	99.918913
2512.000000	99.919098
2511.000000	99.919444
2510.000000	99.919914
2509.000000	99.920366
2508.000000	99.920709
2507.000000	99.920992
2506.000000	99.921323
2505.000000	99.921746
2504.000000	99.922177
2503.000000	99.922476
2502.000000	99.922550
2501.000000	99.922425
2500.000000	99.922268
2499.000000	99.922276
2498.000000	99.922509
2497.000000	99.922834
2496.000000	99.923091
2495.000000	99.923300
2494.000000	99.923627
2493.000000	99.924140
2492.000000	99.924674
2491.000000	99.924999
2490.000000	99.925073
2489.000000	99.925077
2488.000000	99.925210
2487.000000	99.925472
2486.000000	99.925692
2485.000000	99.925737
2484.000000	99.925648
2483.000000	99.925598
2482.000000	99.925725
2481.000000	99.926039
2480.000000	99.926413
2479.000000	99.926671
2478.000000	99.926778
2477.000000	99.926923
2476.000000	99.927350
2475.000000	99.928114
2474.000000	99.929032
2473.000000	99.929841
2472.000000	99.930436
2471.000000	99.930911
2470.000000	99.931403
2469.000000	99.931913
2468.000000	99.932261
2467.000000	99.932262
2466.000000	99.931942
2465.000000	99.931610
2464.000000	99.931640
2463.000000	99.932134
2462.000000	99.932906
2461.000000	99.933664
2460.000000	99.934238
2459.000000	99.934617
2458.000000	99.934844
2457.000000	99.934966
2456.000000	99.935056
2455.000000	99.935204
2454.000000	99.935499
2453.000000	99.935996
2452.000000	99.936678
2451.000000	99.937416
2450.000000	99.938046
2449.000000	99.938489
2448.000000	99.938775
2447.000000	99.938996
2446.000000	99.939255
2445.000000	99.939660
2444.000000	99.940269
2443.000000	99.941028
2442.000000	99.941815
2441.000000	99.942567
2440.000000	99.943291
2439.000000	99.943955
2438.000000	99.944472
2437.000000	99.944826
2436.000000	99.945145
2435.000000	99.945548
2434.000000	99.946008
2433.000000	99.946455
2432.000000	99.946939
2431.000000	99.947575
2430.000000	99.948323
2429.000000	99.948967
2428.000000	99.949365
2427.000000	99.949589
2426.000000	99.949763
2425.000000	99.949918
2424.000000	99.950080
2423.000000	99.950395
2422.000000	99.951040
2421.000000	99.952020
2420.000000	99.953074
2419.000000	99.953840
2418.000000	99.954116
2417.000000	99.954024
2416.000000	99.953959
2415.000000	99.954260
2414.000000	99.954938
2413.000000	99.955749
2412.000000	99.956448
2411.000000	99.956875
2410.000000	99.956868
2409.000000	99.956358
2408.000000	99.955629
2407.000000	99.955238
2406.000000	99.955482
2405.000000	99.956122
2404.000000	99.956754
2403.000000	99.957371
2402.000000	99.958288
2401.000000	99.959646
2400.000000	99.961165
2399.000000	99.962371
2398.000000	99.962901
2397.000000	99.962665
2396.000000	99.961897
2395.000000	99.961037
2394.000000	99.960505
2393.000000	99.960442
2392.000000	99.960715
2391.000000	99.961156
2390.000000	99.961727
2389.000000	99.962456
2388.000000	99.963264
2387.000000	99.963943
2386.000000	99.964318
2385.000000	99.964409
2384.000000	99.964401
2383.000000	99.964456
2382.000000	99.964579
2381.000000	99.964697
2380.000000	99.964794
2379.000000	99.964934
2378.000000	99.965153
2377.000000	99.965404
2376.000000	99.965592
2375.000000	99.965667
2374.000000	99.965658
2373.000000	99.965626
2372.000000	99.965608
2371.000000	99.965605
2370.000000	99.965601
2369.000000	99.965590
2368.000000	99.965571
2367.000000	99.965543
2366.000000	99.965504
2365.000000	99.965455
2364.000000	99.965391
2363.000000	99.965311
2362.000000	99.965211
2361.000000	99.965090
2360.000000	99.964952
2359.000000	99.964807
2358.000000	99.964665
2357.000000	99.964527
2356.000000	99.964384
2355.000000	99.964227
2354.000000	99.964053
2353.000000	99.963871
2352.000000	99.963696
2351.000000	99.963536
2350.000000	99.963388
2349.000000	99.963244
2348.000000	99.963095
2347.000000	99.962940
2346.000000	99.962776
2345.000000	99.962605
2344.000000	99.962428
2343.000000	99.962248
2342.000000	99.962072
2341.000000	99.961905
2340.000000	99.961752
2339.000000	99.961613
2338.000000	99.961482
2337.000000	99.961351
2336.000000	99.961212
2335.000000	99.961065
2334.000000	99.960911
2333.000000	99.960762
2332.000000	99.960622
2331.000000	99.960496
2330.000000	99.960376
2329.000000	99.960255
2328.000000	99.960126
2327.000000	99.959987
2326.000000	99.959842
2325.000000	99.959695
2324.000000	99.959545
2323.000000	99.959391
2322.000000	99.959229
2321.000000	99.959059
2320.000000	99.958882
2319.000000	99.958699
2318.000000	99.958505
2317.000000	99.958291
2316.000000	99.958048
2315.000000	99.957771
2314.000000	99.957464
2313.000000	99.957139
2312.000000	99.956808
2311.000000	99.956478
2310.000000	99.956149
2309.000000	99.955814
2308.000000	99.955456
2307.000000	99.955055
2306.000000	99.954610
2305.000000	99.954129
2304.000000	99.953625
2303.000000	99.953114
2302.000000	99.952617
2301.000000	99.952153
2300.000000	99.951716
2299.000000	99.951270
2298.000000	99.950774
2297.000000	99.950204
2296.000000	99.949571
2295.000000	99.948918
2294.000000	99.948298
2293.000000	99.947747
2292.000000	99.947265
2291.000000	99.946805
2290.000000	99.946300
2289.000000	99.945696
2288.000000	99.944967
2287.000000	99.944143
2286.000000	99.943315
2285.000000	99.942587
2284.000000	99.942007
2283.000000	99.941543
2282.000000	99.941125
2281.000000	99.940675
2280.000000	99.940099
2279.000000	99.939300
2278.000000	99.938283
2277.000000	99.937235
2276.000000	99.936394
2275.000000	99.935796
2274.000000	99.935282
2273.000000	99.934771
2272.000000	99.934389
2271.000000	99.934249
2270.000000	99.934253
2269.000000	99.934179
2268.000000	99.933918
2267.000000	99.933526
2266.000000	99.933111
2265.000000	99.932749
2264.000000	99.932461
2263.000000	99.932209
2262.000000	99.931910
2261.000000	99.931527
2260.000000	99.931122
2259.000000	99.930763
2258.000000	99.930423
2257.000000	99.930035
2256.000000	99.929637
2255.000000	99.929353
2254.000000	99.929221
2253.000000	99.929142
2252.000000	99.928983
2251.000000	99.928714
2250.000000	99.928389
2249.000000	99.928071
2248.000000	99.927800
2247.000000	99.927610
2246.000000	99.927515
2245.000000	99.927476
2244.000000	99.927425
2243.000000	99.927332
2242.000000	99.927220
2241.000000	99.927119
2240.000000	99.927039
2239.000000	99.926967
2238.000000	99.926889
2237.000000	99.926796
2236.000000	99.926691
2235.000000	99.926584
2234.000000	99.926487
2233.000000	99.926401
2232.000000	99.926315
2231.000000	99.926216
2230.000000	99.926093
2229.000000	99.925945
2228.000000	99.925767
2227.000000	99.925553
2226.000000	99.925323
2225.000000	99.925116
2224.000000	99.924954
2223.000000	99.924833
2222.000000	99.924770
2221.000000	99.924798
2220.000000	99.924904
2219.000000	99.925008
2218.000000	99.925043
2217.000000	99.925016
2216.000000	99.924943
2215.000000	99.924784
2214.000000	99.924518
2213.000000	99.924229
2212.000000	99.924046
2211.000000	99.924008
2210.000000	99.924085
2209.000000	99.924242
2208.000000	99.924394
2207.000000	99.924377
2206.000000	99.924150
2205.000000	99.923989
2204.000000	99.924215
2203.000000	99.924664
2202.000000	99.924709
2201.000000	99.923987
2200.000000	99.922883
2199.000000	99.922083
2198.000000	99.921707
2197.000000	99.921337
2196.000000	99.920832
2195.000000	99.920716
2194.000000	99.921475
2193.000000	99.922876
2192.000000	99.924177
2191.000000	99.924842
2190.000000	99.924893
2189.000000	99.924696
2188.000000	99.924646
2187.000000	99.924932
2186.000000	99.925420
2185.000000	99.925734
2184.000000	99.925597
2183.000000	99.925109
2182.000000	99.924614
2181.000000	99.924322
2180.000000	99.924196
2179.000000	99.924208
2178.000000	99.924497
2177.000000	99.925132
2176.000000	99.925889
2175.000000	99.926470
2174.000000	99.926879
2173.000000	99.927401
2172.000000	99.928205
2171.000000	99.929114
2170.000000	99.929796
2169.000000	99.930061
2168.000000	99.929950
2167.000000	99.929667
2166.000000	99.929445
2165.000000	99.929371
2164.000000	99.929304
2163.000000	99.929071
2162.000000	99.928795
2161.000000	99.928845
2160.000000	99.929385
2159.000000	99.930134
2158.000000	99.930672
2157.000000	99.930920
2156.000000	99.931121
2155.000000	99.931450
2154.000000	99.931803
2153.000000	99.931990
2152.000000	99.931968
2151.000000	99.931814
2150.000000	99.931691
2149.000000	99.931745
2148.000000	99.932004
2147.000000	99.932360
2146.000000	99.932666
2145.000000	99.932890
2144.000000	99.933095
2143.000000	99.933326
2142.000000	99.933580
2141.000000	99.933837
2140.000000	99.934103
2139.000000	99.934377
2138.000000	99.934658
2137.000000	99.934943
2136.000000	99.935232
2135.000000	99.935521
2134.000000	99.935809
2133.000000	99.936098
2132.000000	99.936392
2131.000000	99.936695
2130.000000	99.937006
2129.000000	99.937323
2128.000000	99.937648
2127.000000	99.937985
2126.000000	99.938337
2125.000000	99.938705
2124.000000	99.939085
2123.000000	99.939477
2122.000000	99.939876
2121.000000	99.940280
2120.000000	99.940685
2119.000000	99.941087
2118.000000	99.941486
2117.000000	99.941880
2116.000000	99.942271
2115.000000	99.942660
2114.000000	99.943050
2113.000000	99.943446
2112.000000	99.943854
2111.000000	99.944278
2110.000000	99.944715
2109.000000	99.945155
2108.000000	99.945588
2107.000000	99.946011
2106.000000	99.946430
2105.000000	99.946853
2104.000000	99.947286
2103.000000	99.947727
2102.000000	99.948170
2101.000000	99.948612
2100.000000	99.949053
2099.000000	99.949497
2098.000000	99.949947
2097.000000	99.950404
2096.000000	99.950864
2095.000000	99.951323
2094.000000	99.951782
2093.000000	99.952241
2092.000000	99.952705
2091.000000	99.953175
2090.000000	99.953651
2089.000000	99.954133
2088.000000	99.954618
2087.000000	99.955104
2086.000000	99.955591
2085.000000	99.956076
2084.000000	99.956557
2083.000000	99.957033
2082.000000	99.957503
2081.000000	99.957966
2080.000000	99.958422
2079.000000	99.958874
2078.000000	99.959327
2077.000000	99.959785
2076.000000	99.960249
2075.000000	99.960714
2074.000000	99.961166
2073.000000	99.961606
2072.000000	99.962064
2071.000000	99.962549
2070.000000	99.963009
2069.000000	99.963370
2068.000000	99.963680
2067.000000	99.964090
2066.000000	99.964610
2065.000000	99.965036
2064.000000	99.965259
2063.000000	99.965489
2062.000000	99.965976
2061.000000	99.966669
2060.000000	99.967278
2059.000000	99.967580
2058.000000	99.967574
2057.000000	99.967431
2056.000000	99.967328
2055.000000	99.967354
2054.000000	99.967486
2053.000000	99.967621
2052.000000	99.967685
2051.000000	99.967695
2050.000000	99.967732
2049.000000	99.967853
2048.000000	99.968014
2047.000000	99.968083
2046.000000	99.967959
2045.000000	99.967692
2044.000000	99.967434
2043.000000	99.967257
2042.000000	99.967085
2041.000000	99.966839
2040.000000	99.966578
2039.000000	99.966425
2038.000000	99.966397
2037.000000	99.966363
2036.000000	99.966174
2035.000000	99.965770
2034.000000	99.965177
2033.000000	99.964477
2032.000000	99.963801
2031.000000	99.963270
2030.000000	99.962914
2029.000000	99.962668
2028.000000	99.962429
2027.000000	99.962117
2026.000000	99.961696
2025.000000	99.961163
2024.000000	99.960573
2023.000000	99.960045
2022.000000	99.959661
2021.000000	99.959397
2020.000000	99.959135
2019.000000	99.958778
2018.000000	99.958323
2017.000000	99.957819
2016.000000	99.957285
2015.000000	99.956704
2014.000000	99.956066
2013.000000	99.955395
2012.000000	99.954732
2011.000000	99.954123
2010.000000	99.953586
2009.000000	99.953087
2008.000000	99.952553
2007.000000	99.951931
2006.000000	99.951246
2005.000000	99.950628
2004.000000	99.950252
2003.000000	99.950204
2002.000000	99.950357
2001.000000	99.950422
2000.000000	99.950195
1999.000000	99.949685
1998.000000	99.948964
1997.000000	99.948023
1996.000000	99.946899
1995.000000	99.945822
1994.000000	99.945045
1993.000000	99.944576
1992.000000	99.944282
1991.000000	99.944201
1990.000000	99.944456
1989.000000	99.944848
1988.000000	99.944940
1987.000000	99.944643
1986.000000	99.944412
1985.000000	99.944682
1984.000000	99.945290
1983.000000	99.945615
1982.000000	99.945147
1981.000000	99.943805
1980.000000	99.941898
1979.000000	99.940008
1978.000000	99.938672
1977.000000	99.938033
1976.000000	99.937835
1975.000000	99.937668
1974.000000	99.937275
1973.000000	99.936697
1972.000000	99.936260
1971.000000	99.936334
1970.000000	99.936947
1969.000000	99.937659
1968.000000	99.937932
1967.000000	99.937647
1966.000000	99.937086
1965.000000	99.936504
1964.000000	99.935977
1963.000000	99.935648
1962.000000	99.935765
1961.000000	99.936346
1960.000000	99.936983
1959.000000	99.937171
1958.000000	99.936769
1957.000000	99.936053
1956.000000	99.935438
1955.000000	99.935164
1954.000000	99.935187
1953.000000	99.935219
1952.000000	99.934936
1951.000000	99.934216
1950.000000	99.933199
1949.000000	99.932169
1948.000000	99.931379
1947.000000	99.930933
1946.000000	99.930729
1945.000000	99.930487
1944.000000	99.929980
1943.000000	99.929270
1942.000000	99.928633
1941.000000	99.928217
1940.000000	99.927907
1939.000000	99.927535
1938.000000	99.927064
1937.000000	99.926524
1936.000000	99.925900
1935.000000	99.925185
1934.000000	99.924496
1933.000000	99.924007
1932.000000	99.923786
1931.000000	99.923684
1930.000000	99.923402
1929.000000	99.922708
1928.000000	99.921590
1927.000000	99.920305
1926.000000	99.919174
1925.000000	99.918325
1924.000000	99.917619
1923.000000	99.916841
1922.000000	99.915968
1921.000000	99.915133
1920.000000	99.914350
1919.000000	99.913455
1918.000000	99.912322
1917.000000	99.911013
1916.000000	99.909713
1915.000000	99.908603
1914.000000	99.907742
1913.000000	99.906949
1912.000000	99.905948
1911.000000	99.904810
1910.000000	99.903994
1909.000000	99.903630
1908.000000	99.903083
1907.000000	99.901725
1906.000000	99.899711
1905.000000	99.897664
1904.000000	99.895970
1903.000000	99.894729
1902.000000	99.894123
1901.000000	99.894141
1900.000000	99.894110
1899.000000	99.893238
1898.000000	99.891455
1897.000000	99.889188
1896.000000	99.886550
1895.000000	99.883433
1894.000000	99.880252
1893.000000	99.877626
1892.000000	99.875418
1891.000000	99.873139
1890.000000	99.871322
1889.000000	99.871271
1888.000000	99.873047
1887.000000	99.874907
1886.000000	99.875158
1885.000000	99.873703
1884.000000	99.871606
1883.000000	99.869901
1882.000000	99.869118
1881.000000	99.869352
1880.000000	99.870115
1879.000000	99.870567
1878.000000	99.870312
1877.000000	99.869727
1876.000000	99.869343
1875.000000	99.869271
1874.000000	99.869330
1873.000000	99.869277
1872.000000	99.868722
1871.000000	99.867478
1870.000000	99.866399
1869.000000	99.867118
1868.000000	99.869903
1867.000000	99.872687
1866.000000	99.873334
1865.000000	99.871770
1864.000000	99.869466
1863.000000	99.867832
1862.000000	99.867443
1861.000000	99.868334
1860.000000	99.870186
1859.000000	99.872263
1858.000000	99.873792
1857.000000	99.874605
1856.000000	99.875170
1855.000000	99.876029
1854.000000	99.877415
1853.000000	99.879360
1852.000000	99.881719
1851.000000	99.884271
1850.000000	99.886913
1849.000000	99.889553
1848.000000	99.891883
1847.000000	99.893441
1846.000000	99.893997
1845.000000	99.893758
1844.000000	99.893191
1843.000000	99.892640
1842.000000	99.892216
1841.000000	99.891971
1840.000000	99.892011
1839.000000	99.892630
1838.000000	99.894204
1837.000000	99.896698
1836.000000	99.899269
1835.000000	99.900761
1834.000000	99.900905
1833.000000	99.900556
1832.000000	99.900649
1831.000000	99.901317
1830.000000	99.902089
1829.000000	99.902656
1828.000000	99.902986
1827.000000	99.902800
1826.000000	99.901668
1825.000000	99.899736
1824.000000	99.897916
1823.000000	99.897023
1822.000000	99.897184
1821.000000	99.898174
1820.000000	99.899695
1819.000000	99.901309
1818.000000	99.902482
1817.000000	99.902839
1816.000000	99.902314
1815.000000	99.901103
1814.000000	99.899690
1813.000000	99.898792
1812.000000	99.898912
1811.000000	99.899777
1810.000000	99.900389
1809.000000	99.899917
1808.000000	99.898352
1807.000000	99.896413
1806.000000	99.895087
1805.000000	99.895080
1804.000000	99.896420
1803.000000	99.898489
1802.000000	99.900549
1801.000000	99.902216
1800.000000	99.903357
1799.000000	99.903808
1798.000000	99.903541
1797.000000	99.903080
1796.000000	99.903238
1795.000000	99.904282
1794.000000	99.905568
1793.000000	99.906063
1792.000000	99.905424
1791.000000	99.904396
1790.000000	99.903868
1789.000000	99.904013
1788.000000	99.904542
1787.000000	99.905259
1786.000000	99.906276
1785.000000	99.907737
1784.000000	99.909404
1783.000000	99.910714
1782.000000	99.911436
1781.000000	99.912003
1780.000000	99.913059
1779.000000	99.914721
1778.000000	99.916537
1777.000000	99.918163
1776.000000	99.919584
1775.000000	99.920790
1774.000000	99.921619
1773.000000	99.922167
1772.000000	99.923022
1771.000000	99.924297
1770.000000	99.925282
1769.000000	99.925550
1768.000000	99.925586
1767.000000	99.926199
1766.000000	99.927547
1765.000000	99.929099
1764.000000	99.930514
1763.000000	99.932009
1762.000000	99.933874
1761.000000	99.935931
1760.000000	99.937788
1759.000000	99.939274
1758.000000	99.940471
1757.000000	99.941667
1756.000000	99.943100
1755.000000	99.944561
1754.000000	99.945367
1753.000000	99.945016
1752.000000	99.943832
1751.000000	99.942838
1750.000000	99.942626
1749.000000	99.943050
1748.000000	99.944110
1747.000000	99.945993
1746.000000	99.948291
1745.000000	99.949990
1744.000000	99.950601
1743.000000	99.950771
1742.000000	99.951536
1741.000000	99.953250
1740.000000	99.955408
1739.000000	99.957157
1738.000000	99.958194
1737.000000	99.959159
1736.000000	99.960946
1735.000000	99.963622
1734.000000	99.965336
1733.000000	99.964383
1732.000000	99.962023
1731.000000	99.960576
1730.000000	99.960989
1729.000000	99.962928
1728.000000	99.965418
1727.000000	99.967638
1726.000000	99.969154
1725.000000	99.969812
1724.000000	99.969820
1723.000000	99.969407
1722.000000	99.968287
1721.000000	99.966169
1720.000000	99.963620
1719.000000	99.961990
1718.000000	99.961787
1717.000000	99.961467
1716.000000	99.959929
1715.000000	99.958462
1714.000000	99.958337
1713.000000	99.958866
1712.000000	99.958540
1711.000000	99.956883
1710.000000	99.954819
1709.000000	99.953461
1708.000000	99.952977
1707.000000	99.952764
1706.000000	99.952159
1705.000000	99.950852
1704.000000	99.948977
1703.000000	99.946907
1702.000000	99.945017
1701.000000	99.943803
1700.000000	99.943665
1699.000000	99.944116
1698.000000	99.944346
1697.000000	99.943983
1696.000000	99.942874
1695.000000	99.941241
1694.000000	99.939671
1693.000000	99.938531
1692.000000	99.937864
1691.000000	99.937482
1690.000000	99.936969
1689.000000	99.935981
1688.000000	99.934586
1687.000000	99.933141
1686.000000	99.931833
1685.000000	99.930511
1684.000000	99.928976
1683.000000	99.927347
1682.000000	99.925911
1681.000000	99.924701
1680.000000	99.923574
1679.000000	99.922428
1678.000000	99.921249
1677.000000	99.920084
1676.000000	99.919042
1675.000000	99.918257
1674.000000	99.917690
1673.000000	99.917049
1672.000000	99.916024
1671.000000	99.914500
1670.000000	99.912754
1669.000000	99.911330
1668.000000	99.910388
1667.000000	99.909586
1666.000000	99.908564
1665.000000	99.907255
1664.000000	99.905930
1663.000000	99.905020
1662.000000	99.904620
1661.000000	99.904202
1660.000000	99.903200
1659.000000	99.901642
1658.000000	99.900004
1657.000000	99.898603
1656.000000	99.897101
1655.000000	99.894679
1654.000000	99.890683
1653.000000	99.887208
1652.000000	99.886696
1651.000000	99.887683
1650.000000	99.888045
1649.000000	99.887334
1648.000000	99.885716
1647.000000	99.883935
1646.000000	99.882742
1645.000000	99.882020
1644.000000	99.881014
1643.000000	99.879448
1642.000000	99.877851
1641.000000	99.876797
1640.000000	99.876032
1639.000000	99.874891
1638.000000	99.873253
1637.000000	99.871943
1636.000000	99.872005
1635.000000	99.873354
1634.000000	99.874981
1633.000000	99.876411
1632.000000	99.877324
1631.000000	99.876859
1630.000000	99.874524
1629.000000	99.871444
1628.000000	99.869953
1627.000000	99.871130
1626.000000	99.873767
1625.000000	99.875811
1624.000000	99.876179
1623.000000	99.875474
1622.000000	99.875333
1621.000000	99.876860
1620.000000	99.879985
1619.000000	99.883958
1618.000000	99.887632
1617.000000	99.890007
1616.000000	99.891091
1615.000000	99.891704
1614.000000	99.892492
1613.000000	99.893641
1612.000000	99.895134
1611.000000	99.896820
1610.000000	99.898501
1609.000000	99.900075
1608.000000	99.901675
1607.000000	99.903453
1606.000000	99.905317
1605.000000	99.906985
1604.000000	99.908348
1603.000000	99.909648
1602.000000	99.911089
1601.000000	99.912477
1600.000000	99.913439
1599.000000	99.913996
1598.000000	99.914825
1597.000000	99.916743
1596.000000	99.919822
1595.000000	99.922991
1594.000000	99.924818
1593.000000	99.924780
1592.000000	99.923559
1591.000000	99.922348
1590.000000	99.922015
1589.000000	99.922808
1588.000000	99.924465
1587.000000	99.926357
1586.000000	99.927806
1585.000000	99.928654
1584.000000	99.929388
1583.000000	99.930583
1582.000000	99.932115
1581.000000	99.933181
1580.000000	99.933274
1579.000000	99.932775
1578.000000	99.932467
1577.000000	99.932709
1576.000000	99.933134
1575.000000	99.933201
1574.000000	99.933129
1573.000000	99.933653
1572.000000	99.935106
1571.000000	99.936905
1570.000000	99.937533
1569.000000	99.935961
1568.000000	99.932963
1567.000000	99.930195
1566.000000	99.928621
1565.000000	99.928490
1564.000000	99.929543
1563.000000	99.931196
1562.000000	99.932842
1561.000000	99.933998
1560.000000	99.933925
1559.000000	99.931859
1558.000000	99.928286
1557.000000	99.925077
1556.000000	99.923139
1555.000000	99.922209
1554.000000	99.921739
1553.000000	99.920891
1552.000000	99.919285
1551.000000	99.917260
1550.000000	99.915254
1549.000000	99.913284
1548.000000	99.911020
1547.000000	99.908267
1546.000000	99.905421
1545.000000	99.903344
1544.000000	99.902571
1543.000000	99.902527
1542.000000	99.901685
1541.000000	99.898569
1540.000000	99.893411
1539.000000	99.888381
1538.000000	99.884759
1537.000000	99.882092
1536.000000	99.879954
1535.000000	99.878368
1534.000000	99.877174
1533.000000	99.875772
1532.000000	99.873991
1531.000000	99.872250
1530.000000	99.870515
1529.000000	99.868369
1528.000000	99.865866
1527.000000	99.863634
1526.000000	99.861963
1525.000000	99.860096
1524.000000	99.857125
1523.000000	99.853185
1522.000000	99.849617
1521.000000	99.847762
1520.000000	99.847468
1519.000000	99.847563
1518.000000	99.846924
1517.000000	99.844644
1516.000000	99.840802
1515.000000	99.836926
1514.000000	99.834418
1513.000000	99.833225
1512.000000	99.832270
1511.000000	99.830570
1510.000000	99.828175
1509.000000	99.825906
1508.000000	99.824409
1507.000000	99.823505
1506.000000	99.822682
1505.000000	99.821944
1504.000000	99.821289
1503.000000	99.820954
1502.000000	99.821733
1501.000000	99.824205
1500.000000	99.828010
1499.000000	99.831619
1498.000000	99.833119
1497.000000	99.831599
1496.000000	99.828220
1495.000000	99.825296
1494.000000	99.823828
1493.000000	99.823097
1492.000000	99.821993
1491.000000	99.820032
1490.000000	99.817819
1489.000000	99.816497
1488.000000	99.816608
1487.000000	99.817889
1486.000000	99.819761
1485.000000	99.821507
1484.000000	99.822274
1483.000000	99.821529
1482.000000	99.819497
1481.000000	99.817120
1480.000000	99.815297
1479.000000	99.814313
1478.000000	99.814253
1477.000000	99.815343
1476.000000	99.817489
1475.000000	99.819822
1474.000000	99.821170
1473.000000	99.820924
1472.000000	99.819630
1471.000000	99.818516
1470.000000	99.818176
1469.000000	99.818457
1468.000000	99.819108
1467.000000	99.820041
1466.000000	99.821341
1465.000000	99.823024
1464.000000	99.824705
1463.000000	99.825852
1462.000000	99.826273
1461.000000	99.826187
1460.000000	99.826036
1459.000000	99.826293
1458.000000	99.827229
1457.000000	99.828575
1456.000000	99.829740
1455.000000	99.830399
1454.000000	99.830469
1453.000000	99.830157
1452.000000	99.830025
1451.000000	99.830551
1450.000000	99.831813
1449.000000	99.833605
1448.000000	99.835593
1447.000000	99.837233
1446.000000	99.838004
1445.000000	99.837734
1444.000000	99.836774
1443.000000	99.835779
1442.000000	99.835106
1441.000000	99.834643
1440.000000	99.834260
1439.000000	99.834174
1438.000000	99.834637
1437.000000	99.835255
1436.000000	99.835223
1435.000000	99.834761
1434.000000	99.834985
1433.000000	99.836496
1432.000000	99.838879
1431.000000	99.840873
1430.000000	99.841596
1429.000000	99.841706
1428.000000	99.842477
1427.000000	99.844108
1426.000000	99.845856
1425.000000	99.847341
1424.000000	99.849113
1423.000000	99.851800
1422.000000	99.855016
1421.000000	99.857501
1420.000000	99.858013
1419.000000	99.856782
1418.000000	99.856208
1417.000000	99.858324
1416.000000	99.862708
1415.000000	99.867279
1414.000000	99.870047
1413.000000	99.870487
1412.000000	99.869729
1411.000000	99.869438
1410.000000	99.870424
1409.000000	99.872479
1408.000000	99.875191
1407.000000	99.878326
1406.000000	99.881711
1405.000000	99.885223
1404.000000	99.889053
1403.000000	99.893644
1402.000000	99.899119
1401.000000	99.904886
1400.000000	99.909634
1399.000000	99.912091
1398.000000	99.912348
1397.000000	99.911774
1396.000000	99.911501
1395.000000	99.911750
1394.000000	99.912528
1393.000000	99.914249
1392.000000	99.917302
1391.000000	99.921325
1390.000000	99.925221
1389.000000	99.927958
1388.000000	99.929559
1387.000000	99.931237
1386.000000	99.934177
1385.000000	99.938396
1384.000000	99.943045
1383.000000	99.947107
1382.000000	99.949624
1381.000000	99.950105
1380.000000	99.949158
1379.000000	99.948387
1378.000000	99.949024
1377.000000	99.950772
1376.000000	99.952352
1375.000000	99.952912
1374.000000	99.952649
1373.000000	99.952223
1372.000000	99.951975
1371.000000	99.952035
1370.000000	99.952767
1369.000000	99.954573
1368.000000	99.957345
1367.000000	99.960273
1366.000000	99.962229
1365.000000	99.962270
1364.000000	99.960072
1363.000000	99.956570
1362.000000	99.953905
1361.000000	99.953614
1360.000000	99.955398
1359.000000	99.957856
1358.000000	99.959837
1357.000000	99.961019
1356.000000	99.961624
1355.000000	99.962050
1354.000000	99.962706
1353.000000	99.963790
1352.000000	99.965077
1351.000000	99.966061
1350.000000	99.966430
1349.000000	99.966389
1348.000000	99.966435
1347.000000	99.966874
1346.000000	99.967641
1345.000000	99.968545
1344.000000	99.969453
1343.000000	99.970134
1342.000000	99.970037
1341.000000	99.968536
1340.000000	99.965676
1339.000000	99.962692
1338.000000	99.961193
1337.000000	99.961680
1336.000000	99.963371
1335.000000	99.965272
1334.000000	99.967036
1333.000000	99.968667
1332.000000	99.969818
1331.000000	99.969956
1330.000000	99.969184
1329.000000	99.968445
1328.000000	99.968698
1327.000000	99.970032
1326.000000	99.971567
1325.000000	99.972027
1324.000000	99.970503
1323.000000	99.967137
1322.000000	99.963406
1321.000000	99.961261
1320.000000	99.961586
1319.000000	99.963677
1318.000000	99.966057
1317.000000	99.967680
1316.000000	99.968270
1315.000000	99.967937
1314.000000	99.967108
1313.000000	99.966570
1312.000000	99.966945
1311.000000	99.968104
1310.000000	99.969384
1309.000000	99.970274
1308.000000	99.970537
1307.000000	99.969904
1306.000000	99.968219
1305.000000	99.966020
1304.000000	99.964509
1303.000000	99.964474
1302.000000	99.965489
1301.000000	99.966382
1300.000000	99.966393
1299.000000	99.965669
1298.000000	99.964741
1297.000000	99.963843
1296.000000	99.962896
1295.000000	99.961946
1294.000000	99.961300
1293.000000	99.961208
1292.000000	99.961551
1291.000000	99.961846
1290.000000	99.961543
1289.000000	99.960435
1288.000000	99.958890
1287.000000	99.957618
1286.000000	99.957067
1285.000000	99.957030
1284.000000	99.956874
1283.000000	99.956107
1282.000000	99.954680
1281.000000	99.952875
1280.000000	99.951120
1279.000000	99.949965
1278.000000	99.949949
1277.000000	99.951095
1276.000000	99.952456
1275.000000	99.952415
1274.000000	99.949754
1273.000000	99.944568
1272.000000	99.938205
1271.000000	99.932582
1270.000000	99.929753
1269.000000	99.931592
1268.000000	99.938505
1267.000000	99.947676
1266.000000	99.953855
1265.000000	99.953829
1264.000000	99.950007
1263.000000	99.948108
1262.000000	99.950700
1261.000000	99.954398
1260.000000	99.954317
1259.000000	99.949729
1258.000000	99.943693
1257.000000	99.938196
1256.000000	99.932114
1255.000000	99.924308
1254.000000	99.916518
1253.000000	99.911626
1252.000000	99.909877
1251.000000	99.908361
1250.000000	99.904411
1249.000000	99.898475
1248.000000	99.893074
1247.000000	99.889613
1246.000000	99.887303
1245.000000	99.885191
1244.000000	99.883929
1243.000000	99.884378
1242.000000	99.885127
1241.000000	99.883071
1240.000000	99.876731
1239.000000	99.867648
1238.000000	99.857875
1237.000000	99.847395
1236.000000	99.835346
1235.000000	99.822834
1234.000000	99.812589
1233.000000	99.805794
1232.000000	99.800883
1231.000000	99.795854
1230.000000	99.790400
1229.000000	99.784939
1228.000000	99.778433
1227.000000	99.768325
1226.000000	99.752619
1225.000000	99.731530
1224.000000	99.707229
1223.000000	99.682318
1222.000000	99.658347
1221.000000	99.635292
1220.000000	99.612236
1219.000000	99.588476
1218.000000	99.563754
1217.000000	99.537477
1216.000000	99.508124
1215.000000	99.473910
1214.000000	99.434465
1213.000000	99.392127
1212.000000	99.351202
1211.000000	99.314990
1210.000000	99.283016
1209.000000	99.251690
1208.000000	99.217891
1207.000000	99.181694
1206.000000	99.145892
1205.000000	99.113544
1204.000000	99.085648
1203.000000	99.060086
1202.000000	99.032946
1201.000000	99.002199
1200.000000	98.970005
1199.000000	98.939967
1198.000000	98.912300
1197.000000	98.883743
1196.000000	98.852283
1195.000000	98.819426
1194.000000	98.787019
1193.000000	98.754443
1192.000000	98.720601
1191.000000	98.686451
1190.000000	98.653180
1189.000000	98.619167
1188.000000	98.581222
1187.000000	98.538465
1186.000000	98.493365
1185.000000	98.449336
1184.000000	98.408620
1183.000000	98.371718
1182.000000	98.336985
1181.000000	98.300871
1180.000000	98.260115
1179.000000	98.214207
1178.000000	98.165560
1177.000000	98.117652
1176.000000	98.072981
1175.000000	98.031334
1174.000000	97.989189
1173.000000	97.942340
1172.000000	97.890402
1171.000000	97.837700
1170.000000	97.788738
1169.000000	97.744166
1168.000000	97.702372
1167.000000	97.663361
1166.000000	97.629360
1165.000000	97.602851
1164.000000	97.586027
1163.000000	97.581254
1162.000000	97.589728
1161.000000	97.609006
1160.000000	97.632375
1159.000000	97.650853
1158.000000	97.656552
1157.000000	97.645771
1156.000000	97.620229
1155.000000	97.585429
1154.000000	97.546902
1153.000000	97.507358
1152.000000	97.467140
1151.000000	97.426331
1150.000000	97.385582
1149.000000	97.345489
1148.000000	97.306204
1147.000000	97.267688
1146.000000	97.229866
1145.000000	97.192514
1144.000000	97.155269
1143.000000	97.117923
1142.000000	97.080811
1141.000000	97.044576
1140.000000	97.008718
1139.000000	96.970513
1138.000000	96.927063
1137.000000	96.879048
1136.000000	96.830776
1135.000000	96.785416
1134.000000	96.742003
1133.000000	96.698536
1132.000000	96.655682
1131.000000	96.614928
1130.000000	96.575181
1129.000000	96.534365
1128.000000	96.492902
1127.000000	96.452251
1126.000000	96.411249
1125.000000	96.367475
1124.000000	96.321244
1123.000000	96.274777
1122.000000	96.228610
1121.000000	96.182799
1120.000000	96.140296
1119.000000	96.104067
1118.000000	96.071330
1117.000000	96.035862
1116.000000	95.996311
1115.000000	95.957355
1114.000000	95.922421
1113.000000	95.890473
1112.000000	95.860390
1111.000000	95.832877
1110.000000	95.806990
1109.000000	95.780157
1108.000000	95.753047
1107.000000	95.729092
1106.000000	95.707552
1105.000000	95.682805
1104.000000	95.653360
1103.000000	95.626414
1102.000000	95.609585
1101.000000	95.601870
1100.000000	95.595943
1099.000000	95.586473
1098.000000	95.572951
1097.000000	95.556701
1096.000000	95.538599
1095.000000	95.519032
1094.000000	95.498168
1093.000000	95.476752
1092.000000	95.457285
1091.000000	95.443006
1090.000000	95.434530
1089.000000	95.428123
1088.000000	95.417665
1087.000000	95.398519
1086.000000	95.371372
1085.000000	95.343590
1084.000000	95.324583
1083.000000	95.317182
1082.000000	95.314787
1081.000000	95.309140
1080.000000	95.298716
1079.000000	95.286970
1078.000000	95.275391
1077.000000	95.262215
1076.000000	95.245914
1075.000000	95.225745
1074.000000	95.200188
1073.000000	95.168303
1072.000000	95.130689
1071.000000	95.085795
1070.000000	95.028212
1069.000000	94.955038
1068.000000	94.871393
1067.000000	94.784913
1066.000000	94.697042
1065.000000	94.605458
1064.000000	94.512860
1063.000000	94.426274
1062.000000	94.348285
1061.000000	94.275694
1060.000000	94.206586
1059.000000	94.141889
1058.000000	94.079851
1057.000000	94.016182
1056.000000	93.951258
1055.000000	93.891344
1054.000000	93.840606
1053.000000	93.795699
1052.000000	93.748551
1051.000000	93.690493
1050.000000	93.615233
1049.000000	93.524307
1048.000000	93.429236
1047.000000	93.341794
1046.000000	93.261929
1045.000000	93.179895
1044.000000	93.088481
1043.000000	92.988215
1042.000000	92.883474
1041.000000	92.780580
1040.000000	92.688739
1039.000000	92.615467
1038.000000	92.559837
1037.000000	92.514683
1036.000000	92.474415
1035.000000	92.435793
1034.000000	92.394311
1033.000000	92.347842
1032.000000	92.302408
1031.000000	92.266712
1030.000000	92.241870
1029.000000	92.222965
1028.000000	92.208239
1027.000000	92.198913
1026.000000	92.192338
1025.000000	92.184452
1024.000000	92.177629
1023.000000	92.176952
1022.000000	92.179700
1021.000000	92.177426
1020.000000	92.167823
1019.000000	92.155770
1018.000000	92.143415
1017.000000	92.128412
1016.000000	92.111879
1015.000000	92.099110
1014.000000	92.091826
1013.000000	92.087563
1012.000000	92.086450
1011.000000	92.090470
1010.000000	92.096423
1009.000000	92.098080
1008.000000	92.095676
1007.000000	92.095744
1006.000000	92.101956
1005.000000	92.113444
1004.000000	92.130722
1003.000000	92.155027
1002.000000	92.182785
1001.000000	92.208952
1000.000000	92.234801
999.000000	92.264398
998.000000	92.295377
997.000000	92.322644
996.000000	92.349894
995.000000	92.387244
994.000000	92.437418
993.000000	92.493293
992.000000	92.548732
991.000000	92.602635
990.000000	92.652626
989.000000	92.695506
988.000000	92.735828
987.000000	92.784662
986.000000	92.847282
985.000000	92.918929
984.000000	92.993442
983.000000	93.068951
982.000000	93.144611
981.000000	93.219385
980.000000	93.295413
979.000000	93.376633
978.000000	93.463920
977.000000	93.556590
976.000000	93.656321
975.000000	93.762722
974.000000	93.867765
973.000000	93.963082
972.000000	94.051046
971.000000	94.140489
970.000000	94.233888
969.000000	94.327799
968.000000	94.423174
967.000000	94.523895
966.000000	94.625774
965.000000	94.718851
964.000000	94.801965
963.000000	94.884453
962.000000	94.971441
961.000000	95.057412
960.000000	95.136941
959.000000	95.211875
958.000000	95.284350
957.000000	95.351869
956.000000	95.413728
955.000000	95.474660
954.000000	95.537830
953.000000	95.601062
952.000000	95.663652
951.000000	95.729177
950.000000	95.796509
949.000000	95.855006
948.000000	95.895105
947.000000	95.919728
946.000000	95.941108
945.000000	95.969647
944.000000	96.008944
943.000000	96.056895
942.000000	96.106404
941.000000	96.148083
940.000000	96.177372
939.000000	96.198727
938.000000	96.221265
937.000000	96.251481
936.000000	96.290558
935.000000	96.335483
934.000000	96.381224
933.000000	96.424220
932.000000	96.464262
931.000000	96.500887
930.000000	96.529818
929.000000	96.547918
928.000000	96.560856
927.000000	96.579662
926.000000	96.608361
925.000000	96.640265
924.000000	96.667496
923.000000	96.688488
922.000000	96.704905
921.000000	96.717632
920.000000	96.728836
919.000000	96.742740
918.000000	96.760944
917.000000	96.780743
916.000000	96.800240
915.000000	96.820944
914.000000	96.843587
913.000000	96.866577
912.000000	96.891199
911.000000	96.923305
910.000000	96.966723
909.000000	97.018947
908.000000	97.075566
907.000000	97.134980
906.000000	97.196700
905.000000	97.260031
904.000000	97.327725
903.000000	97.406071
902.000000	97.496711
901.000000	97.591065
900.000000	97.676877
899.000000	97.748995
898.000000	97.811514
897.000000	97.871840
896.000000	97.935493
895.000000	98.004645
894.000000	98.077824
893.000000	98.150397
892.000000	98.216963
891.000000	98.274365
890.000000	98.323280
889.000000	98.367408
888.000000	98.410050
887.000000	98.450541
886.000000	98.485780
885.000000	98.516801
884.000000	98.551024
883.000000	98.594045
882.000000	98.640719
881.000000	98.679512
880.000000	98.705582
879.000000	98.724986
878.000000	98.745752
877.000000	98.769429
876.000000	98.793123
875.000000	98.815995
874.000000	98.841760
873.000000	98.876577
872.000000	98.923790
871.000000	98.977530
870.000000	99.023223
869.000000	99.050121
868.000000	99.063690
867.000000	99.081289
866.000000	99.115053
865.000000	99.162862
864.000000	99.214985
863.000000	99.263126
862.000000	99.301991
861.000000	99.329179
860.000000	99.348173
859.000000	99.367853
858.000000	99.395108
857.000000	99.429616
856.000000	99.467232
855.000000	99.504805
854.000000	99.539573
853.000000	99.567746
852.000000	99.587043
851.000000	99.598831
850.000000	99.606226
849.000000	99.612374
848.000000	99.621230
847.000000	99.636026
846.000000	99.654935
845.000000	99.671714
844.000000	99.682384
843.000000	99.687947
842.000000	99.689784
841.000000	99.687420
840.000000	99.682845
839.000000	99.681487
838.000000	99.684921
837.000000	99.686552
836.000000	99.678700
835.000000	99.661393
834.000000	99.641512
833.000000	99.625989
832.000000	99.617781
831.000000	99.614369
830.000000	99.607513
829.000000	99.589757
828.000000	99.566021
827.000000	99.554352
826.000000	99.568665
825.000000	99.602866
824.000000	99.637058
823.000000	99.655575
822.000000	99.653888
821.000000	99.634460
820.000000	99.605284
819.000000	99.579670
818.000000	99.567721
817.000000	99.565581
816.000000	99.556993
815.000000	99.526516
814.000000	99.470092
813.000000	99.394349
812.000000	99.308016
811.000000	99.212500
810.000000	99.098030
809.000000	98.950443
808.000000	98.764129
807.000000	98.546665
806.000000	98.309583
805.000000	98.059668
804.000000	97.804277
803.000000	97.560274
802.000000	97.349469
801.000000	97.185751
800.000000	97.070805
799.000000	96.998852
798.000000	96.960901
797.000000	96.948633
796.000000	96.960100
795.000000	96.999850
794.000000	97.069500
793.000000	97.159511
792.000000	97.251929
791.000000	97.328319
790.000000	97.374311
789.000000	97.382872
788.000000	97.358712
787.000000	97.316402
786.000000	97.267952
785.000000	97.212384
784.000000	97.141052
783.000000	97.051883
782.000000	96.955029
781.000000	96.866634
780.000000	96.801232
779.000000	96.768240
778.000000	96.770261
777.000000	96.803404
776.000000	96.860599
775.000000	96.933864
774.000000	97.013589
773.000000	97.090269
772.000000	97.160755
771.000000	97.231166
770.000000	97.310476
769.000000	97.401017
768.000000	97.495618
767.000000	97.582035
766.000000	97.649175
765.000000	97.692072
764.000000	97.714776
763.000000	97.729602
762.000000	97.752102
761.000000	97.794115
760.000000	97.857915
759.000000	97.933226
758.000000	98.000363
757.000000	98.041473
756.000000	98.052859
755.000000	98.047585
754.000000	98.046606
753.000000	98.066757
752.000000	98.113596
751.000000	98.179623
750.000000	98.246813
749.000000	98.295166
748.000000	98.314583
747.000000	98.311830
746.000000	98.307518
745.000000	98.324901
744.000000	98.376559
743.000000	98.455820
742.000000	98.539514
741.000000	98.603987
740.000000	98.641817
739.000000	98.662939
738.000000	98.681838
737.000000	98.706610
736.000000	98.739068
735.000000	98.778911
734.000000	98.823028
733.000000	98.862701
732.000000	98.886271
731.000000	98.887409
730.000000	98.872321
729.000000	98.859666
728.000000	98.870330
727.000000	98.911348
726.000000	98.967500
725.000000	99.012515
724.000000	99.032051
723.000000	99.034614
722.000000	99.040118
721.000000	99.061154
720.000000	99.096255
719.000000	99.136142
718.000000	99.172055
717.000000	99.200167
716.000000	99.221879
715.000000	99.239588
714.000000	99.251082
713.000000	99.250816
712.000000	99.238689
711.000000	99.224100
710.000000	99.218045
709.000000	99.223474
708.000000	99.235302
707.000000	99.245539
706.000000	99.244892
705.000000	99.224236
704.000000	99.181090
703.000000	99.123031
702.000000	99.058719
701.000000	98.985581
700.000000	98.891483
699.000000	98.769653
698.000000	98.630264
697.000000	98.498806
696.000000	98.404754
695.000000	98.367495
694.000000	98.385494
693.000000	98.436652
692.000000	98.493832
691.000000	98.544321
690.000000	98.594166
689.000000	98.654736
688.000000	98.728149
687.000000	98.805195
686.000000	98.873299
685.000000	98.924397
684.000000	98.958078
683.000000	98.980232
682.000000	98.998323
681.000000	99.017056
680.000000	99.038944
679.000000	99.067428
678.000000	99.105522
677.000000	99.149957
676.000000	99.190003
675.000000	99.214671
674.000000	99.222511
673.000000	99.223641
672.000000	99.231695
671.000000	99.255293
670.000000	99.297519
669.000000	99.355519
668.000000	99.408159
667.000000	99.427196
666.000000	99.415752
665.000000	99.396768
664.000000	99.389213
663.000000	99.402817
662.000000	99.431478
661.000000	99.456419
660.000000	99.463708
659.000000	99.454921
658.000000	99.441077
657.000000	99.431466
656.000000	99.430571
655.000000	99.440433
654.000000	99.460495
653.000000	99.486062
652.000000	99.510318
651.000000	99.528381
650.000000	99.539877
