4000.000000	100.374591
3999.000000	100.373929
3998.000000	100.373287
3997.000000	100.372668
3996.000000	100.372073
3995.000000	100.371501
3994.000000	100.370942
3993.000000	100.370384
3992.000000	100.369825
3991.000000	100.369270
3990.000000	100.368721
3989.000000	100.368182
3988.000000	100.367661
3987.000000	100.367173
3986.000000	100.366730
3985.000000	100.366337
3984.000000	100.365993
3983.000000	100.365677
3982.000000	100.365357
3981.000000	100.365001
3980.000000	100.364617
3979.000000	100.364262
3978.000000	100.363998
3977.000000	100.363850
3976.000000	100.363779
3975.000000	100.363709
3974.000000	100.363560
3973.000000	100.363279
3972.000000	100.362865
3971.000000	100.362410
3970.000000	100.362074
3969.000000	100.361972
3968.000000	100.362098
3967.000000	100.362287
3966.000000	100.362306
3965.000000	100.362010
3964.000000	100.361428
3963.000000	100.360787
3962.000000	100.360363
3961.000000	100.360292
3960.000000	100.360522
3959.000000	100.360886
3958.000000	100.361214
3957.000000	100.361379
3956.000000	100.361291
3955.000000	100.360924
3954.000000	100.360402
3953.000000	100.360057
3952.000000	100.360312
3951.000000	100.361377
3950.000000	100.362924
3949.000000	100.364152
3948.000000	100.364432
3947.000000	100.363914
3946.000000	100.363419
3945.000000	100.363665
3944.000000	100.364606
3943.000000	100.365499
3942.000000	100.365520
3941.000000	100.364328
3940.000000	100.362237
3939.000000	100.360094
3938.000000	100.358864
3937.000000	100.358983
3936.000000	100.359928
3935.000000	100.360439
3934.000000	100.359456
3933.000000	100.357084
3932.000000	100.354708
3931.000000	100.353875
3930.000000	100.355026
3929.000000	100.357452
3928.000000	100.360164
3927.000000	100.362488
3926.000000	100.363897
3925.000000	100.363826
3924.000000	100.361914
3923.000000	100.358431
3922.000000	100.354252
3921.000000	100.350167
3920.000000	100.346419
3919.000000	100.343047
3918.000000	100.340439
3917.000000	100.339228
3916.000000	100.339628
3915.000000	100.341123
3914.000000	100.342863
3913.000000	100.344205
3912.000000	100.344888
3911.000000	100.345069
3910.000000	100.345308
3909.000000	100.346319
3908.000000	100.348471
3907.000000	100.351348
3906.000000	100.353834
3905.000000	100.355010
3904.000000	100.355177
3903.000000	100.355498
3902.000000	100.356438
3901.000000	100.357212
3900.000000	100.357081
3899.000000	100.356459
3898.000000	100.356211
3897.000000	100.356438
3896.000000	100.356504
3895.000000	100.356013
3894.000000	100.355254
3893.000000	100.354721
3892.000000	100.354513
3891.000000	100.354430
3890.000000	100.354429
3889.000000	100.354542
3888.000000	100.354368
3887.000000	100.352844
3886.000000	100.349380
3885.000000	100.345670
3884.000000	100.344657
3883.000000	100.347534
3882.000000	100.352633
3881.000000	100.356861
3880.000000	100.358691
3879.000000	100.359448
3878.000000	100.361373
3877.000000	100.365448
3876.000000	100.370817
3875.000000	100.375540
3874.000000	100.378168
3873.000000	100.378502
3872.000000	100.377068
3871.000000	100.374625
3870.000000	100.372204
3869.000000	100.370928
3868.000000	100.371289
3867.000000	100.372887
3866.000000	100.374806
3865.000000	100.376095
3864.000000	100.376240
3863.000000	100.375201
3862.000000	100.373152
3861.000000	100.370753
3860.000000	100.369290
3859.000000	100.369709
3858.000000	100.371427
3857.000000	100.372771
3856.000000	100.373327
3855.000000	100.373789
3854.000000	100.373658
3853.000000	100.372376
3852.000000	100.370487
3851.000000	100.368428
3850.000000	100.366084
3849.000000	100.363250
3848.000000	100.360151
3847.000000	100.357509
3846.000000	100.355994
3845.000000	100.355691
3844.000000	100.356229
3843.000000	100.357385
3842.000000	100.359237
3841.000000	100.361712
3840.000000	100.364370
3839.000000	100.366697
3838.000000	100.368127
3837.000000	100.368026
3836.000000	100.366205
3835.000000	100.363099
3834.000000	100.359397
3833.000000	100.355662
3832.000000	100.352272
3831.000000	100.349623
3830.000000	100.348189
3829.000000	100.348321
3828.000000	100.350065
3827.000000	100.353218
3826.000000	100.357377
3825.000000	100.361793
3824.000000	100.365396
3823.000000	100.366811
3822.000000	100.364929
3821.000000	100.360902
3820.000000	100.357285
3819.000000	100.354388
3818.000000	100.350625
3817.000000	100.345626
3816.000000	100.341206
3815.000000	100.339163
3814.000000	100.339149
3813.000000	100.339582
3812.000000	100.339802
3811.000000	100.340592
3810.000000	100.342901
3809.000000	100.346313
3808.000000	100.348886
3807.000000	100.349249
3806.000000	100.348491
3805.000000	100.348663
3804.000000	100.350422
3803.000000	100.352852
3802.000000	100.354645
3801.000000	100.355095
3800.000000	100.353871
3799.000000	100.350493
3798.000000	100.344888
3797.000000	100.338338
3796.000000	100.333262
3795.000000	100.331370
3794.000000	100.332459
3793.000000	100.334953
3792.000000	100.337154
3791.000000	100.338198
3790.000000	100.338166
3789.000000	100.337662
3788.000000	100.337329
3787.000000	100.337553
3786.000000	100.338356
3785.000000	100.339342
3784.000000	100.339885
3783.000000	100.339609
3782.000000	100.338742
3781.000000	100.337966
3780.000000	100.337877
3779.000000	100.338525
3778.000000	100.339358
3777.000000	100.339741
3776.000000	100.339544
3775.000000	100.339181
3774.000000	100.339256
3773.000000	100.340274
3772.000000	100.342486
3771.000000	100.345633
3770.000000	100.348756
3769.000000	100.350557
3768.000000	100.350273
3767.000000	100.348357
3766.000000	100.346294
3765.000000	100.345420
3764.000000	100.345818
3763.000000	100.346584
3762.000000	100.346829
3761.000000	100.346144
3760.000000	100.344735
3759.000000	100.343586
3758.000000	100.343831
3757.000000	100.345763
3756.000000	100.348898
3755.000000	100.352940
3754.000000	100.358259
3753.000000	100.364812
3752.000000	100.370568
3751.000000	100.372806
3750.000000	100.371311
3749.000000	100.368278
3748.000000	100.364594
3747.000000	100.358581
3746.000000	100.348842
3745.000000	100.337039
3744.000000	100.328059
3743.000000	100.325711
3742.000000	100.328902
3741.000000	100.333917
3740.000000	100.338427
3739.000000	100.343107
3738.000000	100.350281
3737.000000	100.360178
3736.000000	100.368845
3735.000000	100.371236
3734.000000	100.365860
3733.000000	100.355676
3732.000000	100.345394
3731.000000	100.338101
3730.000000	100.333886
3729.000000	100.330918
3728.000000	100.327394
3727.000000	100.322821
3726.000000	100.318115
3725.000000	100.314497
3724.000000	100.312396
3723.000000	100.311397
3722.000000	100.310408
3721.000000	100.307813
3720.000000	100.302354
3719.000000	100.294437
3718.000000	100.286132
3717.000000	100.279229
3716.000000	100.273423
3715.000000	100.266962
3714.000000	100.259017
3713.000000	100.251153
3712.000000	100.246246
3711.000000	100.245176
3710.000000	100.245198
3709.000000	100.242913
3708.000000	100.237653
3707.000000	100.231146
3706.000000	100.225401
3705.000000	100.221290
3704.000000	100.218141
3703.000000	100.214074
3702.000000	100.207340
3701.000000	100.197877
3700.000000	100.187455
3699.000000	100.178511
3698.000000	100.173008
3697.000000	100.171755
3696.000000	100.173901
3695.000000	100.177187
3694.000000	100.179096
3693.000000	100.177926
3692.000000	100.173106
3691.000000	100.165270
3690.000000	100.156367
3689.000000	100.148193
3688.000000	100.140585
3687.000000	100.132403
3686.000000	100.123359
3685.000000	100.114223
3684.000000	100.106524
3683.000000	100.102002
3682.000000	100.101504
3681.000000	100.103745
3680.000000	100.105536
3679.000000	100.103770
3678.000000	100.097407
3677.000000	100.087480
3676.000000	100.076563
3675.000000	100.067885
3674.000000	100.061847
3673.000000	100.054915
3672.000000	100.043211
3671.000000	100.025955
3670.000000	100.007122
3669.000000	99.992248
3668.000000	99.981968
3667.000000	99.972111
3666.000000	99.959352
3665.000000	99.944387
3664.000000	99.930526
3663.000000	99.919956
3662.000000	99.911567
3661.000000	99.902393
3660.000000	99.890815
3659.000000	99.877898
3658.000000	99.865974
3657.000000	99.856548
3656.000000	99.849755
3655.000000	99.845029
3654.000000	99.841591
3653.000000	99.838699
3652.000000	99.835542
3651.000000	99.830698
3650.000000	99.823765
3649.000000	99.816765
3648.000000	99.810620
3647.000000	99.803036
3646.000000	99.791117
3645.000000	99.773972
3644.000000	99.753747
3643.000000	99.735043
3642.000000	99.722250
3641.000000	99.716037
3640.000000	99.712533
3639.000000	99.706633
3638.000000	99.696348
3637.000000	99.683996
3636.000000	99.673434
3635.000000	99.666284
3634.000000	99.660353
3633.000000	99.651394
3632.000000	99.636942
3631.000000	99.619420
3630.000000	99.605802
3629.000000	99.603645
3628.000000	99.613737
3627.000000	99.628365
3626.000000	99.639340
3625.000000	99.643360
3624.000000	99.640795
3623.000000	99.633643
3622.000000	99.624653
3621.000000	99.617144
3620.000000	99.614529
3619.000000	99.618811
3618.000000	99.628641
3617.000000	99.640160
3616.000000	99.650315
3615.000000	99.658480
3614.000000	99.665361
3613.000000	99.671226
3612.000000	99.675515
3611.000000	99.678363
3610.000000	99.681900
3609.000000	99.689094
3608.000000	99.700807
3607.000000	99.713983
3606.000000	99.723664
3605.000000	99.726991
3604.000000	99.724962
3603.000000	99.721264
3602.000000	99.719665
3601.000000	99.721891
3600.000000	99.727301
3599.000000	99.734066
3598.000000	99.740476
3597.000000	99.745213
3596.000000	99.747168
3595.000000	99.746104
3594.000000	99.743534
3593.000000	99.742085
3592.000000	99.743428
3591.000000	99.746899
3590.000000	99.749825
3589.000000	99.749497
3588.000000	99.746517
3587.000000	99.745141
3586.000000	99.748022
3585.000000	99.753018
3584.000000	99.756251
3583.000000	99.755840
3582.000000	99.752817
3581.000000	99.749872
3580.000000	99.749335
3579.000000	99.751675
3578.000000	99.755349
3577.000000	99.757974
3576.000000	99.757797
3575.000000	99.754371
3574.000000	99.748371
3573.000000	99.741353
3572.000000	99.735573
3571.000000	99.733156
3570.000000	99.734613
3569.000000	99.737706
3568.000000	99.738784
3567.000000	99.736465
3566.000000	99.732362
3565.000000	99.727934
3564.000000	99.723036
3563.000000	99.717615
3562.000000	99.712921
3561.000000	99.710541
3560.000000	99.710780
3559.000000	99.712429
3558.000000	99.713825
3557.000000	99.713878
3556.000000	99.712252
3555.000000	99.709145
3554.000000	99.705052
3553.000000	99.700404
3552.000000	99.695323
3551.000000	99.689977
3550.000000	99.685226
3549.000000	99.682502
3548.000000	99.682615
3547.000000	99.684775
3546.000000	99.687121
3545.000000	99.688390
3544.000000	99.688658
3543.000000	99.688439
3542.000000	99.687648
3541.000000	99.685759
3540.000000	99.682730
3539.000000	99.679451
3538.000000	99.677106
3537.000000	99.676041
3536.000000	99.675310
3535.000000	99.673520
3534.000000	99.670202
3533.000000	99.666307
3532.000000	99.663372
3531.000000	99.662217
3530.000000	99.662541
3529.000000	99.663746
3528.000000	99.665909
3527.000000	99.669501
3526.000000	99.674201
3525.000000	99.678423
3524.000000	99.680350
3523.000000	99.679379
3522.000000	99.676286
3521.000000	99.672278
3520.000000	99.668177
3519.000000	99.664434
3518.000000	99.661434
3517.000000	99.659421
3516.000000	99.658311
3515.000000	99.657879
3514.000000	99.658187
3513.000000	99.659648
3512.000000	99.662424
3511.000000	99.665661
3510.000000	99.667567
3509.000000	99.666691
3508.000000	99.663102
3507.000000	99.658399
3506.000000	99.654571
3505.000000	99.652654
3504.000000	99.652390
3503.000000	99.652743
3502.000000	99.652673
3501.000000	99.651734
3500.000000	99.650191
3499.000000	99.648676
3498.000000	99.647676
3497.000000	99.647251
3496.000000	99.647156
3495.000000	99.647097
3494.000000	99.646779
3493.000000	99.645886
3492.000000	99.644297
3491.000000	99.642303
3490.000000	99.640378
3489.000000	99.638667
3488.000000	99.636877
3487.000000	99.634711
3486.000000	99.632164
3485.000000	99.629372
3484.000000	99.626398
3483.000000	99.623399
3482.000000	99.620866
3481.000000	99.619381
3480.000000	99.619063
3479.000000	99.619374
3478.000000	99.619491
3477.000000	99.618849
3476.000000	99.617356
3475.000000	99.615259
3474.000000	99.612816
3473.000000	99.610100
3472.000000	99.607149
3471.000000	99.604305
3470.000000	99.602244
3469.000000	99.601523
3468.000000	99.602111
3467.000000	99.603286
3466.000000	99.604016
3465.000000	99.603585
3464.000000	99.601837
3463.000000	99.599002
3462.000000	99.595503
3461.000000	99.591868
3460.000000	99.588664
3459.000000	99.586338
3458.000000	99.584908
3457.000000	99.583930
3456.000000	99.582949
3455.000000	99.581941
3454.000000	99.581130
3453.000000	99.580441
3452.000000	99.579408
3451.000000	99.577666
3450.000000	99.575290
3449.000000	99.572628
3448.000000	99.570050
3447.000000	99.567934
3446.000000	99.566598
3445.000000	99.565992
3444.000000	99.565574
3443.000000	99.564791
3442.000000	99.563670
3441.000000	99.562727
3440.000000	99.562318
3439.000000	99.562235
3438.000000	99.561913
3437.000000	99.560907
3436.000000	99.559127
3435.000000	99.556788
3434.000000	99.554279
3433.000000	99.551934
3432.000000	99.549834
3431.000000	99.547885
3430.000000	99.546163
3429.000000	99.545038
3428.000000	99.544790
3427.000000	99.545184
3426.000000	99.545451
3425.000000	99.544889
3424.000000	99.543395
3423.000000	99.541358
3422.000000	99.539313
3421.000000	99.537610
3420.000000	99.536395
3419.000000	99.535680
3418.000000	99.535273
3417.000000	99.534787
3416.000000	99.533935
3415.000000	99.532842
3414.000000	99.531933
3413.000000	99.531455
3412.000000	99.531185
3411.000000	99.530656
3410.000000	99.529607
3409.000000	99.528156
3408.000000	99.526661
3407.000000	99.525489
3406.000000	99.524873
3405.000000	99.524806
3404.000000	99.524943
3403.000000	99.524739
3402.000000	99.523895
3401.000000	99.522703
3400.000000	99.521845
3399.000000	99.521734
3398.000000	99.522086
3397.000000	99.522244
3396.000000	99.521973
3395.000000	99.521743
3394.000000	99.522127
3393.000000	99.523087
3392.000000	99.524011
3391.000000	99.524508
3390.000000	99.524850
3389.000000	99.525438
3388.000000	99.526031
3387.000000	99.525925
3386.000000	99.524959
3385.000000	99.524073
3384.000000	99.524571
3383.000000	99.526892
3382.000000	99.530130
3381.000000	99.532683
3380.000000	99.533552
3379.000000	99.533001
3378.000000	99.532192
3377.000000	99.532099
3376.000000	99.532770
3375.000000	99.533608
3374.000000	99.534022
3373.000000	99.533547
3372.000000	99.531743
3371.000000	99.528708
3370.000000	99.525836
3369.000000	99.525158
3368.000000	99.527489
3367.000000	99.531621
3366.000000	99.535641
3365.000000	99.538983
3364.000000	99.542402
3363.000000	99.546256
3362.000000	99.549761
3361.000000	99.552081
3360.000000	99.553413
3359.000000	99.554510
3358.000000	99.555434
3357.000000	99.555355
3356.000000	99.553651
3355.000000	99.550869
3354.000000	99.548491
3353.000000	99.547721
3352.000000	99.548499
3351.000000	99.549670
3350.000000	99.550230
3349.000000	99.550494
3348.000000	99.551773
3347.000000	99.554820
3346.000000	99.558871
3345.000000	99.562301
3344.000000	99.564136
3343.000000	99.564666
3342.000000	99.564780
3341.000000	99.565082
3340.000000	99.565690
3339.000000	99.566490
3338.000000	99.567353
3337.000000	99.568225
3336.000000	99.569238
3335.000000	99.570645
3334.000000	99.572497
3333.000000	99.574462
3332.000000	99.576110
3331.000000	99.577307
3330.000000	99.578219
3329.000000	99.579095
3328.000000	99.580180
3327.000000	99.581675
3326.000000	99.583565
3325.000000	99.585517
3324.000000	99.587111
3323.000000	99.588239
3322.000000	99.589149
3321.000000	99.590180
3320.000000	99.591434
3319.000000	99.592792
3318.000000	99.594163
3317.000000	99.595559
3316.000000	99.596996
3315.000000	99.598446
3314.000000	99.599881
3313.000000	99.601294
3312.000000	99.602699
3311.000000	99.604111
3310.000000	99.605528
3309.000000	99.606937
3308.000000	99.608329
3307.000000	99.609703
3306.000000	99.611058
3305.000000	99.612393
3304.000000	99.613707
3303.000000	99.615003
3302.000000	99.616279
3301.000000	99.617534
3300.000000	99.618769
3299.000000	99.619990
3298.000000	99.621201
3297.000000	99.622407
3296.000000	99.623605
3295.000000	99.624799
3294.000000	99.625986
3293.000000	99.627161
3292.000000	99.628314
3291.000000	99.629438
3290.000000	99.630536
3289.000000	99.631611
3288.000000	99.632667
3287.000000	99.633702
3286.000000	99.634712
3285.000000	99.635700
3284.000000	99.636676
3283.000000	99.637630
3282.000000	99.638541
3281.000000	99.639404
3280.000000	99.640256
3279.000000	99.641138
3278.000000	99.642060
3277.000000	99.642997
3276.000000	99.643895
3275.000000	99.644726
3274.000000	99.645516
3273.000000	99.646333
3272.000000	99.647225
3271.000000	99.648172
3270.000000	99.649127
3269.000000	99.650059
3268.000000	99.650954
3267.000000	99.651817
3266.000000	99.652696
3265.000000	99.653659
3264.000000	99.654694
3263.000000	99.655681
3262.000000	99.656546
3261.000000	99.657419
3260.000000	99.658464
3259.000000	99.659614
3258.000000	99.660681
3257.000000	99.661661
3256.000000	99.662746
3255.000000	99.664064
3254.000000	99.665599
3253.000000	99.667280
3252.000000	99.668887
3251.000000	99.669954
3250.000000	99.670127
3249.000000	99.669742
3248.000000	99.669756
3247.000000	99.670735
3246.000000	99.672307
3245.000000	99.673742
3244.000000	99.674967
3243.000000	99.676557
3242.000000	99.678872
3241.000000	99.681609
3240.000000	99.684134
3239.000000	99.686020
3238.000000	99.687262
3237.000000	99.688158
3236.000000	99.689080
3235.000000	99.690241
3234.000000	99.691641
3233.000000	99.693234
3232.000000	99.695034
3231.000000	99.696989
3230.000000	99.698823
3229.000000	99.700218
3228.000000	99.701254
3227.000000	99.702534
3226.000000	99.704736
3225.000000	99.708020
3224.000000	99.711770
3223.000000	99.714873
3222.000000	99.716410
3221.000000	99.716235
3220.000000	99.715149
3219.000000	99.714456
3218.000000	99.714933
3217.000000	99.716317
3216.000000	99.717775
3215.000000	99.718848
3214.000000	99.719829
3213.000000	99.721189
3212.000000	99.722846
3211.000000	99.724192
3210.000000	99.724766
3209.000000	99.724730
3208.000000	99.724771
3207.000000	99.725639
3206.000000	99.727723
3205.000000	99.730860
3204.000000	99.734343
3203.000000	99.737290
3202.000000	99.739166
3201.000000	99.740011
3200.000000	99.740291
3199.000000	99.740560
3198.000000	99.741142
3197.000000	99.741953
3196.000000	99.742561
3195.000000	99.742552
3194.000000	99.741939
3193.000000	99.741228
3192.000000	99.741117
3191.000000	99.742120
3190.000000	99.744385
3189.000000	99.747658
3188.000000	99.751317
3187.000000	99.754673
3186.000000	99.757298
3185.000000	99.759037
3184.000000	99.759950
3183.000000	99.760448
3182.000000	99.761292
3181.000000	99.763071
3180.000000	99.765639
3179.000000	99.768284
3178.000000	99.770454
3177.000000	99.772140
3176.000000	99.773542
3175.000000	99.774761
3174.000000	99.775940
3173.000000	99.777361
3172.000000	99.779159
3171.000000	99.781087
3170.000000	99.782767
3169.000000	99.784055
3168.000000	99.785058
3167.000000	99.785940
3166.000000	99.786861
3165.000000	99.787972
3164.000000	99.789282
3163.000000	99.790609
3162.000000	99.791805
3161.000000	99.793001
3160.000000	99.794518
3159.000000	99.796532
3158.000000	99.798938
3157.000000	99.801447
3156.000000	99.803722
3155.000000	99.805548
3154.000000	99.806996
3153.000000	99.808360
3152.000000	99.809874
3151.000000	99.811459
3150.000000	99.812867
3149.000000	99.814011
3148.000000	99.815044
3147.000000	99.816197
3146.000000	99.817580
3145.000000	99.819136
3144.000000	99.820695
3143.000000	99.822105
3142.000000	99.823350
3141.000000	99.824534
3140.000000	99.825787
3139.000000	99.827167
3138.000000	99.828649
3137.000000	99.830178
3136.000000	99.831697
3135.000000	99.833153
3134.000000	99.834502
3133.000000	99.835743
3132.000000	99.836935
3131.000000	99.838156
3130.000000	99.839436
3129.000000	99.840736
3128.000000	99.842013
3127.000000	99.843305
3126.000000	99.844712
3125.000000	99.846277
3124.000000	99.847907
3123.000000	99.849443
3122.000000	99.850837
3121.000000	99.852198
3120.000000	99.853663
3119.000000	99.855206
3118.000000	99.856640
3117.000000	99.857820
3116.000000	99.858795
3115.000000	99.859809
3114.000000	99.861108
3113.000000	99.862802
3112.000000	99.864831
3111.000000	99.866998
3110.000000	99.869055
3109.000000	99.870806
3108.000000	99.872189
3107.000000	99.873321
3106.000000	99.874463
3105.000000	99.875866
3104.000000	99.877490
3103.000000	99.878936
3102.000000	99.879819
3101.000000	99.880229
3100.000000	99.880690
3099.000000	99.881585
3098.000000	99.882822
3097.000000	99.884158
3096.000000	99.885550
3095.000000	99.887042
3094.000000	99.888532
3093.000000	99.889883
3092.000000	99.891103
3091.000000	99.892234
3090.000000	99.893287
3089.000000	99.894531
3088.000000	99.896591
3087.000000	99.899741
3086.000000	99.903117
3085.000000	99.905292
3084.000000	99.905925
3083.000000	99.906317
3082.000000	99.907930
3081.000000	99.910554
3080.000000	99.912642
3079.000000	99.913335
3078.000000	99.913456
3077.000000	99.914370
3076.000000	99.916276
3075.000000	99.918024
3074.000000	99.918448
3073.000000	99.917516
3072.000000	99.916329
3071.000000	99.916245
3070.000000	99.917887
3069.000000	99.920722
3068.000000	99.923467
3067.000000	99.925157
3066.000000	99.925969
3065.000000	99.926887
3064.000000	99.928467
3063.000000	99.930162
3062.000000	99.931012
3061.000000	99.930742
3060.000000	99.929977
3059.000000	99.929556
3058.000000	99.929839
3057.000000	99.930546
3056.000000	99.930975
3055.000000	99.930375
3054.000000	99.928424
3053.000000	99.925474
3052.000000	99.922234
3051.000000	99.919260
3050.000000	99.916883
3049.000000	99.915563
3048.000000	99.915945
3047.000000	99.918360
3046.000000	99.922468
3045.000000	99.927542
3044.000000	99.932965
3043.000000	99.938236
3042.000000	99.942590
3041.000000	99.945125
3040.000000	99.945600
3039.000000	99.944887
3038.000000	99.944313
3037.000000	99.944334
3036.000000	99.944256
3035.000000	99.943468
3034.000000	99.942599
3033.000000	99.942945
3032.000000	99.944815
3031.000000	99.947003
3030.000000	99.948117
3029.000000	99.948020
3028.000000	99.947588
3027.000000	99.947469
3026.000000	99.947635
3025.000000	99.948132
3024.000000	99.949576
3023.000000	99.952394
3022.000000	99.955830
3021.000000	99.958309
3020.000000	99.959062
3019.000000	99.959064
3018.000000	99.959949
3017.000000	99.961870
3016.000000	99.963024
3015.000000	99.961707
3014.000000	99.958508
3013.000000	99.956048
3012.000000	99.956489
3011.000000	99.959775
3010.000000	99.964165
3009.000000	99.967968
3008.000000	99.970591
3007.000000	99.972385
3006.000000	99.973997
3005.000000	99.975697
3004.000000	99.977001
3003.000000	99.977164
3002.000000	99.976287
3001.000000	99.975634
3000.000000	99.976431
2999.000000	99.978533
2998.000000	99.980660
2997.000000	99.981696
2996.000000	99.981352
2995.000000	99.979967
2994.000000	99.978365
2993.000000	99.977638
2992.000000	99.978214
2991.000000	99.979115
2990.000000	99.978838
2989.000000	99.977042
2988.000000	99.974780
2987.000000	99.973248
2986.000000	99.973158
2985.000000	99.975151
2984.000000	99.979355
2983.000000	99.984090
2982.000000	99.986522
2981.000000	99.985677
2980.000000	99.983965
2979.000000	99.984697
2978.000000	99.988954
2977.000000	99.995810
2976.000000	100.004523
2975.000000	100.014817
2974.000000	100.025299
2973.000000	100.033600
2972.000000	100.038763
2971.000000	100.042257
2970.000000	100.045882
2969.000000	100.049645
2968.000000	100.052658
2967.000000	100.055565
2966.000000	100.060890
2965.000000	100.070744
2964.000000	100.084617
2963.000000	100.099344
2962.000000	100.111035
2961.000000	100.117460
2960.000000	100.119167
2959.000000	100.118622
2958.000000	100.118162
2957.000000	100.118701
2956.000000	100.119930
2955.000000	100.120933
2954.000000	100.120645
2953.000000	100.118943
2952.000000	100.117843
2951.000000	100.120422
2950.000000	100.127316
2949.000000	100.134989
2948.000000	100.138910
2947.000000	100.138275
2946.000000	100.136338
2945.000000	100.136416
2944.000000	100.139498
2943.000000	100.146037
2942.000000	100.157687
2941.000000	100.175305
2940.000000	100.196308
2939.000000	100.216108
2938.000000	100.232381
2937.000000	100.246669
2936.000000	100.261726
2935.000000	100.278555
2934.000000	100.296347
2933.000000	100.313965
2932.000000	100.330399
2931.000000	100.344304
2930.000000	100.354338
2929.000000	100.360533
2928.000000	100.364983
2927.000000	100.370471
2926.000000	100.377863
2925.000000	100.384902
2924.000000	100.388105
2923.000000	100.385850
2922.000000	100.379182
2921.000000	100.369805
2920.000000	100.358334
2919.000000	100.344876
2918.000000	100.329863
2917.000000	100.313102
2916.000000	100.293157
2915.000000	100.269576
2914.000000	100.245386
2913.000000	100.225430
2912.000000	100.211764
2911.000000	100.202036
2910.000000	100.192605
2909.000000	100.181824
2908.000000	100.169904
2907.000000	100.157343
2906.000000	100.144912
2905.000000	100.134379
2904.000000	100.127780
2903.000000	100.125907
2902.000000	100.127824
2901.000000	100.131396
2900.000000	100.134122
2899.000000	100.134372
2898.000000	100.132471
2897.000000	100.129927
2896.000000	100.127140
2895.000000	100.122768
2894.000000	100.116021
2893.000000	100.108555
2892.000000	100.102960
2891.000000	100.100029
2890.000000	100.098583
2889.000000	100.097505
2888.000000	100.096864
2887.000000	100.097275
2886.000000	100.099057
2885.000000	100.101762
2884.000000	100.103886
2883.000000	100.103579
2882.000000	100.100694
2881.000000	100.097850
2880.000000	100.098381
2879.000000	100.103211
2878.000000	100.110338
2877.000000	100.116904
2876.000000	100.120942
2875.000000	100.121636
2874.000000	100.119379
2873.000000	100.115890
2872.000000	100.113223
2871.000000	100.112271
2870.000000	100.112778
2869.000000	100.114530
2868.000000	100.117591
2867.000000	100.121602
2866.000000	100.126226
2865.000000	100.132425
2864.000000	100.141757
2863.000000	100.153717
2862.000000	100.165137
2861.000000	100.173401
2860.000000	100.179660
2859.000000	100.187825
2858.000000	100.200667
2857.000000	100.217378
2856.000000	100.234302
2855.000000	100.247168
2854.000000	100.252854
2853.000000	100.250201
2852.000000	100.240121
2851.000000	100.225345
2850.000000	100.209773
2849.000000	100.196932
2848.000000	100.187960
2847.000000	100.181047
2846.000000	100.173511
2845.000000	100.164417
2844.000000	100.154752
2843.000000	100.145600
2842.000000	100.137354
2841.000000	100.130623
2840.000000	100.126373
2839.000000	100.124484
2838.000000	100.123145
2837.000000	100.120401
2836.000000	100.115738
2835.000000	100.109925
2834.000000	100.104328
2833.000000	100.100836
2832.000000	100.101155
2831.000000	100.105048
2830.000000	100.109924
2829.000000	100.113238
2828.000000	100.114755
2827.000000	100.115454
2826.000000	100.115102
2825.000000	100.112561
2824.000000	100.108301
2823.000000	100.104757
2822.000000	100.103499
2821.000000	100.103398
2820.000000	100.102619
2819.000000	100.101538
2818.000000	100.102290
2817.000000	100.105534
2816.000000	100.109034
2815.000000	100.110045
2814.000000	100.108320
2813.000000	100.105861
2812.000000	100.104179
2811.000000	100.102938
2810.000000	100.101317
2809.000000	100.099537
2808.000000	100.098478
2807.000000	100.098587
2806.000000	100.099770
2805.000000	100.101815
2804.000000	100.104274
2803.000000	100.106233
2802.000000	100.106998
2801.000000	100.106964
2800.000000	100.107088
2799.000000	100.107474
2798.000000	100.107263
2797.000000	100.106087
2796.000000	100.104882
2795.000000	100.104879
2794.000000	100.106267
2793.000000	100.108197
2792.000000	100.109709
2791.000000	100.110461
2790.000000	100.110717
2789.000000	100.110950
2788.000000	100.111492
2787.000000	100.112363
2786.000000	100.113358
2785.000000	100.114260
2784.000000	100.114989
2783.000000	100.115533
2782.000000	100.115896
2781.000000	100.116199
2780.000000	100.116730
2779.000000	100.117676
2778.000000	100.118832
2777.000000	100.119735
2776.000000	100.120199
2775.000000	100.120593
2774.000000	100.121457
2773.000000	100.122928
2772.000000	100.124594
2771.000000	100.125849
2770.000000	100.126442
2769.000000	100.126751
2768.000000	100.127550
2767.000000	100.129364
2766.000000	100.132028
2765.000000	100.134856
2764.000000	100.137206
2763.000000	100.138768
2762.000000	100.139455
2761.000000	100.139409
2760.000000	100.139213
2759.000000	100.139676
2758.000000	100.141083
2757.000000	100.142787
2756.000000	100.143753
2755.000000	100.143504
2754.000000	100.142485
2753.000000	100.141690
2752.000000	100.142020
2751.000000	100.143852
2750.000000	100.146930
2749.000000	100.150605
2748.000000	100.154278
2747.000000	100.157592
2746.000000	100.160282
2745.000000	100.162085
2744.000000	100.162998
2743.000000	100.163316
2742.000000	100.163291
2741.000000	100.163051
2740.000000	100.162910
2739.000000	100.163349
2738.000000	100.164362
2737.000000	100.165136
2736.000000	100.164915
2735.000000	100.164077
2734.000000	100.163854
2733.000000	100.164854
2732.000000	100.166247
2731.000000	100.166706
2730.000000	100.165923
2729.000000	100.164876
2728.000000	100.164671
2727.000000	100.165384
2726.000000	100.166173
2725.000000	100.166291
2724.000000	100.165710
2723.000000	100.164822
2722.000000	100.163932
2721.000000	100.163253
2720.000000	100.163158
2719.000000	100.164008
2718.000000	100.165700
2717.000000	100.167612
2716.000000	100.169087
2715.000000	100.169926
2714.000000	100.170363
2713.000000	100.170689
2712.000000	100.170981
2711.000000	100.171123
2710.000000	100.171043
2709.000000	100.170901
2708.000000	100.170958
2707.000000	100.171178
2706.000000	100.171152
2705.000000	100.170614
2704.000000	100.169900
2703.000000	100.169688
2702.000000	100.170251
2701.000000	100.171189
2700.000000	100.171810
2699.000000	100.171766
2698.000000	100.171243
2697.000000	100.170703
2696.000000	100.170506
2695.000000	100.170742
2694.000000	100.171306
2693.000000	100.171997
2692.000000	100.172570
2691.000000	100.172845
2690.000000	100.172792
2689.000000	100.172534
2688.000000	100.172289
2687.000000	100.172276
2686.000000	100.172586
2685.000000	100.173143
2684.000000	100.173790
2683.000000	100.174445
2682.000000	100.175087
2681.000000	100.175643
2680.000000	100.176001
2679.000000	100.176159
2678.000000	100.176297
2677.000000	100.176659
2676.000000	100.177370
2675.000000	100.178368
2674.000000	100.179460
2673.000000	100.180444
2672.000000	100.181239
2671.000000	100.181918
2670.000000	100.182576
2669.000000	100.183154
2668.000000	100.183480
2667.000000	100.183496
2666.000000	100.183384
2665.000000	100.183415
2664.000000	100.183714
2663.000000	100.184208
2662.000000	100.184744
2661.000000	100.185209
2660.000000	100.185560
2659.000000	100.185817
2658.000000	100.186067
2657.000000	100.186421
2656.000000	100.186918
2655.000000	100.187470
2654.000000	100.187918
2653.000000	100.188182
2652.000000	100.188317
2651.000000	100.188480
2650.000000	100.188800
2649.000000	100.189297
2648.000000	100.189881
2647.000000	100.190378
2646.000000	100.190687
2645.000000	100.190833
2644.000000	100.190929
2643.000000	100.191062
2642.000000	100.191232
2641.000000	100.191391
2640.000000	100.191494
2639.000000	100.191541
2638.000000	100.191586
2637.000000	100.191698
2636.000000	100.191916
2635.000000	100.192223
2634.000000	100.192556
2633.000000	100.192835
2632.000000	100.193023
2631.000000	100.193170
2630.000000	100.193388
2629.000000	100.193734
2628.000000	100.194127
2627.000000	100.194426
2626.000000	100.194617
2625.000000	100.194846
2624.000000	100.195225
2623.000000	100.195661
2622.000000	100.195978
2621.000000	100.196208
2620.000000	100.196605
2619.000000	100.197330
2618.000000	100.198177
2617.000000	100.198710
2616.000000	100.198650
2615.000000	100.198092
2614.000000	100.197412
2613.000000	100.197003
2612.000000	100.197066
2611.000000	100.197540
2610.000000	100.198156
2609.000000	100.198639
2608.000000	100.199014
2607.000000	100.199634
2606.000000	100.200789
2605.000000	100.202399
2604.000000	100.204170
2603.000000	100.205924
2602.000000	100.207576
2601.000000	100.208753
2600.000000	100.208835
2599.000000	100.207594
2598.000000	100.205615
2597.000000	100.203972
2596.000000	100.203387
2595.000000	100.203981
2594.000000	100.205581
2593.000000	100.207866
2592.000000	100.210261
2591.000000	100.212073
2590.000000	100.212962
2589.000000	100.213099
2588.000000	100.212806
2587.000000	100.212250
2586.000000	100.211538
2585.000000	100.210804
2584.000000	100.210130
2583.000000	100.209584
2582.000000	100.209412
2581.000000	100.209878
2580.000000	100.210797
2579.000000	100.211508
2578.000000	100.211587
2577.000000	100.211356
2576.000000	100.211397
2575.000000	100.211787
2574.000000	100.212177
2573.000000	100.212432
2572.000000	100.212771
2571.000000	100.213305
2570.000000	100.213877
2569.000000	100.214368
2568.000000	100.214804
2567.000000	100.215123
2566.000000	100.215176
2565.000000	100.215027
2564.000000	100.214947
2563.000000	100.215071
2562.000000	100.215338
2561.000000	100.215744
2560.000000	100.216288
2559.000000	100.216628
2558.000000	100.216271
2557.000000	100.215288
2556.000000	100.214465
2555.000000	100.214405
2554.000000	100.214820
2553.000000	100.214973
2552.000000	100.214553
2551.000000	100.213841
2550.000000	100.213282
2549.000000	100.213218
2548.000000	100.213849
2547.000000	100.215008
2546.000000	100.216002
2545.000000	100.216064
2544.000000	100.214994
2543.000000	100.213263
2542.000000	100.211556
2541.000000	100.210360
2540.000000	100.209983
2539.000000	100.210553
2538.000000	100.211777
2537.000000	100.213033
2536.000000	100.213960
2535.000000	100.214749
2534.000000	100.215691
2533.000000	100.216699
2532.000000	100.217403
2531.000000	100.217597
2530.000000	100.217471
2529.000000	100.217476
2528.000000	100.217967
2527.000000	100.218911
2526.000000	100.219896
2525.000000	100.220533
2524.000000	100.220845
2523.000000	100.221152
2522.000000	100.221625
2521.000000	100.222105
2520.000000	100.222425
2519.000000	100.222715
2518.000000	100.223264
2517.000000	100.224146
2516.000000	100.225091
2515.000000	100.225731
2514.000000	100.225964
2513.000000	100.226030
2512.000000	100.226291
2511.000000	100.226905
2510.000000	100.227761
2509.000000	100.228701
2508.000000	100.229683
2507.000000	100.230711
2506.000000	100.231742
2505.000000	100.232729
2504.000000	100.233662
2503.000000	100.234514
2502.000000	100.235217
2501.000000	100.235789
2500.000000	100.236370
2499.000000	100.237078
2498.000000	100.237889
2497.000000	100.238721
2496.000000	100.239532
2495.000000	100.240325
2494.000000	100.241115
2493.000000	100.241902
2492.000000	100.242677
2491.000000	100.243430
2490.000000	100.244166
2489.000000	100.244900
2488.000000	100.245648
2487.000000	100.246413
2486.000000	100.247186
2485.000000	100.247949
2484.000000	100.248686
2483.000000	100.249400
2482.000000	100.250100
2481.000000	100.250787
2480.000000	100.251460
2479.000000	100.252145
2478.000000	100.252895
2477.000000	100.253741
2476.000000	100.254662
2475.000000	100.255605
2474.000000	100.256515
2473.000000	100.257337
2472.000000	100.258029
2471.000000	100.258621
2470.000000	100.259238
2469.000000	100.260013
2468.000000	100.260995
2467.000000	100.262105
2466.000000	100.263141
2465.000000	100.263924
2464.000000	100.264436
2463.000000	100.264862
2462.000000	100.265403
2461.000000	100.266055
2460.000000	100.266640
2459.000000	100.267065
2458.000000	100.267484
2457.000000	100.268150
2456.000000	100.269104
2455.000000	100.270083
2454.000000	100.270775
2453.000000	100.271124
2452.000000	100.271359
2451.000000	100.271726
2450.000000	100.272234
2449.000000	100.272684
2448.000000	100.272919
2447.000000	100.272981
2446.000000	100.273056
2445.000000	100.273336
2444.000000	100.273980
2443.000000	100.275083
2442.000000	100.276595
2441.000000	100.278292
2440.000000	100.279904
2439.000000	100.281252
2438.000000	100.282202
2437.000000	100.282588
2436.000000	100.282302
2435.000000	100.281455
2434.000000	100.280374
2433.000000	100.279476
2432.000000	100.279194
2431.000000	100.279852
2430.000000	100.281442
2429.000000	100.283410
2428.000000	100.284928
2427.000000	100.285568
2426.000000	100.285567
2425.000000	100.285470
2424.000000	100.285530
2423.000000	100.285628
2422.000000	100.285678
2421.000000	100.285854
2420.000000	100.286327
2419.000000	100.286976
2418.000000	100.287509
2417.000000	100.287829
2416.000000	100.288121
2415.000000	100.288566
2414.000000	100.289137
2413.000000	100.289736
2412.000000	100.290385
2411.000000	100.291096
2410.000000	100.291659
2409.000000	100.291747
2408.000000	100.291273
2407.000000	100.290513
2406.000000	100.289864
2405.000000	100.289556
2404.000000	100.289587
2403.000000	100.289801
2402.000000	100.289997
2401.000000	100.290068
2400.000000	100.290080
2399.000000	100.290171
2398.000000	100.290402
2397.000000	100.290754
2396.000000	100.291218
2395.000000	100.291734
2394.000000	100.292065
2393.000000	100.291939
2392.000000	100.291417
2391.000000	100.291004
2390.000000	100.291122
2389.000000	100.291671
2388.000000	100.292248
2387.000000	100.292692
2386.000000	100.293100
2385.000000	100.293362
2384.000000	100.293177
2383.000000	100.292598
2382.000000	100.292146
2381.000000	100.292214
2380.000000	100.292649
2379.000000	100.293109
2378.000000	100.293554
2377.000000	100.294112
2376.000000	100.294688
2375.000000	100.295064
2374.000000	100.295218
2373.000000	100.295266
2372.000000	100.295184
2371.000000	100.294919
2370.000000	100.294686
2369.000000	100.294849
2368.000000	100.295489
2367.000000	100.296290
2366.000000	100.296905
2365.000000	100.297280
2364.000000	100.297607
2363.000000	100.298114
2362.000000	100.299004
2361.000000	100.300361
2360.000000	100.302027
2359.000000	100.303654
2358.000000	100.304690
2357.000000	100.304637
2356.000000	100.303517
2355.000000	100.302062
2354.000000	100.301236
2353.000000	100.301259
2352.000000	100.301632
2351.000000	100.301817
2350.000000	100.301769
2349.000000	100.301830
2348.000000	100.302129
2347.000000	100.302457
2346.000000	100.302519
2345.000000	100.302341
2344.000000	100.302291
2343.000000	100.302450
2342.000000	100.302500
2341.000000	100.301969
2340.000000	100.300921
2339.000000	100.300045
2338.000000	100.299964
2337.000000	100.300618
2336.000000	100.301366
2335.000000	100.301740
2334.000000	100.301810
2333.000000	100.301965
2332.000000	100.302427
2331.000000	100.303163
2330.000000	100.303768
2329.000000	100.303780
2328.000000	100.302785
2327.000000	100.301158
2326.000000	100.299876
2325.000000	100.299761
2324.000000	100.300651
2323.000000	100.301618
2322.000000	100.302047
2321.000000	100.301970
2320.000000	100.301578
2319.000000	100.300763
2318.000000	100.299455
2317.000000	100.298007
2316.000000	100.296835
2315.000000	100.296084
2314.000000	100.295502
2313.000000	100.294835
2312.000000	100.293803
2311.000000	100.292301
2310.000000	100.290401
2309.000000	100.288625
2308.000000	100.287614
2307.000000	100.287780
2306.000000	100.288848
2305.000000	100.290013
2304.000000	100.290442
2303.000000	100.289979
2302.000000	100.289112
2301.000000	100.288467
2300.000000	100.288238
2299.000000	100.288336
2298.000000	100.288669
2297.000000	100.289154
2296.000000	100.289452
2295.000000	100.289197
2294.000000	100.288451
2293.000000	100.287776
2292.000000	100.287637
2291.000000	100.287930
2290.000000	100.288083
2289.000000	100.287608
2288.000000	100.286502
2287.000000	100.285241
2286.000000	100.284414
2285.000000	100.284190
2284.000000	100.284182
2283.000000	100.283884
2282.000000	100.283205
2281.000000	100.282415
2280.000000	100.281669
2279.000000	100.280893
2278.000000	100.280156
2277.000000	100.279771
2276.000000	100.279886
2275.000000	100.280201
2274.000000	100.280270
2273.000000	100.280028
2272.000000	100.279729
2271.000000	100.279461
2270.000000	100.278998
2269.000000	100.278256
2268.000000	100.277571
2267.000000	100.277318
2266.000000	100.277418
2265.000000	100.277453
2264.000000	100.277179
2263.000000	100.276747
2262.000000	100.276380
2261.000000	100.276109
2260.000000	100.275921
2259.000000	100.275983
2258.000000	100.276435
2257.000000	100.277068
2256.000000	100.277444
2255.000000	100.277379
2254.000000	100.277060
2253.000000	100.276713
2252.000000	100.276434
2251.000000	100.276364
2250.000000	100.276724
2249.000000	100.277473
2248.000000	100.278143
2247.000000	100.278271
2246.000000	100.277894
2245.000000	100.277422
2244.000000	100.277074
2243.000000	100.276682
2242.000000	100.276070
2241.000000	100.275412
2240.000000	100.275076
2239.000000	100.275264
2238.000000	100.275912
2237.000000	100.276857
2236.000000	100.277954
2235.000000	100.279074
2234.000000	100.280066
2233.000000	100.280757
2232.000000	100.281027
2231.000000	100.280907
2230.000000	100.280583
2229.000000	100.280230
2228.000000	100.279880
2227.000000	100.279537
2226.000000	100.279342
2225.000000	100.279501
2224.000000	100.280080
2223.000000	100.280957
2222.000000	100.281929
2221.000000	100.282823
2220.000000	100.283524
2219.000000	100.283975
2218.000000	100.284118
2217.000000	100.283830
2216.000000	100.283061
2215.000000	100.282116
2214.000000	100.281639
2213.000000	100.282038
2212.000000	100.283083
2211.000000	100.284067
2210.000000	100.284523
2209.000000	100.284588
2208.000000	100.284639
2207.000000	100.284776
2206.000000	100.284790
2205.000000	100.284529
2204.000000	100.284088
2203.000000	100.283721
2202.000000	100.283643
2201.000000	100.283916
2200.000000	100.284436
2199.000000	100.285048
2198.000000	100.285690
2197.000000	100.286378
2196.000000	100.287070
2195.000000	100.287643
2194.000000	100.288026
2193.000000	100.288287
2192.000000	100.288539
2191.000000	100.288837
2190.000000	100.289182
2189.000000	100.289590
2188.000000	100.290090
2187.000000	100.290679
2186.000000	100.291285
2185.000000	100.291801
2184.000000	100.292173
2183.000000	100.292448
2182.000000	100.292722
2181.000000	100.293061
2180.000000	100.293456
2179.000000	100.293871
2178.000000	100.294284
2177.000000	100.294690
2176.000000	100.295092
2175.000000	100.295492
2174.000000	100.295894
2173.000000	100.296298
2172.000000	100.296708
2171.000000	100.297121
2170.000000	100.297534
2169.000000	100.297943
2168.000000	100.298350
2167.000000	100.298755
2166.000000	100.299159
2165.000000	100.299558
2164.000000	100.299949
2163.000000	100.300331
2162.000000	100.300704
2161.000000	100.301067
2160.000000	100.301417
2159.000000	100.301750
2158.000000	100.302068
2157.000000	100.302371
2156.000000	100.302662
2155.000000	100.302944
2154.000000	100.303219
2153.000000	100.303496
2152.000000	100.303778
2151.000000	100.304063
2150.000000	100.304344
2149.000000	100.304616
2148.000000	100.304881
2147.000000	100.305145
2146.000000	100.305414
2145.000000	100.305687
2144.000000	100.305963
2143.000000	100.306244
2142.000000	100.306535
2141.000000	100.306842
2140.000000	100.307166
2139.000000	100.307500
2138.000000	100.307837
2137.000000	100.308174
2136.000000	100.308512
2135.000000	100.308857
2134.000000	100.309210
2133.000000	100.309577
2132.000000	100.309957
2131.000000	100.310351
2130.000000	100.310753
2129.000000	100.311157
2128.000000	100.311557
2127.000000	100.311951
2126.000000	100.312343
2125.000000	100.312740
2124.000000	100.313161
2123.000000	100.313623
2122.000000	100.314125
2121.000000	100.314639
2120.000000	100.315141
2119.000000	100.315630
2118.000000	100.316137
2117.000000	100.316693
2116.000000	100.317287
2115.000000	100.317875
2114.000000	100.318429
2113.000000	100.318994
2112.000000	100.319651
2111.000000	100.320413
2110.000000	100.321167
2109.000000	100.321774
2108.000000	100.322203
2107.000000	100.322540
2106.000000	100.322898
2105.000000	100.323340
2104.000000	100.323889
2103.000000	100.324536
2102.000000	100.325230
2101.000000	100.325921
2100.000000	100.326594
2099.000000	100.327246
2098.000000	100.327831
2097.000000	100.328284
2096.000000	100.328611
2095.000000	100.328930
2094.000000	100.329372
2093.000000	100.329961
2092.000000	100.330616
2091.000000	100.331248
2090.000000	100.331851
2089.000000	100.332478
2088.000000	100.333158
2087.000000	100.333860
2086.000000	100.334545
2085.000000	100.335203
2084.000000	100.335823
2083.000000	100.336371
2082.000000	100.336824
2081.000000	100.337157
2080.000000	100.337288
2079.000000	100.337150
2078.000000	100.336887
2077.000000	100.336858
2076.000000	100.337266
2075.000000	100.337937
2074.000000	100.338582
2073.000000	100.339236
2072.000000	100.340183
2071.000000	100.341385
2070.000000	100.342285
2069.000000	100.342317
2068.000000	100.341464
2067.000000	100.340305
2066.000000	100.339625
2065.000000	100.339862
2064.000000	100.340814
2063.000000	100.341793
2062.000000	100.342271
2061.000000	100.342405
2060.000000	100.342745
2059.000000	100.343454
2058.000000	100.344022
2057.000000	100.343848
2056.000000	100.342901
2055.000000	100.341786
2054.000000	100.341255
2053.000000	100.341624
2052.000000	100.342531
2051.000000	100.343287
2050.000000	100.343604
2049.000000	100.343844
2048.000000	100.344334
2047.000000	100.344736
2046.000000	100.344487
2045.000000	100.343601
2044.000000	100.342541
2043.000000	100.341559
2042.000000	100.340668
2041.000000	100.340014
2040.000000	100.339567
2039.000000	100.338610
2038.000000	100.336353
2037.000000	100.333113
2036.000000	100.330249
2035.000000	100.328676
2034.000000	100.328137
2033.000000	100.328075
2032.000000	100.328470
2031.000000	100.329412
2030.000000	100.330352
2029.000000	100.330501
2028.000000	100.329723
2027.000000	100.328617
2026.000000	100.327858
2025.000000	100.327696
2024.000000	100.327883
2023.000000	100.327820
2022.000000	100.327041
2021.000000	100.325724
2020.000000	100.324510
2019.000000	100.323678
2018.000000	100.322827
2017.000000	100.321569
2016.000000	100.320151
2015.000000	100.319071
2014.000000	100.318415
2013.000000	100.317962
2012.000000	100.317662
2011.000000	100.317596
2010.000000	100.317606
2009.000000	100.317340
2008.000000	100.316605
2007.000000	100.315481
2006.000000	100.314199
2005.000000	100.313098
2004.000000	100.312558
2003.000000	100.312663
2002.000000	100.313006
2001.000000	100.313031
2000.000000	100.312640
1999.000000	100.312221
1998.000000	100.312033
1997.000000	100.311839
1996.000000	100.311231
1995.000000	100.310051
1994.000000	100.308416
1993.000000	100.306630
1992.000000	100.305204
1991.000000	100.304611
1990.000000	100.304855
1989.000000	100.305451
1988.000000	100.305833
1987.000000	100.305751
1986.000000	100.305190
1985.000000	100.304191
1984.000000	100.302972
1983.000000	100.302014
1982.000000	100.301745
1981.000000	100.302125
1980.000000	100.302778
1979.000000	100.303454
1978.000000	100.304169
1977.000000	100.304935
1976.000000	100.305533
1975.000000	100.305663
1974.000000	100.305201
1973.000000	100.304263
1972.000000	100.303122
1971.000000	100.302122
1970.000000	100.301574
1969.000000	100.301611
1968.000000	100.302067
1967.000000	100.302539
1966.000000	100.302715
1965.000000	100.302591
1964.000000	100.302320
1963.000000	100.301992
1962.000000	100.301633
1961.000000	100.301335
1960.000000	100.301214
1959.000000	100.301228
1958.000000	100.301165
1957.000000	100.300861
1956.000000	100.300335
1955.000000	100.299690
1954.000000	100.299018
1953.000000	100.298469
1952.000000	100.298221
1951.000000	100.298217
1950.000000	100.298055
1949.000000	100.297354
1948.000000	100.296202
1947.000000	100.295146
1946.000000	100.294635
1945.000000	100.294631
1944.000000	100.294729
1943.000000	100.294560
1942.000000	100.294020
1941.000000	100.293167
1940.000000	100.292112
1939.000000	100.291023
1938.000000	100.290051
1937.000000	100.289148
1936.000000	100.288052
1935.000000	100.286622
1934.000000	100.285141
1933.000000	100.284145
1932.000000	100.283843
1931.000000	100.283784
1930.000000	100.283287
1929.000000	100.281991
1928.000000	100.280101
1927.000000	100.278180
1926.000000	100.276907
1925.000000	100.276882
1924.000000	100.278080
1923.000000	100.279489
1922.000000	100.279709
1921.000000	100.278245
1920.000000	100.275811
1919.000000	100.273409
1918.000000	100.271417
1917.000000	100.269539
1916.000000	100.267415
1915.000000	100.265000
1914.000000	100.262311
1913.000000	100.259358
1912.000000	100.256195
1911.000000	100.252922
1910.000000	100.249905
1909.000000	100.247825
1908.000000	100.247417
1907.000000	100.248537
1906.000000	100.249908
1905.000000	100.250217
1904.000000	100.249161
1903.000000	100.247489
1902.000000	100.245744
1901.000000	100.243265
1900.000000	100.239102
1899.000000	100.233468
1898.000000	100.227954
1897.000000	100.224221
1896.000000	100.222398
1895.000000	100.221196
1894.000000	100.219518
1893.000000	100.217662
1892.000000	100.216581
1891.000000	100.216316
1890.000000	100.215657
1889.000000	100.213472
1888.000000	100.210150
1887.000000	100.207131
1886.000000	100.205353
1885.000000	100.204918
1884.000000	100.205583
1883.000000	100.206901
1882.000000	100.207994
1881.000000	100.207822
1880.000000	100.206353
1879.000000	100.204795
1878.000000	100.204203
1877.000000	100.204576
1876.000000	100.205382
1875.000000	100.206513
1874.000000	100.208276
1873.000000	100.210440
1872.000000	100.212035
1871.000000	100.212357
1870.000000	100.211714
1869.000000	100.210899
1868.000000	100.210115
1867.000000	100.209226
1866.000000	100.208510
1865.000000	100.208278
1864.000000	100.208482
1863.000000	100.209271
1862.000000	100.211391
1861.000000	100.215114
1860.000000	100.218985
1859.000000	100.220851
1858.000000	100.220444
1857.000000	100.220025
1856.000000	100.221879
1855.000000	100.225815
1854.000000	100.230027
1853.000000	100.233334
1852.000000	100.236092
1851.000000	100.238758
1850.000000	100.240571
1849.000000	100.240752
1848.000000	100.239824
1847.000000	100.239035
1846.000000	100.238830
1845.000000	100.238793
1844.000000	100.238851
1843.000000	100.239638
1842.000000	100.241551
1841.000000	100.244072
1840.000000	100.246216
1839.000000	100.247207
1838.000000	100.247105
1837.000000	100.246865
1836.000000	100.247417
1835.000000	100.248734
1834.000000	100.249916
1833.000000	100.250200
1832.000000	100.249905
1831.000000	100.250059
1830.000000	100.251138
1829.000000	100.252617
1828.000000	100.254012
1827.000000	100.255451
1826.000000	100.256898
1825.000000	100.257920
1824.000000	100.258211
1823.000000	100.257844
1822.000000	100.256919
1821.000000	100.255542
1820.000000	100.254485
1819.000000	100.254924
1818.000000	100.257234
1817.000000	100.260271
1816.000000	100.262089
1815.000000	100.261925
1814.000000	100.260536
1813.000000	100.259232
1812.000000	100.258839
1811.000000	100.259084
1810.000000	100.259150
1809.000000	100.258523
1808.000000	100.257406
1807.000000	100.256452
1806.000000	100.256032
1805.000000	100.255977
1804.000000	100.255854
1803.000000	100.255677
1802.000000	100.255754
1801.000000	100.256273
1800.000000	100.257310
1799.000000	100.258970
1798.000000	100.261301
1797.000000	100.263778
1796.000000	100.265507
1795.000000	100.266212
1794.000000	100.266471
1793.000000	100.267140
1792.000000	100.268443
1791.000000	100.269809
1790.000000	100.271017
1789.000000	100.272287
1788.000000	100.273538
1787.000000	100.274372
1786.000000	100.274693
1785.000000	100.275047
1784.000000	100.275950
1783.000000	100.277612
1782.000000	100.280000
1781.000000	100.283272
1780.000000	100.287601
1779.000000	100.292100
1778.000000	100.295263
1777.000000	100.296245
1776.000000	100.295821
1775.000000	100.295957
1774.000000	100.298169
1773.000000	100.302676
1772.000000	100.308236
1771.000000	100.312779
1770.000000	100.315121
1769.000000	100.315097
1768.000000	100.313176
1767.000000	100.310958
1766.000000	100.309963
1765.000000	100.310145
1764.000000	100.310342
1763.000000	100.310071
1762.000000	100.310635
1761.000000	100.313997
1760.000000	100.320383
1759.000000	100.328047
1758.000000	100.334872
1757.000000	100.339462
1756.000000	100.342379
1755.000000	100.345308
1754.000000	100.348764
1753.000000	100.351369
1752.000000	100.351585
1751.000000	100.349923
1750.000000	100.349323
1749.000000	100.352083
1748.000000	100.357165
1747.000000	100.361876
1746.000000	100.364333
1745.000000	100.364895
1744.000000	100.365543
1743.000000	100.367853
1742.000000	100.371675
1741.000000	100.375435
1740.000000	100.377139
1739.000000	100.376281
1738.000000	100.374720
1737.000000	100.374237
1736.000000	100.374633
1735.000000	100.374480
1734.000000	100.373241
1733.000000	100.371667
1732.000000	100.370813
1731.000000	100.369995
1730.000000	100.367554
1729.000000	100.363402
1728.000000	100.359552
1727.000000	100.357959
1726.000000	100.358229
1725.000000	100.358667
1724.000000	100.357947
1723.000000	100.355726
1722.000000	100.352781
1721.000000	100.349911
1720.000000	100.347546
1719.000000	100.346258
1718.000000	100.347009
1717.000000	100.348910
1716.000000	100.349344
1715.000000	100.347410
1714.000000	100.344060
1713.000000	100.340478
1712.000000	100.337083
1711.000000	100.333695
1710.000000	100.330352
1709.000000	100.327321
1708.000000	100.324672
1707.000000	100.321958
1706.000000	100.318908
1705.000000	100.316142
1704.000000	100.314225
1703.000000	100.312693
1702.000000	100.310475
1701.000000	100.307187
1700.000000	100.304035
1699.000000	100.301982
1698.000000	100.300479
1697.000000	100.298772
1696.000000	100.296669
1695.000000	100.294394
1694.000000	100.292109
1693.000000	100.289807
1692.000000	100.287470
1691.000000	100.285127
1690.000000	100.282811
1689.000000	100.280521
1688.000000	100.278252
1687.000000	100.276006
1686.000000	100.273778
1685.000000	100.271562
1684.000000	100.269359
1683.000000	100.267176
1682.000000	100.265012
1681.000000	100.262861
1680.000000	100.260716
1679.000000	100.258579
1678.000000	100.256458
1677.000000	100.254352
1676.000000	100.252261
1675.000000	100.250181
1674.000000	100.248116
1673.000000	100.246087
1672.000000	100.244119
1671.000000	100.242180
1670.000000	100.240258
1669.000000	100.238336
1668.000000	100.236313
1667.000000	100.234190
1666.000000	100.232050
1665.000000	100.229917
1664.000000	100.227766
1663.000000	100.225878
1662.000000	100.224576
1661.000000	100.223458
1660.000000	100.221969
1659.000000	100.219937
1658.000000	100.217656
1657.000000	100.215581
1656.000000	100.214090
1655.000000	100.212910
1654.000000	100.211957
1653.000000	100.211166
1652.000000	100.209116
1651.000000	100.207337
1650.000000	100.206754
1649.000000	100.206025
1648.000000	100.204544
1647.000000	100.202805
1646.000000	100.200817
1645.000000	100.199006
1644.000000	100.198256
1643.000000	100.198637
1642.000000	100.198998
1641.000000	100.197543
1640.000000	100.194129
1639.000000	100.190155
1638.000000	100.187179
1637.000000	100.185730
1636.000000	100.185770
1635.000000	100.186172
1634.000000	100.186450
1633.000000	100.187471
1632.000000	100.189167
1631.000000	100.191156
1630.000000	100.193521
1629.000000	100.196468
1628.000000	100.199732
1627.000000	100.202592
1626.000000	100.204001
1625.000000	100.203148
1624.000000	100.200678
1623.000000	100.199228
1622.000000	100.201136
1621.000000	100.205912
1620.000000	100.211174
1619.000000	100.214217
1618.000000	100.212993
1617.000000	100.208487
1616.000000	100.205469
1615.000000	100.207217
1614.000000	100.211970
1613.000000	100.216251
1612.000000	100.218649
1611.000000	100.220764
1610.000000	100.224680
1609.000000	100.230455
1608.000000	100.236654
1607.000000	100.242259
1606.000000	100.247031
1605.000000	100.251121
1604.000000	100.255414
1603.000000	100.260680
1602.000000	100.266375
1601.000000	100.271130
1600.000000	100.274453
1599.000000	100.277202
1598.000000	100.280184
1597.000000	100.283247
1596.000000	100.285877
1595.000000	100.288042
1594.000000	100.290126
1593.000000	100.292602
1592.000000	100.296195
1591.000000	100.301580
1590.000000	100.308292
1589.000000	100.314529
1588.000000	100.318882
1587.000000	100.321529
1586.000000	100.323474
1585.000000	100.324808
1584.000000	100.325238
1583.000000	100.325469
1582.000000	100.326561
1581.000000	100.328603
1580.000000	100.330830
1579.000000	100.332678
1578.000000	100.334054
1577.000000	100.335409
1576.000000	100.337314
1575.000000	100.340103
1574.000000	100.343950
1573.000000	100.348021
1572.000000	100.350672
1571.000000	100.350887
1570.000000	100.350122
1569.000000	100.351113
1568.000000	100.354729
1567.000000	100.359302
1566.000000	100.362568
1565.000000	100.363313
1564.000000	100.362287
1563.000000	100.361580
1562.000000	100.362365
1561.000000	100.364476
1560.000000	100.367852
1559.000000	100.372241
1558.000000	100.373853
1557.000000	100.374028
1556.000000	100.374278
1555.000000	100.373085
1554.000000	100.371073
1553.000000	100.370889
1552.000000	100.373863
1551.000000	100.377699
1550.000000	100.379090
1549.000000	100.377062
1548.000000	100.373438
1547.000000	100.370397
1546.000000	100.368738
1545.000000	100.368284
1544.000000	100.368267
1543.000000	100.367098
1542.000000	100.363547
1541.000000	100.358340
1540.000000	100.354484
1539.000000	100.353630
1538.000000	100.354150
1537.000000	100.354020
1536.000000	100.352508
1535.000000	100.350115
1534.000000	100.348122
1533.000000	100.346993
1532.000000	100.345583
1531.000000	100.342884
1530.000000	100.339261
1529.000000	100.335929
1528.000000	100.333900
1527.000000	100.333206
1526.000000	100.332927
1525.000000	100.332147
1524.000000	100.330716
1523.000000	100.328824
1522.000000	100.326652
1521.000000	100.324454
1520.000000	100.322710
1519.000000	100.321963
1518.000000	100.322383
1517.000000	100.323533
1516.000000	100.324110
1515.000000	100.323032
1514.000000	100.320355
1513.000000	100.316920
1512.000000	100.313937
1511.000000	100.312384
1510.000000	100.312416
1509.000000	100.313537
1508.000000	100.315028
1507.000000	100.315997
1506.000000	100.315490
1505.000000	100.314166
1504.000000	100.313263
1503.000000	100.312824
1502.000000	100.312373
1501.000000	100.311624
1500.000000	100.310753
1499.000000	100.310226
1498.000000	100.310329
1497.000000	100.310825
1496.000000	100.310846
1495.000000	100.309965
1494.000000	100.308711
1493.000000	100.307602
1492.000000	100.306934
1491.000000	100.307542
1490.000000	100.310589
1489.000000	100.315475
1488.000000	100.319582
1487.000000	100.320940
1486.000000	100.319986
1485.000000	100.318360
1484.000000	100.317564
1483.000000	100.318280
1482.000000	100.320176
1481.000000	100.322346
1480.000000	100.323854
1479.000000	100.324551
1478.000000	100.324992
1477.000000	100.325988
1476.000000	100.327694
1475.000000	100.329836
1474.000000	100.332681
1473.000000	100.337114
1472.000000	100.343285
1471.000000	100.350125
1470.000000	100.356602
1469.000000	100.361530
1468.000000	100.363086
1467.000000	100.360209
1466.000000	100.354306
1465.000000	100.349156
1464.000000	100.347965
1463.000000	100.349877
1462.000000	100.351966
1461.000000	100.352601
1460.000000	100.352004
1459.000000	100.351335
1458.000000	100.351656
1457.000000	100.352161
1456.000000	100.350209
1455.000000	100.345910
1454.000000	100.341110
1453.000000	100.336964
1452.000000	100.334402
1451.000000	100.333476
1450.000000	100.333168
1449.000000	100.332723
1448.000000	100.331846
1447.000000	100.330157
1446.000000	100.327086
1445.000000	100.323093
1444.000000	100.320308
1443.000000	100.319923
1442.000000	100.320512
1441.000000	100.319644
1440.000000	100.316701
1439.000000	100.312992
1438.000000	100.310341
1437.000000	100.310145
1436.000000	100.311606
1435.000000	100.312067
1434.000000	100.309898
1433.000000	100.305306
1432.000000	100.299898
1431.000000	100.296052
1430.000000	100.295150
1429.000000	100.296916
1428.000000	100.300092
1427.000000	100.303537
1426.000000	100.306292
1425.000000	100.307555
1424.000000	100.307356
1423.000000	100.305898
1422.000000	100.302933
1421.000000	100.298485
1420.000000	100.294613
1419.000000	100.294846
1418.000000	100.299397
1417.000000	100.304746
1416.000000	100.308655
1415.000000	100.311590
1414.000000	100.314595
1413.000000	100.317965
1412.000000	100.321253
1411.000000	100.323688
1410.000000	100.324536
1409.000000	100.323728
1408.000000	100.322049
1407.000000	100.320849
1406.000000	100.321110
1405.000000	100.322742
1404.000000	100.325287
1403.000000	100.328569
1402.000000	100.332383
1401.000000	100.335983
1400.000000	100.338420
1399.000000	100.339424
1398.000000	100.339605
1397.000000	100.339711
1396.000000	100.340185
1395.000000	100.341656
1394.000000	100.344469
1393.000000	100.347815
1392.000000	100.350414
1391.000000	100.351703
1390.000000	100.352076
1389.000000	100.352351
1388.000000	100.353101
1387.000000	100.354338
1386.000000	100.355749
1385.000000	100.357116
1384.000000	100.358600
1383.000000	100.360654
1382.000000	100.363655
1381.000000	100.367242
1380.000000	100.370073
1379.000000	100.370873
1378.000000	100.369751
1377.000000	100.368361
1376.000000	100.368568
1375.000000	100.370961
1374.000000	100.374262
1373.000000	100.376535
1372.000000	100.377103
1371.000000	100.376537
1370.000000	100.375352
1369.000000	100.373601
1368.000000	100.371670
1367.000000	100.370594
1366.000000	100.371161
1365.000000	100.372999
1364.000000	100.374751
1363.000000	100.375197
1362.000000	100.374376
1361.000000	100.373500
1360.000000	100.373628
1359.000000	100.374764
1358.000000	100.376085
1357.000000	100.376703
1356.000000	100.376424
1355.000000	100.375845
1354.000000	100.375579
1353.000000	100.375557
1352.000000	100.375200
1351.000000	100.374230
1350.000000	100.372883
1349.000000	100.371416
1348.000000	100.370024
1347.000000	100.369033
1346.000000	100.368849
1345.000000	100.369521
1344.000000	100.370603
1343.000000	100.371618
1342.000000	100.372442
1341.000000	100.373157
1340.000000	100.373673
1339.000000	100.373681
1338.000000	100.373048
1337.000000	100.372190
1336.000000	100.371942
1335.000000	100.372951
1334.000000	100.374914
1333.000000	100.376489
1332.000000	100.376420
1331.000000	100.374879
1330.000000	100.373301
1329.000000	100.372825
1328.000000	100.373158
1327.000000	100.373185
1326.000000	100.372400
1325.000000	100.371534
1324.000000	100.371913
1323.000000	100.374108
1322.000000	100.377132
1321.000000	100.379108
1320.000000	100.378978
1319.000000	100.377455
1318.000000	100.375938
1317.000000	100.374528
1316.000000	100.371945
1315.000000	100.367568
1314.000000	100.362832
1313.000000	100.360153
1312.000000	100.360588
1311.000000	100.363052
1310.000000	100.365743
1309.000000	100.367964
1308.000000	100.370337
1307.000000	100.373497
1306.000000	100.376881
1305.000000	100.379129
1304.000000	100.379540
1303.000000	100.378624
1302.000000	100.377214
1301.000000	100.375655
1300.000000	100.374257
1299.000000	100.373758
1298.000000	100.374478
1297.000000	100.375396
1296.000000	100.374997
1295.000000	100.372955
1294.000000	100.370133
1293.000000	100.367184
1292.000000	100.364328
1291.000000	100.362416
1290.000000	100.362640
1289.000000	100.364702
1288.000000	100.366439
1287.000000	100.365977
1286.000000	100.363388
1285.000000	100.359809
1284.000000	100.356125
1283.000000	100.353281
1282.000000	100.352485
1281.000000	100.353756
1280.000000	100.355102
1279.000000	100.354551
1278.000000	100.352583
1277.000000	100.351290
1276.000000	100.351381
1275.000000	100.351304
1274.000000	100.349201
1273.000000	100.344673
1272.000000	100.338693
1271.000000	100.332950
1270.000000	100.329456
1269.000000	100.329695
1268.000000	100.333657
1267.000000	100.340034
1266.000000	100.347457
1265.000000	100.355105
1264.000000	100.362019
1263.000000	100.366485
1262.000000	100.366659
1261.000000	100.362055
1260.000000	100.354711
1259.000000	100.348501
1258.000000	100.345837
1257.000000	100.344536
1256.000000	100.339276
1255.000000	100.327398
1254.000000	100.312500
1253.000000	100.301023
1252.000000	100.295937
1251.000000	100.295220
1250.000000	100.295412
1249.000000	100.294393
1248.000000	100.291056
1247.000000	100.284856
1246.000000	100.276308
1245.000000	100.266102
1244.000000	100.253589
1243.000000	100.238321
1242.000000	100.223192
1241.000000	100.212851
1240.000000	100.207690
1239.000000	100.202336
1238.000000	100.192301
1237.000000	100.179647
1236.000000	100.169319
1235.000000	100.161936
1234.000000	100.153874
1233.000000	100.143313
1232.000000	100.131764
1231.000000	100.119378
1230.000000	100.103147
1229.000000	100.081678
1228.000000	100.058392
1227.000000	100.037131
1226.000000	100.016476
1225.000000	99.991508
1224.000000	99.960376
1223.000000	99.926331
1222.000000	99.893281
1221.000000	99.861620
1220.000000	99.829126
1219.000000	99.793881
1218.000000	99.754993
1217.000000	99.711909
1216.000000	99.664754
1215.000000	99.615104
1214.000000	99.565033
1213.000000	99.515040
1212.000000	99.463823
1211.000000	99.410740
1210.000000	99.358048
1209.000000	99.309562
1208.000000	99.266265
1207.000000	99.223755
1206.000000	99.175623
1205.000000	99.119901
1204.000000	99.060932
1203.000000	99.004438
1202.000000	98.952297
1201.000000	98.902972
1200.000000	98.855001
1199.000000	98.807847
1198.000000	98.760599
1197.000000	98.712511
1196.000000	98.664484
1195.000000	98.618031
1194.000000	98.573213
1193.000000	98.529286
1192.000000	98.486415
1191.000000	98.444381
1190.000000	98.400336
1189.000000	98.350567
1188.000000	98.294386
1187.000000	98.234289
1186.000000	98.172987
1185.000000	98.112580
1184.000000	98.055545
1183.000000	98.002676
1182.000000	97.949892
1181.000000	97.891002
1180.000000	97.824835
1179.000000	97.756685
1178.000000	97.691681
1177.000000	97.629562
1176.000000	97.566996
1175.000000	97.501802
1174.000000	97.433120
1173.000000	97.360122
1172.000000	97.282977
1171.000000	97.203844
1170.000000	97.125376
1169.000000	97.048982
1168.000000	96.975171
1167.000000	96.904690
1166.000000	96.839708
1165.000000	96.785496
1164.000000	96.749905
1163.000000	96.738036
1162.000000	96.747087
1161.000000	96.768512
1160.000000	96.794710
1159.000000	96.820974
1158.000000	96.842207
1157.000000	96.851810
1156.000000	96.844545
1155.000000	96.818755
1154.000000	96.776494
1153.000000	96.723003
1152.000000	96.664584
1151.000000	96.604685
1150.000000	96.542905
1149.000000	96.479341
1148.000000	96.417558
1147.000000	96.360690
1146.000000	96.307196
1145.000000	96.253837
1144.000000	96.200123
1143.000000	96.145927
1142.000000	96.088009
1141.000000	96.024383
1140.000000	95.959814
1139.000000	95.901120
1138.000000	95.848310
1137.000000	95.795789
1136.000000	95.740493
1135.000000	95.682720
1134.000000	95.620786
1133.000000	95.552061
1132.000000	95.479048
1131.000000	95.407943
1130.000000	95.340881
1129.000000	95.275361
1128.000000	95.210894
1127.000000	95.149835
1126.000000	95.091768
1125.000000	95.033315
1124.000000	94.973478
1123.000000	94.913299
1122.000000	94.851011
1121.000000	94.783992
1120.000000	94.714900
1119.000000	94.648981
1118.000000	94.585919
1117.000000	94.521346
1116.000000	94.455270
1115.000000	94.391242
1114.000000	94.328334
1113.000000	94.262703
1112.000000	94.196478
1111.000000	94.135571
1110.000000	94.078987
1109.000000	94.020164
1108.000000	93.958918
1107.000000	93.901848
1106.000000	93.850200
1105.000000	93.797463
1104.000000	93.740106
1103.000000	93.680936
1102.000000	93.620971
1101.000000	93.557946
1100.000000	93.494031
1099.000000	93.434980
1098.000000	93.380488
1097.000000	93.325387
1096.000000	93.270908
1095.000000	93.224129
1094.000000	93.185481
1093.000000	93.147858
1092.000000	93.108930
1091.000000	93.072677
1090.000000	93.037611
1089.000000	92.996234
1088.000000	92.948625
1087.000000	92.904207
1086.000000	92.866858
1085.000000	92.830085
1084.000000	92.790487
1083.000000	92.754168
1082.000000	92.725426
1081.000000	92.699730
1080.000000	92.672076
1079.000000	92.642357
1078.000000	92.609141
1077.000000	92.568305
1076.000000	92.521200
1075.000000	92.474329
1074.000000	92.427745
1073.000000	92.373450
1072.000000	92.307386
1071.000000	92.232321
1070.000000	92.146912
1069.000000	92.043919
1068.000000	91.923257
1067.000000	91.795904
1066.000000	91.669719
1065.000000	91.541037
1064.000000	91.405458
1063.000000	91.267307
1062.000000	91.133580
1061.000000	91.007156
1060.000000	90.889929
1059.000000	90.783604
1058.000000	90.683714
1057.000000	90.581538
1056.000000	90.474585
1055.000000	90.366785
1054.000000	90.257570
1053.000000	90.141515
1052.000000	90.020414
1051.000000	89.903119
1050.000000	89.789858
1049.000000	89.669989
1048.000000	89.538619
1047.000000	89.401376
1046.000000	89.260708
1045.000000	89.112317
1044.000000	88.957750
1043.000000	88.807116
1042.000000	88.666036
1041.000000	88.531355
1040.000000	88.401605
1039.000000	88.279502
1038.000000	88.162439
1037.000000	88.043828
1036.000000	87.926199
1035.000000	87.819967
1034.000000	87.727225
1033.000000	87.639942
1032.000000	87.555370
1031.000000	87.479186
1030.000000	87.412303
1029.000000	87.349663
1028.000000	87.293466
1027.000000	87.251622
1026.000000	87.220907
1025.000000	87.188096
1024.000000	87.150722
1023.000000	87.120002
1022.000000	87.099484
1021.000000	87.077398
1020.000000	87.044799
1019.000000	87.005877
1018.000000	86.965376
1017.000000	86.920761
1016.000000	86.871698
1015.000000	86.823011
1014.000000	86.773774
1013.000000	86.717632
1012.000000	86.658184
1011.000000	86.609939
1010.000000	86.579530
1009.000000	86.558980
1008.000000	86.540345
1007.000000	86.523085
1006.000000	86.504492
1005.000000	86.478452
1004.000000	86.448058
1003.000000	86.425279
1002.000000	86.414099
1001.000000	86.407333
1000.000000	86.402383
999.000000	86.405083
998.000000	86.415088
997.000000	86.423438
996.000000	86.428781
995.000000	86.440551
994.000000	86.461418
993.000000	86.481662
992.000000	86.495679
991.000000	86.509604
990.000000	86.528246
989.000000	86.549795
988.000000	86.578099
987.000000	86.623927
986.000000	86.687381
985.000000	86.753915
984.000000	86.815033
983.000000	86.879476
982.000000	86.956702
981.000000	87.042829
980.000000	87.130782
979.000000	87.222622
978.000000	87.323927
977.000000	87.435893
976.000000	87.559466
975.000000	87.697636
974.000000	87.847337
973.000000	87.997534
972.000000	88.140653
971.000000	88.278880
970.000000	88.416458
969.000000	88.554328
968.000000	88.694894
967.000000	88.842930
966.000000	88.998474
965.000000	89.156476
964.000000	89.314804
963.000000	89.474077
962.000000	89.629077
961.000000	89.770789
960.000000	89.899057
959.000000	90.023736
958.000000	90.150865
957.000000	90.276460
956.000000	90.395988
955.000000	90.510674
954.000000	90.621827
953.000000	90.727526
952.000000	90.827461
951.000000	90.923484
950.000000	91.014047
949.000000	91.096085
948.000000	91.172901
947.000000	91.250938
946.000000	91.327592
945.000000	91.392182
944.000000	91.441352
943.000000	91.484346
942.000000	91.530490
941.000000	91.580114
940.000000	91.630822
939.000000	91.683635
938.000000	91.738923
937.000000	91.793763
936.000000	91.846954
935.000000	91.900623
934.000000	91.955061
933.000000	92.008187
932.000000	92.060882
931.000000	92.115757
930.000000	92.170313
929.000000	92.219237
928.000000	92.263955
927.000000	92.311503
926.000000	92.363128
925.000000	92.412662
924.000000	92.457455
923.000000	92.502317
922.000000	92.550891
921.000000	92.601071
920.000000	92.650279
919.000000	92.697547
918.000000	92.739548
917.000000	92.772892
916.000000	92.801670
915.000000	92.834976
914.000000	92.876029
913.000000	92.921151
912.000000	92.969248
911.000000	93.024045
910.000000	93.087519
909.000000	93.160337
908.000000	93.247988
907.000000	93.355855
906.000000	93.478057
905.000000	93.601806
904.000000	93.723773
903.000000	93.851794
902.000000	93.990262
901.000000	94.134764
900.000000	94.281160
899.000000	94.428242
898.000000	94.570719
897.000000	94.702130
896.000000	94.826810
895.000000	94.957074
894.000000	95.095168
893.000000	95.228838
892.000000	95.348327
891.000000	95.457221
890.000000	95.562811
889.000000	95.666198
888.000000	95.767059
887.000000	95.868556
886.000000	95.971028
885.000000	96.068307
884.000000	96.156166
883.000000	96.238431
882.000000	96.320494
881.000000	96.403346
880.000000	96.488023
879.000000	96.578426
878.000000	96.674355
877.000000	96.768347
876.000000	96.854875
875.000000	96.937150
874.000000	97.020808
873.000000	97.106769
872.000000	97.194106
871.000000	97.283775
870.000000	97.375446
869.000000	97.466226
868.000000	97.556187
867.000000	97.649716
866.000000	97.747591
865.000000	97.842704
864.000000	97.927760
863.000000	98.003729
862.000000	98.077565
861.000000	98.154196
860.000000	98.233116
859.000000	98.310196
858.000000	98.380591
857.000000	98.442028
856.000000	98.496603
855.000000	98.547785
854.000000	98.596152
853.000000	98.640917
852.000000	98.684065
851.000000	98.727808
850.000000	98.768461
849.000000	98.799276
848.000000	98.820585
847.000000	98.841209
846.000000	98.867543
845.000000	98.895861
844.000000	98.917144
843.000000	98.924685
842.000000	98.915773
841.000000	98.891918
840.000000	98.860243
839.000000	98.829665
838.000000	98.802246
837.000000	98.771827
836.000000	98.733355
835.000000	98.689597
834.000000	98.646936
833.000000	98.609563
832.000000	98.580664
831.000000	98.564298
830.000000	98.561563
829.000000	98.567542
828.000000	98.574763
827.000000	98.577415
826.000000	98.572708
825.000000	98.564212
824.000000	98.564398
823.000000	98.585037
822.000000	98.621437
821.000000	98.654030
820.000000	98.668271
819.000000	98.665867
818.000000	98.655277
817.000000	98.638594
816.000000	98.610548
815.000000	98.564138
814.000000	98.492830
813.000000	98.391023
812.000000	98.256356
811.000000	98.089732
810.000000	97.891109
809.000000	97.657988
808.000000	97.389492
807.000000	97.088515
806.000000	96.759535
805.000000	96.410585
804.000000	96.059158
803.000000	95.728056
802.000000	95.431276
801.000000	95.171955
800.000000	94.957428
799.000000	94.804665
798.000000	94.723566
797.000000	94.704289
796.000000	94.728002
795.000000	94.781785
794.000000	94.856927
793.000000	94.941437
792.000000	95.022340
791.000000	95.090930
790.000000	95.141371
789.000000	95.168976
788.000000	95.172989
787.000000	95.155376
786.000000	95.113762
785.000000	95.041511
784.000000	94.938215
783.000000	94.814774
782.000000	94.685831
781.000000	94.564234
780.000000	94.465603
779.000000	94.408301
778.000000	94.401621
777.000000	94.439921
776.000000	94.513045
775.000000	94.615713
774.000000	94.741894
773.000000	94.877338
772.000000	95.004820
771.000000	95.114304
770.000000	95.205398
769.000000	95.283595
768.000000	95.355705
767.000000	95.423754
766.000000	95.480889
765.000000	95.518309
764.000000	95.538279
763.000000	95.554814
762.000000	95.579457
761.000000	95.612601
760.000000	95.651310
759.000000	95.697622
758.000000	95.753551
757.000000	95.814176
756.000000	95.872346
755.000000	95.926909
754.000000	95.981349
753.000000	96.037302
752.000000	96.093981
751.000000	96.151296
750.000000	96.208613
749.000000	96.261645
748.000000	96.305305
747.000000	96.341159
746.000000	96.380536
745.000000	96.438593
744.000000	96.523655
743.000000	96.630714
742.000000	96.745794
741.000000	96.857834
740.000000	96.964509
739.000000	97.065711
738.000000	97.156753
737.000000	97.233393
736.000000	97.300750
735.000000	97.370464
734.000000	97.448065
733.000000	97.526990
732.000000	97.595245
731.000000	97.644909
730.000000	97.676522
729.000000	97.698595
728.000000	97.722381
727.000000	97.753115
726.000000	97.786591
725.000000	97.817282
724.000000	97.848122
723.000000	97.888230
722.000000	97.942331
721.000000	98.006391
720.000000	98.071921
719.000000	98.130386
718.000000	98.175946
717.000000	98.209919
716.000000	98.242043
715.000000	98.282131
714.000000	98.330116
713.000000	98.377940
712.000000	98.419332
711.000000	98.452486
710.000000	98.475213
709.000000	98.484496
708.000000	98.481546
707.000000	98.471704
706.000000	98.458120
705.000000	98.439052
704.000000	98.410364
703.000000	98.365712
702.000000	98.294892
701.000000	98.188078
700.000000	98.043396
699.000000	97.868687
698.000000	97.678997
697.000000	97.496477
696.000000	97.348365
695.000000	97.256219
694.000000	97.226512
693.000000	97.255150
692.000000	97.335144
691.000000	97.451729
690.000000	97.576722
689.000000	97.682076
688.000000	97.761300
687.000000	97.828296
686.000000	97.895164
685.000000	97.961886
684.000000	98.025617
683.000000	98.086230
682.000000	98.141415
681.000000	98.187334
680.000000	98.226021
679.000000	98.263746
678.000000	98.301730
677.000000	98.338490
676.000000	98.380124
675.000000	98.435502
674.000000	98.501385
673.000000	98.561420
672.000000	98.601820
671.000000	98.623397
670.000000	98.639626
669.000000	98.673126
668.000000	98.741986
667.000000	98.827674
666.000000	98.891741
665.000000	98.925742
664.000000	98.948195
663.000000	98.973758
662.000000	98.994473
661.000000	98.995781
660.000000	98.988468
659.000000	99.000434
658.000000	99.034248
657.000000	99.058968
656.000000	99.052175
655.000000	99.026130
654.000000	99.004517
653.000000	98.991742
652.000000	98.980602
651.000000	98.975119
650.000000	98.985187
