4000.000000	98.094588
3999.000000	98.091626
3998.000000	98.088525
3997.000000	98.085715
3996.000000	98.083296
3995.000000	98.081296
3994.000000	98.079790
3993.000000	98.078678
3992.000000	98.077526
3991.000000	98.075886
3990.000000	98.073849
3989.000000	98.072050
3988.000000	98.071031
3987.000000	98.070674
3986.000000	98.070302
3985.000000	98.069318
3984.000000	98.067638
3983.000000	98.065569
3982.000000	98.063483
3981.000000	98.061666
3980.000000	98.060379
3979.000000	98.059836
3978.000000	98.059962
3977.000000	98.060247
3976.000000	98.059937
3975.000000	98.058514
3974.000000	98.056003
3973.000000	98.053010
3972.000000	98.050468
3971.000000	98.049089
3970.000000	98.048973
3969.000000	98.049549
3968.000000	98.049998
3967.000000	98.049927
3966.000000	98.049556
3965.000000	98.049309
3964.000000	98.049305
3963.000000	98.049250
3962.000000	98.048817
3961.000000	98.048046
3960.000000	98.047300
3959.000000	98.046881
3958.000000	98.046772
3957.000000	98.046756
3956.000000	98.046697
3955.000000	98.046643
3954.000000	98.046722
3953.000000	98.047012
3952.000000	98.047490
3951.000000	98.047974
3950.000000	98.048078
3949.000000	98.047403
3948.000000	98.045942
3947.000000	98.044239
3946.000000	98.042969
3945.000000	98.042430
3944.000000	98.042486
3943.000000	98.042935
3942.000000	98.043828
3941.000000	98.045343
3940.000000	98.047337
3939.000000	98.049249
3938.000000	98.050416
3937.000000	98.050349
3936.000000	98.048911
3935.000000	98.046520
3934.000000	98.044282
3933.000000	98.043513
3932.000000	98.044713
3931.000000	98.046978
3930.000000	98.048561
3929.000000	98.048263
3928.000000	98.046181
3927.000000	98.043373
3926.000000	98.041013
3925.000000	98.039644
3924.000000	98.039082
3923.000000	98.038973
3922.000000	98.039478
3921.000000	98.041149
3920.000000	98.044088
3919.000000	98.047481
3918.000000	98.050235
3917.000000	98.051860
3916.000000	98.052394
3915.000000	98.051727
3914.000000	98.049615
3913.000000	98.046382
3912.000000	98.043102
3911.000000	98.041086
3910.000000	98.041324
3909.000000	98.044055
3908.000000	98.048647
3907.000000	98.053713
3906.000000	98.057864
3905.000000	98.060752
3904.000000	98.063343
3903.000000	98.066657
3902.000000	98.070082
3901.000000	98.071879
3900.000000	98.071304
3899.000000	98.069148
3898.000000	98.066343
3897.000000	98.063179
3896.000000	98.059871
3895.000000	98.057052
3894.000000	98.055212
3893.000000	98.054209
3892.000000	98.054059
3891.000000	98.055645
3890.000000	98.059378
3889.000000	98.063494
3888.000000	98.065629
3887.000000	98.065310
3886.000000	98.064237
3885.000000	98.064887
3884.000000	98.067818
3883.000000	98.070827
3882.000000	98.071555
3881.000000	98.069828
3880.000000	98.067709
3879.000000	98.067590
3878.000000	98.069534
3877.000000	98.071655
3876.000000	98.072926
3875.000000	98.074220
3874.000000	98.076754
3873.000000	98.079962
3872.000000	98.081496
3871.000000	98.080171
3870.000000	98.078207
3869.000000	98.079048
3868.000000	98.082607
3867.000000	98.085285
3866.000000	98.084870
3865.000000	98.082226
3864.000000	98.079023
3863.000000	98.076019
3862.000000	98.073127
3861.000000	98.070524
3860.000000	98.069287
3859.000000	98.070558
3858.000000	98.074951
3857.000000	98.081993
3856.000000	98.089673
3855.000000	98.094659
3854.000000	98.095783
3853.000000	98.097253
3852.000000	98.101259
3851.000000	98.101712
3850.000000	98.094420
3849.000000	98.082838
3848.000000	98.072575
3847.000000	98.066023
3846.000000	98.062898
3845.000000	98.062086
3844.000000	98.062638
3843.000000	98.064056
3842.000000	98.065886
3841.000000	98.067423
3840.000000	98.068138
3839.000000	98.068153
3838.000000	98.068577
3837.000000	98.070570
3836.000000	98.073793
3835.000000	98.076308
3834.000000	98.076365
3833.000000	98.073750
3832.000000	98.069779
3831.000000	98.066420
3830.000000	98.064785
3829.000000	98.064436
3828.000000	98.064369
3827.000000	98.064448
3826.000000	98.065424
3825.000000	98.067456
3824.000000	98.069372
3823.000000	98.069620
3822.000000	98.068080
3821.000000	98.066762
3820.000000	98.067343
3819.000000	98.068394
3818.000000	98.067487
3817.000000	98.064454
3816.000000	98.061287
3815.000000	98.059900
3814.000000	98.059912
3813.000000	98.059580
3812.000000	98.058444
3811.000000	98.057473
3810.000000	98.057301
3809.000000	98.057477
3808.000000	98.057218
3807.000000	98.056668
3806.000000	98.056833
3805.000000	98.057610
3804.000000	98.057429
3803.000000	98.055313
3802.000000	98.052066
3801.000000	98.049972
3800.000000	98.050272
3799.000000	98.050938
3798.000000	98.049341
3797.000000	98.045687
3796.000000	98.042233
3795.000000	98.040474
3794.000000	98.039606
3793.000000	98.037715
3792.000000	98.034001
3791.000000	98.029487
3790.000000	98.025946
3789.000000	98.024553
3788.000000	98.025044
3787.000000	98.025858
3786.000000	98.025425
3785.000000	98.023798
3784.000000	98.022633
3783.000000	98.022932
3782.000000	98.023478
3781.000000	98.022129
3780.000000	98.018637
3779.000000	98.015547
3778.000000	98.015333
3777.000000	98.017225
3776.000000	98.018875
3775.000000	98.020138
3774.000000	98.023055
3773.000000	98.028428
3772.000000	98.034111
3771.000000	98.037087
3770.000000	98.036710
3769.000000	98.034586
3768.000000	98.031436
3767.000000	98.026736
3766.000000	98.021734
3765.000000	98.019343
3764.000000	98.020516
3763.000000	98.023135
3762.000000	98.025349
3761.000000	98.028090
3760.000000	98.032633
3759.000000	98.037956
3758.000000	98.042458
3757.000000	98.045996
3756.000000	98.049601
3755.000000	98.053877
3754.000000	98.058467
3753.000000	98.062082
3752.000000	98.063328
3751.000000	98.064351
3750.000000	98.071342
3749.000000	98.086689
3748.000000	98.103619
3747.000000	98.112423
3746.000000	98.108536
3745.000000	98.095012
3744.000000	98.084305
3743.000000	98.084783
3742.000000	98.085158
3741.000000	98.074877
3740.000000	98.060690
3739.000000	98.052035
3738.000000	98.049175
3737.000000	98.046532
3736.000000	98.040789
3735.000000	98.033561
3734.000000	98.027042
3733.000000	98.021593
3732.000000	98.017196
3731.000000	98.014116
3730.000000	98.011676
3729.000000	98.008776
3728.000000	98.005567
3727.000000	98.002696
3726.000000	98.000074
3725.000000	97.996671
3724.000000	97.990935
3723.000000	97.982580
3722.000000	97.973299
3721.000000	97.965388
3720.000000	97.959730
3719.000000	97.955456
3718.000000	97.951646
3717.000000	97.948110
3716.000000	97.945160
3715.000000	97.943529
3714.000000	97.944104
3713.000000	97.946648
3712.000000	97.948963
3711.000000	97.948470
3710.000000	97.943800
3709.000000	97.934568
3708.000000	97.921384
3707.000000	97.906262
3706.000000	97.892302
3705.000000	97.882096
3704.000000	97.876195
3703.000000	97.872892
3702.000000	97.869917
3701.000000	97.866574
3700.000000	97.863040
3699.000000	97.858596
3698.000000	97.852779
3697.000000	97.847113
3696.000000	97.844272
3695.000000	97.845953
3694.000000	97.851855
3693.000000	97.859925
3692.000000	97.866603
3691.000000	97.867895
3690.000000	97.862622
3689.000000	97.855185
3688.000000	97.852280
3687.000000	97.854892
3686.000000	97.857510
3685.000000	97.855949
3684.000000	97.851039
3683.000000	97.845196
3682.000000	97.840139
3681.000000	97.837638
3680.000000	97.839664
3679.000000	97.846072
3678.000000	97.852387
3677.000000	97.852190
3676.000000	97.844143
3675.000000	97.836434
3674.000000	97.835917
3673.000000	97.837414
3672.000000	97.833696
3671.000000	97.824592
3670.000000	97.814293
3669.000000	97.807008
3668.000000	97.802151
3667.000000	97.795211
3666.000000	97.784419
3665.000000	97.772314
3664.000000	97.761771
3663.000000	97.753565
3662.000000	97.747545
3661.000000	97.743960
3660.000000	97.742935
3659.000000	97.743049
3658.000000	97.741587
3657.000000	97.737715
3656.000000	97.734869
3655.000000	97.737332
3654.000000	97.744778
3653.000000	97.753566
3652.000000	97.760102
3651.000000	97.760111
3650.000000	97.750187
3649.000000	97.733113
3648.000000	97.716519
3647.000000	97.704822
3646.000000	97.696142
3645.000000	97.686656
3644.000000	97.675119
3643.000000	97.663319
3642.000000	97.653912
3641.000000	97.647775
3640.000000	97.643461
3639.000000	97.638988
3638.000000	97.633796
3637.000000	97.628388
3636.000000	97.623284
3635.000000	97.619805
3634.000000	97.620511
3633.000000	97.626954
3632.000000	97.636789
3631.000000	97.644073
3630.000000	97.642930
3629.000000	97.634306
3628.000000	97.626475
3627.000000	97.621498
3626.000000	97.612520
3625.000000	97.597543
3624.000000	97.583147
3623.000000	97.575718
3622.000000	97.575818
3621.000000	97.579008
3620.000000	97.580106
3619.000000	97.578581
3618.000000	97.578730
3617.000000	97.583234
3616.000000	97.590176
3615.000000	97.596736
3614.000000	97.602470
3613.000000	97.608829
3612.000000	97.616226
3611.000000	97.622220
3610.000000	97.623702
3609.000000	97.620399
3608.000000	97.615040
3607.000000	97.609995
3606.000000	97.605169
3605.000000	97.599560
3604.000000	97.593333
3603.000000	97.587515
3602.000000	97.582947
3601.000000	97.580322
3600.000000	97.580217
3599.000000	97.582509
3598.000000	97.586071
3597.000000	97.589351
3596.000000	97.591376
3595.000000	97.592854
3594.000000	97.595897
3593.000000	97.602245
3592.000000	97.611264
3591.000000	97.620290
3590.000000	97.626590
3589.000000	97.628666
3588.000000	97.626495
3587.000000	97.621076
3586.000000	97.613379
3585.000000	97.604074
3584.000000	97.594726
3583.000000	97.587838
3582.000000	97.584625
3581.000000	97.583825
3580.000000	97.583414
3579.000000	97.582694
3578.000000	97.582205
3577.000000	97.582411
3576.000000	97.583098
3575.000000	97.584184
3574.000000	97.586504
3573.000000	97.591418
3572.000000	97.599586
3571.000000	97.609821
3570.000000	97.619210
3569.000000	97.624598
3568.000000	97.624864
3567.000000	97.622065
3566.000000	97.619341
3565.000000	97.617291
3564.000000	97.614191
3563.000000	97.609116
3562.000000	97.603290
3561.000000	97.598668
3560.000000	97.596145
3559.000000	97.595163
3558.000000	97.594497
3557.000000	97.593363
3556.000000	97.591977
3555.000000	97.591200
3554.000000	97.591663
3553.000000	97.593037
3552.000000	97.594228
3551.000000	97.594364
3550.000000	97.593547
3549.000000	97.592637
3548.000000	97.592280
3547.000000	97.592218
3546.000000	97.591786
3545.000000	97.590984
3544.000000	97.590541
3543.000000	97.590962
3542.000000	97.591875
3541.000000	97.592304
3540.000000	97.591348
3539.000000	97.588698
3538.000000	97.584933
3537.000000	97.581525
3536.000000	97.580049
3535.000000	97.580950
3534.000000	97.583271
3533.000000	97.585381
3532.000000	97.586304
3531.000000	97.586180
3530.000000	97.585632
3529.000000	97.585107
3528.000000	97.584733
3527.000000	97.584504
3526.000000	97.584355
3525.000000	97.584145
3524.000000	97.583761
3523.000000	97.583280
3522.000000	97.582944
3521.000000	97.582905
3520.000000	97.583067
3519.000000	97.583195
3518.000000	97.583144
3517.000000	97.582960
3516.000000	97.582793
3515.000000	97.582789
3514.000000	97.583005
3513.000000	97.583324
3512.000000	97.583432
3511.000000	97.582976
3510.000000	97.581863
3509.000000	97.580455
3508.000000	97.579421
3507.000000	97.579197
3506.000000	97.579679
3505.000000	97.580332
3504.000000	97.580673
3503.000000	97.580669
3502.000000	97.580622
3501.000000	97.580771
3500.000000	97.581097
3499.000000	97.581473
3498.000000	97.581875
3497.000000	97.582382
3496.000000	97.583003
3495.000000	97.583551
3494.000000	97.583746
3493.000000	97.583448
3492.000000	97.582867
3491.000000	97.582493
3490.000000	97.582711
3489.000000	97.583467
3488.000000	97.584334
3487.000000	97.584976
3486.000000	97.585363
3485.000000	97.585496
3484.000000	97.585175
3483.000000	97.584229
3482.000000	97.582976
3481.000000	97.582214
3480.000000	97.582579
3479.000000	97.584004
3478.000000	97.585709
3477.000000	97.586780
3476.000000	97.586829
3475.000000	97.586132
3474.000000	97.585320
3473.000000	97.584878
3472.000000	97.584952
3471.000000	97.585451
3470.000000	97.586159
3469.000000	97.586747
3468.000000	97.586892
3467.000000	97.586539
3466.000000	97.585914
3465.000000	97.585160
3464.000000	97.584106
3463.000000	97.582511
3462.000000	97.580446
3461.000000	97.578386
3460.000000	97.576929
3459.000000	97.576477
3458.000000	97.577008
3457.000000	97.578017
3456.000000	97.578802
3455.000000	97.578975
3454.000000	97.578665
3453.000000	97.578173
3452.000000	97.577531
3451.000000	97.576590
3450.000000	97.575485
3449.000000	97.574779
3448.000000	97.575027
3447.000000	97.576255
3446.000000	97.577917
3445.000000	97.579345
3444.000000	97.580122
3443.000000	97.580190
3442.000000	97.579763
3441.000000	97.579145
3440.000000	97.578564
3439.000000	97.578143
3438.000000	97.577969
3437.000000	97.578089
3436.000000	97.578394
3435.000000	97.578585
3434.000000	97.578363
3433.000000	97.577674
3432.000000	97.576734
3431.000000	97.575876
3430.000000	97.575381
3429.000000	97.575423
3428.000000	97.576007
3427.000000	97.576948
3426.000000	97.577902
3425.000000	97.578505
3424.000000	97.578542
3423.000000	97.578038
3422.000000	97.577278
3421.000000	97.576727
3420.000000	97.576793
3419.000000	97.577566
3418.000000	97.578708
3417.000000	97.579631
3416.000000	97.579881
3415.000000	97.579427
3414.000000	97.578678
3413.000000	97.578237
3412.000000	97.578520
3411.000000	97.579518
3410.000000	97.580764
3409.000000	97.581550
3408.000000	97.581400
3407.000000	97.580517
3406.000000	97.579806
3405.000000	97.580252
3404.000000	97.582176
3403.000000	97.585036
3402.000000	97.587863
3401.000000	97.589952
3400.000000	97.591077
3399.000000	97.591257
3398.000000	97.590532
3397.000000	97.589017
3396.000000	97.587083
3395.000000	97.585283
3394.000000	97.583980
3393.000000	97.583149
3392.000000	97.582652
3391.000000	97.582681
3390.000000	97.583686
3389.000000	97.585721
3388.000000	97.587995
3387.000000	97.589384
3386.000000	97.589433
3385.000000	97.588718
3384.000000	97.588234
3383.000000	97.588441
3382.000000	97.588989
3381.000000	97.589238
3380.000000	97.588916
3379.000000	97.588320
3378.000000	97.588002
3377.000000	97.588285
3376.000000	97.589092
3375.000000	97.590167
3374.000000	97.591378
3373.000000	97.592679
3372.000000	97.593920
3371.000000	97.594896
3370.000000	97.595585
3369.000000	97.596175
3368.000000	97.596778
3367.000000	97.597254
3366.000000	97.597403
3365.000000	97.597277
3364.000000	97.597199
3363.000000	97.597500
3362.000000	97.598275
3361.000000	97.599372
3360.000000	97.600533
3359.000000	97.601540
3358.000000	97.602300
3357.000000	97.602842
3356.000000	97.603266
3355.000000	97.603691
3354.000000	97.604224
3353.000000	97.604905
3352.000000	97.605699
3351.000000	97.606509
3350.000000	97.607239
3349.000000	97.607866
3348.000000	97.608465
3347.000000	97.609169
3346.000000	97.610053
3345.000000	97.611060
3344.000000	97.612011
3343.000000	97.612763
3342.000000	97.613330
3341.000000	97.613894
3340.000000	97.614652
3339.000000	97.615661
3338.000000	97.616775
3337.000000	97.617740
3336.000000	97.618405
3335.000000	97.618812
3334.000000	97.619150
3333.000000	97.619562
3332.000000	97.619992
3331.000000	97.620254
3330.000000	97.620243
3329.000000	97.620090
3328.000000	97.620100
3327.000000	97.620471
3326.000000	97.621125
3325.000000	97.621789
3324.000000	97.622292
3323.000000	97.622738
3322.000000	97.623340
3321.000000	97.624142
3320.000000	97.624993
3319.000000	97.625747
3318.000000	97.626407
3317.000000	97.627052
3316.000000	97.627675
3315.000000	97.628171
3314.000000	97.628501
3313.000000	97.628776
3312.000000	97.629165
3311.000000	97.629749
3310.000000	97.630475
3309.000000	97.631195
3308.000000	97.631744
3307.000000	97.632038
3306.000000	97.632137
3305.000000	97.632216
3304.000000	97.632428
3303.000000	97.632773
3302.000000	97.633139
3301.000000	97.633440
3300.000000	97.633711
3299.000000	97.634055
3298.000000	97.634515
3297.000000	97.635033
3296.000000	97.635517
3295.000000	97.635949
3294.000000	97.636389
3293.000000	97.636903
3292.000000	97.637497
3291.000000	97.638131
3290.000000	97.638751
3289.000000	97.639334
3288.000000	97.639894
3287.000000	97.640457
3286.000000	97.641029
3285.000000	97.641592
3284.000000	97.642123
3283.000000	97.642623
3282.000000	97.643108
3281.000000	97.643602
3280.000000	97.644118
3279.000000	97.644659
3278.000000	97.645222
3277.000000	97.645784
3276.000000	97.646320
3275.000000	97.646812
3274.000000	97.647270
3273.000000	97.647721
3272.000000	97.648189
3271.000000	97.648686
3270.000000	97.649213
3269.000000	97.649766
3268.000000	97.650339
3267.000000	97.650927
3266.000000	97.651534
3265.000000	97.652166
3264.000000	97.652824
3263.000000	97.653504
3262.000000	97.654203
3261.000000	97.654920
3260.000000	97.655660
3259.000000	97.656424
3258.000000	97.657209
3257.000000	97.658002
3256.000000	97.658783
3255.000000	97.659543
3254.000000	97.660279
3253.000000	97.661001
3252.000000	97.661720
3251.000000	97.662444
3250.000000	97.663179
3249.000000	97.663922
3248.000000	97.664665
3247.000000	97.665399
3246.000000	97.666115
3245.000000	97.666809
3244.000000	97.667476
3243.000000	97.668116
3242.000000	97.668746
3241.000000	97.669388
3240.000000	97.670055
3239.000000	97.670769
3238.000000	97.671557
3237.000000	97.672393
3236.000000	97.673165
3235.000000	97.673749
3234.000000	97.674132
3233.000000	97.674495
3232.000000	97.675112
3231.000000	97.676092
3230.000000	97.677232
3229.000000	97.678149
3228.000000	97.678682
3227.000000	97.679089
3226.000000	97.679785
3225.000000	97.680911
3224.000000	97.682227
3223.000000	97.683422
3222.000000	97.684452
3221.000000	97.685501
3220.000000	97.686641
3219.000000	97.687667
3218.000000	97.688347
3217.000000	97.688674
3216.000000	97.688722
3215.000000	97.688375
3214.000000	97.687520
3213.000000	97.686584
3212.000000	97.686527
3211.000000	97.687951
3210.000000	97.690351
3209.000000	97.692341
3208.000000	97.692810
3207.000000	97.691656
3206.000000	97.689605
3205.000000	97.687675
3204.000000	97.686763
3203.000000	97.687473
3202.000000	97.689908
3201.000000	97.693538
3200.000000	97.697347
3199.000000	97.700306
3198.000000	97.701876
3197.000000	97.702288
3196.000000	97.702489
3195.000000	97.703568
3194.000000	97.705914
3193.000000	97.708884
3192.000000	97.711389
3191.000000	97.712916
3190.000000	97.713877
3189.000000	97.714926
3188.000000	97.716048
3187.000000	97.716523
3186.000000	97.715828
3185.000000	97.714359
3184.000000	97.713154
3183.000000	97.713002
3182.000000	97.713974
3181.000000	97.715658
3180.000000	97.717515
3179.000000	97.718959
3178.000000	97.719504
3177.000000	97.719227
3176.000000	97.718975
3175.000000	97.719674
3174.000000	97.721313
3173.000000	97.722891
3172.000000	97.723576
3171.000000	97.723747
3170.000000	97.724580
3169.000000	97.726722
3168.000000	97.729700
3167.000000	97.732539
3166.000000	97.734745
3165.000000	97.736494
3164.000000	97.738114
3163.000000	97.739581
3162.000000	97.740550
3161.000000	97.740801
3160.000000	97.740570
3159.000000	97.740479
3158.000000	97.741080
3157.000000	97.742429
3156.000000	97.744074
3155.000000	97.745459
3154.000000	97.746438
3153.000000	97.747303
3152.000000	97.748377
3151.000000	97.749677
3150.000000	97.750993
3149.000000	97.752223
3148.000000	97.753504
3147.000000	97.755000
3146.000000	97.756633
3145.000000	97.758101
3144.000000	97.759168
3143.000000	97.759889
3142.000000	97.760569
3141.000000	97.761482
3140.000000	97.762656
3139.000000	97.763974
3138.000000	97.765368
3137.000000	97.766843
3136.000000	97.768364
3135.000000	97.769855
3134.000000	97.771272
3133.000000	97.772622
3132.000000	97.773909
3131.000000	97.775143
3130.000000	97.776402
3129.000000	97.777789
3128.000000	97.779322
3127.000000	97.780892
3126.000000	97.782325
3125.000000	97.783535
3124.000000	97.784566
3123.000000	97.785544
3122.000000	97.786600
3121.000000	97.787775
3120.000000	97.789026
3119.000000	97.790287
3118.000000	97.791513
3117.000000	97.792707
3116.000000	97.793886
3115.000000	97.795061
3114.000000	97.796233
3113.000000	97.797407
3112.000000	97.798582
3111.000000	97.799751
3110.000000	97.800901
3109.000000	97.802029
3108.000000	97.803144
3107.000000	97.804253
3106.000000	97.805360
3105.000000	97.806465
3104.000000	97.807568
3103.000000	97.808673
3102.000000	97.809784
3101.000000	97.810904
3100.000000	97.812027
3099.000000	97.813141
3098.000000	97.814238
3097.000000	97.815309
3096.000000	97.816357
3095.000000	97.817382
3094.000000	97.818390
3093.000000	97.819383
3092.000000	97.820368
3091.000000	97.821346
3090.000000	97.822321
3089.000000	97.823298
3088.000000	97.824283
3087.000000	97.825278
3086.000000	97.826280
3085.000000	97.827279
3084.000000	97.828272
3083.000000	97.829257
3082.000000	97.830243
3081.000000	97.831234
3080.000000	97.832229
3079.000000	97.833221
3078.000000	97.834200
3077.000000	97.835161
3076.000000	97.836107
3075.000000	97.837046
3074.000000	97.837988
3073.000000	97.838936
3072.000000	97.839889
3071.000000	97.840840
3070.000000	97.841781
3069.000000	97.842705
3068.000000	97.843611
3067.000000	97.844510
3066.000000	97.845406
3065.000000	97.846303
3064.000000	97.847193
3063.000000	97.848056
3062.000000	97.848879
3061.000000	97.849682
3060.000000	97.850519
3059.000000	97.851429
3058.000000	97.852374
3057.000000	97.853258
3056.000000	97.854043
3055.000000	97.854801
3054.000000	97.855640
3053.000000	97.856616
3052.000000	97.857727
3051.000000	97.858910
3050.000000	97.860015
3049.000000	97.860881
3048.000000	97.861498
3047.000000	97.862097
3046.000000	97.862962
3045.000000	97.864226
3044.000000	97.865822
3043.000000	97.867522
3042.000000	97.868948
3041.000000	97.869707
3040.000000	97.869695
3039.000000	97.869246
3038.000000	97.868906
3037.000000	97.869021
3036.000000	97.869586
3035.000000	97.870456
3034.000000	97.871574
3033.000000	97.872963
3032.000000	97.874597
3031.000000	97.876321
3030.000000	97.877884
3029.000000	97.879106
3028.000000	97.880070
3027.000000	97.881114
3026.000000	97.882551
3025.000000	97.884381
3024.000000	97.886306
3023.000000	97.887989
3022.000000	97.889265
3021.000000	97.890160
3020.000000	97.890866
3019.000000	97.891721
3018.000000	97.893062
3017.000000	97.895043
3016.000000	97.897559
3015.000000	97.900312
3014.000000	97.902910
3013.000000	97.904961
3012.000000	97.906209
3011.000000	97.906778
3010.000000	97.907327
3009.000000	97.908670
3008.000000	97.911111
3007.000000	97.914072
3006.000000	97.916465
3005.000000	97.917712
3004.000000	97.918428
3003.000000	97.919978
3002.000000	97.923074
3001.000000	97.926913
3000.000000	97.929880
2999.000000	97.931221
2998.000000	97.931755
2997.000000	97.932899
2996.000000	97.935173
2995.000000	97.937867
2994.000000	97.939918
2993.000000	97.940818
2992.000000	97.940969
2991.000000	97.941504
2990.000000	97.943495
2989.000000	97.946904
2988.000000	97.950525
2987.000000	97.953367
2986.000000	97.955768
2985.000000	97.958681
2984.000000	97.962334
2983.000000	97.966314
2982.000000	97.970403
2981.000000	97.974210
2980.000000	97.976364
2979.000000	97.975711
2978.000000	97.973522
2977.000000	97.973032
2976.000000	97.975957
2975.000000	97.980576
2974.000000	97.983967
2973.000000	97.984983
2972.000000	97.984172
2971.000000	97.982038
2970.000000	97.978754
2969.000000	97.974991
2968.000000	97.971537
2967.000000	97.968417
2966.000000	97.965627
2965.000000	97.964260
2964.000000	97.965333
2963.000000	97.967524
2962.000000	97.967604
2961.000000	97.963784
2960.000000	97.957614
2959.000000	97.952157
2958.000000	97.949171
2957.000000	97.948772
2956.000000	97.950659
2955.000000	97.954352
2954.000000	97.958725
2953.000000	97.962538
2952.000000	97.965634
2951.000000	97.968872
2950.000000	97.972668
2949.000000	97.976176
2948.000000	97.978214
2947.000000	97.978626
2946.000000	97.978389
2945.000000	97.978535
2944.000000	97.979241
2943.000000	97.979916
2942.000000	97.979874
2941.000000	97.978721
2940.000000	97.976266
2939.000000	97.972528
2938.000000	97.968224
2937.000000	97.965080
2936.000000	97.965044
2935.000000	97.968730
2934.000000	97.974692
2933.000000	97.980566
2932.000000	97.985364
2931.000000	97.990480
2930.000000	97.998097
2929.000000	98.008409
2928.000000	98.018487
2927.000000	98.024410
2926.000000	98.024630
2925.000000	98.021220
2924.000000	98.018001
2923.000000	98.017377
2922.000000	98.019021
2921.000000	98.020980
2920.000000	98.021347
2919.000000	98.019238
2918.000000	98.015279
2917.000000	98.011479
2916.000000	98.009782
2915.000000	98.010029
2914.000000	98.009656
2913.000000	98.006143
2912.000000	97.999854
2911.000000	97.993977
2910.000000	97.991385
2909.000000	97.992000
2908.000000	97.993552
2907.000000	97.994484
2906.000000	97.995446
2905.000000	97.997833
2904.000000	98.001692
2903.000000	98.005639
2902.000000	98.008465
2901.000000	98.010052
2900.000000	98.010700
2899.000000	98.010195
2898.000000	98.008025
2897.000000	98.004248
2896.000000	97.999706
2895.000000	97.995356
2894.000000	97.991619
2893.000000	97.988421
2892.000000	97.985675
2891.000000	97.983545
2890.000000	97.982275
2889.000000	97.981970
2888.000000	97.982791
2887.000000	97.985180
2886.000000	97.989323
2885.000000	97.994209
2884.000000	97.997790
2883.000000	97.998752
2882.000000	97.997935
2881.000000	97.997346
2880.000000	97.997923
2879.000000	97.998868
2878.000000	97.999169
2877.000000	97.998857
2876.000000	97.998395
2875.000000	97.997714
2874.000000	97.996605
2873.000000	97.995525
2872.000000	97.995168
2871.000000	97.995526
2870.000000	97.996131
2869.000000	97.996993
2868.000000	97.998417
2867.000000	97.999924
2866.000000	98.000338
2865.000000	97.999257
2864.000000	97.997726
2863.000000	97.997117
2862.000000	97.997823
2861.000000	97.999390
2860.000000	98.001342
2859.000000	98.003412
2858.000000	98.005323
2857.000000	98.006818
2856.000000	98.007734
2855.000000	98.007735
2854.000000	98.006343
2853.000000	98.003707
2852.000000	98.000995
2851.000000	97.999448
2850.000000	97.999073
2849.000000	97.998823
2848.000000	97.998077
2847.000000	97.997393
2846.000000	97.997484
2845.000000	97.997958
2844.000000	97.997670
2843.000000	97.996259
2842.000000	97.994696
2841.000000	97.994027
2840.000000	97.993960
2839.000000	97.993302
2838.000000	97.991636
2837.000000	97.990002
2836.000000	97.989736
2835.000000	97.991085
2834.000000	97.993165
2833.000000	97.994859
2832.000000	97.995605
2831.000000	97.995444
2830.000000	97.994749
2829.000000	97.993993
2828.000000	97.993549
2827.000000	97.993596
2826.000000	97.994179
2825.000000	97.995163
2824.000000	97.996096
2823.000000	97.996393
2822.000000	97.995892
2821.000000	97.995163
2820.000000	97.994996
2819.000000	97.995538
2818.000000	97.996168
2817.000000	97.996396
2816.000000	97.996613
2815.000000	97.997647
2814.000000	97.999774
2813.000000	98.002390
2812.000000	98.004533
2811.000000	98.005676
2810.000000	98.006107
2809.000000	98.006652
2808.000000	98.007795
2807.000000	98.008957
2806.000000	98.008980
2805.000000	98.007521
2804.000000	98.005747
2803.000000	98.005350
2802.000000	98.006953
2801.000000	98.009629
2800.000000	98.011710
2799.000000	98.012038
2798.000000	98.010722
2797.000000	98.009119
2796.000000	98.008802
2795.000000	98.010120
2794.000000	98.011881
2793.000000	98.012697
2792.000000	98.012444
2791.000000	98.011968
2790.000000	98.011640
2789.000000	98.011018
2788.000000	98.010052
2787.000000	98.009900
2786.000000	98.011959
2785.000000	98.016423
2784.000000	98.022126
2783.000000	98.027704
2782.000000	98.032585
2781.000000	98.036712
2780.000000	98.039660
2779.000000	98.040553
2778.000000	98.039052
2777.000000	98.036114
2776.000000	98.033303
2775.000000	98.031159
2774.000000	98.028738
2773.000000	98.025100
2772.000000	98.020892
2771.000000	98.018015
2770.000000	98.017761
2769.000000	98.019768
2768.000000	98.022555
2767.000000	98.024687
2766.000000	98.025568
2765.000000	98.025538
2764.000000	98.025617
2763.000000	98.026921
2762.000000	98.029858
2761.000000	98.033629
2760.000000	98.036556
2759.000000	98.037302
2758.000000	98.035938
2757.000000	98.033823
2756.000000	98.032457
2755.000000	98.032260
2754.000000	98.032682
2753.000000	98.033205
2752.000000	98.033815
2751.000000	98.034554
2750.000000	98.035149
2749.000000	98.035364
2748.000000	98.035399
2747.000000	98.035597
2746.000000	98.035959
2745.000000	98.036238
2744.000000	98.036354
2743.000000	98.036462
2742.000000	98.036692
2741.000000	98.037010
2740.000000	98.037313
2739.000000	98.037554
2738.000000	98.037758
2737.000000	98.037967
2736.000000	98.038205
2735.000000	98.038475
2734.000000	98.038778
2733.000000	98.039114
2732.000000	98.039475
2731.000000	98.039846
2730.000000	98.040210
2729.000000	98.040553
2728.000000	98.040871
2727.000000	98.041163
2726.000000	98.041435
2725.000000	98.041695
2724.000000	98.041945
2723.000000	98.042187
2722.000000	98.042421
2721.000000	98.042643
2720.000000	98.042841
2719.000000	98.043004
2718.000000	98.043150
2717.000000	98.043325
2716.000000	98.043573
2715.000000	98.043880
2714.000000	98.044179
2713.000000	98.044421
2712.000000	98.044655
2711.000000	98.044968
2710.000000	98.045353
2709.000000	98.045676
2708.000000	98.045826
2707.000000	98.045895
2706.000000	98.046134
2705.000000	98.046693
2704.000000	98.047419
2703.000000	98.047968
2702.000000	98.048134
2701.000000	98.047958
2700.000000	98.047591
2699.000000	98.047085
2698.000000	98.046418
2697.000000	98.045732
2696.000000	98.045410
2695.000000	98.045803
2694.000000	98.046843
2693.000000	98.047961
2692.000000	98.048513
2691.000000	98.048273
2690.000000	98.047599
2689.000000	98.047131
2688.000000	98.047166
2687.000000	98.047271
2686.000000	98.046623
2685.000000	98.044911
2684.000000	98.042865
2683.000000	98.041782
2682.000000	98.042463
2681.000000	98.044688
2680.000000	98.047460
2679.000000	98.049590
2678.000000	98.050416
2677.000000	98.050102
2676.000000	98.049339
2675.000000	98.048659
2674.000000	98.048092
2673.000000	98.047593
2672.000000	98.047271
2671.000000	98.046929
2670.000000	98.045882
2669.000000	98.043870
2668.000000	98.041964
2667.000000	98.041765
2666.000000	98.043632
2665.000000	98.046221
2664.000000	98.047977
2663.000000	98.048796
2662.000000	98.049759
2661.000000	98.051580
2660.000000	98.053727
2659.000000	98.055015
2658.000000	98.054756
2657.000000	98.053198
2656.000000	98.051080
2655.000000	98.048921
2654.000000	98.046849
2653.000000	98.045031
2652.000000	98.043864
2651.000000	98.043461
2650.000000	98.043230
2649.000000	98.042451
2648.000000	98.041277
2647.000000	98.040684
2646.000000	98.041272
2645.000000	98.042613
2644.000000	98.043875
2643.000000	98.044709
2642.000000	98.045184
2641.000000	98.045252
2640.000000	98.044768
2639.000000	98.043920
2638.000000	98.043267
2637.000000	98.043190
2636.000000	98.043536
2635.000000	98.043793
2634.000000	98.043601
2633.000000	98.043063
2632.000000	98.042503
2631.000000	98.042190
2630.000000	98.042109
2629.000000	98.042110
2628.000000	98.042094
2627.000000	98.042073
2626.000000	98.042062
2625.000000	98.042025
2624.000000	98.041941
2623.000000	98.041822
2622.000000	98.041683
2621.000000	98.041535
2620.000000	98.041381
2619.000000	98.041227
2618.000000	98.041086
2617.000000	98.040971
2616.000000	98.040889
2615.000000	98.040834
2614.000000	98.040797
2613.000000	98.040769
2612.000000	98.040745
2611.000000	98.040717
2610.000000	98.040677
2609.000000	98.040616
2608.000000	98.040536
2607.000000	98.040443
2606.000000	98.040338
2605.000000	98.040218
2604.000000	98.040081
2603.000000	98.039930
2602.000000	98.039775
2601.000000	98.039617
2600.000000	98.039455
2599.000000	98.039286
2598.000000	98.039117
2597.000000	98.038954
2596.000000	98.038793
2595.000000	98.038623
2594.000000	98.038438
2593.000000	98.038250
2592.000000	98.038080
2591.000000	98.037933
2590.000000	98.037795
2589.000000	98.037642
2588.000000	98.037464
2587.000000	98.037262
2586.000000	98.037043
2585.000000	98.036810
2584.000000	98.036572
2583.000000	98.036354
2582.000000	98.036181
2581.000000	98.036061
2580.000000	98.035980
2579.000000	98.035920
2578.000000	98.035876
2577.000000	98.035850
2576.000000	98.035840
2575.000000	98.035832
2574.000000	98.035804
2573.000000	98.035751
2572.000000	98.035685
2571.000000	98.035624
2570.000000	98.035576
2569.000000	98.035540
2568.000000	98.035515
2567.000000	98.035505
2566.000000	98.035516
2565.000000	98.035546
2564.000000	98.035589
2563.000000	98.035641
2562.000000	98.035705
2561.000000	98.035781
2560.000000	98.035861
2559.000000	98.035930
2558.000000	98.035982
2557.000000	98.036026
2556.000000	98.036076
2555.000000	98.036142
2554.000000	98.036226
2553.000000	98.036324
2552.000000	98.036435
2551.000000	98.036554
2550.000000	98.036675
2549.000000	98.036787
2548.000000	98.036884
2547.000000	98.036970
2546.000000	98.037054
2545.000000	98.037146
2544.000000	98.037246
2543.000000	98.037353
2542.000000	98.037459
2541.000000	98.037554
2540.000000	98.037628
2539.000000	98.037672
2538.000000	98.037685
2537.000000	98.037678
2536.000000	98.037658
2535.000000	98.037625
2534.000000	98.037575
2533.000000	98.037511
2532.000000	98.037451
2531.000000	98.037416
2530.000000	98.037416
2529.000000	98.037445
2528.000000	98.037488
2527.000000	98.037536
2526.000000	98.037592
2525.000000	98.037654
2524.000000	98.037719
2523.000000	98.037779
2522.000000	98.037833
2521.000000	98.037883
2520.000000	98.037934
2519.000000	98.037986
2518.000000	98.038039
2517.000000	98.038097
2516.000000	98.038167
2515.000000	98.038254
2514.000000	98.038349
2513.000000	98.038438
2512.000000	98.038512
2511.000000	98.038579
2510.000000	98.038651
2509.000000	98.038738
2508.000000	98.038844
2507.000000	98.038974
2506.000000	98.039131
2505.000000	98.039317
2504.000000	98.039529
2503.000000	98.039761
2502.000000	98.040013
2501.000000	98.040286
2500.000000	98.040585
2499.000000	98.040911
2498.000000	98.041260
2497.000000	98.041626
2496.000000	98.042006
2495.000000	98.042398
2494.000000	98.042802
2493.000000	98.043218
2492.000000	98.043649
2491.000000	98.044094
2490.000000	98.044550
2489.000000	98.045009
2488.000000	98.045463
2487.000000	98.045908
2486.000000	98.046348
2485.000000	98.046788
2484.000000	98.047230
2483.000000	98.047673
2482.000000	98.048118
2481.000000	98.048575
2480.000000	98.049050
2479.000000	98.049546
2478.000000	98.050057
2477.000000	98.050573
2476.000000	98.051074
2475.000000	98.051556
2474.000000	98.052044
2473.000000	98.052570
2472.000000	98.053151
2471.000000	98.053789
2470.000000	98.054476
2469.000000	98.055174
2468.000000	98.055807
2467.000000	98.056303
2466.000000	98.056661
2465.000000	98.056976
2464.000000	98.057397
2463.000000	98.058055
2462.000000	98.058957
2461.000000	98.059882
2460.000000	98.060508
2459.000000	98.060734
2458.000000	98.060807
2457.000000	98.061063
2456.000000	98.061581
2455.000000	98.062155
2454.000000	98.062548
2453.000000	98.062643
2452.000000	98.062399
2451.000000	98.061865
2450.000000	98.061316
2449.000000	98.061176
2448.000000	98.061674
2447.000000	98.062637
2446.000000	98.063673
2445.000000	98.064509
2444.000000	98.065105
2443.000000	98.065582
2442.000000	98.066167
2441.000000	98.067113
2440.000000	98.068454
2439.000000	98.069814
2438.000000	98.070612
2437.000000	98.070577
2436.000000	98.070024
2435.000000	98.069529
2434.000000	98.069306
2433.000000	98.069088
2432.000000	98.068605
2431.000000	98.068032
2430.000000	98.067844
2429.000000	98.068304
2428.000000	98.069253
2427.000000	98.070363
2426.000000	98.071369
2425.000000	98.072058
2424.000000	98.072269
2423.000000	98.072057
2422.000000	98.071782
2421.000000	98.071860
2420.000000	98.072389
2419.000000	98.073107
2418.000000	98.073683
2417.000000	98.073981
2416.000000	98.074088
2415.000000	98.074150
2414.000000	98.074216
2413.000000	98.074231
2412.000000	98.074167
2411.000000	98.074115
2410.000000	98.074224
2409.000000	98.074542
2408.000000	98.074975
2407.000000	98.075418
2406.000000	98.075813
2405.000000	98.076158
2404.000000	98.076469
2403.000000	98.076755
2402.000000	98.077018
2401.000000	98.077258
2400.000000	98.077494
2399.000000	98.077755
2398.000000	98.078033
2397.000000	98.078319
2396.000000	98.078621
2395.000000	98.078931
2394.000000	98.079244
2393.000000	98.079559
2392.000000	98.079879
2391.000000	98.080206
2390.000000	98.080541
2389.000000	98.080878
2388.000000	98.081207
2387.000000	98.081524
2386.000000	98.081833
2385.000000	98.082149
2384.000000	98.082485
2383.000000	98.082848
2382.000000	98.083236
2381.000000	98.083641
2380.000000	98.084058
2379.000000	98.084479
2378.000000	98.084902
2377.000000	98.085321
2376.000000	98.085732
2375.000000	98.086127
2374.000000	98.086497
2373.000000	98.086838
2372.000000	98.087150
2371.000000	98.087442
2370.000000	98.087722
2369.000000	98.087991
2368.000000	98.088246
2367.000000	98.088484
2366.000000	98.088709
2365.000000	98.088928
2364.000000	98.089150
2363.000000	98.089368
2362.000000	98.089569
2361.000000	98.089738
2360.000000	98.089871
2359.000000	98.089980
2358.000000	98.090078
2357.000000	98.090170
2356.000000	98.090250
2355.000000	98.090302
2354.000000	98.090315
2353.000000	98.090295
2352.000000	98.090255
2351.000000	98.090205
2350.000000	98.090144
2349.000000	98.090065
2348.000000	98.089964
2347.000000	98.089842
2346.000000	98.089711
2345.000000	98.089579
2344.000000	98.089438
2343.000000	98.089270
2342.000000	98.089056
2341.000000	98.088792
2340.000000	98.088483
2339.000000	98.088136
2338.000000	98.087753
2337.000000	98.087332
2336.000000	98.086869
2335.000000	98.086366
2334.000000	98.085826
2333.000000	98.085258
2332.000000	98.084672
2331.000000	98.084066
2330.000000	98.083448
2329.000000	98.082841
2328.000000	98.082268
2327.000000	98.081730
2326.000000	98.081208
2325.000000	98.080677
2324.000000	98.080112
2323.000000	98.079489
2322.000000	98.078803
2321.000000	98.078094
2320.000000	98.077407
2319.000000	98.076722
2318.000000	98.075990
2317.000000	98.075223
2316.000000	98.074487
2315.000000	98.073764
2314.000000	98.072975
2313.000000	98.072137
2312.000000	98.071417
2311.000000	98.070902
2310.000000	98.070434
2309.000000	98.069723
2308.000000	98.068651
2307.000000	98.067404
2306.000000	98.066270
2305.000000	98.065336
2304.000000	98.064426
2303.000000	98.063363
2302.000000	98.062232
2301.000000	98.061264
2300.000000	98.060461
2299.000000	98.059541
2298.000000	98.058319
2297.000000	98.056864
2296.000000	98.055395
2295.000000	98.054083
2294.000000	98.053004
2293.000000	98.052163
2292.000000	98.051471
2291.000000	98.050740
2290.000000	98.049835
2289.000000	98.048789
2288.000000	98.047739
2287.000000	98.046786
2286.000000	98.045941
2285.000000	98.045172
2284.000000	98.044409
2283.000000	98.043558
2282.000000	98.042602
2281.000000	98.041702
2280.000000	98.041059
2279.000000	98.040635
2278.000000	98.040101
2277.000000	98.039153
2276.000000	98.037824
2275.000000	98.036470
2274.000000	98.035437
2273.000000	98.034845
2272.000000	98.034591
2271.000000	98.034407
2270.000000	98.033943
2269.000000	98.033012
2268.000000	98.031889
2267.000000	98.031185
2266.000000	98.031195
2265.000000	98.031462
2264.000000	98.031159
2263.000000	98.029984
2262.000000	98.028434
2261.000000	98.027174
2260.000000	98.026353
2259.000000	98.025838
2258.000000	98.025810
2257.000000	98.026614
2256.000000	98.028046
2255.000000	98.029241
2254.000000	98.029507
2253.000000	98.028995
2252.000000	98.028430
2251.000000	98.028379
2250.000000	98.028910
2249.000000	98.029767
2248.000000	98.030659
2247.000000	98.031408
2246.000000	98.031987
2245.000000	98.032375
2244.000000	98.032361
2243.000000	98.031637
2242.000000	98.030190
2241.000000	98.028459
2240.000000	98.027022
2239.000000	98.026220
2238.000000	98.026097
2237.000000	98.026478
2236.000000	98.026949
2235.000000	98.026969
2234.000000	98.026241
2233.000000	98.025000
2232.000000	98.023923
2231.000000	98.023715
2230.000000	98.024660
2229.000000	98.026385
2228.000000	98.028039
2227.000000	98.028929
2226.000000	98.029033
2225.000000	98.028782
2224.000000	98.028467
2223.000000	98.028110
2222.000000	98.027822
2221.000000	98.027884
2220.000000	98.028348
2219.000000	98.028956
2218.000000	98.029574
2217.000000	98.030341
2216.000000	98.031300
2215.000000	98.032187
2214.000000	98.032776
2213.000000	98.033173
2212.000000	98.033583
2211.000000	98.033984
2210.000000	98.034288
2209.000000	98.034620
2208.000000	98.035194
2207.000000	98.035977
2206.000000	98.036684
2205.000000	98.037108
2204.000000	98.037257
2203.000000	98.037230
2202.000000	98.037137
2201.000000	98.037147
2200.000000	98.037473
2199.000000	98.038192
2198.000000	98.039137
2197.000000	98.039962
2196.000000	98.040433
2195.000000	98.040584
2194.000000	98.040638
2193.000000	98.040811
2192.000000	98.041170
2191.000000	98.041657
2190.000000	98.042179
2189.000000	98.042644
2188.000000	98.042975
2187.000000	98.043148
2186.000000	98.043246
2185.000000	98.043432
2184.000000	98.043842
2183.000000	98.044501
2182.000000	98.045322
2181.000000	98.046107
2180.000000	98.046601
2179.000000	98.046698
2178.000000	98.046591
2177.000000	98.046595
2176.000000	98.046781
2175.000000	98.046976
2174.000000	98.047159
2173.000000	98.047603
2172.000000	98.048472
2171.000000	98.049435
2170.000000	98.049931
2169.000000	98.049720
2168.000000	98.049007
2167.000000	98.048194
2166.000000	98.047588
2165.000000	98.047267
2164.000000	98.047046
2163.000000	98.046679
2162.000000	98.046246
2161.000000	98.046159
2160.000000	98.046570
2159.000000	98.047008
2158.000000	98.046900
2157.000000	98.046332
2156.000000	98.045999
2155.000000	98.046370
2154.000000	98.047261
2153.000000	98.048140
2152.000000	98.048696
2151.000000	98.048972
2150.000000	98.049076
2149.000000	98.049027
2148.000000	98.048830
2147.000000	98.048578
2146.000000	98.048428
2145.000000	98.048502
2144.000000	98.048796
2143.000000	98.049196
2142.000000	98.049564
2141.000000	98.049823
2140.000000	98.050013
2139.000000	98.050269
2138.000000	98.050705
2137.000000	98.051299
2136.000000	98.051903
2135.000000	98.052371
2134.000000	98.052688
2133.000000	98.052945
2132.000000	98.053240
2131.000000	98.053597
2130.000000	98.053990
2129.000000	98.054399
2128.000000	98.054808
2127.000000	98.055199
2126.000000	98.055558
2125.000000	98.055898
2124.000000	98.056256
2123.000000	98.056670
2122.000000	98.057153
2121.000000	98.057692
2120.000000	98.058248
2119.000000	98.058780
2118.000000	98.059270
2117.000000	98.059729
2116.000000	98.060204
2115.000000	98.060753
2114.000000	98.061395
2113.000000	98.062105
2112.000000	98.062822
2111.000000	98.063494
2110.000000	98.064103
2109.000000	98.064670
2108.000000	98.065253
2107.000000	98.065896
2106.000000	98.066599
2105.000000	98.067323
2104.000000	98.068020
2103.000000	98.068684
2102.000000	98.069346
2101.000000	98.070024
2100.000000	98.070657
2099.000000	98.071143
2098.000000	98.071461
2097.000000	98.071748
2096.000000	98.072168
2095.000000	98.072738
2094.000000	98.073327
2093.000000	98.073869
2092.000000	98.074445
2091.000000	98.075108
2090.000000	98.075811
2089.000000	98.076575
2088.000000	98.077542
2087.000000	98.078744
2086.000000	98.079965
2085.000000	98.080978
2084.000000	98.081823
2083.000000	98.082743
2082.000000	98.083892
2081.000000	98.085129
2080.000000	98.085989
2079.000000	98.085971
2078.000000	98.085099
2077.000000	98.084210
2076.000000	98.084348
2075.000000	98.085691
2074.000000	98.087403
2073.000000	98.088605
2072.000000	98.089243
2071.000000	98.089862
2070.000000	98.090558
2069.000000	98.090530
2068.000000	98.088929
2067.000000	98.086160
2066.000000	98.083954
2065.000000	98.083741
2064.000000	98.085173
2063.000000	98.086731
2062.000000	98.087741
2061.000000	98.088906
2060.000000	98.090709
2059.000000	98.092356
2058.000000	98.092933
2057.000000	98.092751
2056.000000	98.092693
2055.000000	98.092791
2054.000000	98.092453
2053.000000	98.091705
2052.000000	98.091170
2051.000000	98.091055
2050.000000	98.090963
2049.000000	98.090563
2048.000000	98.089723
2047.000000	98.088164
2046.000000	98.085745
2045.000000	98.083132
2044.000000	98.081315
2043.000000	98.080296
2042.000000	98.079005
2041.000000	98.076785
2040.000000	98.074337
2039.000000	98.072863
2038.000000	98.072644
2037.000000	98.072726
2036.000000	98.071745
2035.000000	98.069045
2034.000000	98.065196
2033.000000	98.061551
2032.000000	98.059001
2031.000000	98.057298
2030.000000	98.055771
2029.000000	98.054238
2028.000000	98.052934
2027.000000	98.051961
2026.000000	98.051412
2025.000000	98.051742
2024.000000	98.053119
2023.000000	98.054690
2022.000000	98.055022
2021.000000	98.053586
2020.000000	98.051180
2019.000000	98.048881
2018.000000	98.047007
2017.000000	98.045301
2016.000000	98.043658
2015.000000	98.042265
2014.000000	98.041254
2013.000000	98.040490
2012.000000	98.039680
2011.000000	98.038623
2010.000000	98.037416
2009.000000	98.036391
2008.000000	98.035712
2007.000000	98.035088
2006.000000	98.034095
2005.000000	98.032755
2004.000000	98.031514
2003.000000	98.030766
2002.000000	98.030512
2001.000000	98.030580
2000.000000	98.030793
1999.000000	98.030807
1998.000000	98.030218
1997.000000	98.028803
1996.000000	98.026758
1995.000000	98.024659
1994.000000	98.023132
1993.000000	98.022430
1992.000000	98.022225
1991.000000	98.021844
1990.000000	98.020988
1989.000000	98.020091
1988.000000	98.019783
1987.000000	98.020126
1986.000000	98.020551
1985.000000	98.020482
1984.000000	98.019818
1983.000000	98.018831
1982.000000	98.017862
1981.000000	98.017231
1980.000000	98.017106
1979.000000	98.017278
1978.000000	98.017341
1977.000000	98.017051
1976.000000	98.016628
1975.000000	98.016537
1974.000000	98.017039
1973.000000	98.017925
1972.000000	98.018662
1971.000000	98.018817
1970.000000	98.018350
1969.000000	98.017517
1968.000000	98.016589
1967.000000	98.015757
1966.000000	98.015225
1965.000000	98.015267
1964.000000	98.016117
1963.000000	98.017738
1962.000000	98.019658
1961.000000	98.021122
1960.000000	98.021498
1959.000000	98.020689
1958.000000	98.019165
1957.000000	98.017506
1956.000000	98.016057
1955.000000	98.015071
1954.000000	98.014915
1953.000000	98.015613
1952.000000	98.016525
1951.000000	98.016967
1950.000000	98.016879
1949.000000	98.016963
1948.000000	98.017504
1947.000000	98.017662
1946.000000	98.016600
1945.000000	98.014707
1944.000000	98.012965
1943.000000	98.011461
1942.000000	98.009545
1941.000000	98.007210
1940.000000	98.005225
1939.000000	98.004082
1938.000000	98.003482
1937.000000	98.003108
1936.000000	98.003243
1935.000000	98.004247
1934.000000	98.005944
1933.000000	98.007787
1932.000000	98.009646
1931.000000	98.011593
1930.000000	98.012827
1929.000000	98.012519
1928.000000	98.010441
1927.000000	98.007318
1926.000000	98.004370
1925.000000	98.002229
1924.000000	98.000947
1923.000000	97.999290
1922.000000	97.996178
1921.000000	97.992358
1920.000000	97.989974
1919.000000	97.989883
1918.000000	97.990275
1917.000000	97.988739
1916.000000	97.984848
1915.000000	97.979847
1914.000000	97.975167
1913.000000	97.971316
1912.000000	97.968367
1911.000000	97.966235
1910.000000	97.964521
1909.000000	97.962966
1908.000000	97.961184
1907.000000	97.959033
1906.000000	97.956887
1905.000000	97.955137
1904.000000	97.954296
1903.000000	97.953463
1902.000000	97.951330
1901.000000	97.948201
1900.000000	97.945399
1899.000000	97.943582
1898.000000	97.942473
1897.000000	97.941473
1896.000000	97.940473
1895.000000	97.938837
1894.000000	97.935680
1893.000000	97.931260
1892.000000	97.926878
1891.000000	97.923057
1890.000000	97.919023
1889.000000	97.914371
1888.000000	97.909840
1887.000000	97.906367
1886.000000	97.904694
1885.000000	97.905133
1884.000000	97.906990
1883.000000	97.908365
1882.000000	97.907749
1881.000000	97.905953
1880.000000	97.904537
1879.000000	97.903721
1878.000000	97.902845
1877.000000	97.901724
1876.000000	97.901417
1875.000000	97.902837
1874.000000	97.904959
1873.000000	97.905907
1872.000000	97.905320
1871.000000	97.904748
1870.000000	97.905994
1869.000000	97.909443
1868.000000	97.913457
1867.000000	97.915446
1866.000000	97.914833
1865.000000	97.913499
1864.000000	97.912989
1863.000000	97.913261
1862.000000	97.914300
1861.000000	97.917420
1860.000000	97.923530
1859.000000	97.930936
1858.000000	97.936663
1857.000000	97.939547
1856.000000	97.940695
1855.000000	97.941482
1854.000000	97.942542
1853.000000	97.944644
1852.000000	97.947645
1851.000000	97.949888
1850.000000	97.950937
1849.000000	97.951631
1848.000000	97.952913
1847.000000	97.954584
1846.000000	97.956586
1845.000000	97.959538
1844.000000	97.963614
1843.000000	97.967067
1842.000000	97.967981
1841.000000	97.968091
1840.000000	97.970166
1839.000000	97.973907
1838.000000	97.976413
1837.000000	97.975998
1836.000000	97.974525
1835.000000	97.974236
1834.000000	97.975152
1833.000000	97.976065
1832.000000	97.976321
1831.000000	97.976433
1830.000000	97.977513
1829.000000	97.979278
1828.000000	97.980529
1827.000000	97.981271
1826.000000	97.982153
1825.000000	97.982453
1824.000000	97.981226
1823.000000	97.978742
1822.000000	97.976314
1821.000000	97.975243
1820.000000	97.975912
1819.000000	97.978047
1818.000000	97.980378
1817.000000	97.981221
1816.000000	97.980133
1815.000000	97.977347
1814.000000	97.973632
1813.000000	97.970180
1812.000000	97.968245
1811.000000	97.968443
1810.000000	97.969267
1809.000000	97.969580
1808.000000	97.970257
1807.000000	97.971767
1806.000000	97.973032
1805.000000	97.973575
1804.000000	97.974738
1803.000000	97.977008
1802.000000	97.978680
1801.000000	97.977910
1800.000000	97.975110
1799.000000	97.972729
1798.000000	97.971346
1797.000000	97.970486
1796.000000	97.970161
1795.000000	97.970917
1794.000000	97.973286
1793.000000	97.976968
1792.000000	97.980709
1791.000000	97.982862
1790.000000	97.981739
1789.000000	97.979098
1788.000000	97.978661
1787.000000	97.981914
1786.000000	97.986610
1785.000000	97.989379
1784.000000	97.988930
1783.000000	97.985951
1782.000000	97.983663
1781.000000	97.985418
1780.000000	97.990425
1779.000000	97.996058
1778.000000	98.000208
1777.000000	98.004167
1776.000000	98.009194
1775.000000	98.015176
1774.000000	98.022321
1773.000000	98.030077
1772.000000	98.036671
1771.000000	98.040822
1770.000000	98.042470
1769.000000	98.043623
1768.000000	98.046827
1767.000000	98.052502
1766.000000	98.059032
1765.000000	98.065086
1764.000000	98.071086
1763.000000	98.077754
1762.000000	98.085219
1761.000000	98.092762
1760.000000	98.098556
1759.000000	98.101781
1758.000000	98.101523
1757.000000	98.097705
1756.000000	98.090929
1755.000000	98.083615
1754.000000	98.078740
1753.000000	98.077493
1752.000000	98.078152
1751.000000	98.079090
1750.000000	98.079857
1749.000000	98.079341
1748.000000	98.077121
1747.000000	98.073303
1746.000000	98.069882
1745.000000	98.068043
1744.000000	98.067371
1743.000000	98.067756
1742.000000	98.068829
1741.000000	98.070240
1740.000000	98.071940
1739.000000	98.072774
1738.000000	98.069702
1737.000000	98.062680
1736.000000	98.055245
1735.000000	98.049667
1734.000000	98.047881
1733.000000	98.050721
1732.000000	98.052904
1731.000000	98.052464
1730.000000	98.050457
1729.000000	98.047221
1728.000000	98.043380
1727.000000	98.040206
1726.000000	98.038997
1725.000000	98.039259
1724.000000	98.040014
1723.000000	98.040903
1722.000000	98.040848
1721.000000	98.039516
1720.000000	98.037813
1719.000000	98.036509
1718.000000	98.035165
1717.000000	98.033555
1716.000000	98.032111
1715.000000	98.030795
1714.000000	98.029264
1713.000000	98.027438
1712.000000	98.025533
1711.000000	98.023642
1710.000000	98.021770
1709.000000	98.019991
1708.000000	98.018349
1707.000000	98.016805
1706.000000	98.015267
1705.000000	98.013700
1704.000000	98.012146
1703.000000	98.010646
1702.000000	98.009215
1701.000000	98.007794
1700.000000	98.006360
1699.000000	98.004911
1698.000000	98.003439
1697.000000	98.001992
1696.000000	98.000601
1695.000000	97.999263
1694.000000	97.997941
1693.000000	97.996612
1692.000000	97.995283
1691.000000	97.993972
1690.000000	97.992693
1689.000000	97.991453
1688.000000	97.990242
1687.000000	97.989048
1686.000000	97.987865
1685.000000	97.986681
1684.000000	97.985498
1683.000000	97.984340
1682.000000	97.983211
1681.000000	97.982138
1680.000000	97.981128
1679.000000	97.980147
1678.000000	97.979184
1677.000000	97.978256
1676.000000	97.977364
1675.000000	97.976489
1674.000000	97.975651
1673.000000	97.974866
1672.000000	97.974148
1671.000000	97.973493
1670.000000	97.972814
1669.000000	97.972129
1668.000000	97.971511
1667.000000	97.970975
1666.000000	97.970547
1665.000000	97.970227
1664.000000	97.969937
1663.000000	97.969504
1662.000000	97.968887
1661.000000	97.968322
1660.000000	97.967984
1659.000000	97.968059
1658.000000	97.968566
1657.000000	97.969167
1656.000000	97.969375
1655.000000	97.969138
1654.000000	97.967983
1653.000000	97.966710
1652.000000	97.967632
1651.000000	97.968570
1650.000000	97.968667
1649.000000	97.969161
1648.000000	97.969541
1647.000000	97.968551
1646.000000	97.966614
1645.000000	97.965039
1644.000000	97.964589
1643.000000	97.965563
1642.000000	97.968040
1641.000000	97.971658
1640.000000	97.975045
1639.000000	97.977109
1638.000000	97.977709
1637.000000	97.977100
1636.000000	97.975644
1635.000000	97.974969
1634.000000	97.975616
1633.000000	97.975991
1632.000000	97.976778
1631.000000	97.978568
1630.000000	97.981025
1629.000000	97.983625
1628.000000	97.986083
1627.000000	97.988086
1626.000000	97.989957
1625.000000	97.992500
1624.000000	97.995328
1623.000000	97.997421
1622.000000	97.998635
1621.000000	97.999490
1620.000000	98.000116
1619.000000	98.001372
1618.000000	98.003627
1617.000000	98.006531
1616.000000	98.009354
1615.000000	98.010418
1614.000000	98.011049
1613.000000	98.015266
1612.000000	98.023503
1611.000000	98.031643
1610.000000	98.037044
1609.000000	98.040967
1608.000000	98.044379
1607.000000	98.046135
1606.000000	98.046871
1605.000000	98.049447
1604.000000	98.054114
1603.000000	98.059451
1602.000000	98.064668
1601.000000	98.070034
1600.000000	98.075521
1599.000000	98.080818
1598.000000	98.086466
1597.000000	98.092712
1596.000000	98.097982
1595.000000	98.099742
1594.000000	98.097402
1593.000000	98.093282
1592.000000	98.089771
1591.000000	98.087270
1590.000000	98.085511
1589.000000	98.085228
1588.000000	98.087163
1587.000000	98.090657
1586.000000	98.093977
1585.000000	98.096326
1584.000000	98.096823
1583.000000	98.094789
1582.000000	98.092050
1581.000000	98.090119
1580.000000	98.088393
1579.000000	98.086435
1578.000000	98.085474
1577.000000	98.084280
1576.000000	98.081208
1575.000000	98.077108
1574.000000	98.073141
1573.000000	98.070564
1572.000000	98.069227
1571.000000	98.066718
1570.000000	98.062300
1569.000000	98.059834
1568.000000	98.059903
1567.000000	98.060059
1566.000000	98.060450
1565.000000	98.061689
1564.000000	98.062507
1563.000000	98.061536
1562.000000	98.060237
1561.000000	98.060896
1560.000000	98.058554
1559.000000	98.049177
1558.000000	98.042831
1557.000000	98.039714
1556.000000	98.037264
1555.000000	98.035680
1554.000000	98.034316
1553.000000	98.031632
1552.000000	98.026252
1551.000000	98.019327
1550.000000	98.012543
1549.000000	98.007445
1548.000000	98.004766
1547.000000	98.003344
1546.000000	98.001786
1545.000000	97.998843
1544.000000	97.995337
1543.000000	97.993670
1542.000000	97.994393
1541.000000	97.994097
1540.000000	97.990820
1539.000000	97.986119
1538.000000	97.978933
1537.000000	97.968206
1536.000000	97.957593
1535.000000	97.949557
1534.000000	97.943217
1533.000000	97.936264
1532.000000	97.927694
1531.000000	97.919759
1530.000000	97.914487
1529.000000	97.911650
1528.000000	97.909858
1527.000000	97.907580
1526.000000	97.903960
1525.000000	97.898455
1524.000000	97.891388
1523.000000	97.884935
1522.000000	97.880055
1521.000000	97.875910
1520.000000	97.870866
1519.000000	97.864992
1518.000000	97.861396
1517.000000	97.859795
1516.000000	97.856732
1515.000000	97.851070
1514.000000	97.846072
1513.000000	97.844677
1512.000000	97.845701
1511.000000	97.845944
1510.000000	97.843558
1509.000000	97.840618
1508.000000	97.839133
1507.000000	97.838563
1506.000000	97.838659
1505.000000	97.838620
1504.000000	97.836311
1503.000000	97.832771
1502.000000	97.829836
1501.000000	97.827856
1500.000000	97.826908
1499.000000	97.827063
1498.000000	97.827255
1497.000000	97.824750
1496.000000	97.819881
1495.000000	97.814496
1494.000000	97.808757
1493.000000	97.803946
1492.000000	97.802081
1491.000000	97.803128
1490.000000	97.804356
1489.000000	97.803786
1488.000000	97.802924
1487.000000	97.803091
1486.000000	97.802348
1485.000000	97.800774
1484.000000	97.799271
1483.000000	97.797685
1482.000000	97.795782
1481.000000	97.793731
1480.000000	97.793493
1479.000000	97.796023
1478.000000	97.800198
1477.000000	97.803409
1476.000000	97.805170
1475.000000	97.806962
1474.000000	97.810377
1473.000000	97.815155
1472.000000	97.819189
1471.000000	97.821236
1470.000000	97.821111
1469.000000	97.820213
1468.000000	97.820357
1467.000000	97.822579
1466.000000	97.826836
1465.000000	97.832256
1464.000000	97.836941
1463.000000	97.840365
1462.000000	97.842867
1461.000000	97.844474
1460.000000	97.844984
1459.000000	97.844862
1458.000000	97.845245
1457.000000	97.847438
1456.000000	97.851963
1455.000000	97.856026
1454.000000	97.858790
1453.000000	97.860762
1452.000000	97.861499
1451.000000	97.861797
1450.000000	97.863009
1449.000000	97.864389
1448.000000	97.863540
1447.000000	97.859546
1446.000000	97.855249
1445.000000	97.853852
1444.000000	97.855495
1443.000000	97.859814
1442.000000	97.865818
1441.000000	97.871554
1440.000000	97.874681
1439.000000	97.874934
1438.000000	97.873680
1437.000000	97.872603
1436.000000	97.873512
1435.000000	97.876331
1434.000000	97.880016
1433.000000	97.884332
1432.000000	97.888912
1431.000000	97.892982
1430.000000	97.896796
1429.000000	97.901206
1428.000000	97.906667
1427.000000	97.911920
1426.000000	97.916048
1425.000000	97.919252
1424.000000	97.921656
1423.000000	97.924488
1422.000000	97.929057
1421.000000	97.935743
1420.000000	97.942653
1419.000000	97.947376
1418.000000	97.949700
1417.000000	97.950809
1416.000000	97.952727
1415.000000	97.956520
1414.000000	97.961503
1413.000000	97.966352
1412.000000	97.970588
1411.000000	97.974910
1410.000000	97.979493
1409.000000	97.983386
1408.000000	97.986722
1407.000000	97.990546
1406.000000	97.995388
1405.000000	98.000403
1404.000000	98.003730
1403.000000	98.005222
1402.000000	98.006186
1401.000000	98.008094
1400.000000	98.011871
1399.000000	98.017836
1398.000000	98.025238
1397.000000	98.032583
1396.000000	98.039144
1395.000000	98.044518
1394.000000	98.048636
1393.000000	98.051228
1392.000000	98.052222
1391.000000	98.053063
1390.000000	98.055228
1389.000000	98.058671
1388.000000	98.062180
1387.000000	98.064997
1386.000000	98.067366
1385.000000	98.069670
1384.000000	98.071670
1383.000000	98.073129
1382.000000	98.073887
1381.000000	98.074002
1380.000000	98.073961
1379.000000	98.074372
1378.000000	98.075700
1377.000000	98.077693
1376.000000	98.079343
1375.000000	98.079553
1374.000000	98.078539
1373.000000	98.077741
1372.000000	98.078447
1371.000000	98.080924
1370.000000	98.084511
1369.000000	98.087642
1368.000000	98.088362
1367.000000	98.086523
1366.000000	98.084153
1365.000000	98.083598
1364.000000	98.085550
1363.000000	98.088921
1362.000000	98.092104
1361.000000	98.094228
1360.000000	98.095130
1359.000000	98.094808
1358.000000	98.093571
1357.000000	98.092162
1356.000000	98.091280
1355.000000	98.091241
1354.000000	98.091861
1353.000000	98.092407
1352.000000	98.092130
1351.000000	98.090793
1350.000000	98.089435
1349.000000	98.089819
1348.000000	98.092215
1347.000000	98.094957
1346.000000	98.095830
1345.000000	98.094134
1344.000000	98.090952
1343.000000	98.088004
1342.000000	98.086178
1341.000000	98.085138
1340.000000	98.084164
1339.000000	98.083511
1338.000000	98.084366
1337.000000	98.087133
1336.000000	98.090566
1335.000000	98.093075
1334.000000	98.094313
1333.000000	98.094971
1332.000000	98.095394
1331.000000	98.095128
1330.000000	98.093860
1329.000000	98.092020
1328.000000	98.090411
1327.000000	98.089778
1326.000000	98.090777
1325.000000	98.093352
1324.000000	98.095888
1323.000000	98.096265
1322.000000	98.093805
1321.000000	98.090000
1320.000000	98.087088
1319.000000	98.086078
1318.000000	98.085986
1317.000000	98.084773
1316.000000	98.081136
1315.000000	98.075710
1314.000000	98.070733
1313.000000	98.068112
1312.000000	98.067711
1311.000000	98.067760
1310.000000	98.066852
1309.000000	98.064949
1308.000000	98.062600
1307.000000	98.059735
1306.000000	98.055896
1305.000000	98.051211
1304.000000	98.046365
1303.000000	98.041783
1302.000000	98.037238
1301.000000	98.032740
1300.000000	98.029171
1299.000000	98.027273
1298.000000	98.025871
1297.000000	98.022246
1296.000000	98.014956
1295.000000	98.005910
1294.000000	97.998911
1293.000000	97.995974
1292.000000	97.995729
1291.000000	97.995127
1290.000000	97.992057
1289.000000	97.986345
1288.000000	97.979125
1287.000000	97.971834
1286.000000	97.965440
1285.000000	97.960149
1284.000000	97.955750
1283.000000	97.952094
1282.000000	97.948941
1281.000000	97.945676
1280.000000	97.941599
1279.000000	97.936482
1278.000000	97.930370
1277.000000	97.922887
1276.000000	97.913543
1275.000000	97.902957
1274.000000	97.893180
1273.000000	97.886014
1272.000000	97.881146
1271.000000	97.876474
1270.000000	97.870589
1269.000000	97.864597
1268.000000	97.860844
1267.000000	97.859901
1266.000000	97.859561
1265.000000	97.857338
1264.000000	97.853285
1263.000000	97.849197
1262.000000	97.845460
1261.000000	97.840407
1260.000000	97.833048
1259.000000	97.824741
1258.000000	97.817096
1257.000000	97.809448
1256.000000	97.799934
1255.000000	97.788230
1254.000000	97.775722
1253.000000	97.763240
1252.000000	97.750098
1251.000000	97.735644
1250.000000	97.720732
1249.000000	97.707033
1248.000000	97.695238
1247.000000	97.684308
1246.000000	97.672445
1245.000000	97.658792
1244.000000	97.644182
1243.000000	97.629927
1242.000000	97.616065
1241.000000	97.601415
1240.000000	97.585296
1239.000000	97.568373
1238.000000	97.551783
1237.000000	97.536214
1236.000000	97.521629
1235.000000	97.506680
1234.000000	97.488544
1233.000000	97.465053
1232.000000	97.437383
1231.000000	97.409239
1230.000000	97.382860
1229.000000	97.357299
1228.000000	97.330902
1227.000000	97.303050
1226.000000	97.272367
1225.000000	97.235822
1224.000000	97.191866
1223.000000	97.143071
1222.000000	97.093388
1221.000000	97.043441
1220.000000	96.990233
1219.000000	96.930984
1218.000000	96.865966
1217.000000	96.798075
1216.000000	96.730573
1215.000000	96.664342
1214.000000	96.596610
1213.000000	96.523659
1212.000000	96.445441
1211.000000	96.365928
1210.000000	96.288307
1209.000000	96.212152
1208.000000	96.136165
1207.000000	96.060752
1206.000000	95.986486
1205.000000	95.913049
1204.000000	95.841318
1203.000000	95.773484
1202.000000	95.709198
1201.000000	95.644450
1200.000000	95.576323
1199.000000	95.506385
1198.000000	95.437429
1197.000000	95.369411
1196.000000	95.300727
1195.000000	95.230952
1194.000000	95.160241
1193.000000	95.088275
1192.000000	95.015556
1191.000000	94.943439
1190.000000	94.871231
1189.000000	94.795660
1188.000000	94.714947
1187.000000	94.631169
1186.000000	94.547105
1185.000000	94.462942
1184.000000	94.377160
1183.000000	94.288033
1182.000000	94.193463
1181.000000	94.092651
1180.000000	93.988992
1179.000000	93.887645
1178.000000	93.788669
1177.000000	93.686160
1176.000000	93.575867
1175.000000	93.460128
1174.000000	93.343842
1173.000000	93.229402
1172.000000	93.117206
1171.000000	93.007064
1170.000000	92.897248
1169.000000	92.786400
1168.000000	92.678260
1167.000000	92.580572
1166.000000	92.498342
1165.000000	92.433138
1164.000000	92.389654
1163.000000	92.375903
1162.000000	92.393725
1161.000000	92.433889
1160.000000	92.482321
1159.000000	92.526203
1158.000000	92.553188
1157.000000	92.552118
1156.000000	92.519079
1155.000000	92.459481
1154.000000	92.381872
1153.000000	92.292635
1152.000000	92.197771
1151.000000	92.104381
1150.000000	92.016600
1149.000000	91.933419
1148.000000	91.852566
1147.000000	91.772726
1146.000000	91.691154
1145.000000	91.604847
1144.000000	91.516171
1143.000000	91.431916
1142.000000	91.354543
1141.000000	91.279601
1140.000000	91.203537
1139.000000	91.127901
1138.000000	91.053860
1137.000000	90.979190
1136.000000	90.903234
1135.000000	90.828196
1134.000000	90.752860
1133.000000	90.672177
1132.000000	90.586354
1131.000000	90.503089
1130.000000	90.426795
1129.000000	90.352622
1128.000000	90.275396
1127.000000	90.197254
1126.000000	90.121487
1125.000000	90.045887
1124.000000	89.968119
1123.000000	89.891720
1122.000000	89.820603
1121.000000	89.752267
1120.000000	89.681760
1119.000000	89.608256
1118.000000	89.533681
1117.000000	89.459410
1116.000000	89.387725
1115.000000	89.321305
1114.000000	89.257983
1113.000000	89.191346
1112.000000	89.119468
1111.000000	89.047402
1110.000000	88.979264
1109.000000	88.914498
1108.000000	88.853189
1107.000000	88.796944
1106.000000	88.742426
1105.000000	88.682649
1104.000000	88.617524
1103.000000	88.555175
1102.000000	88.500460
1101.000000	88.450453
1100.000000	88.403123
1099.000000	88.361083
1098.000000	88.323953
1097.000000	88.286539
1096.000000	88.247899
1095.000000	88.212998
1094.000000	88.182315
1093.000000	88.149569
1092.000000	88.113458
1091.000000	88.081881
1090.000000	88.060009
1089.000000	88.043381
1088.000000	88.027420
1087.000000	88.014967
1086.000000	88.009464
1085.000000	88.008779
1084.000000	88.010526
1083.000000	88.016340
1082.000000	88.026914
1081.000000	88.039560
1080.000000	88.053727
1079.000000	88.071999
1078.000000	88.093165
1077.000000	88.111449
1076.000000	88.124551
1075.000000	88.134806
1074.000000	88.140568
1073.000000	88.134278
1072.000000	88.110796
1071.000000	88.070134
1070.000000	88.011046
1069.000000	87.930221
1068.000000	87.829271
1067.000000	87.714255
1066.000000	87.586972
1065.000000	87.445799
1064.000000	87.296818
1063.000000	87.153719
1062.000000	87.023442
1061.000000	86.901976
1060.000000	86.787419
1059.000000	86.686386
1058.000000	86.603509
1057.000000	86.534721
1056.000000	86.474615
1055.000000	86.420410
1054.000000	86.365498
1053.000000	86.300502
1052.000000	86.226072
1051.000000	86.154061
1050.000000	86.090570
1049.000000	86.029263
1048.000000	85.966154
1047.000000	85.907143
1046.000000	85.855029
1045.000000	85.801885
1044.000000	85.740254
1043.000000	85.672356
1042.000000	85.604002
1041.000000	85.538247
1040.000000	85.478599
1039.000000	85.429453
1038.000000	85.389514
1037.000000	85.352979
1036.000000	85.319651
1035.000000	85.295118
1034.000000	85.279522
1033.000000	85.266192
1032.000000	85.252888
1031.000000	85.243832
1030.000000	85.239152
1029.000000	85.233843
1028.000000	85.229137
1027.000000	85.232839
1026.000000	85.245587
1025.000000	85.258646
1024.000000	85.268219
1023.000000	85.279699
1022.000000	85.294374
1021.000000	85.304754
1020.000000	85.308010
1019.000000	85.312251
1018.000000	85.323817
1017.000000	85.338908
1016.000000	85.352713
1015.000000	85.366535
1014.000000	85.380778
1013.000000	85.391049
1012.000000	85.396840
1011.000000	85.405370
1010.000000	85.421813
1009.000000	85.443880
1008.000000	85.470003
1007.000000	85.504170
1006.000000	85.548258
1005.000000	85.597527
1004.000000	85.647481
1003.000000	85.697822
1002.000000	85.746890
1001.000000	85.790682
1000.000000	85.830928
999.000000	85.876254
998.000000	85.931854
997.000000	85.995124
996.000000	86.063512
995.000000	86.138351
994.000000	86.218060
993.000000	86.296172
992.000000	86.370141
991.000000	86.444691
990.000000	86.522553
989.000000	86.599089
988.000000	86.670396
987.000000	86.740918
986.000000	86.818995
985.000000	86.909195
984.000000	87.010977
983.000000	87.119798
982.000000	87.228024
981.000000	87.330215
980.000000	87.429196
979.000000	87.532472
978.000000	87.642394
977.000000	87.754747
976.000000	87.866570
975.000000	87.979248
974.000000	88.093626
973.000000	88.208168
972.000000	88.322581
971.000000	88.437956
970.000000	88.553219
969.000000	88.666633
968.000000	88.779992
967.000000	88.895447
966.000000	89.009213
965.000000	89.115265
964.000000	89.215026
963.000000	89.316605
962.000000	89.424037
961.000000	89.533690
960.000000	89.641654
959.000000	89.747693
958.000000	89.850782
957.000000	89.947654
956.000000	90.038434
955.000000	90.128743
954.000000	90.223382
953.000000	90.320596
952.000000	90.413902
951.000000	90.497467
950.000000	90.570690
949.000000	90.640416
948.000000	90.716466
947.000000	90.800786
946.000000	90.883551
945.000000	90.954763
944.000000	91.016488
943.000000	91.078086
942.000000	91.142219
941.000000	91.203270
940.000000	91.258668
939.000000	91.313685
938.000000	91.374202
937.000000	91.440821
936.000000	91.510848
935.000000	91.580739
934.000000	91.646553
933.000000	91.707290
932.000000	91.767625
931.000000	91.832597
930.000000	91.900471
929.000000	91.965650
928.000000	92.026566
927.000000	92.084868
926.000000	92.139326
925.000000	92.187832
924.000000	92.233736
923.000000	92.282284
922.000000	92.331723
921.000000	92.376127
920.000000	92.416412
919.000000	92.459734
918.000000	92.507861
917.000000	92.555411
916.000000	92.600644
915.000000	92.648193
914.000000	92.698637
913.000000	92.745467
912.000000	92.787181
911.000000	92.833650
910.000000	92.894169
909.000000	92.966167
908.000000	93.041498
907.000000	93.118006
906.000000	93.198056
905.000000	93.280048
904.000000	93.359364
903.000000	93.436907
902.000000	93.520294
901.000000	93.614893
900.000000	93.716481
899.000000	93.814170
898.000000	93.900302
897.000000	93.976740
896.000000	94.050802
895.000000	94.125819
894.000000	94.198573
893.000000	94.266810
892.000000	94.334558
891.000000	94.406217
890.000000	94.479428
889.000000	94.549533
888.000000	94.617962
887.000000	94.689040
886.000000	94.759963
885.000000	94.822055
884.000000	94.872444
883.000000	94.917160
882.000000	94.961259
881.000000	95.002823
880.000000	95.039480
879.000000	95.074005
878.000000	95.109729
877.000000	95.146439
876.000000	95.185073
875.000000	95.230886
874.000000	95.286995
873.000000	95.349132
872.000000	95.411337
871.000000	95.473211
870.000000	95.537525
869.000000	95.603898
868.000000	95.668872
867.000000	95.730143
866.000000	95.787506
865.000000	95.841034
864.000000	95.890531
863.000000	95.935734
862.000000	95.976187
861.000000	96.012973
860.000000	96.051398
859.000000	96.099345
858.000000	96.161100
857.000000	96.233865
856.000000	96.310141
855.000000	96.381266
854.000000	96.440021
853.000000	96.484745
852.000000	96.522038
851.000000	96.561533
850.000000	96.606370
849.000000	96.651529
848.000000	96.691623
847.000000	96.726101
846.000000	96.756397
845.000000	96.783196
844.000000	96.808606
843.000000	96.836119
842.000000	96.865338
841.000000	96.890879
840.000000	96.909694
839.000000	96.925666
838.000000	96.943480
837.000000	96.961466
836.000000	96.974744
835.000000	96.982833
834.000000	96.989850
833.000000	96.998669
832.000000	97.008606
831.000000	97.017374
830.000000	97.021681
829.000000	97.017506
828.000000	97.004161
827.000000	96.987386
826.000000	96.973722
825.000000	96.961659
824.000000	96.942896
823.000000	96.912563
822.000000	96.873353
821.000000	96.829124
820.000000	96.779331
819.000000	96.720895
818.000000	96.651613
817.000000	96.570155
816.000000	96.474728
815.000000	96.362538
814.000000	96.228761
813.000000	96.065072
812.000000	95.860228
811.000000	95.603246
810.000000	95.286906
809.000000	94.910018
808.000000	94.478038
807.000000	94.001146
806.000000	93.491564
805.000000	92.965315
804.000000	92.446776
803.000000	91.964688
802.000000	91.539006
801.000000	91.176593
800.000000	90.882487
799.000000	90.667139
798.000000	90.537508
797.000000	90.488222
796.000000	90.505558
795.000000	90.572599
794.000000	90.667865
793.000000	90.769082
792.000000	90.864297
791.000000	90.952607
790.000000	91.029340
789.000000	91.076794
788.000000	91.074384
787.000000	91.012937
786.000000	90.895366
785.000000	90.729644
784.000000	90.527952
783.000000	90.309191
782.000000	90.094824
781.000000	89.902426
780.000000	89.746354
779.000000	89.641059
778.000000	89.598391
777.000000	89.622490
776.000000	89.708778
775.000000	89.845538
774.000000	90.017273
773.000000	90.211449
772.000000	90.422070
771.000000	90.643119
770.000000	90.861109
769.000000	91.060536
768.000000	91.235902
767.000000	91.393198
766.000000	91.541252
765.000000	91.687070
764.000000	91.836713
763.000000	91.991921
762.000000	92.145583
761.000000	92.288374
760.000000	92.421003
759.000000	92.552883
758.000000	92.687613
757.000000	92.817330
756.000000	92.933799
755.000000	93.038246
754.000000	93.137299
753.000000	93.235224
752.000000	93.333327
751.000000	93.431312
750.000000	93.525535
749.000000	93.610846
748.000000	93.687971
747.000000	93.765106
746.000000	93.848674
745.000000	93.936177
744.000000	94.021087
743.000000	94.100184
742.000000	94.172729
741.000000	94.237992
740.000000	94.299175
739.000000	94.365261
738.000000	94.441317
737.000000	94.518269
736.000000	94.579768
735.000000	94.620413
734.000000	94.651865
733.000000	94.688551
732.000000	94.731292
731.000000	94.768993
730.000000	94.794586
729.000000	94.814388
728.000000	94.839253
727.000000	94.870883
726.000000	94.902505
725.000000	94.931240
724.000000	94.963880
723.000000	95.008793
722.000000	95.066491
721.000000	95.130839
720.000000	95.195682
719.000000	95.256496
718.000000	95.308334
717.000000	95.347195
716.000000	95.373904
715.000000	95.394137
714.000000	95.414428
713.000000	95.439084
712.000000	95.468774
711.000000	95.499135
710.000000	95.521877
709.000000	95.531169
708.000000	95.529152
707.000000	95.522553
706.000000	95.514322
705.000000	95.498860
704.000000	95.463783
703.000000	95.395630
702.000000	95.284136
701.000000	95.123227
700.000000	94.909585
699.000000	94.643044
698.000000	94.337180
697.000000	94.032455
696.000000	93.789551
695.000000	93.658659
694.000000	93.651957
693.000000	93.746869
692.000000	93.909211
691.000000	94.107271
690.000000	94.313304
689.000000	94.505518
688.000000	94.673849
687.000000	94.819585
686.000000	94.946155
685.000000	95.055759
684.000000	95.153918
683.000000	95.247851
682.000000	95.339097
681.000000	95.423653
680.000000	95.499451
679.000000	95.566869
678.000000	95.623537
677.000000	95.670351
676.000000	95.718748
675.000000	95.780078
674.000000	95.850111
673.000000	95.911727
672.000000	95.952253
671.000000	95.972439
670.000000	95.981987
669.000000	95.999837
668.000000	96.062190
667.000000	96.151971
666.000000	96.216787
665.000000	96.261185
664.000000	96.308273
663.000000	96.363516
662.000000	96.419459
661.000000	96.464970
660.000000	96.498042
659.000000	96.521652
658.000000	96.535349
657.000000	96.535778
656.000000	96.522987
655.000000	96.502946
654.000000	96.485026
653.000000	96.472296
652.000000	96.458895
651.000000	96.445215
650.000000	96.447644
