4000.000000	100.715373
3999.000000	100.715436
3998.000000	100.715272
3997.000000	100.714529
3996.000000	100.713147
3995.000000	100.711532
3994.000000	100.710288
3993.000000	100.709698
3992.000000	100.709543
3991.000000	100.709379
3990.000000	100.708986
3989.000000	100.708494
3988.000000	100.708121
3987.000000	100.707885
3986.000000	100.707632
3985.000000	100.707290
3984.000000	100.707009
3983.000000	100.707013
3982.000000	100.707325
3981.000000	100.707641
3980.000000	100.707517
3979.000000	100.706694
3978.000000	100.705279
3977.000000	100.703709
3976.000000	100.702542
3975.000000	100.702161
3974.000000	100.702622
3973.000000	100.703684
3972.000000	100.704925
3971.000000	100.705875
3970.000000	100.706175
3969.000000	100.705756
3968.000000	100.704958
3967.000000	100.704350
3966.000000	100.704270
3965.000000	100.704506
3964.000000	100.704505
3963.000000	100.703945
3962.000000	100.703103
3961.000000	100.702656
3960.000000	100.703073
3959.000000	100.704179
3958.000000	100.705185
3957.000000	100.705222
3956.000000	100.703996
3955.000000	100.702063
3954.000000	100.700453
3953.000000	100.699810
3952.000000	100.699820
3951.000000	100.699480
3950.000000	100.698127
3949.000000	100.696271
3948.000000	100.695247
3947.000000	100.695866
3946.000000	100.697636
3945.000000	100.699373
3944.000000	100.700351
3943.000000	100.700763
3942.000000	100.701241
3941.000000	100.702099
3940.000000	100.703044
3939.000000	100.703566
3938.000000	100.703350
3937.000000	100.702294
3936.000000	100.700449
3935.000000	100.698085
3934.000000	100.695706
3933.000000	100.693756
3932.000000	100.692286
3931.000000	100.691162
3930.000000	100.690494
3929.000000	100.690531
3928.000000	100.691172
3927.000000	100.691898
3926.000000	100.692224
3925.000000	100.692250
3924.000000	100.692899
3923.000000	100.695180
3922.000000	100.699022
3921.000000	100.703145
3920.000000	100.706159
3919.000000	100.707597
3918.000000	100.707763
3917.000000	100.706991
3916.000000	100.705542
3915.000000	100.704037
3914.000000	100.703214
3913.000000	100.703181
3912.000000	100.703248
3911.000000	100.702795
3910.000000	100.702090
3909.000000	100.702039
3908.000000	100.703172
3907.000000	100.705093
3906.000000	100.706746
3905.000000	100.707212
3904.000000	100.706409
3903.000000	100.705162
3902.000000	100.704492
3901.000000	100.704708
3900.000000	100.705317
3899.000000	100.705721
3898.000000	100.705887
3897.000000	100.706256
3896.000000	100.707106
3895.000000	100.708242
3894.000000	100.709174
3893.000000	100.709570
3892.000000	100.709446
3891.000000	100.709142
3890.000000	100.709026
3889.000000	100.709131
3888.000000	100.709201
3887.000000	100.708970
3886.000000	100.708320
3885.000000	100.707560
3884.000000	100.707349
3883.000000	100.708077
3882.000000	100.709541
3881.000000	100.710960
3880.000000	100.711619
3879.000000	100.711627
3878.000000	100.711616
3877.000000	100.711970
3876.000000	100.712588
3875.000000	100.713034
3874.000000	100.712954
3873.000000	100.712593
3872.000000	100.712759
3871.000000	100.713791
3870.000000	100.714745
3869.000000	100.714634
3868.000000	100.713878
3867.000000	100.713712
3866.000000	100.714608
3865.000000	100.715675
3864.000000	100.715659
3863.000000	100.714346
3862.000000	100.712350
3861.000000	100.710287
3860.000000	100.708529
3859.000000	100.707346
3858.000000	100.706764
3857.000000	100.706366
3856.000000	100.705762
3855.000000	100.705825
3854.000000	100.707189
3853.000000	100.708449
3852.000000	100.708569
3851.000000	100.708025
3850.000000	100.707590
3849.000000	100.707664
3848.000000	100.708104
3847.000000	100.708486
3846.000000	100.708459
3845.000000	100.708078
3844.000000	100.707583
3843.000000	100.706915
3842.000000	100.705716
3841.000000	100.703979
3840.000000	100.702348
3839.000000	100.701471
3838.000000	100.701299
3837.000000	100.701145
3836.000000	100.700375
3835.000000	100.699168
3834.000000	100.698522
3833.000000	100.699269
3832.000000	100.701226
3831.000000	100.703451
3830.000000	100.705143
3829.000000	100.706174
3828.000000	100.706789
3827.000000	100.707046
3826.000000	100.706746
3825.000000	100.705870
3824.000000	100.704752
3823.000000	100.704099
3822.000000	100.704191
3821.000000	100.704144
3820.000000	100.703479
3819.000000	100.702983
3818.000000	100.703606
3817.000000	100.705232
3816.000000	100.706452
3815.000000	100.706404
3814.000000	100.705875
3813.000000	100.706013
3812.000000	100.707009
3811.000000	100.708064
3810.000000	100.708274
3809.000000	100.707676
3808.000000	100.707204
3807.000000	100.707533
3806.000000	100.708355
3805.000000	100.708691
3804.000000	100.707850
3803.000000	100.706199
3802.000000	100.704364
3801.000000	100.702814
3800.000000	100.702371
3799.000000	100.703527
3798.000000	100.706106
3797.000000	100.709373
3796.000000	100.712298
3795.000000	100.714276
3794.000000	100.715330
3793.000000	100.715702
3792.000000	100.715630
3791.000000	100.715337
3790.000000	100.714968
3789.000000	100.714461
3788.000000	100.713760
3787.000000	100.713256
3786.000000	100.713639
3785.000000	100.715031
3784.000000	100.716533
3783.000000	100.717007
3782.000000	100.716126
3781.000000	100.714644
3780.000000	100.713452
3779.000000	100.712537
3778.000000	100.711369
3777.000000	100.709924
3776.000000	100.708855
3775.000000	100.708727
3774.000000	100.709299
3773.000000	100.709783
3772.000000	100.709603
3771.000000	100.708606
3770.000000	100.706825
3769.000000	100.704698
3768.000000	100.703123
3767.000000	100.702852
3766.000000	100.703727
3765.000000	100.704615
3764.000000	100.704458
3763.000000	100.703302
3762.000000	100.702029
3761.000000	100.701396
3760.000000	100.701430
3759.000000	100.701789
3758.000000	100.702406
3757.000000	100.703374
3756.000000	100.704679
3755.000000	100.706368
3754.000000	100.708566
3753.000000	100.710927
3752.000000	100.711978
3751.000000	100.709814
3750.000000	100.704533
3749.000000	100.698338
3748.000000	100.693050
3747.000000	100.689578
3746.000000	100.688813
3745.000000	100.690087
3744.000000	100.691277
3743.000000	100.692162
3742.000000	100.693948
3741.000000	100.696920
3740.000000	100.699990
3739.000000	100.701490
3738.000000	100.700669
3737.000000	100.697944
3736.000000	100.693719
3735.000000	100.688343
3734.000000	100.683294
3733.000000	100.680196
3732.000000	100.678778
3731.000000	100.677103
3730.000000	100.673578
3729.000000	100.668464
3728.000000	100.663687
3727.000000	100.661194
3726.000000	100.661688
3725.000000	100.664730
3724.000000	100.669048
3723.000000	100.672788
3722.000000	100.674277
3721.000000	100.673123
3720.000000	100.670426
3719.000000	100.667642
3718.000000	100.664999
3717.000000	100.661292
3716.000000	100.655363
3715.000000	100.647413
3714.000000	100.639152
3713.000000	100.633123
3712.000000	100.630891
3711.000000	100.631748
3710.000000	100.633667
3709.000000	100.635042
3708.000000	100.635529
3707.000000	100.635511
3706.000000	100.634878
3705.000000	100.632279
3704.000000	100.626054
3703.000000	100.616187
3702.000000	100.605011
3701.000000	100.595244
3700.000000	100.587414
3699.000000	100.580308
3698.000000	100.573595
3697.000000	100.568910
3696.000000	100.568244
3695.000000	100.571727
3694.000000	100.576627
3693.000000	100.578800
3692.000000	100.575471
3691.000000	100.566552
3690.000000	100.553339
3689.000000	100.537898
3688.000000	100.524097
3687.000000	100.515354
3686.000000	100.511879
3685.000000	100.511540
3684.000000	100.511653
3683.000000	100.509918
3682.000000	100.505202
3681.000000	100.497313
3680.000000	100.486087
3679.000000	100.471784
3678.000000	100.456666
3677.000000	100.444998
3676.000000	100.436959
3675.000000	100.427925
3674.000000	100.416236
3673.000000	100.403591
3672.000000	100.391583
3671.000000	100.380708
3670.000000	100.369917
3669.000000	100.359122
3668.000000	100.349463
3667.000000	100.340471
3666.000000	100.330219
3665.000000	100.317275
3664.000000	100.301772
3663.000000	100.285194
3662.000000	100.269369
3661.000000	100.255193
3660.000000	100.242506
3659.000000	100.231443
3658.000000	100.223737
3657.000000	100.220611
3656.000000	100.219712
3655.000000	100.216949
3654.000000	100.209946
3653.000000	100.198525
3652.000000	100.183593
3651.000000	100.166007
3650.000000	100.145107
3649.000000	100.121579
3648.000000	100.100921
3647.000000	100.088062
3646.000000	100.082068
3645.000000	100.078914
3644.000000	100.075276
3643.000000	100.069313
3642.000000	100.060247
3641.000000	100.048449
3640.000000	100.035478
3639.000000	100.022650
3638.000000	100.010038
3637.000000	99.997763
3636.000000	99.987568
3635.000000	99.981213
3634.000000	99.977001
3633.000000	99.969852
3632.000000	99.955729
3631.000000	99.936677
3630.000000	99.920486
3629.000000	99.910808
3628.000000	99.904905
3627.000000	99.901242
3626.000000	99.900885
3625.000000	99.904495
3624.000000	99.910820
3623.000000	99.917549
3622.000000	99.923627
3621.000000	99.930158
3620.000000	99.938114
3619.000000	99.945714
3618.000000	99.950417
3617.000000	99.952329
3616.000000	99.954500
3615.000000	99.960879
3614.000000	99.973076
3613.000000	99.988605
3612.000000	100.003386
3611.000000	100.015693
3610.000000	100.027181
3609.000000	100.040338
3608.000000	100.055125
3607.000000	100.068507
3606.000000	100.076845
3605.000000	100.078154
3604.000000	100.073761
3603.000000	100.068815
3602.000000	100.069771
3601.000000	100.079201
3600.000000	100.093547
3599.000000	100.106729
3598.000000	100.115055
3597.000000	100.118406
3596.000000	100.118565
3595.000000	100.117579
3594.000000	100.117272
3593.000000	100.118768
3592.000000	100.121186
3591.000000	100.122126
3590.000000	100.120975
3589.000000	100.121311
3588.000000	100.126977
3587.000000	100.136127
3586.000000	100.143266
3585.000000	100.145519
3584.000000	100.144380
3583.000000	100.142979
3582.000000	100.143156
3581.000000	100.144611
3580.000000	100.145844
3579.000000	100.145324
3578.000000	100.141743
3577.000000	100.134426
3576.000000	100.124422
3575.000000	100.114913
3574.000000	100.109423
3573.000000	100.109096
3572.000000	100.111645
3571.000000	100.112951
3570.000000	100.110141
3569.000000	100.103966
3568.000000	100.098049
3567.000000	100.095217
3566.000000	100.095599
3565.000000	100.097572
3564.000000	100.099292
3563.000000	100.099971
3562.000000	100.100254
3561.000000	100.101401
3560.000000	100.103945
3559.000000	100.107063
3558.000000	100.109040
3557.000000	100.108331
3556.000000	100.104534
3555.000000	100.098865
3554.000000	100.093592
3553.000000	100.090333
3552.000000	100.088899
3551.000000	100.088017
3550.000000	100.086785
3549.000000	100.085206
3548.000000	100.083762
3547.000000	100.082896
3546.000000	100.082751
3545.000000	100.083237
3544.000000	100.084160
3543.000000	100.085279
3542.000000	100.086342
3541.000000	100.087173
3540.000000	100.087873
3539.000000	100.088906
3538.000000	100.090781
3537.000000	100.093424
3536.000000	100.095966
3535.000000	100.097317
3534.000000	100.097010
3533.000000	100.095461
3532.000000	100.093676
3531.000000	100.092773
3530.000000	100.093413
3529.000000	100.095413
3528.000000	100.097811
3527.000000	100.099598
3526.000000	100.100554
3525.000000	100.101163
3524.000000	100.101773
3523.000000	100.102092
3522.000000	100.101671
3521.000000	100.100674
3520.000000	100.099976
3519.000000	100.100455
3518.000000	100.102309
3517.000000	100.104969
3516.000000	100.107520
3515.000000	100.109266
3514.000000	100.110053
3513.000000	100.110263
3512.000000	100.110598
3511.000000	100.111637
3510.000000	100.113339
3509.000000	100.114884
3508.000000	100.115228
3507.000000	100.113937
3506.000000	100.111587
3505.000000	100.109535
3504.000000	100.108887
3503.000000	100.109666
3502.000000	100.110969
3501.000000	100.111935
3500.000000	100.112573
3499.000000	100.113432
3498.000000	100.114737
3497.000000	100.116050
3496.000000	100.116798
3495.000000	100.117013
3494.000000	100.117374
3493.000000	100.118480
3492.000000	100.120169
3491.000000	100.121594
3490.000000	100.121941
3489.000000	100.121040
3488.000000	100.119402
3487.000000	100.117792
3486.000000	100.116682
3485.000000	100.116049
3484.000000	100.115666
3483.000000	100.115513
3482.000000	100.115770
3481.000000	100.116349
3480.000000	100.116666
3479.000000	100.116226
3478.000000	100.115419
3477.000000	100.115292
3476.000000	100.116278
3475.000000	100.117433
3474.000000	100.117441
3473.000000	100.116150
3472.000000	100.114558
3471.000000	100.113323
3470.000000	100.111857
3469.000000	100.109363
3468.000000	100.106276
3467.000000	100.104036
3466.000000	100.103414
3465.000000	100.103624
3464.000000	100.103177
3463.000000	100.101453
3462.000000	100.099071
3461.000000	100.096971
3460.000000	100.095430
3459.000000	100.094103
3458.000000	100.092659
3457.000000	100.091073
3456.000000	100.089466
3455.000000	100.087966
3454.000000	100.086744
3453.000000	100.085956
3452.000000	100.085488
3451.000000	100.084906
3450.000000	100.083800
3449.000000	100.082158
3448.000000	100.080340
3447.000000	100.078687
3446.000000	100.077227
3445.000000	100.075776
3444.000000	100.074242
3443.000000	100.072741
3442.000000	100.071436
3441.000000	100.070364
3440.000000	100.069433
3439.000000	100.068537
3438.000000	100.067588
3437.000000	100.066499
3436.000000	100.065222
3435.000000	100.063798
3434.000000	100.062356
3433.000000	100.061047
3432.000000	100.059937
3431.000000	100.059002
3430.000000	100.058179
3429.000000	100.057407
3428.000000	100.056643
3427.000000	100.055862
3426.000000	100.055064
3425.000000	100.054281
3424.000000	100.053573
3423.000000	100.052976
3422.000000	100.052478
3421.000000	100.052030
3420.000000	100.051581
3419.000000	100.051112
3418.000000	100.050638
3417.000000	100.050201
3416.000000	100.049833
3415.000000	100.049537
3414.000000	100.049298
3413.000000	100.049099
3412.000000	100.048923
3411.000000	100.048753
3410.000000	100.048575
3409.000000	100.048408
3408.000000	100.048309
3407.000000	100.048316
3406.000000	100.048423
3405.000000	100.048583
3404.000000	100.048759
3403.000000	100.048939
3402.000000	100.049124
3401.000000	100.049324
3400.000000	100.049552
3399.000000	100.049818
3398.000000	100.050122
3397.000000	100.050459
3396.000000	100.050821
3395.000000	100.051208
3394.000000	100.051622
3393.000000	100.052071
3392.000000	100.052556
3391.000000	100.053076
3390.000000	100.053623
3389.000000	100.054192
3388.000000	100.054781
3387.000000	100.055388
3386.000000	100.056011
3385.000000	100.056641
3384.000000	100.057271
3383.000000	100.057902
3382.000000	100.058540
3381.000000	100.059184
3380.000000	100.059833
3379.000000	100.060481
3378.000000	100.061125
3377.000000	100.061768
3376.000000	100.062414
3375.000000	100.063071
3374.000000	100.063742
3373.000000	100.064425
3372.000000	100.065113
3371.000000	100.065802
3370.000000	100.066495
3369.000000	100.067203
3368.000000	100.067940
3367.000000	100.068715
3366.000000	100.069523
3365.000000	100.070352
3364.000000	100.071185
3363.000000	100.072012
3362.000000	100.072830
3361.000000	100.073643
3360.000000	100.074465
3359.000000	100.075302
3358.000000	100.076155
3357.000000	100.077015
3356.000000	100.077881
3355.000000	100.078757
3354.000000	100.079649
3353.000000	100.080565
3352.000000	100.081506
3351.000000	100.082471
3350.000000	100.083456
3349.000000	100.084451
3348.000000	100.085440
3347.000000	100.086404
3346.000000	100.087341
3345.000000	100.088260
3344.000000	100.089179
3343.000000	100.090120
3342.000000	100.091099
3341.000000	100.092115
3340.000000	100.093145
3339.000000	100.094170
3338.000000	100.095186
3337.000000	100.096201
3336.000000	100.097223
3335.000000	100.098261
3334.000000	100.099325
3333.000000	100.100415
3332.000000	100.101518
3331.000000	100.102606
3330.000000	100.103665
3329.000000	100.104699
3328.000000	100.105718
3327.000000	100.106736
3326.000000	100.107757
3325.000000	100.108779
3324.000000	100.109790
3323.000000	100.110765
3322.000000	100.111682
3321.000000	100.112543
3320.000000	100.113405
3319.000000	100.114320
3318.000000	100.115283
3317.000000	100.116242
3316.000000	100.117171
3315.000000	100.118112
3314.000000	100.119120
3313.000000	100.120199
3312.000000	100.121275
3311.000000	100.122236
3310.000000	100.123012
3309.000000	100.123611
3308.000000	100.124108
3307.000000	100.124622
3306.000000	100.125259
3305.000000	100.126064
3304.000000	100.127012
3303.000000	100.127999
3302.000000	100.128894
3301.000000	100.129626
3300.000000	100.130208
3299.000000	100.130730
3298.000000	100.131291
3297.000000	100.131932
3296.000000	100.132627
3295.000000	100.133338
3294.000000	100.134068
3293.000000	100.134863
3292.000000	100.135772
3291.000000	100.136780
3290.000000	100.137796
3289.000000	100.138704
3288.000000	100.139438
3287.000000	100.140012
3286.000000	100.140475
3285.000000	100.140889
3284.000000	100.141350
3283.000000	100.141983
3282.000000	100.142845
3281.000000	100.143861
3280.000000	100.144902
3279.000000	100.145911
3278.000000	100.146916
3277.000000	100.147915
3276.000000	100.148816
3275.000000	100.149533
3274.000000	100.150123
3273.000000	100.150779
3272.000000	100.151680
3271.000000	100.152829
3270.000000	100.154020
3269.000000	100.154991
3268.000000	100.155638
3267.000000	100.156106
3266.000000	100.156691
3265.000000	100.157551
3264.000000	100.158590
3263.000000	100.159652
3262.000000	100.160749
3261.000000	100.161998
3260.000000	100.163388
3259.000000	100.164700
3258.000000	100.165710
3257.000000	100.166467
3256.000000	100.167311
3255.000000	100.168587
3254.000000	100.170295
3253.000000	100.172043
3252.000000	100.173387
3251.000000	100.174233
3250.000000	100.174889
3249.000000	100.175762
3248.000000	100.176958
3247.000000	100.178251
3246.000000	100.179370
3245.000000	100.180251
3244.000000	100.181011
3243.000000	100.181718
3242.000000	100.182255
3241.000000	100.182487
3240.000000	100.182565
3239.000000	100.182950
3238.000000	100.184002
3237.000000	100.185628
3236.000000	100.187437
3235.000000	100.189233
3234.000000	100.191144
3233.000000	100.193241
3232.000000	100.195229
3231.000000	100.196683
3230.000000	100.197494
3229.000000	100.198020
3228.000000	100.198859
3227.000000	100.200420
3226.000000	100.202605
3225.000000	100.204827
3224.000000	100.206452
3223.000000	100.207344
3222.000000	100.207916
3221.000000	100.208691
3220.000000	100.209820
3219.000000	100.211087
3218.000000	100.212241
3217.000000	100.213244
3216.000000	100.214300
3215.000000	100.215761
3214.000000	100.217920
3213.000000	100.220726
3212.000000	100.223616
3211.000000	100.225852
3210.000000	100.227138
3209.000000	100.227776
3208.000000	100.228300
3207.000000	100.228941
3206.000000	100.229577
3205.000000	100.230083
3204.000000	100.230589
3203.000000	100.231431
3202.000000	100.232862
3201.000000	100.234810
3200.000000	100.236876
3199.000000	100.238641
3198.000000	100.240014
3197.000000	100.241233
3196.000000	100.242556
3195.000000	100.243971
3194.000000	100.245251
3193.000000	100.246225
3192.000000	100.246949
3191.000000	100.247640
3190.000000	100.248539
3189.000000	100.249822
3188.000000	100.251546
3187.000000	100.253552
3186.000000	100.255446
3185.000000	100.256825
3184.000000	100.257562
3183.000000	100.257897
3182.000000	100.258263
3181.000000	100.258968
3180.000000	100.260062
3179.000000	100.261425
3178.000000	100.262926
3177.000000	100.264507
3176.000000	100.266121
3175.000000	100.267661
3174.000000	100.269004
3173.000000	100.270118
3172.000000	100.271068
3171.000000	100.271933
3170.000000	100.272797
3169.000000	100.273827
3168.000000	100.275221
3167.000000	100.276909
3166.000000	100.278412
3165.000000	100.279203
3164.000000	100.279258
3163.000000	100.279144
3162.000000	100.279450
3161.000000	100.280198
3160.000000	100.280881
3159.000000	100.281019
3158.000000	100.280655
3157.000000	100.280405
3156.000000	100.281025
3155.000000	100.282886
3154.000000	100.285848
3153.000000	100.289542
3152.000000	100.293553
3151.000000	100.297265
3150.000000	100.299862
3149.000000	100.300967
3148.000000	100.301192
3147.000000	100.301629
3146.000000	100.302633
3145.000000	100.303565
3144.000000	100.303917
3143.000000	100.304144
3142.000000	100.305004
3141.000000	100.306503
3140.000000	100.307999
3139.000000	100.309141
3138.000000	100.310177
3137.000000	100.311402
3136.000000	100.312729
3135.000000	100.313880
3134.000000	100.314747
3133.000000	100.315468
3132.000000	100.316247
3131.000000	100.317050
3130.000000	100.317457
3129.000000	100.317053
3128.000000	100.316173
3127.000000	100.315992
3126.000000	100.317440
3125.000000	100.320230
3124.000000	100.323160
3123.000000	100.325366
3122.000000	100.326901
3121.000000	100.328127
3120.000000	100.329187
3119.000000	100.330286
3118.000000	100.331938
3117.000000	100.334448
3116.000000	100.337350
3115.000000	100.339717
3114.000000	100.341136
3113.000000	100.342088
3112.000000	100.343364
3111.000000	100.345216
3110.000000	100.347186
3109.000000	100.348670
3108.000000	100.349542
3107.000000	100.350156
3106.000000	100.350904
3105.000000	100.351951
3104.000000	100.353414
3103.000000	100.355493
3102.000000	100.358193
3101.000000	100.361047
3100.000000	100.363454
3099.000000	100.365318
3098.000000	100.367048
3097.000000	100.368866
3096.000000	100.370404
3095.000000	100.371194
3094.000000	100.371367
3093.000000	100.371691
3092.000000	100.372925
3091.000000	100.375248
3090.000000	100.378135
3089.000000	100.380660
3088.000000	100.382172
3087.000000	100.382789
3086.000000	100.383285
3085.000000	100.384333
3084.000000	100.385866
3083.000000	100.387302
3082.000000	100.388231
3081.000000	100.388780
3080.000000	100.389414
3079.000000	100.390486
3078.000000	100.391915
3077.000000	100.393235
3076.000000	100.394017
3075.000000	100.394293
3074.000000	100.394536
3073.000000	100.395088
3072.000000	100.395716
3071.000000	100.395905
3070.000000	100.395501
3069.000000	100.394978
3068.000000	100.395108
3067.000000	100.396363
3066.000000	100.398550
3065.000000	100.400881
3064.000000	100.402619
3063.000000	100.403792
3062.000000	100.405122
3061.000000	100.407143
3060.000000	100.409481
3059.000000	100.411191
3058.000000	100.411781
3057.000000	100.411654
3056.000000	100.411587
3055.000000	100.411931
3054.000000	100.412467
3053.000000	100.412929
3052.000000	100.413492
3051.000000	100.414656
3050.000000	100.416658
3049.000000	100.419038
3048.000000	100.420951
3047.000000	100.421955
3046.000000	100.422233
3045.000000	100.422018
3044.000000	100.421190
3043.000000	100.419787
3042.000000	100.418674
3041.000000	100.419049
3040.000000	100.421241
3039.000000	100.424425
3038.000000	100.427567
3037.000000	100.430241
3036.000000	100.432330
3035.000000	100.433581
3034.000000	100.434091
3033.000000	100.434939
3032.000000	100.437523
3031.000000	100.442022
3030.000000	100.446888
3029.000000	100.450297
3028.000000	100.451908
3027.000000	100.452803
3026.000000	100.453892
3025.000000	100.454752
3024.000000	100.454345
3023.000000	100.452475
3022.000000	100.450178
3021.000000	100.448808
3020.000000	100.448971
3019.000000	100.450402
3018.000000	100.452465
3017.000000	100.454536
3016.000000	100.456201
3015.000000	100.457536
3014.000000	100.459211
3013.000000	100.461943
3012.000000	100.465548
3011.000000	100.468652
3010.000000	100.469696
3009.000000	100.468374
3008.000000	100.466136
3007.000000	100.465139
3006.000000	100.466523
3005.000000	100.469636
3004.000000	100.472846
3003.000000	100.475238
3002.000000	100.477410
3001.000000	100.480478
3000.000000	100.484488
2999.000000	100.488106
2998.000000	100.489875
2997.000000	100.489633
2996.000000	100.488605
2995.000000	100.488279
2994.000000	100.489407
2993.000000	100.491984
2992.000000	100.495750
2991.000000	100.500312
2990.000000	100.504869
2989.000000	100.508383
2988.000000	100.510567
2987.000000	100.512534
2986.000000	100.515883
2985.000000	100.520897
2984.000000	100.525989
2983.000000	100.529310
2982.000000	100.530678
2981.000000	100.531564
2980.000000	100.533254
2979.000000	100.535420
2978.000000	100.536782
2977.000000	100.536925
2976.000000	100.537073
2975.000000	100.538846
2974.000000	100.542317
2973.000000	100.545623
2972.000000	100.546743
2971.000000	100.545489
2970.000000	100.543463
2969.000000	100.542113
2968.000000	100.541220
2967.000000	100.539504
2966.000000	100.536287
2965.000000	100.532157
2964.000000	100.528437
2963.000000	100.526417
2962.000000	100.526712
2961.000000	100.528677
2960.000000	100.530363
2959.000000	100.529741
2958.000000	100.526454
2957.000000	100.522276
2956.000000	100.519675
2955.000000	100.519964
2954.000000	100.522742
2953.000000	100.526592
2952.000000	100.529963
2951.000000	100.531719
2950.000000	100.531467
2949.000000	100.529719
2948.000000	100.527613
2947.000000	100.526165
2946.000000	100.525749
2945.000000	100.526298
2944.000000	100.527767
2943.000000	100.530035
2942.000000	100.532428
2941.000000	100.533883
2940.000000	100.533945
2939.000000	100.533410
2938.000000	100.533607
2937.000000	100.535077
2936.000000	100.537204
2935.000000	100.539002
2934.000000	100.539967
2933.000000	100.540167
2932.000000	100.539965
2931.000000	100.539848
2930.000000	100.540198
2929.000000	100.540957
2928.000000	100.541631
2927.000000	100.541875
2926.000000	100.542018
2925.000000	100.542770
2924.000000	100.544412
2923.000000	100.546515
2922.000000	100.548472
2921.000000	100.550129
2920.000000	100.551773
2919.000000	100.553665
2918.000000	100.555627
2917.000000	100.557039
2916.000000	100.557288
2915.000000	100.556347
2914.000000	100.554928
2913.000000	100.553984
2912.000000	100.554040
2911.000000	100.555168
2910.000000	100.557368
2909.000000	100.560541
2908.000000	100.564096
2907.000000	100.567072
2906.000000	100.568896
2905.000000	100.569752
2904.000000	100.570132
2903.000000	100.570287
2902.000000	100.570273
2901.000000	100.570248
2900.000000	100.570359
2899.000000	100.570568
2898.000000	100.570918
2897.000000	100.571783
2896.000000	100.573454
2895.000000	100.575565
2894.000000	100.577346
2893.000000	100.578520
2892.000000	100.579533
2891.000000	100.580826
2890.000000	100.582241
2889.000000	100.583384
2888.000000	100.584180
2887.000000	100.584758
2886.000000	100.585067
2885.000000	100.584922
2884.000000	100.584406
2883.000000	100.583960
2882.000000	100.584032
2881.000000	100.584733
2880.000000	100.585803
2879.000000	100.586850
2878.000000	100.587630
2877.000000	100.588123
2876.000000	100.588372
2875.000000	100.588310
2874.000000	100.587867
2873.000000	100.587240
2872.000000	100.586921
2871.000000	100.587316
2870.000000	100.588402
2869.000000	100.589771
2868.000000	100.590918
2867.000000	100.591535
2866.000000	100.591612
2865.000000	100.591357
2864.000000	100.591044
2863.000000	100.590840
2862.000000	100.590764
2861.000000	100.590787
2860.000000	100.590898
2859.000000	100.591060
2858.000000	100.591205
2857.000000	100.591322
2856.000000	100.591474
2855.000000	100.591673
2854.000000	100.591794
2853.000000	100.591732
2852.000000	100.591626
2851.000000	100.591777
2850.000000	100.592290
2849.000000	100.592975
2848.000000	100.593511
2847.000000	100.593777
2846.000000	100.593865
2845.000000	100.593923
2844.000000	100.594015
2843.000000	100.594110
2842.000000	100.594204
2841.000000	100.594357
2840.000000	100.594631
2839.000000	100.595026
2838.000000	100.595498
2837.000000	100.596015
2836.000000	100.596561
2835.000000	100.597092
2834.000000	100.597526
2833.000000	100.597808
2832.000000	100.597936
2831.000000	100.597933
2830.000000	100.597866
2829.000000	100.597876
2828.000000	100.598130
2827.000000	100.598661
2826.000000	100.599270
2825.000000	100.599684
2824.000000	100.599852
2823.000000	100.599992
2822.000000	100.600321
2821.000000	100.600793
2820.000000	100.601175
2819.000000	100.601342
2818.000000	100.601403
2817.000000	100.601556
2816.000000	100.601883
2815.000000	100.602327
2814.000000	100.602773
2813.000000	100.603101
2812.000000	100.603240
2811.000000	100.603246
2810.000000	100.603314
2809.000000	100.603611
2808.000000	100.604084
2807.000000	100.604441
2806.000000	100.604453
2805.000000	100.604285
2804.000000	100.604471
2803.000000	100.605449
2802.000000	100.607182
2801.000000	100.609157
2800.000000	100.610778
2799.000000	100.611808
2798.000000	100.612341
2797.000000	100.612512
2796.000000	100.612340
2795.000000	100.611811
2794.000000	100.611038
2793.000000	100.610320
2792.000000	100.610086
2791.000000	100.610633
2790.000000	100.611794
2789.000000	100.612941
2788.000000	100.613553
2787.000000	100.613799
2786.000000	100.614340
2785.000000	100.615560
2784.000000	100.617139
2783.000000	100.618422
2782.000000	100.619127
2781.000000	100.619475
2780.000000	100.619793
2779.000000	100.620193
2778.000000	100.620658
2777.000000	100.621262
2776.000000	100.622167
2775.000000	100.623419
2774.000000	100.624856
2773.000000	100.626223
2772.000000	100.627381
2771.000000	100.628355
2770.000000	100.629145
2769.000000	100.629607
2768.000000	100.629665
2767.000000	100.629644
2766.000000	100.630170
2765.000000	100.631591
2764.000000	100.633601
2763.000000	100.635419
2762.000000	100.636504
2761.000000	100.636909
2760.000000	100.637015
2759.000000	100.637076
2758.000000	100.637086
2757.000000	100.637030
2756.000000	100.637089
2755.000000	100.637544
2754.000000	100.638481
2753.000000	100.639604
2752.000000	100.640438
2751.000000	100.640826
2750.000000	100.641175
2749.000000	100.642066
2748.000000	100.643645
2747.000000	100.645487
2746.000000	100.647040
2745.000000	100.648116
2744.000000	100.648849
2743.000000	100.649284
2742.000000	100.649203
2741.000000	100.648390
2740.000000	100.646985
2739.000000	100.645629
2738.000000	100.645112
2737.000000	100.645769
2736.000000	100.647230
2735.000000	100.648723
2734.000000	100.649740
2733.000000	100.650308
2732.000000	100.650692
2731.000000	100.651086
2730.000000	100.651627
2729.000000	100.652476
2728.000000	100.653668
2727.000000	100.654948
2726.000000	100.655884
2725.000000	100.656223
2724.000000	100.656084
2723.000000	100.655875
2722.000000	100.656001
2721.000000	100.656536
2720.000000	100.657221
2719.000000	100.657773
2718.000000	100.658219
2717.000000	100.658787
2716.000000	100.659493
2715.000000	100.660024
2714.000000	100.660176
2713.000000	100.660208
2712.000000	100.660572
2711.000000	100.661340
2710.000000	100.662164
2709.000000	100.662755
2708.000000	100.663199
2707.000000	100.663704
2706.000000	100.664254
2705.000000	100.664665
2704.000000	100.664877
2703.000000	100.664995
2702.000000	100.665142
2701.000000	100.665381
2700.000000	100.665720
2699.000000	100.666079
2698.000000	100.666270
2697.000000	100.666191
2696.000000	100.666071
2695.000000	100.666348
2694.000000	100.667200
2693.000000	100.668282
2692.000000	100.668989
2691.000000	100.668990
2690.000000	100.668403
2689.000000	100.667629
2688.000000	100.667081
2687.000000	100.666966
2686.000000	100.667146
2685.000000	100.667188
2684.000000	100.666711
2683.000000	100.665779
2682.000000	100.664903
2681.000000	100.664572
2680.000000	100.664821
2679.000000	100.665241
2678.000000	100.665352
2677.000000	100.665011
2676.000000	100.664549
2675.000000	100.664547
2674.000000	100.665370
2673.000000	100.666804
2672.000000	100.668118
2671.000000	100.668639
2670.000000	100.668293
2669.000000	100.667586
2668.000000	100.667100
2667.000000	100.667006
2666.000000	100.667073
2665.000000	100.666946
2664.000000	100.666351
2663.000000	100.665156
2662.000000	100.663441
2661.000000	100.661534
2660.000000	100.659854
2659.000000	100.658698
2658.000000	100.658299
2657.000000	100.658992
2656.000000	100.660991
2655.000000	100.663815
2654.000000	100.666164
2653.000000	100.666863
2652.000000	100.665999
2651.000000	100.664987
2650.000000	100.665312
2649.000000	100.667184
2648.000000	100.669476
2647.000000	100.670834
2646.000000	100.670792
2645.000000	100.669867
2644.000000	100.668891
2643.000000	100.668321
2642.000000	100.668088
2641.000000	100.667957
2640.000000	100.667920
2639.000000	100.668187
2638.000000	100.668786
2637.000000	100.669253
2636.000000	100.668925
2635.000000	100.667675
2634.000000	100.666253
2633.000000	100.665619
2632.000000	100.665821
2631.000000	100.665766
2630.000000	100.664362
2629.000000	100.661771
2628.000000	100.659324
2627.000000	100.658143
2626.000000	100.658127
2625.000000	100.658386
2624.000000	100.658304
2623.000000	100.657953
2622.000000	100.657683
2621.000000	100.657768
2620.000000	100.658420
2619.000000	100.659709
2618.000000	100.661298
2617.000000	100.662557
2616.000000	100.663207
2615.000000	100.663710
2614.000000	100.664784
2613.000000	100.666560
2612.000000	100.668340
2611.000000	100.669175
2610.000000	100.668567
2609.000000	100.666633
2608.000000	100.663827
2607.000000	100.660835
2606.000000	100.658559
2605.000000	100.657835
2604.000000	100.658979
2603.000000	100.661496
2602.000000	100.664315
2601.000000	100.666485
2600.000000	100.667695
2599.000000	100.668194
2598.000000	100.668379
2597.000000	100.668489
2596.000000	100.668579
2595.000000	100.668700
2594.000000	100.669033
2593.000000	100.669772
2592.000000	100.670839
2591.000000	100.671768
2590.000000	100.672063
2589.000000	100.671688
2588.000000	100.671057
2587.000000	100.670563
2586.000000	100.670280
2585.000000	100.670141
2584.000000	100.670208
2583.000000	100.670556
2582.000000	100.671031
2581.000000	100.671306
2580.000000	100.671215
2579.000000	100.670889
2578.000000	100.670574
2577.000000	100.670403
2576.000000	100.670362
2575.000000	100.670393
2574.000000	100.670466
2573.000000	100.670616
2572.000000	100.670925
2571.000000	100.671423
2570.000000	100.671956
2569.000000	100.672229
2568.000000	100.672057
2567.000000	100.671535
2566.000000	100.670996
2565.000000	100.670745
2564.000000	100.670818
2563.000000	100.671032
2562.000000	100.671152
2561.000000	100.671096
2560.000000	100.670983
2559.000000	100.671006
2558.000000	100.671219
2557.000000	100.671472
2556.000000	100.671551
2555.000000	100.671356
2554.000000	100.670943
2553.000000	100.670473
2552.000000	100.670166
2551.000000	100.670179
2550.000000	100.670445
2549.000000	100.670677
2548.000000	100.670632
2547.000000	100.670325
2546.000000	100.669947
2545.000000	100.669634
2544.000000	100.669408
2543.000000	100.669329
2542.000000	100.669544
2541.000000	100.670087
2540.000000	100.670771
2539.000000	100.671376
2538.000000	100.671827
2537.000000	100.672134
2536.000000	100.672275
2535.000000	100.672257
2534.000000	100.672214
2533.000000	100.672311
2532.000000	100.672568
2531.000000	100.672853
2530.000000	100.673080
2529.000000	100.673314
2528.000000	100.673638
2527.000000	100.673982
2526.000000	100.674198
2525.000000	100.674316
2524.000000	100.674619
2523.000000	100.675329
2522.000000	100.676245
2521.000000	100.676842
2520.000000	100.676870
2519.000000	100.676683
2518.000000	100.676867
2517.000000	100.677557
2516.000000	100.678304
2515.000000	100.678663
2514.000000	100.678755
2513.000000	100.679122
2512.000000	100.680102
2511.000000	100.681402
2510.000000	100.682245
2509.000000	100.681958
2508.000000	100.680463
2507.000000	100.678467
2506.000000	100.677055
2505.000000	100.676822
2504.000000	100.677594
2503.000000	100.678779
2502.000000	100.679970
2501.000000	100.681073
2500.000000	100.681971
2499.000000	100.682457
2498.000000	100.682499
2497.000000	100.682343
2496.000000	100.682263
2495.000000	100.682332
2494.000000	100.682560
2493.000000	100.683127
2492.000000	100.684271
2491.000000	100.685893
2490.000000	100.687450
2489.000000	100.688422
2488.000000	100.688895
2487.000000	100.689463
2486.000000	100.690458
2485.000000	100.691449
2484.000000	100.691777
2483.000000	100.691460
2482.000000	100.691179
2481.000000	100.691384
2480.000000	100.691850
2479.000000	100.692326
2478.000000	100.693122
2477.000000	100.694574
2476.000000	100.696116
2475.000000	100.696541
2474.000000	100.695315
2473.000000	100.693192
2472.000000	100.691477
2471.000000	100.690747
2470.000000	100.690623
2469.000000	100.690596
2468.000000	100.690721
2467.000000	100.691327
2466.000000	100.692209
2465.000000	100.692492
2464.000000	100.691568
2463.000000	100.690006
2462.000000	100.689239
2461.000000	100.690165
2460.000000	100.692468
2459.000000	100.695079
2458.000000	100.697145
2457.000000	100.698507
2456.000000	100.699343
2455.000000	100.699780
2454.000000	100.699835
2453.000000	100.699533
2452.000000	100.699002
2451.000000	100.698512
2450.000000	100.698351
2449.000000	100.698558
2448.000000	100.698834
2447.000000	100.698858
2446.000000	100.698653
2445.000000	100.698512
2444.000000	100.698651
2443.000000	100.699109
2442.000000	100.699890
2441.000000	100.700912
2440.000000	100.701852
2439.000000	100.702304
2438.000000	100.702211
2437.000000	100.701955
2436.000000	100.701923
2435.000000	100.702144
2434.000000	100.702449
2433.000000	100.702782
2432.000000	100.703209
2431.000000	100.703744
2430.000000	100.704420
2429.000000	100.705422
2428.000000	100.706831
2427.000000	100.708276
2426.000000	100.709111
2425.000000	100.709010
2424.000000	100.708257
2423.000000	100.707517
2422.000000	100.707379
2421.000000	100.708071
2420.000000	100.709374
2419.000000	100.710695
2418.000000	100.711503
2417.000000	100.711904
2416.000000	100.712604
2415.000000	100.714031
2414.000000	100.715680
2413.000000	100.716639
2412.000000	100.716629
2411.000000	100.716100
2410.000000	100.715414
2409.000000	100.714415
2408.000000	100.713004
2407.000000	100.711629
2406.000000	100.710821
2405.000000	100.710572
2404.000000	100.710676
2403.000000	100.711421
2402.000000	100.713251
2401.000000	100.715718
2400.000000	100.717467
2399.000000	100.717695
2398.000000	100.717121
2397.000000	100.717025
2396.000000	100.717688
2395.000000	100.718382
2394.000000	100.718561
2393.000000	100.718278
2392.000000	100.717552
2391.000000	100.716203
2390.000000	100.714480
2389.000000	100.713157
2388.000000	100.712574
2387.000000	100.712097
2386.000000	100.710983
2385.000000	100.709438
2384.000000	100.708349
2383.000000	100.708217
2382.000000	100.708783
2381.000000	100.709570
2380.000000	100.710381
2379.000000	100.711158
2378.000000	100.711717
2377.000000	100.711859
2376.000000	100.711519
2375.000000	100.710709
2374.000000	100.709526
2373.000000	100.708250
2372.000000	100.707224
2371.000000	100.706602
2370.000000	100.706298
2369.000000	100.706150
2368.000000	100.706054
2367.000000	100.705933
2366.000000	100.705729
2365.000000	100.705456
2364.000000	100.705159
2363.000000	100.704862
2362.000000	100.704555
2361.000000	100.704215
2360.000000	100.703852
2359.000000	100.703501
2358.000000	100.703202
2357.000000	100.702964
2356.000000	100.702751
2355.000000	100.702538
2354.000000	100.702330
2353.000000	100.702125
2352.000000	100.701928
2351.000000	100.701744
2350.000000	100.701574
2349.000000	100.701418
2348.000000	100.701276
2347.000000	100.701147
2346.000000	100.701030
2345.000000	100.700912
2344.000000	100.700781
2343.000000	100.700627
2342.000000	100.700447
2341.000000	100.700250
2340.000000	100.700045
2339.000000	100.699842
2338.000000	100.699646
2337.000000	100.699454
2336.000000	100.699261
2335.000000	100.699068
2334.000000	100.698886
2333.000000	100.698728
2332.000000	100.698605
2331.000000	100.698517
2330.000000	100.698454
2329.000000	100.698397
2328.000000	100.698331
2327.000000	100.698248
2326.000000	100.698154
2325.000000	100.698058
2324.000000	100.697965
2323.000000	100.697874
2322.000000	100.697782
2321.000000	100.697688
2320.000000	100.697595
2319.000000	100.697507
2318.000000	100.697428
2317.000000	100.697357
2316.000000	100.697287
2315.000000	100.697210
2314.000000	100.697122
2313.000000	100.697029
2312.000000	100.696943
2311.000000	100.696872
2310.000000	100.696816
2309.000000	100.696767
2308.000000	100.696719
2307.000000	100.696671
2306.000000	100.696620
2305.000000	100.696565
2304.000000	100.696502
2303.000000	100.696433
2302.000000	100.696365
2301.000000	100.696308
2300.000000	100.696267
2299.000000	100.696244
2298.000000	100.696230
2297.000000	100.696217
2296.000000	100.696199
2295.000000	100.696174
2294.000000	100.696152
2293.000000	100.696132
2292.000000	100.696104
2291.000000	100.696055
2290.000000	100.695980
2289.000000	100.695887
2288.000000	100.695780
2287.000000	100.695663
2286.000000	100.695536
2285.000000	100.695396
2284.000000	100.695232
2283.000000	100.695059
2282.000000	100.694950
2281.000000	100.694957
2280.000000	100.695027
2279.000000	100.695038
2278.000000	100.694924
2277.000000	100.694732
2276.000000	100.694531
2275.000000	100.694316
2274.000000	100.694058
2273.000000	100.693787
2272.000000	100.693573
2271.000000	100.693432
2270.000000	100.693306
2269.000000	100.693128
2268.000000	100.692891
2267.000000	100.692630
2266.000000	100.692372
2265.000000	100.692118
2264.000000	100.691849
2263.000000	100.691553
2262.000000	100.691242
2261.000000	100.690942
2260.000000	100.690658
2259.000000	100.690370
2258.000000	100.690066
2257.000000	100.689789
2256.000000	100.689607
2255.000000	100.689540
2254.000000	100.689519
2253.000000	100.689431
2252.000000	100.689220
2251.000000	100.688887
2250.000000	100.688471
2249.000000	100.688050
2248.000000	100.687719
2247.000000	100.687540
2246.000000	100.687496
2245.000000	100.687480
2244.000000	100.687374
2243.000000	100.687140
2242.000000	100.686830
2241.000000	100.686536
2240.000000	100.686311
2239.000000	100.686156
2238.000000	100.686038
2237.000000	100.685920
2236.000000	100.685796
2235.000000	100.685692
2234.000000	100.685636
2233.000000	100.685625
2232.000000	100.685627
2231.000000	100.685630
2230.000000	100.685642
2229.000000	100.685650
2228.000000	100.685597
2227.000000	100.685441
2226.000000	100.685214
2225.000000	100.684993
2224.000000	100.684846
2223.000000	100.684810
2222.000000	100.684909
2221.000000	100.685133
2220.000000	100.685426
2219.000000	100.685721
2218.000000	100.685983
2217.000000	100.686179
2216.000000	100.686240
2215.000000	100.686123
2214.000000	100.685879
2213.000000	100.685640
2212.000000	100.685532
2211.000000	100.685580
2210.000000	100.685734
2209.000000	100.685907
2208.000000	100.686026
2207.000000	100.686085
2206.000000	100.686133
2205.000000	100.686216
2204.000000	100.686325
2203.000000	100.686404
2202.000000	100.686420
2201.000000	100.686393
2200.000000	100.686372
2199.000000	100.686390
2198.000000	100.686447
2197.000000	100.686532
2196.000000	100.686629
2195.000000	100.686713
2194.000000	100.686773
2193.000000	100.686818
2192.000000	100.686873
2191.000000	100.686958
2190.000000	100.687073
2189.000000	100.687206
2188.000000	100.687346
2187.000000	100.687478
2186.000000	100.687595
2185.000000	100.687697
2184.000000	100.687800
2183.000000	100.687920
2182.000000	100.688055
2181.000000	100.688195
2180.000000	100.688327
2179.000000	100.688445
2178.000000	100.688546
2177.000000	100.688637
2176.000000	100.688738
2175.000000	100.688862
2174.000000	100.689006
2173.000000	100.689149
2172.000000	100.689265
2171.000000	100.689355
2170.000000	100.689433
2169.000000	100.689488
2168.000000	100.689497
2167.000000	100.689487
2166.000000	100.689551
2165.000000	100.689770
2164.000000	100.690112
2163.000000	100.690479
2162.000000	100.690815
2161.000000	100.691136
2160.000000	100.691435
2159.000000	100.691629
2158.000000	100.691664
2157.000000	100.691601
2156.000000	100.691572
2155.000000	100.691642
2154.000000	100.691781
2153.000000	100.691946
2152.000000	100.692134
2151.000000	100.692351
2150.000000	100.692576
2149.000000	100.692762
2148.000000	100.692867
2147.000000	100.692884
2146.000000	100.692872
2145.000000	100.692946
2144.000000	100.693185
2143.000000	100.693526
2142.000000	100.693808
2141.000000	100.693954
2140.000000	100.694037
2139.000000	100.694164
2138.000000	100.694343
2137.000000	100.694504
2136.000000	100.694627
2135.000000	100.694740
2134.000000	100.694848
2133.000000	100.694936
2132.000000	100.695054
2131.000000	100.695287
2130.000000	100.695611
2129.000000	100.695859
2128.000000	100.695919
2127.000000	100.695912
2126.000000	100.696087
2125.000000	100.696529
2124.000000	100.697061
2123.000000	100.697445
2122.000000	100.697671
2121.000000	100.697955
2120.000000	100.698461
2119.000000	100.699110
2118.000000	100.699675
2117.000000	100.700043
2116.000000	100.700326
2115.000000	100.700722
2114.000000	100.701316
2113.000000	100.702026
2112.000000	100.702681
2111.000000	100.703120
2110.000000	100.703240
2109.000000	100.703048
2108.000000	100.702708
2107.000000	100.702496
2106.000000	100.702628
2105.000000	100.703145
2104.000000	100.703908
2103.000000	100.704688
2102.000000	100.705320
2101.000000	100.705768
2100.000000	100.706092
2099.000000	100.706367
2098.000000	100.706648
2097.000000	100.706991
2096.000000	100.707447
2095.000000	100.708014
2094.000000	100.708655
2093.000000	100.709374
2092.000000	100.710187
2091.000000	100.710977
2090.000000	100.711475
2089.000000	100.711540
2088.000000	100.711443
2087.000000	100.711650
2086.000000	100.712258
2085.000000	100.712906
2084.000000	100.713261
2083.000000	100.713352
2082.000000	100.713348
2081.000000	100.713289
2080.000000	100.713257
2079.000000	100.713560
2078.000000	100.714393
2077.000000	100.715420
2076.000000	100.716010
2075.000000	100.715903
2074.000000	100.715412
2073.000000	100.714979
2072.000000	100.714750
2071.000000	100.714592
2070.000000	100.714348
2069.000000	100.714046
2068.000000	100.713925
2067.000000	100.714177
2066.000000	100.714598
2065.000000	100.714725
2064.000000	100.714490
2063.000000	100.714454
2062.000000	100.715041
2061.000000	100.715804
2060.000000	100.715909
2059.000000	100.715210
2058.000000	100.714332
2057.000000	100.713743
2056.000000	100.713350
2055.000000	100.713184
2054.000000	100.713755
2053.000000	100.715286
2052.000000	100.717017
2051.000000	100.717822
2050.000000	100.717268
2049.000000	100.715593
2048.000000	100.713091
2047.000000	100.710066
2046.000000	100.707229
2045.000000	100.705419
2044.000000	100.704829
2043.000000	100.704884
2042.000000	100.704908
2041.000000	100.704720
2040.000000	100.704474
2039.000000	100.704233
2038.000000	100.703870
2037.000000	100.703159
2036.000000	100.701905
2035.000000	100.700185
2034.000000	100.698512
2033.000000	100.697495
2032.000000	100.697164
2031.000000	100.696856
2030.000000	100.695920
2029.000000	100.694453
2028.000000	100.693116
2027.000000	100.692334
2026.000000	100.691902
2025.000000	100.691330
2024.000000	100.690391
2023.000000	100.689251
2022.000000	100.688196
2021.000000	100.687290
2020.000000	100.686305
2019.000000	100.685009
2018.000000	100.683561
2017.000000	100.682486
2016.000000	100.682063
2015.000000	100.681877
2014.000000	100.681237
2013.000000	100.679997
2012.000000	100.678604
2011.000000	100.677328
2010.000000	100.675826
2009.000000	100.673749
2008.000000	100.671447
2007.000000	100.669647
2006.000000	100.668594
2005.000000	100.667918
2004.000000	100.667335
2003.000000	100.667086
2002.000000	100.667476
2001.000000	100.668322
2000.000000	100.669052
1999.000000	100.669195
1998.000000	100.668641
1997.000000	100.667535
1996.000000	100.666068
1995.000000	100.664315
1994.000000	100.662210
1993.000000	100.659716
1992.000000	100.657150
1991.000000	100.655273
1990.000000	100.654765
1989.000000	100.655484
1988.000000	100.656355
1987.000000	100.656182
1986.000000	100.654672
1985.000000	100.652542
1984.000000	100.650666
1983.000000	100.649448
1982.000000	100.649034
1981.000000	100.649633
1980.000000	100.651156
1979.000000	100.652900
1978.000000	100.654131
1977.000000	100.654859
1976.000000	100.655609
1975.000000	100.656573
1974.000000	100.657466
1973.000000	100.658119
1972.000000	100.658704
1971.000000	100.659304
1970.000000	100.659764
1969.000000	100.660066
1968.000000	100.660375
1967.000000	100.660547
1966.000000	100.660122
1965.000000	100.659168
1964.000000	100.658723
1963.000000	100.659874
1962.000000	100.662487
1961.000000	100.665113
1960.000000	100.666340
1959.000000	100.666060
1958.000000	100.665284
1957.000000	100.664967
1956.000000	100.665107
1955.000000	100.664983
1954.000000	100.664068
1953.000000	100.662558
1952.000000	100.661107
1951.000000	100.660204
1950.000000	100.659942
1949.000000	100.660253
1948.000000	100.660920
1947.000000	100.661310
1946.000000	100.660605
1945.000000	100.658687
1944.000000	100.656532
1943.000000	100.655309
1942.000000	100.655087
1941.000000	100.654960
1940.000000	100.654401
1939.000000	100.653905
1938.000000	100.654249
1937.000000	100.655515
1936.000000	100.656886
1935.000000	100.657204
1934.000000	100.655690
1933.000000	100.652483
1932.000000	100.648817
1931.000000	100.646362
1930.000000	100.646146
1929.000000	100.648092
1928.000000	100.651167
1927.000000	100.653831
1926.000000	100.654651
1925.000000	100.653130
1924.000000	100.650189
1923.000000	100.647346
1922.000000	100.645130
1921.000000	100.642821
1920.000000	100.639862
1919.000000	100.636735
1918.000000	100.634159
1917.000000	100.632239
1916.000000	100.630931
1915.000000	100.630452
1914.000000	100.630521
1913.000000	100.629831
1912.000000	100.627196
1911.000000	100.623070
1910.000000	100.619112
1909.000000	100.616217
1908.000000	100.613667
1907.000000	100.610443
1906.000000	100.606301
1905.000000	100.601434
1904.000000	100.596073
1903.000000	100.590759
1902.000000	100.586426
1901.000000	100.583583
1900.000000	100.581692
1899.000000	100.579995
1898.000000	100.578565
1897.000000	100.577873
1896.000000	100.577602
1895.000000	100.576568
1894.000000	100.574051
1893.000000	100.570625
1892.000000	100.567495
1891.000000	100.565648
1890.000000	100.565575
1889.000000	100.567032
1888.000000	100.568794
1887.000000	100.569042
1886.000000	100.566502
1885.000000	100.561257
1884.000000	100.554580
1883.000000	100.548000
1882.000000	100.542700
1881.000000	100.539566
1880.000000	100.538979
1879.000000	100.540439
1878.000000	100.542862
1877.000000	100.545451
1876.000000	100.548075
1875.000000	100.550473
1874.000000	100.551523
1873.000000	100.550165
1872.000000	100.546985
1871.000000	100.544182
1870.000000	100.543685
1869.000000	100.545386
1868.000000	100.547884
1867.000000	100.550606
1866.000000	100.553561
1865.000000	100.555956
1864.000000	100.556618
1863.000000	100.555462
1862.000000	100.553775
1861.000000	100.553029
1860.000000	100.553932
1859.000000	100.556610
1858.000000	100.560752
1857.000000	100.565201
1856.000000	100.568408
1855.000000	100.570183
1854.000000	100.572369
1853.000000	100.576991
1852.000000	100.583744
1851.000000	100.590194
1850.000000	100.594215
1849.000000	100.595372
1848.000000	100.594406
1847.000000	100.592445
1846.000000	100.591221
1845.000000	100.593124
1844.000000	100.599126
1843.000000	100.606889
1842.000000	100.613050
1841.000000	100.616352
1840.000000	100.617553
1839.000000	100.618009
1838.000000	100.618569
1837.000000	100.619436
1836.000000	100.620618
1835.000000	100.622012
1834.000000	100.623257
1833.000000	100.623944
1832.000000	100.624029
1831.000000	100.624052
1830.000000	100.624590
1829.000000	100.625719
1828.000000	100.627174
1827.000000	100.628429
1826.000000	100.628704
1825.000000	100.627154
1824.000000	100.623819
1823.000000	100.620047
1822.000000	100.617321
1821.000000	100.616338
1820.000000	100.617038
1819.000000	100.618886
1818.000000	100.621031
1817.000000	100.622728
1816.000000	100.623889
1815.000000	100.624821
1814.000000	100.625373
1813.000000	100.624766
1812.000000	100.622760
1811.000000	100.620533
1810.000000	100.619410
1809.000000	100.619152
1808.000000	100.618506
1807.000000	100.617117
1806.000000	100.615955
1805.000000	100.615865
1804.000000	100.616539
1803.000000	100.617201
1802.000000	100.617905
1801.000000	100.619214
1800.000000	100.620815
1799.000000	100.621395
1798.000000	100.620084
1797.000000	100.617522
1796.000000	100.615386
1795.000000	100.615068
1794.000000	100.616973
1793.000000	100.620137
1792.000000	100.622407
1791.000000	100.622678
1790.000000	100.622177
1789.000000	100.622663
1788.000000	100.624705
1787.000000	100.627580
1786.000000	100.630044
1785.000000	100.631467
1784.000000	100.632356
1783.000000	100.633473
1782.000000	100.634929
1781.000000	100.636186
1780.000000	100.636813
1779.000000	100.637125
1778.000000	100.637823
1777.000000	100.639330
1776.000000	100.641483
1775.000000	100.643732
1774.000000	100.645688
1773.000000	100.647360
1772.000000	100.648941
1771.000000	100.650902
1770.000000	100.653475
1769.000000	100.656114
1768.000000	100.658099
1767.000000	100.659197
1766.000000	100.659630
1765.000000	100.659525
1764.000000	100.659035
1763.000000	100.658862
1762.000000	100.659972
1761.000000	100.662525
1760.000000	100.665908
1759.000000	100.669613
1758.000000	100.673309
1757.000000	100.676180
1756.000000	100.677283
1755.000000	100.677189
1754.000000	100.677598
1753.000000	100.679283
1752.000000	100.681147
1751.000000	100.681441
1750.000000	100.680300
1749.000000	100.679799
1748.000000	100.681039
1747.000000	100.683222
1746.000000	100.685401
1745.000000	100.687305
1744.000000	100.688749
1743.000000	100.689257
1742.000000	100.688692
1741.000000	100.687707
1740.000000	100.687264
1739.000000	100.687695
1738.000000	100.688505
1737.000000	100.688891
1736.000000	100.688267
1735.000000	100.686549
1734.000000	100.684048
1733.000000	100.681879
1732.000000	100.681024
1731.000000	100.681290
1730.000000	100.682050
1729.000000	100.682551
1728.000000	100.682092
1727.000000	100.680547
1726.000000	100.678539
1725.000000	100.676910
1724.000000	100.675997
1723.000000	100.675407
1722.000000	100.674535
1721.000000	100.673257
1720.000000	100.671951
1719.000000	100.671016
1718.000000	100.670188
1717.000000	100.668736
1716.000000	100.666695
1715.000000	100.664676
1714.000000	100.662957
1713.000000	100.661420
1712.000000	100.659858
1711.000000	100.658139
1710.000000	100.656240
1709.000000	100.654238
1708.000000	100.652264
1707.000000	100.650408
1706.000000	100.648637
1705.000000	100.646837
1704.000000	100.644948
1703.000000	100.643003
1702.000000	100.641045
1701.000000	100.639086
1700.000000	100.637125
1699.000000	100.635163
1698.000000	100.633196
1697.000000	100.631214
1696.000000	100.629208
1695.000000	100.627167
1694.000000	100.625089
1693.000000	100.622980
1692.000000	100.620846
1691.000000	100.618692
1690.000000	100.616523
1689.000000	100.614339
1688.000000	100.612138
1687.000000	100.609921
1686.000000	100.607691
1685.000000	100.605452
1684.000000	100.603206
1683.000000	100.600965
1682.000000	100.598748
1681.000000	100.596550
1680.000000	100.594345
1679.000000	100.592109
1678.000000	100.589828
1677.000000	100.587509
1676.000000	100.585209
1675.000000	100.583042
1674.000000	100.581098
1673.000000	100.579349
1672.000000	100.577678
1671.000000	100.575940
1670.000000	100.573942
1669.000000	100.571589
1668.000000	100.569102
1667.000000	100.566818
1666.000000	100.564852
1665.000000	100.563148
1664.000000	100.561679
1663.000000	100.560396
1662.000000	100.559032
1661.000000	100.557221
1660.000000	100.554802
1659.000000	100.552075
1658.000000	100.549677
1657.000000	100.547941
1656.000000	100.546272
1655.000000	100.543639
1654.000000	100.539800
1653.000000	100.535927
1652.000000	100.533679
1651.000000	100.532598
1650.000000	100.531450
1649.000000	100.530376
1648.000000	100.529938
1647.000000	100.529775
1646.000000	100.529007
1645.000000	100.528014
1644.000000	100.527552
1643.000000	100.527441
1642.000000	100.526949
1641.000000	100.525714
1640.000000	100.524332
1639.000000	100.523867
1638.000000	100.524604
1637.000000	100.525558
1636.000000	100.524972
1635.000000	100.523030
1634.000000	100.522170
1633.000000	100.522596
1632.000000	100.522179
1631.000000	100.519348
1630.000000	100.514828
1629.000000	100.511563
1628.000000	100.511999
1627.000000	100.515516
1626.000000	100.519241
1625.000000	100.520957
1624.000000	100.520498
1623.000000	100.519326
1622.000000	100.519367
1621.000000	100.521243
1620.000000	100.523795
1619.000000	100.525424
1618.000000	100.525366
1617.000000	100.524462
1616.000000	100.524605
1615.000000	100.526777
1614.000000	100.530303
1613.000000	100.534090
1612.000000	100.537480
1611.000000	100.540263
1610.000000	100.542678
1609.000000	100.545117
1608.000000	100.547648
1607.000000	100.550058
1606.000000	100.552347
1605.000000	100.554847
1604.000000	100.558000
1603.000000	100.562238
1602.000000	100.567424
1601.000000	100.572359
1600.000000	100.575465
1599.000000	100.576434
1598.000000	100.576809
1597.000000	100.578555
1596.000000	100.582129
1595.000000	100.586470
1594.000000	100.590643
1593.000000	100.594684
1592.000000	100.598657
1591.000000	100.601949
1590.000000	100.604106
1589.000000	100.605626
1588.000000	100.607356
1587.000000	100.609561
1586.000000	100.612111
1585.000000	100.615098
1584.000000	100.618558
1583.000000	100.622030
1582.000000	100.624926
1581.000000	100.627229
1580.000000	100.629503
1579.000000	100.632521
1578.000000	100.637153
1577.000000	100.643771
1576.000000	100.650462
1575.000000	100.654327
1574.000000	100.655438
1573.000000	100.655769
1572.000000	100.656487
1571.000000	100.657857
1570.000000	100.659897
1569.000000	100.662734
1568.000000	100.666032
1567.000000	100.668610
1566.000000	100.669649
1565.000000	100.669802
1564.000000	100.670419
1563.000000	100.671761
1562.000000	100.673149
1561.000000	100.675052
1560.000000	100.681306
1559.000000	100.690749
1558.000000	100.695055
1557.000000	100.694369
1556.000000	100.692343
1555.000000	100.689590
1554.000000	100.686196
1553.000000	100.682853
1552.000000	100.680756
1551.000000	100.680428
1550.000000	100.681295
1549.000000	100.682328
1548.000000	100.683191
1547.000000	100.684194
1546.000000	100.685600
1545.000000	100.687109
1544.000000	100.688057
1543.000000	100.688275
1542.000000	100.688063
1541.000000	100.687297
1540.000000	100.685292
1539.000000	100.682570
1538.000000	100.680168
1537.000000	100.677535
1536.000000	100.674192
1535.000000	100.670927
1534.000000	100.669331
1533.000000	100.669659
1532.000000	100.670291
1531.000000	100.669709
1530.000000	100.667474
1529.000000	100.664248
1528.000000	100.661321
1527.000000	100.659737
1526.000000	100.659645
1525.000000	100.660349
1524.000000	100.661217
1523.000000	100.662478
1522.000000	100.664356
1521.000000	100.665435
1520.000000	100.664172
1519.000000	100.661205
1518.000000	100.658691
1517.000000	100.658551
1516.000000	100.660719
1515.000000	100.663375
1514.000000	100.665158
1513.000000	100.666136
1512.000000	100.666829
1511.000000	100.667238
1510.000000	100.667088
1509.000000	100.666602
1508.000000	100.666737
1507.000000	100.667378
1506.000000	100.667356
1505.000000	100.667002
1504.000000	100.666952
1503.000000	100.667320
1502.000000	100.668017
1501.000000	100.668564
1500.000000	100.668193
1499.000000	100.666332
1498.000000	100.663321
1497.000000	100.660586
1496.000000	100.659546
1495.000000	100.659957
1494.000000	100.660477
1493.000000	100.660704
1492.000000	100.661583
1491.000000	100.664008
1490.000000	100.667079
1489.000000	100.668831
1488.000000	100.669030
1487.000000	100.668964
1486.000000	100.669300
1485.000000	100.669701
1484.000000	100.669619
1483.000000	100.669076
1482.000000	100.668762
1481.000000	100.669333
1480.000000	100.670657
1479.000000	100.671901
1478.000000	100.672353
1477.000000	100.671917
1476.000000	100.670939
1475.000000	100.669624
1474.000000	100.668062
1473.000000	100.666814
1472.000000	100.666580
1471.000000	100.666946
1470.000000	100.666496
1469.000000	100.664501
1468.000000	100.661732
1467.000000	100.659757
1466.000000	100.659549
1465.000000	100.660645
1464.000000	100.661946
1463.000000	100.663079
1462.000000	100.663763
1461.000000	100.663010
1460.000000	100.659921
1459.000000	100.655013
1458.000000	100.650705
1457.000000	100.649111
1456.000000	100.649524
1455.000000	100.650138
1454.000000	100.650251
1453.000000	100.649515
1452.000000	100.647456
1451.000000	100.644575
1450.000000	100.642674
1449.000000	100.642986
1448.000000	100.644367
1447.000000	100.644255
1446.000000	100.641636
1445.000000	100.637372
1444.000000	100.632563
1443.000000	100.628314
1442.000000	100.625798
1441.000000	100.625281
1440.000000	100.625031
1439.000000	100.622307
1438.000000	100.615731
1437.000000	100.607350
1436.000000	100.601553
1435.000000	100.600289
1434.000000	100.601639
1433.000000	100.603274
1432.000000	100.604066
1431.000000	100.603531
1430.000000	100.602117
1429.000000	100.601416
1428.000000	100.602611
1427.000000	100.604651
1426.000000	100.605472
1425.000000	100.604326
1424.000000	100.602130
1423.000000	100.600230
1422.000000	100.599333
1421.000000	100.600319
1420.000000	100.604933
1419.000000	100.612534
1418.000000	100.618436
1417.000000	100.619739
1416.000000	100.618232
1415.000000	100.617030
1414.000000	100.617864
1413.000000	100.620533
1412.000000	100.624019
1411.000000	100.627784
1410.000000	100.631967
1409.000000	100.636738
1408.000000	100.641963
1407.000000	100.647032
1406.000000	100.651026
1405.000000	100.653311
1404.000000	100.654076
1403.000000	100.654350
1402.000000	100.655324
1401.000000	100.658249
1400.000000	100.664337
1399.000000	100.673320
1398.000000	100.682924
1397.000000	100.690740
1396.000000	100.695544
1395.000000	100.697195
1394.000000	100.697225
1393.000000	100.698295
1392.000000	100.701749
1391.000000	100.706582
1390.000000	100.710492
1389.000000	100.711787
1388.000000	100.711132
1387.000000	100.711259
1386.000000	100.713813
1385.000000	100.717133
1384.000000	100.718342
1383.000000	100.716719
1382.000000	100.714309
1381.000000	100.713510
1380.000000	100.714514
1379.000000	100.715722
1378.000000	100.716243
1377.000000	100.716816
1376.000000	100.717986
1375.000000	100.718244
1374.000000	100.715361
1373.000000	100.709638
1372.000000	100.703961
1371.000000	100.700668
1370.000000	100.700271
1369.000000	100.702358
1368.000000	100.706239
1367.000000	100.710936
1366.000000	100.715138
1365.000000	100.717734
1364.000000	100.718531
1363.000000	100.718434
1362.000000	100.718617
1361.000000	100.719061
1360.000000	100.718340
1359.000000	100.715256
1358.000000	100.710353
1357.000000	100.705717
1356.000000	100.703272
1355.000000	100.703383
1354.000000	100.705126
1353.000000	100.707435
1352.000000	100.709664
1351.000000	100.711261
1350.000000	100.711803
1349.000000	100.711681
1348.000000	100.712107
1347.000000	100.713902
1346.000000	100.716287
1345.000000	100.717325
1344.000000	100.715774
1343.000000	100.712468
1342.000000	100.709929
1341.000000	100.710432
1340.000000	100.714009
1339.000000	100.718188
1338.000000	100.720412
1337.000000	100.720395
1336.000000	100.719453
1335.000000	100.718393
1334.000000	100.716817
1333.000000	100.714268
1332.000000	100.711333
1331.000000	100.709130
1330.000000	100.708082
1329.000000	100.707889
1328.000000	100.708629
1327.000000	100.710984
1326.000000	100.715028
1325.000000	100.719309
1324.000000	100.721686
1323.000000	100.721086
1322.000000	100.718308
1321.000000	100.715302
1320.000000	100.713781
1319.000000	100.714173
1318.000000	100.715388
1317.000000	100.715690
1316.000000	100.714205
1315.000000	100.711837
1314.000000	100.710731
1313.000000	100.712516
1312.000000	100.716656
1311.000000	100.720451
1310.000000	100.721078
1309.000000	100.717956
1308.000000	100.713310
1307.000000	100.710221
1306.000000	100.709930
1305.000000	100.711419
1304.000000	100.713397
1303.000000	100.715690
1302.000000	100.718363
1301.000000	100.720594
1300.000000	100.721461
1299.000000	100.721224
1298.000000	100.720615
1297.000000	100.718942
1296.000000	100.714306
1295.000000	100.706348
1294.000000	100.697890
1293.000000	100.692783
1292.000000	100.692303
1291.000000	100.694164
1290.000000	100.694855
1289.000000	100.692696
1288.000000	100.688766
1287.000000	100.685262
1286.000000	100.683043
1285.000000	100.680751
1284.000000	100.676373
1283.000000	100.669578
1282.000000	100.662354
1281.000000	100.657302
1280.000000	100.655512
1279.000000	100.656099
1278.000000	100.657407
1277.000000	100.658302
1276.000000	100.658537
1275.000000	100.658432
1274.000000	100.658466
1273.000000	100.658754
1272.000000	100.658538
1271.000000	100.656669
1270.000000	100.653356
1269.000000	100.651136
1268.000000	100.652840
1267.000000	100.658148
1266.000000	100.663230
1265.000000	100.664713
1264.000000	100.663123
1263.000000	100.661324
1262.000000	100.660351
1261.000000	100.658430
1260.000000	100.653890
1259.000000	100.647176
1258.000000	100.639464
1257.000000	100.630863
1256.000000	100.621012
1255.000000	100.610484
1254.000000	100.600499
1253.000000	100.591607
1252.000000	100.583287
1251.000000	100.574580
1250.000000	100.564876
1249.000000	100.554479
1248.000000	100.544351
1247.000000	100.534683
1246.000000	100.523957
1245.000000	100.510450
1244.000000	100.494508
1243.000000	100.477961
1242.000000	100.461412
1241.000000	100.444099
1240.000000	100.426837
1239.000000	100.412674
1238.000000	100.402980
1237.000000	100.394561
1236.000000	100.382469
1235.000000	100.364691
1234.000000	100.342840
1233.000000	100.319426
1232.000000	100.295847
1231.000000	100.272060
1230.000000	100.246489
1229.000000	100.216891
1228.000000	100.182521
1227.000000	100.144559
1226.000000	100.103322
1225.000000	100.056602
1224.000000	100.002746
1223.000000	99.943999
1222.000000	99.884171
1221.000000	99.823539
1220.000000	99.758589
1219.000000	99.686672
1218.000000	99.608555
1217.000000	99.526433
1216.000000	99.441910
1215.000000	99.356497
1214.000000	99.271924
1213.000000	99.188700
1212.000000	99.105229
1211.000000	99.018985
1210.000000	98.928322
1209.000000	98.833521
1208.000000	98.736851
1207.000000	98.641351
1206.000000	98.548993
1205.000000	98.460052
1204.000000	98.373760
1203.000000	98.288633
1202.000000	98.202998
1201.000000	98.116921
1200.000000	98.032861
1199.000000	97.952348
1198.000000	97.872982
1197.000000	97.791486
1196.000000	97.708606
1195.000000	97.627533
1194.000000	97.548351
1193.000000	97.468114
1192.000000	97.385858
1191.000000	97.302816
1190.000000	97.217699
1189.000000	97.127006
1188.000000	97.031099
1187.000000	96.934858
1186.000000	96.840610
1185.000000	96.745345
1184.000000	96.647210
1183.000000	96.549867
1182.000000	96.457254
1181.000000	96.367749
1180.000000	96.276394
1179.000000	96.179625
1178.000000	96.075487
1177.000000	95.962685
1176.000000	95.842366
1175.000000	95.718534
1174.000000	95.594752
1173.000000	95.472503
1172.000000	95.353093
1171.000000	95.237112
1170.000000	95.121118
1169.000000	94.999875
1168.000000	94.874307
1167.000000	94.753858
1166.000000	94.650055
1165.000000	94.571694
1164.000000	94.526074
1163.000000	94.518174
1162.000000	94.546006
1161.000000	94.600582
1160.000000	94.670046
1159.000000	94.738682
1158.000000	94.784467
1157.000000	94.787638
1156.000000	94.744716
1155.000000	94.669437
1154.000000	94.578594
1153.000000	94.480807
1152.000000	94.379265
1151.000000	94.277514
1150.000000	94.178124
1149.000000	94.080673
1148.000000	93.984635
1147.000000	93.890484
1146.000000	93.796398
1145.000000	93.698883
1144.000000	93.598301
1143.000000	93.498780
1142.000000	93.401510
1141.000000	93.303567
1140.000000	93.204043
1139.000000	93.104788
1138.000000	93.004209
1137.000000	92.897639
1136.000000	92.785561
1135.000000	92.674182
1134.000000	92.565815
1133.000000	92.456022
1132.000000	92.342442
1131.000000	92.228738
1130.000000	92.117004
1129.000000	92.003711
1128.000000	91.886339
1127.000000	91.767454
1126.000000	91.649704
1125.000000	91.533200
1124.000000	91.419316
1123.000000	91.309843
1122.000000	91.201129
1121.000000	91.087092
1120.000000	90.969046
1119.000000	90.853718
1118.000000	90.741067
1117.000000	90.624698
1116.000000	90.505559
1115.000000	90.393393
1114.000000	90.291428
1113.000000	90.191188
1112.000000	90.086542
1111.000000	89.981423
1110.000000	89.879997
1109.000000	89.780858
1108.000000	89.684094
1107.000000	89.592801
1106.000000	89.504470
1105.000000	89.412222
1104.000000	89.317518
1103.000000	89.229965
1102.000000	89.151641
1101.000000	89.073241
1100.000000	88.988720
1099.000000	88.902101
1098.000000	88.817286
1097.000000	88.733610
1096.000000	88.654128
1095.000000	88.585202
1094.000000	88.524331
1093.000000	88.460992
1092.000000	88.392934
1091.000000	88.329165
1090.000000	88.273961
1089.000000	88.221175
1088.000000	88.167659
1087.000000	88.118765
1086.000000	88.076468
1085.000000	88.034891
1084.000000	87.991677
1083.000000	87.951662
1082.000000	87.915971
1081.000000	87.879577
1080.000000	87.842268
1079.000000	87.809346
1078.000000	87.778990
1077.000000	87.742229
1076.000000	87.697821
1075.000000	87.653171
1074.000000	87.607326
1073.000000	87.546582
1072.000000	87.460037
1071.000000	87.346617
1070.000000	87.205135
1069.000000	87.031890
1068.000000	86.832199
1067.000000	86.621334
1066.000000	86.409289
1065.000000	86.195883
1064.000000	85.982978
1063.000000	85.777469
1062.000000	85.579850
1061.000000	85.385286
1060.000000	85.199056
1059.000000	85.034749
1058.000000	84.893065
1057.000000	84.758115
1056.000000	84.618399
1055.000000	84.475528
1054.000000	84.328966
1053.000000	84.169596
1052.000000	83.994241
1051.000000	83.810021
1050.000000	83.618210
1049.000000	83.411255
1048.000000	83.190678
1047.000000	82.968515
1046.000000	82.747391
1045.000000	82.518911
1044.000000	82.283926
1043.000000	82.054271
1042.000000	81.831354
1041.000000	81.603252
1040.000000	81.368024
1039.000000	81.140133
1038.000000	80.928128
1037.000000	80.726178
1036.000000	80.533652
1035.000000	80.362194
1034.000000	80.215812
1033.000000	80.083617
1032.000000	79.959769
1031.000000	79.851761
1030.000000	79.761868
1029.000000	79.679528
1028.000000	79.599616
1027.000000	79.530219
1026.000000	79.475052
1025.000000	79.425411
1024.000000	79.375290
1023.000000	79.327237
1022.000000	79.278719
1021.000000	79.221110
1020.000000	79.156969
1019.000000	79.100023
1018.000000	79.053494
1017.000000	79.006502
1016.000000	78.955272
1015.000000	78.908326
1014.000000	78.866841
1013.000000	78.820213
1012.000000	78.766182
1011.000000	78.716058
1010.000000	78.675102
1009.000000	78.636683
1008.000000	78.599885
1007.000000	78.573155
1006.000000	78.556019
1005.000000	78.537156
1004.000000	78.515660
1003.000000	78.504751
1002.000000	78.509415
1001.000000	78.519627
1000.000000	78.530273
999.000000	78.548153
998.000000	78.574245
997.000000	78.598846
996.000000	78.620027
995.000000	78.648063
994.000000	78.686142
993.000000	78.725435
992.000000	78.764384
991.000000	78.814073
990.000000	78.878918
989.000000	78.950516
988.000000	79.025922
987.000000	79.114049
986.000000	79.218762
985.000000	79.333451
984.000000	79.457064
983.000000	79.597432
982.000000	79.754015
981.000000	79.915831
980.000000	80.081933
979.000000	80.266162
978.000000	80.475699
977.000000	80.701552
976.000000	80.935375
975.000000	81.179432
974.000000	81.434727
973.000000	81.695317
972.000000	81.960019
971.000000	82.235217
970.000000	82.520924
969.000000	82.807242
968.000000	83.088297
967.000000	83.366652
966.000000	83.641348
965.000000	83.905356
964.000000	84.157919
963.000000	84.406427
962.000000	84.653165
961.000000	84.892372
960.000000	85.122353
959.000000	85.347943
958.000000	85.569234
957.000000	85.780608
956.000000	85.982884
955.000000	86.183706
954.000000	86.383845
953.000000	86.575544
952.000000	86.756318
951.000000	86.931429
950.000000	87.100216
949.000000	87.252754
948.000000	87.383877
947.000000	87.499993
946.000000	87.609703
945.000000	87.717549
944.000000	87.827849
943.000000	87.942834
942.000000	88.055033
941.000000	88.153201
940.000000	88.238097
939.000000	88.322038
938.000000	88.411996
937.000000	88.504566
936.000000	88.598197
935.000000	88.696980
934.000000	88.800067
933.000000	88.900327
932.000000	88.996510
931.000000	89.094738
930.000000	89.195608
929.000000	89.292400
928.000000	89.384894
927.000000	89.482097
926.000000	89.587444
925.000000	89.693389
924.000000	89.794661
923.000000	89.894878
922.000000	89.995353
921.000000	90.088675
920.000000	90.169040
919.000000	90.239893
918.000000	90.307289
917.000000	90.374614
916.000000	90.446904
915.000000	90.530134
914.000000	90.622186
913.000000	90.714225
912.000000	90.805249
911.000000	90.906423
910.000000	91.027567
909.000000	91.168451
908.000000	91.326223
907.000000	91.501399
906.000000	91.692584
905.000000	91.894341
904.000000	92.103947
903.000000	92.322217
902.000000	92.545292
901.000000	92.764183
900.000000	92.975004
899.000000	93.181928
898.000000	93.388544
897.000000	93.594308
896.000000	93.800357
895.000000	94.009691
894.000000	94.219546
893.000000	94.421892
892.000000	94.613083
891.000000	94.794736
890.000000	94.964414
889.000000	95.116166
888.000000	95.253811
887.000000	95.393456
886.000000	95.545945
885.000000	95.703761
884.000000	95.852021
883.000000	95.986589
882.000000	96.114912
881.000000	96.243458
880.000000	96.371484
879.000000	96.495621
878.000000	96.614627
877.000000	96.729478
876.000000	96.842585
875.000000	96.957900
874.000000	97.080065
873.000000	97.211824
872.000000	97.350643
871.000000	97.487809
870.000000	97.614334
869.000000	97.730299
868.000000	97.845468
867.000000	97.967580
866.000000	98.092751
865.000000	98.211279
864.000000	98.319925
863.000000	98.423475
862.000000	98.526420
861.000000	98.628905
860.000000	98.730312
859.000000	98.830995
858.000000	98.929261
857.000000	99.020833
856.000000	99.102560
855.000000	99.174009
854.000000	99.235478
853.000000	99.287447
852.000000	99.332204
851.000000	99.373355
850.000000	99.413335
849.000000	99.453138
848.000000	99.493550
847.000000	99.533738
846.000000	99.569267
845.000000	99.594309
844.000000	99.605408
843.000000	99.601243
842.000000	99.580714
841.000000	99.544540
840.000000	99.496886
839.000000	99.440936
838.000000	99.373752
837.000000	99.291076
836.000000	99.198631
835.000000	99.113941
834.000000	99.053379
833.000000	99.019067
832.000000	99.000409
831.000000	98.986402
830.000000	98.974506
829.000000	98.968575
828.000000	98.970059
827.000000	98.973379
826.000000	98.972486
825.000000	98.970993
824.000000	98.979970
823.000000	99.003380
822.000000	99.031854
821.000000	99.053941
820.000000	99.065533
819.000000	99.063814
818.000000	99.040514
817.000000	98.988316
816.000000	98.908629
815.000000	98.805480
814.000000	98.674085
813.000000	98.501870
812.000000	98.278655
811.000000	97.998442
810.000000	97.652261
809.000000	97.228490
808.000000	96.724394
807.000000	96.152910
806.000000	95.535873
805.000000	94.895736
804.000000	94.256551
803.000000	93.646110
802.000000	93.091767
801.000000	92.618344
800.000000	92.250555
799.000000	92.006903
798.000000	91.886503
797.000000	91.869981
796.000000	91.935433
795.000000	92.065083
794.000000	92.237580
793.000000	92.426357
792.000000	92.608402
791.000000	92.767225
790.000000	92.888709
789.000000	92.962857
788.000000	92.987872
787.000000	92.963465
786.000000	92.881545
785.000000	92.733185
784.000000	92.525349
783.000000	92.283556
782.000000	92.039145
781.000000	91.821469
780.000000	91.659023
779.000000	91.574598
778.000000	91.576084
777.000000	91.659731
776.000000	91.820157
775.000000	92.046490
774.000000	92.312743
773.000000	92.587318
772.000000	92.852863
771.000000	93.105919
770.000000	93.339320
769.000000	93.537916
768.000000	93.691863
767.000000	93.803705
766.000000	93.882845
765.000000	93.942318
764.000000	93.998878
763.000000	94.064631
762.000000	94.138010
761.000000	94.212013
760.000000	94.289297
759.000000	94.378529
758.000000	94.478746
757.000000	94.580557
756.000000	94.681933
755.000000	94.789425
754.000000	94.903266
753.000000	95.014302
752.000000	95.117435
751.000000	95.216282
750.000000	95.312544
749.000000	95.401796
748.000000	95.482743
747.000000	95.561778
746.000000	95.646941
745.000000	95.745939
744.000000	95.869513
743.000000	96.024910
742.000000	96.203778
741.000000	96.386513
740.000000	96.560047
739.000000	96.722548
738.000000	96.872484
737.000000	97.006505
736.000000	97.129655
735.000000	97.253401
734.000000	97.378214
733.000000	97.488778
732.000000	97.571695
731.000000	97.630104
730.000000	97.676783
729.000000	97.719880
728.000000	97.759670
727.000000	97.793221
726.000000	97.818221
725.000000	97.837677
724.000000	97.863468
723.000000	97.909560
722.000000	97.978984
721.000000	98.061933
720.000000	98.147928
719.000000	98.234929
718.000000	98.325451
717.000000	98.419054
716.000000	98.509957
715.000000	98.588514
714.000000	98.647124
713.000000	98.689749
712.000000	98.731733
711.000000	98.782077
710.000000	98.828983
709.000000	98.853104
708.000000	98.853223
707.000000	98.846588
706.000000	98.842191
705.000000	98.825886
704.000000	98.775733
703.000000	98.680095
702.000000	98.535219
701.000000	98.335691
700.000000	98.076425
699.000000	97.761642
698.000000	97.411635
697.000000	97.069144
696.000000	96.797688
695.000000	96.655861
694.000000	96.661649
693.000000	96.782628
692.000000	96.961683
691.000000	97.151866
690.000000	97.331081
689.000000	97.496708
688.000000	97.655092
687.000000	97.810180
686.000000	97.955060
685.000000	98.075927
684.000000	98.165489
683.000000	98.228985
682.000000	98.277663
681.000000	98.322780
680.000000	98.375537
679.000000	98.443239
678.000000	98.521493
677.000000	98.596174
676.000000	98.657896
675.000000	98.711349
674.000000	98.766371
673.000000	98.824111
672.000000	98.875653
671.000000	98.913025
670.000000	98.939798
669.000000	98.976940
668.000000	99.045533
667.000000	99.130081
666.000000	99.196945
665.000000	99.236314
664.000000	99.261416
663.000000	99.292969
662.000000	99.337104
661.000000	99.378475
660.000000	99.401774
659.000000	99.407993
658.000000	99.404320
657.000000	99.389216
656.000000	99.354926
655.000000	99.297723
654.000000	99.220063
653.000000	99.131883
652.000000	99.056020
651.000000	99.020413
650.000000	99.034365
