4000.000000	100.270984
3999.000000	100.268148
3998.000000	100.266327
3997.000000	100.265313
3996.000000	100.263831
3995.000000	100.260833
3994.000000	100.256642
3993.000000	100.252855
3992.000000	100.250919
3991.000000	100.251016
3990.000000	100.252107
3989.000000	100.252769
3988.000000	100.252139
3987.000000	100.250156
3986.000000	100.247439
3985.000000	100.245175
3984.000000	100.244608
3983.000000	100.246141
3982.000000	100.248786
3981.000000	100.250728
3980.000000	100.250823
3979.000000	100.249315
3978.000000	100.247190
3977.000000	100.245049
3976.000000	100.242743
3975.000000	100.240031
3974.000000	100.237273
3973.000000	100.235363
3972.000000	100.235058
3971.000000	100.236399
3970.000000	100.238637
3969.000000	100.240709
3968.000000	100.241885
3967.000000	100.242141
3966.000000	100.242107
3965.000000	100.242585
3964.000000	100.243853
3963.000000	100.245245
3962.000000	100.245524
3961.000000	100.243950
3960.000000	100.241008
3959.000000	100.238123
3958.000000	100.236496
3957.000000	100.236143
3956.000000	100.236048
3955.000000	100.235168
3954.000000	100.233329
3953.000000	100.231218
3952.000000	100.229609
3951.000000	100.228638
3950.000000	100.227895
3949.000000	100.227149
3948.000000	100.226773
3947.000000	100.227288
3946.000000	100.228684
3945.000000	100.230360
3944.000000	100.231706
3943.000000	100.232617
3942.000000	100.233435
3941.000000	100.234459
3940.000000	100.235639
3939.000000	100.236608
3938.000000	100.236871
3937.000000	100.236063
3936.000000	100.234251
3935.000000	100.232085
3934.000000	100.230572
3933.000000	100.230454
3932.000000	100.231750
3931.000000	100.233744
3930.000000	100.235433
3929.000000	100.236128
3928.000000	100.235707
3927.000000	100.234523
3926.000000	100.233135
3925.000000	100.232008
3924.000000	100.231304
3923.000000	100.230942
3922.000000	100.230822
3921.000000	100.230997
3920.000000	100.231676
3919.000000	100.232981
3918.000000	100.234654
3917.000000	100.236118
3916.000000	100.236905
3915.000000	100.236980
3914.000000	100.236719
3913.000000	100.236563
3912.000000	100.236709
3911.000000	100.237031
3910.000000	100.237254
3909.000000	100.237238
3908.000000	100.237078
3907.000000	100.237014
3906.000000	100.237262
3905.000000	100.237908
3904.000000	100.238902
3903.000000	100.240041
3902.000000	100.240957
3901.000000	100.241287
3900.000000	100.240946
3899.000000	100.240224
3898.000000	100.239548
3897.000000	100.239141
3896.000000	100.239001
3895.000000	100.239051
3894.000000	100.239186
3893.000000	100.239287
3892.000000	100.239304
3891.000000	100.239357
3890.000000	100.239640
3889.000000	100.240221
3888.000000	100.241047
3887.000000	100.242137
3886.000000	100.243571
3885.000000	100.245158
3884.000000	100.246209
3883.000000	100.245890
3882.000000	100.243945
3881.000000	100.241375
3880.000000	100.240050
3879.000000	100.240984
3878.000000	100.243189
3877.000000	100.244480
3876.000000	100.243502
3875.000000	100.240763
3874.000000	100.238068
3873.000000	100.237082
3872.000000	100.238223
3871.000000	100.240660
3870.000000	100.243377
3869.000000	100.245762
3868.000000	100.247219
3867.000000	100.247189
3866.000000	100.245858
3865.000000	100.244375
3864.000000	100.243712
3863.000000	100.243402
3862.000000	100.242104
3861.000000	100.239357
3860.000000	100.236260
3859.000000	100.234733
3858.000000	100.236293
3857.000000	100.241202
3856.000000	100.247876
3855.000000	100.253429
3854.000000	100.257341
3853.000000	100.262184
3852.000000	100.268222
3851.000000	100.272349
3850.000000	100.272261
3849.000000	100.268688
3848.000000	100.263292
3847.000000	100.256111
3846.000000	100.246606
3845.000000	100.235528
3844.000000	100.225022
3843.000000	100.216817
3842.000000	100.211310
3841.000000	100.208276
3840.000000	100.207886
3839.000000	100.210988
3838.000000	100.217791
3837.000000	100.226423
3836.000000	100.233835
3835.000000	100.238074
3834.000000	100.239029
3833.000000	100.237464
3832.000000	100.234485
3831.000000	100.231745
3830.000000	100.230590
3829.000000	100.230954
3828.000000	100.231781
3827.000000	100.232368
3826.000000	100.232985
3825.000000	100.234037
3824.000000	100.234621
3823.000000	100.232778
3822.000000	100.227928
3821.000000	100.222454
3820.000000	100.219576
3819.000000	100.220598
3818.000000	100.224557
3817.000000	100.229941
3816.000000	100.235726
3815.000000	100.240776
3814.000000	100.244044
3813.000000	100.245359
3812.000000	100.245788
3811.000000	100.246714
3810.000000	100.248296
3809.000000	100.249430
3808.000000	100.249154
3807.000000	100.247697
3806.000000	100.246046
3805.000000	100.244729
3804.000000	100.243511
3803.000000	100.242023
3802.000000	100.240335
3801.000000	100.238981
3800.000000	100.238177
3799.000000	100.237371
3798.000000	100.236386
3797.000000	100.236404
3796.000000	100.238693
3795.000000	100.242930
3794.000000	100.247178
3793.000000	100.249308
3792.000000	100.248627
3791.000000	100.245992
3790.000000	100.242840
3789.000000	100.240205
3788.000000	100.238368
3787.000000	100.237156
3786.000000	100.236343
3785.000000	100.235811
3784.000000	100.235458
3783.000000	100.235046
3782.000000	100.234167
3781.000000	100.232595
3780.000000	100.230834
3779.000000	100.230008
3778.000000	100.230824
3777.000000	100.232664
3776.000000	100.233930
3775.000000	100.233535
3774.000000	100.231783
3773.000000	100.229875
3772.000000	100.228736
3771.000000	100.228248
3770.000000	100.227494
3769.000000	100.225612
3768.000000	100.222407
3767.000000	100.218553
3766.000000	100.215530
3765.000000	100.214888
3764.000000	100.216911
3763.000000	100.220200
3762.000000	100.222745
3761.000000	100.223271
3760.000000	100.221937
3759.000000	100.220025
3758.000000	100.218668
3757.000000	100.218054
3756.000000	100.217650
3755.000000	100.216540
3754.000000	100.213552
3753.000000	100.208101
3752.000000	100.202556
3751.000000	100.202168
3750.000000	100.209181
3749.000000	100.219151
3748.000000	100.226125
3747.000000	100.228765
3746.000000	100.229724
3745.000000	100.231868
3744.000000	100.235229
3743.000000	100.235720
3742.000000	100.229126
3741.000000	100.216390
3740.000000	100.202610
3739.000000	100.191387
3738.000000	100.182139
3737.000000	100.173098
3736.000000	100.165130
3735.000000	100.161395
3734.000000	100.163441
3733.000000	100.169039
3732.000000	100.174373
3731.000000	100.177562
3730.000000	100.179239
3729.000000	100.180786
3728.000000	100.182338
3727.000000	100.181936
3726.000000	100.176953
3725.000000	100.166434
3724.000000	100.152319
3723.000000	100.138835
3722.000000	100.130132
3721.000000	100.127012
3720.000000	100.125993
3719.000000	100.122394
3718.000000	100.114109
3717.000000	100.102840
3716.000000	100.092182
3715.000000	100.084657
3714.000000	100.080063
3713.000000	100.075436
3712.000000	100.066928
3711.000000	100.053110
3710.000000	100.036565
3709.000000	100.021166
3708.000000	100.008225
3707.000000	99.996448
3706.000000	99.984195
3705.000000	99.970786
3704.000000	99.956633
3703.000000	99.942722
3702.000000	99.929940
3701.000000	99.918206
3700.000000	99.906166
3699.000000	99.892489
3698.000000	99.877889
3697.000000	99.865771
3696.000000	99.860140
3695.000000	99.862340
3694.000000	99.869841
3693.000000	99.877967
3692.000000	99.882716
3691.000000	99.882556
3690.000000	99.879233
3689.000000	99.877324
3688.000000	99.880863
3687.000000	99.889268
3686.000000	99.898288
3685.000000	99.904664
3684.000000	99.907317
3683.000000	99.905788
3682.000000	99.899876
3681.000000	99.890281
3680.000000	99.878730
3679.000000	99.867202
3678.000000	99.856931
3677.000000	99.847914
3676.000000	99.840898
3675.000000	99.837744
3674.000000	99.838108
3673.000000	99.838509
3672.000000	99.835564
3671.000000	99.829789
3670.000000	99.825004
3669.000000	99.823603
3668.000000	99.823177
3667.000000	99.819182
3666.000000	99.810178
3665.000000	99.798923
3664.000000	99.788858
3663.000000	99.780972
3662.000000	99.773800
3661.000000	99.765465
3660.000000	99.755185
3659.000000	99.743211
3658.000000	99.730710
3657.000000	99.720095
3656.000000	99.714100
3655.000000	99.712816
3654.000000	99.712914
3653.000000	99.710342
3652.000000	99.702332
3651.000000	99.688081
3650.000000	99.670161
3649.000000	99.654500
3648.000000	99.645624
3647.000000	99.642509
3646.000000	99.640219
3645.000000	99.634537
3644.000000	99.624705
3643.000000	99.613227
3642.000000	99.603911
3641.000000	99.598847
3640.000000	99.596630
3639.000000	99.593628
3638.000000	99.586769
3637.000000	99.574945
3636.000000	99.558865
3635.000000	99.541069
3634.000000	99.525714
3633.000000	99.516418
3632.000000	99.513354
3631.000000	99.512578
3630.000000	99.509237
3629.000000	99.502727
3628.000000	99.495391
3627.000000	99.486355
3626.000000	99.473277
3625.000000	99.458787
3624.000000	99.449644
3623.000000	99.449588
3622.000000	99.456070
3621.000000	99.462919
3620.000000	99.465761
3619.000000	99.465505
3618.000000	99.466106
3617.000000	99.470252
3616.000000	99.478568
3615.000000	99.491157
3614.000000	99.507609
3613.000000	99.525894
3612.000000	99.542685
3611.000000	99.555075
3610.000000	99.562193
3609.000000	99.565836
3608.000000	99.569215
3607.000000	99.574093
3606.000000	99.579386
3605.000000	99.582592
3604.000000	99.582062
3603.000000	99.578154
3602.000000	99.572787
3601.000000	99.568313
3600.000000	99.566613
3599.000000	99.568684
3598.000000	99.574277
3597.000000	99.581996
3596.000000	99.590174
3595.000000	99.597850
3594.000000	99.605028
3593.000000	99.611801
3592.000000	99.617753
3591.000000	99.622892
3590.000000	99.628516
3589.000000	99.636191
3588.000000	99.645211
3587.000000	99.651547
3586.000000	99.651279
3585.000000	99.644610
3584.000000	99.635756
3583.000000	99.629835
3582.000000	99.629349
3581.000000	99.633069
3580.000000	99.637709
3579.000000	99.640449
3578.000000	99.640463
3577.000000	99.638924
3576.000000	99.637949
3575.000000	99.638987
3574.000000	99.641755
3573.000000	99.644585
3572.000000	99.645806
3571.000000	99.644945
3570.000000	99.642767
3569.000000	99.640597
3568.000000	99.639714
3567.000000	99.640883
3566.000000	99.643802
3565.000000	99.647016
3564.000000	99.648789
3563.000000	99.648384
3562.000000	99.646493
3561.000000	99.644514
3560.000000	99.643372
3559.000000	99.642930
3558.000000	99.642556
3557.000000	99.642061
3556.000000	99.641908
3555.000000	99.642549
3554.000000	99.643782
3553.000000	99.644858
3552.000000	99.645173
3551.000000	99.644740
3550.000000	99.643964
3549.000000	99.643183
3548.000000	99.642525
3547.000000	99.642079
3546.000000	99.641992
3545.000000	99.642317
3544.000000	99.642900
3543.000000	99.643465
3542.000000	99.643782
3541.000000	99.643747
3540.000000	99.643312
3539.000000	99.642420
3538.000000	99.641081
3537.000000	99.639592
3536.000000	99.638586
3535.000000	99.638563
3534.000000	99.639389
3533.000000	99.640306
3532.000000	99.640591
3531.000000	99.640131
3530.000000	99.639354
3529.000000	99.638780
3528.000000	99.638654
3527.000000	99.638922
3526.000000	99.639442
3525.000000	99.640192
3524.000000	99.641295
3523.000000	99.642783
3522.000000	99.644305
3521.000000	99.645202
3520.000000	99.645053
3519.000000	99.644179
3518.000000	99.643591
3517.000000	99.644318
3516.000000	99.646669
3515.000000	99.649961
3514.000000	99.652889
3513.000000	99.654379
3512.000000	99.654224
3511.000000	99.653000
3510.000000	99.651398
3509.000000	99.649738
3508.000000	99.648219
3507.000000	99.647308
3506.000000	99.647514
3505.000000	99.648749
3504.000000	99.650147
3503.000000	99.650750
3502.000000	99.650320
3501.000000	99.649305
3500.000000	99.648173
3499.000000	99.647034
3498.000000	99.645923
3497.000000	99.645343
3496.000000	99.646237
3495.000000	99.649056
3494.000000	99.652939
3493.000000	99.656332
3492.000000	99.658789
3491.000000	99.661674
3490.000000	99.666488
3489.000000	99.672543
3488.000000	99.677031
3487.000000	99.677725
3486.000000	99.674911
3485.000000	99.670814
3484.000000	99.667633
3483.000000	99.666320
3482.000000	99.666847
3481.000000	99.668725
3480.000000	99.671092
3479.000000	99.672843
3478.000000	99.673137
3477.000000	99.671860
3476.000000	99.669576
3475.000000	99.667022
3474.000000	99.664670
3473.000000	99.662726
3472.000000	99.661426
3471.000000	99.661146
3470.000000	99.662055
3469.000000	99.663747
3468.000000	99.665391
3467.000000	99.666252
3466.000000	99.665999
3465.000000	99.664620
3464.000000	99.662407
3463.000000	99.660000
3462.000000	99.658027
3461.000000	99.656525
3460.000000	99.655060
3459.000000	99.653618
3458.000000	99.652993
3457.000000	99.653915
3456.000000	99.656061
3455.000000	99.658190
3454.000000	99.659252
3453.000000	99.659062
3452.000000	99.657917
3451.000000	99.656055
3450.000000	99.653670
3449.000000	99.651249
3448.000000	99.649521
3447.000000	99.648917
3446.000000	99.649203
3445.000000	99.649720
3444.000000	99.649925
3443.000000	99.649688
3442.000000	99.649172
3441.000000	99.648584
3440.000000	99.648091
3439.000000	99.647855
3438.000000	99.647983
3437.000000	99.648389
3436.000000	99.648779
3435.000000	99.648877
3434.000000	99.648631
3433.000000	99.648185
3432.000000	99.647682
3431.000000	99.647193
3430.000000	99.646816
3429.000000	99.646719
3428.000000	99.646996
3427.000000	99.647505
3426.000000	99.647906
3425.000000	99.647854
3424.000000	99.647175
3423.000000	99.645982
3422.000000	99.644759
3421.000000	99.644175
3420.000000	99.644646
3419.000000	99.645999
3418.000000	99.647530
3417.000000	99.648539
3416.000000	99.648833
3415.000000	99.648727
3414.000000	99.648744
3413.000000	99.649221
3412.000000	99.650141
3411.000000	99.651241
3410.000000	99.652219
3409.000000	99.652900
3408.000000	99.653284
3407.000000	99.653523
3406.000000	99.653810
3405.000000	99.654262
3404.000000	99.654909
3403.000000	99.655811
3402.000000	99.657082
3401.000000	99.658720
3400.000000	99.660394
3399.000000	99.661591
3398.000000	99.662039
3397.000000	99.661941
3396.000000	99.661791
3395.000000	99.661921
3394.000000	99.662288
3393.000000	99.662671
3392.000000	99.662988
3391.000000	99.663420
3390.000000	99.664231
3389.000000	99.665464
3388.000000	99.666831
3387.000000	99.667945
3386.000000	99.668679
3385.000000	99.669271
3384.000000	99.670066
3383.000000	99.671152
3382.000000	99.672288
3381.000000	99.673152
3380.000000	99.673644
3379.000000	99.673914
3378.000000	99.674237
3377.000000	99.674838
3376.000000	99.675776
3375.000000	99.676952
3374.000000	99.678156
3373.000000	99.679208
3372.000000	99.680054
3371.000000	99.680744
3370.000000	99.681361
3369.000000	99.681981
3368.000000	99.682671
3367.000000	99.683500
3366.000000	99.684499
3365.000000	99.685640
3364.000000	99.686860
3363.000000	99.688087
3362.000000	99.689278
3361.000000	99.690414
3360.000000	99.691473
3359.000000	99.692451
3358.000000	99.693373
3357.000000	99.694289
3356.000000	99.695243
3355.000000	99.696254
3354.000000	99.697312
3353.000000	99.698396
3352.000000	99.699490
3351.000000	99.700586
3350.000000	99.701686
3349.000000	99.702795
3348.000000	99.703915
3347.000000	99.705047
3346.000000	99.706191
3345.000000	99.707339
3344.000000	99.708481
3343.000000	99.709611
3342.000000	99.710728
3341.000000	99.711836
3340.000000	99.712941
3339.000000	99.714047
3338.000000	99.715150
3337.000000	99.716241
3336.000000	99.717310
3335.000000	99.718355
3334.000000	99.719382
3333.000000	99.720393
3332.000000	99.721387
3331.000000	99.722356
3330.000000	99.723299
3329.000000	99.724227
3328.000000	99.725160
3327.000000	99.726103
3326.000000	99.727040
3325.000000	99.727939
3324.000000	99.728774
3323.000000	99.729557
3322.000000	99.730363
3321.000000	99.731266
3320.000000	99.732279
3319.000000	99.733319
3318.000000	99.734307
3317.000000	99.735235
3316.000000	99.736154
3315.000000	99.737106
3314.000000	99.738075
3313.000000	99.739008
3312.000000	99.739918
3311.000000	99.740913
3310.000000	99.742102
3309.000000	99.743414
3308.000000	99.744574
3307.000000	99.745387
3306.000000	99.745962
3305.000000	99.746550
3304.000000	99.747165
3303.000000	99.747523
3302.000000	99.747391
3301.000000	99.746925
3300.000000	99.746635
3299.000000	99.746932
3298.000000	99.747851
3297.000000	99.749114
3296.000000	99.750363
3295.000000	99.751348
3294.000000	99.751953
3293.000000	99.752270
3292.000000	99.752651
3291.000000	99.753464
3290.000000	99.754702
3289.000000	99.756003
3288.000000	99.757164
3287.000000	99.758421
3286.000000	99.759993
3285.000000	99.761527
3284.000000	99.762376
3283.000000	99.762411
3282.000000	99.762202
3281.000000	99.762386
3280.000000	99.763116
3279.000000	99.764286
3278.000000	99.765788
3277.000000	99.767291
3276.000000	99.768165
3275.000000	99.768029
3274.000000	99.767230
3273.000000	99.766407
3272.000000	99.765748
3271.000000	99.765060
3270.000000	99.764525
3269.000000	99.764871
3268.000000	99.766541
3267.000000	99.769092
3266.000000	99.771589
3265.000000	99.773532
3264.000000	99.775107
3263.000000	99.776589
3262.000000	99.777856
3261.000000	99.778616
3260.000000	99.778963
3259.000000	99.779473
3258.000000	99.780655
3257.000000	99.782413
3256.000000	99.784128
3255.000000	99.785258
3254.000000	99.785790
3253.000000	99.786101
3252.000000	99.786565
3251.000000	99.787319
3250.000000	99.788333
3249.000000	99.789539
3248.000000	99.790832
3247.000000	99.792050
3246.000000	99.793032
3245.000000	99.793715
3244.000000	99.794171
3243.000000	99.794534
3242.000000	99.794895
3241.000000	99.795319
3240.000000	99.795934
3239.000000	99.796899
3238.000000	99.798242
3237.000000	99.799732
3236.000000	99.801008
3235.000000	99.801937
3234.000000	99.802682
3233.000000	99.803496
3232.000000	99.804493
3231.000000	99.805602
3230.000000	99.806693
3229.000000	99.807718
3228.000000	99.808749
3227.000000	99.809894
3226.000000	99.811179
3225.000000	99.812491
3224.000000	99.813637
3223.000000	99.814504
3222.000000	99.815163
3221.000000	99.815817
3220.000000	99.816587
3219.000000	99.817423
3218.000000	99.818208
3217.000000	99.818917
3216.000000	99.819658
3215.000000	99.820578
3214.000000	99.821719
3213.000000	99.822953
3212.000000	99.824070
3211.000000	99.824995
3210.000000	99.825892
3209.000000	99.826943
3208.000000	99.828059
3207.000000	99.828922
3206.000000	99.829356
3205.000000	99.829554
3204.000000	99.829942
3203.000000	99.830904
3202.000000	99.832647
3201.000000	99.835106
3200.000000	99.837804
3199.000000	99.839983
3198.000000	99.841138
3197.000000	99.841417
3196.000000	99.841579
3195.000000	99.842501
3194.000000	99.844651
3193.000000	99.847880
3192.000000	99.851393
3191.000000	99.854191
3190.000000	99.855826
3189.000000	99.856629
3188.000000	99.857160
3187.000000	99.857439
3186.000000	99.857120
3185.000000	99.856306
3184.000000	99.855774
3183.000000	99.856212
3182.000000	99.857496
3181.000000	99.858899
3180.000000	99.859881
3179.000000	99.860555
3178.000000	99.861440
3177.000000	99.862954
3176.000000	99.865132
3175.000000	99.867613
3174.000000	99.869817
3173.000000	99.871267
3172.000000	99.871947
3171.000000	99.872417
3170.000000	99.873431
3169.000000	99.875283
3168.000000	99.877543
3167.000000	99.879578
3166.000000	99.881330
3165.000000	99.883362
3164.000000	99.886023
3163.000000	99.888794
3162.000000	99.890724
3161.000000	99.891349
3160.000000	99.890930
3159.000000	99.890083
3158.000000	99.889495
3157.000000	99.889878
3156.000000	99.891594
3155.000000	99.894057
3154.000000	99.895931
3153.000000	99.896352
3152.000000	99.895708
3151.000000	99.895074
3150.000000	99.895025
3149.000000	99.895449
3148.000000	99.896302
3147.000000	99.897813
3146.000000	99.899910
3145.000000	99.901996
3144.000000	99.903586
3143.000000	99.904933
3142.000000	99.906618
3141.000000	99.908634
3140.000000	99.910297
3139.000000	99.911139
3138.000000	99.911595
3137.000000	99.912586
3136.000000	99.914519
3135.000000	99.916922
3134.000000	99.919017
3133.000000	99.920501
3132.000000	99.921718
3131.000000	99.923186
3130.000000	99.925093
3129.000000	99.927235
3128.000000	99.929303
3127.000000	99.931161
3126.000000	99.932864
3125.000000	99.934424
3124.000000	99.935671
3123.000000	99.936484
3122.000000	99.937114
3121.000000	99.938051
3120.000000	99.939450
3119.000000	99.940857
3118.000000	99.941698
3117.000000	99.941962
3116.000000	99.942226
3115.000000	99.942998
3114.000000	99.944256
3113.000000	99.945737
3112.000000	99.947396
3111.000000	99.949297
3110.000000	99.951183
3109.000000	99.952557
3108.000000	99.953194
3107.000000	99.953330
3106.000000	99.953304
3105.000000	99.953258
3104.000000	99.953361
3103.000000	99.954036
3102.000000	99.955644
3101.000000	99.957982
3100.000000	99.960349
3099.000000	99.962250
3098.000000	99.963796
3097.000000	99.965268
3096.000000	99.966553
3095.000000	99.967263
3094.000000	99.967272
3093.000000	99.966887
3092.000000	99.966548
3091.000000	99.966570
3090.000000	99.967219
3089.000000	99.968746
3088.000000	99.971128
3087.000000	99.973848
3086.000000	99.976110
3085.000000	99.977395
3084.000000	99.977699
3083.000000	99.977399
3082.000000	99.976999
3081.000000	99.976931
3080.000000	99.977433
3079.000000	99.978378
3078.000000	99.979290
3077.000000	99.979728
3076.000000	99.979770
3075.000000	99.980058
3074.000000	99.981276
3073.000000	99.983588
3072.000000	99.986542
3071.000000	99.989430
3070.000000	99.991689
3069.000000	99.993089
3068.000000	99.993759
3067.000000	99.994138
3066.000000	99.994768
3065.000000	99.995955
3064.000000	99.997531
3063.000000	99.998971
3062.000000	99.999756
3061.000000	99.999681
3060.000000	99.998960
3059.000000	99.998150
3058.000000	99.997956
3057.000000	99.998863
3056.000000	100.000720
3055.000000	100.002700
3054.000000	100.003933
3053.000000	100.004275
3052.000000	100.004352
3051.000000	100.004823
3050.000000	100.005785
3049.000000	100.007026
3048.000000	100.008614
3047.000000	100.010887
3046.000000	100.013911
3045.000000	100.017270
3044.000000	100.020372
3043.000000	100.022583
3042.000000	100.023095
3041.000000	100.021283
3040.000000	100.017597
3039.000000	100.013829
3038.000000	100.011811
3037.000000	100.011886
3036.000000	100.013100
3035.000000	100.014747
3034.000000	100.017085
3033.000000	100.020286
3032.000000	100.023378
3031.000000	100.024945
3030.000000	100.024666
3029.000000	100.023618
3028.000000	100.023159
3027.000000	100.023997
3026.000000	100.026225
3025.000000	100.029484
3024.000000	100.032809
3023.000000	100.034809
3022.000000	100.034664
3021.000000	100.033037
3020.000000	100.031840
3019.000000	100.032917
3018.000000	100.036940
3017.000000	100.043325
3016.000000	100.050766
3015.000000	100.057907
3014.000000	100.063740
3013.000000	100.067697
3012.000000	100.069707
3011.000000	100.070433
3010.000000	100.071301
3009.000000	100.073693
3008.000000	100.077651
3007.000000	100.081483
3006.000000	100.083177
3005.000000	100.082422
3004.000000	100.081087
3003.000000	100.081517
3002.000000	100.084516
3001.000000	100.089120
3000.000000	100.093926
2999.000000	100.098276
2998.000000	100.102217
2997.000000	100.105864
2996.000000	100.109156
2995.000000	100.112015
2994.000000	100.114348
2993.000000	100.115982
2992.000000	100.117072
2991.000000	100.118656
2990.000000	100.122219
2989.000000	100.128103
2988.000000	100.134545
2987.000000	100.139037
2986.000000	100.140921
2985.000000	100.142320
2984.000000	100.146298
2983.000000	100.154157
2982.000000	100.164396
2981.000000	100.173879
2980.000000	100.180085
2979.000000	100.182793
2978.000000	100.184033
2977.000000	100.186095
2976.000000	100.189374
2975.000000	100.192516
2974.000000	100.194568
2973.000000	100.195992
2972.000000	100.197124
2971.000000	100.196580
2970.000000	100.192419
2969.000000	100.184614
2968.000000	100.175499
2967.000000	100.167942
2966.000000	100.163870
2965.000000	100.164204
2964.000000	100.168564
2963.000000	100.174461
2962.000000	100.178214
2961.000000	100.177905
2960.000000	100.174890
2959.000000	100.171817
2958.000000	100.169866
2957.000000	100.168722
2956.000000	100.168116
2955.000000	100.167807
2954.000000	100.166628
2953.000000	100.163575
2952.000000	100.160129
2951.000000	100.159706
2950.000000	100.163917
2949.000000	100.170448
2948.000000	100.175526
2947.000000	100.177699
2946.000000	100.178224
2945.000000	100.178638
2944.000000	100.179571
2943.000000	100.181572
2942.000000	100.185224
2941.000000	100.189714
2940.000000	100.192622
2939.000000	100.192453
2938.000000	100.191022
2937.000000	100.192220
2936.000000	100.198224
2935.000000	100.207419
2934.000000	100.216109
2933.000000	100.222004
2932.000000	100.225950
2931.000000	100.230579
2930.000000	100.237652
2929.000000	100.246703
2928.000000	100.255951
2927.000000	100.264097
2926.000000	100.270781
2925.000000	100.275628
2924.000000	100.277719
2923.000000	100.276488
2922.000000	100.272676
2921.000000	100.267682
2920.000000	100.262114
2919.000000	100.255767
2918.000000	100.249076
2917.000000	100.243629
2916.000000	100.240522
2915.000000	100.238588
2914.000000	100.235015
2913.000000	100.228100
2912.000000	100.219370
2911.000000	100.212705
2910.000000	100.210993
2909.000000	100.213542
2908.000000	100.216804
2907.000000	100.217798
2906.000000	100.216667
2905.000000	100.215615
2904.000000	100.215793
2903.000000	100.216092
2902.000000	100.215008
2901.000000	100.212671
2900.000000	100.210290
2899.000000	100.208304
2898.000000	100.206284
2897.000000	100.204505
2896.000000	100.204429
2895.000000	100.206888
2894.000000	100.210355
2893.000000	100.211840
2892.000000	100.209616
2891.000000	100.204602
2890.000000	100.199136
2889.000000	100.194924
2888.000000	100.192481
2887.000000	100.191960
2886.000000	100.193476
2885.000000	100.196312
2884.000000	100.198501
2883.000000	100.198134
2882.000000	100.195118
2881.000000	100.191287
2880.000000	100.188772
2879.000000	100.188350
2878.000000	100.189432
2877.000000	100.191036
2876.000000	100.192514
2875.000000	100.193585
2874.000000	100.194187
2873.000000	100.194472
2872.000000	100.194648
2871.000000	100.194652
2870.000000	100.194233
2869.000000	100.193453
2868.000000	100.192754
2867.000000	100.192329
2866.000000	100.191779
2865.000000	100.190695
2864.000000	100.189370
2863.000000	100.188613
2862.000000	100.189098
2861.000000	100.191161
2860.000000	100.194871
2859.000000	100.199671
2858.000000	100.204073
2857.000000	100.206425
2856.000000	100.206239
2855.000000	100.204405
2854.000000	100.201934
2853.000000	100.198837
2852.000000	100.194632
2851.000000	100.189601
2850.000000	100.185055
2849.000000	100.182341
2848.000000	100.181635
2847.000000	100.181729
2846.000000	100.180923
2845.000000	100.178289
2844.000000	100.174401
2843.000000	100.170960
2842.000000	100.169528
2841.000000	100.170333
2840.000000	100.172017
2839.000000	100.172600
2838.000000	100.171018
2837.000000	100.167872
2836.000000	100.164797
2835.000000	100.163080
2834.000000	100.162815
2833.000000	100.163204
2832.000000	100.163435
2831.000000	100.163167
2830.000000	100.162439
2829.000000	100.161449
2828.000000	100.160444
2827.000000	100.159653
2826.000000	100.159182
2825.000000	100.158953
2824.000000	100.158718
2823.000000	100.158207
2822.000000	100.157423
2821.000000	100.156838
2820.000000	100.157063
2819.000000	100.158132
2818.000000	100.159210
2817.000000	100.159338
2816.000000	100.158522
2815.000000	100.157878
2814.000000	100.158615
2813.000000	100.160995
2812.000000	100.164204
2811.000000	100.166925
2810.000000	100.168138
2809.000000	100.167590
2808.000000	100.165826
2807.000000	100.163748
2806.000000	100.161893
2805.000000	100.160199
2804.000000	100.158533
2803.000000	100.157316
2802.000000	100.157302
2801.000000	100.158719
2800.000000	100.160803
2799.000000	100.162350
2798.000000	100.162738
2797.000000	100.162402
2796.000000	100.162477
2795.000000	100.163862
2794.000000	100.166390
2793.000000	100.168778
2792.000000	100.169598
2791.000000	100.168526
2790.000000	100.166672
2789.000000	100.165661
2788.000000	100.166350
2787.000000	100.168539
2786.000000	100.171605
2785.000000	100.175097
2784.000000	100.178644
2783.000000	100.181611
2782.000000	100.183260
2781.000000	100.183406
2780.000000	100.182813
2779.000000	100.182682
2778.000000	100.183474
2777.000000	100.184334
2776.000000	100.183940
2775.000000	100.181971
2774.000000	100.179547
2773.000000	100.178109
2772.000000	100.178002
2771.000000	100.178470
2770.000000	100.178760
2769.000000	100.178819
2768.000000	100.178908
2767.000000	100.179016
2766.000000	100.178929
2765.000000	100.178644
2764.000000	100.178513
2763.000000	100.179122
2762.000000	100.181050
2761.000000	100.184358
2760.000000	100.188014
2759.000000	100.190261
2758.000000	100.190070
2757.000000	100.188026
2756.000000	100.185654
2755.000000	100.183873
2754.000000	100.182549
2753.000000	100.181526
2752.000000	100.181218
2751.000000	100.181856
2750.000000	100.182824
2749.000000	100.183345
2748.000000	100.183553
2747.000000	100.184233
2746.000000	100.185631
2745.000000	100.187089
2744.000000	100.187956
2743.000000	100.188391
2742.000000	100.189051
2741.000000	100.190257
2740.000000	100.191708
2739.000000	100.192873
2738.000000	100.193481
2737.000000	100.193662
2736.000000	100.193782
2735.000000	100.194173
2734.000000	100.194933
2733.000000	100.195928
2732.000000	100.196976
2731.000000	100.197974
2730.000000	100.198794
2729.000000	100.199171
2728.000000	100.198800
2727.000000	100.197586
2726.000000	100.195864
2725.000000	100.194320
2724.000000	100.193620
2723.000000	100.194102
2722.000000	100.195659
2721.000000	100.197694
2720.000000	100.199212
2719.000000	100.199274
2718.000000	100.197707
2717.000000	100.195438
2716.000000	100.193905
2715.000000	100.193796
2714.000000	100.194508
2713.000000	100.194972
2712.000000	100.194820
2711.000000	100.194531
2710.000000	100.194594
2709.000000	100.195000
2708.000000	100.195660
2707.000000	100.196887
2706.000000	100.199068
2705.000000	100.201907
2704.000000	100.204354
2703.000000	100.205443
2702.000000	100.205010
2701.000000	100.203553
2700.000000	100.201568
2699.000000	100.199116
2698.000000	100.196054
2697.000000	100.192555
2696.000000	100.189393
2695.000000	100.187569
2694.000000	100.187506
2693.000000	100.188703
2692.000000	100.190206
2691.000000	100.191578
2690.000000	100.193070
2689.000000	100.194718
2688.000000	100.195713
2687.000000	100.195075
2686.000000	100.192874
2685.000000	100.190490
2684.000000	100.189519
2683.000000	100.190534
2682.000000	100.192917
2681.000000	100.195426
2680.000000	100.196956
2679.000000	100.197215
2678.000000	100.196997
2677.000000	100.197610
2676.000000	100.199549
2675.000000	100.201752
2674.000000	100.202532
2673.000000	100.201255
2672.000000	100.198784
2671.000000	100.196333
2670.000000	100.194237
2669.000000	100.192087
2668.000000	100.189759
2667.000000	100.187876
2666.000000	100.187227
2665.000000	100.187976
2664.000000	100.189596
2663.000000	100.191482
2662.000000	100.193410
2661.000000	100.195293
2660.000000	100.196699
2659.000000	100.197034
2658.000000	100.196313
2657.000000	100.195443
2656.000000	100.195344
2655.000000	100.195776
2654.000000	100.195515
2653.000000	100.193825
2652.000000	100.191309
2651.000000	100.189347
2650.000000	100.188709
2649.000000	100.189019
2648.000000	100.189366
2647.000000	100.189278
2646.000000	100.189077
2645.000000	100.189255
2644.000000	100.189734
2643.000000	100.189893
2642.000000	100.189309
2641.000000	100.188199
2640.000000	100.187146
2639.000000	100.186485
2638.000000	100.186125
2637.000000	100.185864
2636.000000	100.185617
2635.000000	100.185332
2634.000000	100.184933
2633.000000	100.184474
2632.000000	100.184173
2631.000000	100.184164
2630.000000	100.184329
2629.000000	100.184439
2628.000000	100.184377
2627.000000	100.184179
2626.000000	100.183907
2625.000000	100.183598
2624.000000	100.183296
2623.000000	100.183067
2622.000000	100.182952
2621.000000	100.182921
2620.000000	100.182889
2619.000000	100.182804
2618.000000	100.182687
2617.000000	100.182567
2616.000000	100.182415
2615.000000	100.182169
2614.000000	100.181792
2613.000000	100.181323
2612.000000	100.180908
2611.000000	100.180761
2610.000000	100.180984
2609.000000	100.181356
2608.000000	100.181469
2607.000000	100.181162
2606.000000	100.180729
2605.000000	100.180600
2604.000000	100.180963
2603.000000	100.181736
2602.000000	100.182724
2601.000000	100.183638
2600.000000	100.184108
2599.000000	100.183968
2598.000000	100.183504
2597.000000	100.183138
2596.000000	100.182896
2595.000000	100.182510
2594.000000	100.182062
2593.000000	100.182184
2592.000000	100.183323
2591.000000	100.184972
2590.000000	100.186008
2589.000000	100.185821
2588.000000	100.184732
2587.000000	100.183210
2586.000000	100.181100
2585.000000	100.178193
2584.000000	100.175243
2583.000000	100.173653
2582.000000	100.174075
2581.000000	100.175872
2580.000000	100.177996
2579.000000	100.180037
2578.000000	100.182067
2577.000000	100.183965
2576.000000	100.185473
2575.000000	100.186614
2574.000000	100.187525
2573.000000	100.188013
2572.000000	100.187811
2571.000000	100.187182
2570.000000	100.186747
2569.000000	100.186704
2568.000000	100.186690
2567.000000	100.186502
2566.000000	100.186414
2565.000000	100.186563
2564.000000	100.186515
2563.000000	100.185873
2562.000000	100.185000
2561.000000	100.184660
2560.000000	100.185012
2559.000000	100.185429
2558.000000	100.185320
2557.000000	100.184806
2556.000000	100.184390
2555.000000	100.184270
2554.000000	100.184203
2553.000000	100.183971
2552.000000	100.183703
2551.000000	100.183697
2550.000000	100.184056
2549.000000	100.184580
2548.000000	100.184942
2547.000000	100.184936
2546.000000	100.184597
2545.000000	100.184141
2544.000000	100.183814
2543.000000	100.183715
2542.000000	100.183778
2541.000000	100.183877
2540.000000	100.183917
2539.000000	100.183868
2538.000000	100.183733
2537.000000	100.183540
2536.000000	100.183339
2535.000000	100.183163
2534.000000	100.182983
2533.000000	100.182741
2532.000000	100.182447
2531.000000	100.182214
2530.000000	100.182150
2529.000000	100.182250
2528.000000	100.182413
2527.000000	100.182570
2526.000000	100.182731
2525.000000	100.182902
2524.000000	100.183033
2523.000000	100.183076
2522.000000	100.183056
2521.000000	100.183082
2520.000000	100.183275
2519.000000	100.183676
2518.000000	100.184211
2517.000000	100.184699
2516.000000	100.184998
2515.000000	100.185110
2514.000000	100.185190
2513.000000	100.185387
2512.000000	100.185685
2511.000000	100.185936
2510.000000	100.186021
2509.000000	100.185973
2508.000000	100.185977
2507.000000	100.186231
2506.000000	100.186758
2505.000000	100.187357
2504.000000	100.187798
2503.000000	100.188066
2502.000000	100.188334
2501.000000	100.188720
2500.000000	100.189209
2499.000000	100.189803
2498.000000	100.190607
2497.000000	100.191632
2496.000000	100.192632
2495.000000	100.193325
2494.000000	100.193738
2493.000000	100.194215
2492.000000	100.195069
2491.000000	100.196278
2490.000000	100.197503
2489.000000	100.198401
2488.000000	100.198885
2487.000000	100.199124
2486.000000	100.199370
2485.000000	100.199702
2484.000000	100.199997
2483.000000	100.200145
2482.000000	100.200281
2481.000000	100.200707
2480.000000	100.201568
2479.000000	100.202676
2478.000000	100.203669
2477.000000	100.204310
2476.000000	100.204606
2475.000000	100.204737
2474.000000	100.204942
2473.000000	100.205454
2472.000000	100.206428
2471.000000	100.207876
2470.000000	100.209616
2469.000000	100.211290
2468.000000	100.212533
2467.000000	100.213173
2466.000000	100.213334
2465.000000	100.213404
2464.000000	100.213825
2463.000000	100.214825
2462.000000	100.216255
2461.000000	100.217680
2460.000000	100.218703
2459.000000	100.219205
2458.000000	100.219265
2457.000000	100.218975
2456.000000	100.218468
2455.000000	100.218054
2454.000000	100.218115
2453.000000	100.218805
2452.000000	100.219951
2451.000000	100.221242
2450.000000	100.222372
2449.000000	100.222969
2448.000000	100.222728
2447.000000	100.221829
2446.000000	100.221059
2445.000000	100.221157
2444.000000	100.222103
2443.000000	100.223301
2442.000000	100.224429
2441.000000	100.225835
2440.000000	100.227945
2439.000000	100.230535
2438.000000	100.232717
2437.000000	100.233740
2436.000000	100.233654
2435.000000	100.233210
2434.000000	100.233137
2433.000000	100.233431
2432.000000	100.233559
2431.000000	100.233297
2430.000000	100.233062
2429.000000	100.233315
2428.000000	100.233886
2427.000000	100.234213
2426.000000	100.234092
2425.000000	100.233860
2424.000000	100.233923
2423.000000	100.234483
2422.000000	100.235680
2421.000000	100.237523
2420.000000	100.239527
2419.000000	100.240896
2418.000000	100.241342
2417.000000	100.241420
2416.000000	100.241836
2415.000000	100.242538
2414.000000	100.242836
2413.000000	100.242329
2412.000000	100.241368
2411.000000	100.240609
2410.000000	100.240355
2409.000000	100.240424
2408.000000	100.240494
2407.000000	100.240429
2406.000000	100.240306
2405.000000	100.240228
2404.000000	100.240218
2403.000000	100.240287
2402.000000	100.240504
2401.000000	100.240873
2400.000000	100.241148
2399.000000	100.240979
2398.000000	100.240328
2397.000000	100.239604
2396.000000	100.239359
2395.000000	100.239726
2394.000000	100.240224
2393.000000	100.240152
2392.000000	100.239290
2391.000000	100.238034
2390.000000	100.236946
2389.000000	100.236213
2388.000000	100.235590
2387.000000	100.234806
2386.000000	100.233870
2385.000000	100.232962
2384.000000	100.232194
2383.000000	100.231538
2382.000000	100.230906
2381.000000	100.230241
2380.000000	100.229541
2379.000000	100.228828
2378.000000	100.228115
2377.000000	100.227402
2376.000000	100.226692
2375.000000	100.225987
2374.000000	100.225288
2373.000000	100.224592
2372.000000	100.223904
2371.000000	100.223229
2370.000000	100.222571
2369.000000	100.221929
2368.000000	100.221298
2367.000000	100.220676
2366.000000	100.220062
2365.000000	100.219460
2364.000000	100.218870
2363.000000	100.218290
2362.000000	100.217711
2361.000000	100.217127
2360.000000	100.216540
2359.000000	100.215966
2358.000000	100.215424
2357.000000	100.214932
2356.000000	100.214491
2355.000000	100.214090
2354.000000	100.213712
2353.000000	100.213355
2352.000000	100.213025
2351.000000	100.212738
2350.000000	100.212499
2349.000000	100.212301
2348.000000	100.212124
2347.000000	100.211953
2346.000000	100.211785
2345.000000	100.211632
2344.000000	100.211505
2343.000000	100.211404
2342.000000	100.211320
2341.000000	100.211250
2340.000000	100.211192
2339.000000	100.211146
2338.000000	100.211116
2337.000000	100.211103
2336.000000	100.211111
2335.000000	100.211138
2334.000000	100.211175
2333.000000	100.211215
2332.000000	100.211255
2331.000000	100.211300
2330.000000	100.211354
2329.000000	100.211420
2328.000000	100.211499
2327.000000	100.211588
2326.000000	100.211691
2325.000000	100.211808
2324.000000	100.211937
2323.000000	100.212070
2322.000000	100.212200
2321.000000	100.212324
2320.000000	100.212447
2319.000000	100.212573
2318.000000	100.212705
2317.000000	100.212838
2316.000000	100.212965
2315.000000	100.213076
2314.000000	100.213169
2313.000000	100.213251
2312.000000	100.213329
2311.000000	100.213407
2310.000000	100.213477
2309.000000	100.213528
2308.000000	100.213558
2307.000000	100.213571
2306.000000	100.213576
2305.000000	100.213581
2304.000000	100.213589
2303.000000	100.213592
2302.000000	100.213585
2301.000000	100.213563
2300.000000	100.213531
2299.000000	100.213493
2298.000000	100.213454
2297.000000	100.213417
2296.000000	100.213381
2295.000000	100.213346
2294.000000	100.213306
2293.000000	100.213257
2292.000000	100.213197
2291.000000	100.213130
2290.000000	100.213061
2289.000000	100.212993
2288.000000	100.212925
2287.000000	100.212853
2286.000000	100.212775
2285.000000	100.212689
2284.000000	100.212590
2283.000000	100.212472
2282.000000	100.212330
2281.000000	100.212168
2280.000000	100.211999
2279.000000	100.211836
2278.000000	100.211681
2277.000000	100.211529
2276.000000	100.211377
2275.000000	100.211216
2274.000000	100.211043
2273.000000	100.210869
2272.000000	100.210714
2271.000000	100.210575
2270.000000	100.210407
2269.000000	100.210168
2268.000000	100.209886
2267.000000	100.209643
2266.000000	100.209467
2265.000000	100.209277
2264.000000	100.208963
2263.000000	100.208527
2262.000000	100.208107
2261.000000	100.207862
2260.000000	100.207858
2259.000000	100.208089
2258.000000	100.208515
2257.000000	100.209048
2256.000000	100.209524
2255.000000	100.209787
2254.000000	100.209790
2253.000000	100.209578
2252.000000	100.209180
2251.000000	100.208631
2250.000000	100.208110
2249.000000	100.207892
2248.000000	100.208057
2247.000000	100.208383
2246.000000	100.208615
2245.000000	100.208758
2244.000000	100.208932
2243.000000	100.209020
2242.000000	100.208719
2241.000000	100.207985
2240.000000	100.207166
2239.000000	100.206697
2238.000000	100.206737
2237.000000	100.207129
2236.000000	100.207590
2235.000000	100.207855
2234.000000	100.207802
2233.000000	100.207507
2232.000000	100.207186
2231.000000	100.207064
2230.000000	100.207248
2229.000000	100.207679
2228.000000	100.208183
2227.000000	100.208600
2226.000000	100.208891
2225.000000	100.209115
2224.000000	100.209324
2223.000000	100.209520
2222.000000	100.209694
2221.000000	100.209846
2220.000000	100.209985
2219.000000	100.210113
2218.000000	100.210236
2217.000000	100.210356
2216.000000	100.210474
2215.000000	100.210598
2214.000000	100.210732
2213.000000	100.210881
2212.000000	100.211046
2211.000000	100.211230
2210.000000	100.211434
2209.000000	100.211660
2208.000000	100.211908
2207.000000	100.212173
2206.000000	100.212445
2205.000000	100.212712
2204.000000	100.212965
2203.000000	100.213201
2202.000000	100.213422
2201.000000	100.213636
2200.000000	100.213855
2199.000000	100.214079
2198.000000	100.214301
2197.000000	100.214505
2196.000000	100.214678
2195.000000	100.214815
2194.000000	100.214925
2193.000000	100.215023
2192.000000	100.215124
2191.000000	100.215230
2190.000000	100.215336
2189.000000	100.215432
2188.000000	100.215510
2187.000000	100.215573
2186.000000	100.215625
2185.000000	100.215673
2184.000000	100.215721
2183.000000	100.215771
2182.000000	100.215822
2181.000000	100.215869
2180.000000	100.215921
2179.000000	100.216008
2178.000000	100.216158
2177.000000	100.216362
2176.000000	100.216588
2175.000000	100.216818
2174.000000	100.217036
2173.000000	100.217212
2172.000000	100.217341
2171.000000	100.217489
2170.000000	100.217737
2169.000000	100.218084
2168.000000	100.218434
2167.000000	100.218664
2166.000000	100.218667
2165.000000	100.218379
2164.000000	100.217849
2163.000000	100.217240
2162.000000	100.216727
2161.000000	100.216407
2160.000000	100.216289
2159.000000	100.216314
2158.000000	100.216374
2157.000000	100.216407
2156.000000	100.216447
2155.000000	100.216525
2154.000000	100.216586
2153.000000	100.216621
2152.000000	100.216850
2151.000000	100.217561
2150.000000	100.218680
2149.000000	100.219658
2148.000000	100.220012
2147.000000	100.219820
2146.000000	100.219580
2145.000000	100.219725
2144.000000	100.220348
2143.000000	100.221300
2142.000000	100.222339
2141.000000	100.223224
2140.000000	100.223817
2139.000000	100.224162
2138.000000	100.224440
2137.000000	100.224814
2136.000000	100.225298
2135.000000	100.225760
2134.000000	100.226043
2133.000000	100.226117
2132.000000	100.226125
2131.000000	100.226276
2130.000000	100.226673
2129.000000	100.227247
2128.000000	100.227850
2127.000000	100.228374
2126.000000	100.228815
2125.000000	100.229234
2124.000000	100.229702
2123.000000	100.230251
2122.000000	100.230862
2121.000000	100.231494
2120.000000	100.232127
2119.000000	100.232762
2118.000000	100.233405
2117.000000	100.234055
2116.000000	100.234713
2115.000000	100.235385
2114.000000	100.236075
2113.000000	100.236782
2112.000000	100.237498
2111.000000	100.238220
2110.000000	100.238947
2109.000000	100.239685
2108.000000	100.240438
2107.000000	100.241206
2106.000000	100.241984
2105.000000	100.242768
2104.000000	100.243550
2103.000000	100.244325
2102.000000	100.245086
2101.000000	100.245832
2100.000000	100.246561
2099.000000	100.247272
2098.000000	100.247974
2097.000000	100.248681
2096.000000	100.249405
2095.000000	100.250150
2094.000000	100.250913
2093.000000	100.251686
2092.000000	100.252456
2091.000000	100.253206
2090.000000	100.253941
2089.000000	100.254707
2088.000000	100.255556
2087.000000	100.256489
2086.000000	100.257415
2085.000000	100.258220
2084.000000	100.258832
2083.000000	100.259275
2082.000000	100.259708
2081.000000	100.260343
2080.000000	100.261331
2079.000000	100.262616
2078.000000	100.263894
2077.000000	100.264855
2076.000000	100.265403
2075.000000	100.265673
2074.000000	100.265850
2073.000000	100.266016
2072.000000	100.266214
2071.000000	100.266549
2070.000000	100.267123
2069.000000	100.267835
2068.000000	100.268354
2067.000000	100.268430
2066.000000	100.268168
2065.000000	100.267888
2064.000000	100.267714
2063.000000	100.267549
2062.000000	100.267414
2061.000000	100.267504
2060.000000	100.267822
2059.000000	100.268044
2058.000000	100.267933
2057.000000	100.267685
2056.000000	100.267658
2055.000000	100.267909
2054.000000	100.268206
2053.000000	100.268391
2052.000000	100.268554
2051.000000	100.268861
2050.000000	100.269315
2049.000000	100.269636
2048.000000	100.269425
2047.000000	100.268558
2046.000000	100.267383
2045.000000	100.266363
2044.000000	100.265519
2043.000000	100.264558
2042.000000	100.263580
2041.000000	100.263157
2040.000000	100.263509
2039.000000	100.264015
2038.000000	100.263813
2037.000000	100.262686
2036.000000	100.261038
2035.000000	100.259343
2034.000000	100.257912
2033.000000	100.256892
2032.000000	100.256210
2031.000000	100.255602
2030.000000	100.254903
2029.000000	100.254173
2028.000000	100.253436
2027.000000	100.252490
2026.000000	100.251261
2025.000000	100.250133
2024.000000	100.249591
2023.000000	100.249643
2022.000000	100.249733
2021.000000	100.249282
2020.000000	100.248222
2019.000000	100.246921
2018.000000	100.245801
2017.000000	100.244998
2016.000000	100.244343
2015.000000	100.243572
2014.000000	100.242591
2013.000000	100.241543
2012.000000	100.240603
2011.000000	100.239781
2010.000000	100.239058
2009.000000	100.238589
2008.000000	100.238539
2007.000000	100.238736
2006.000000	100.238735
2005.000000	100.238277
2004.000000	100.237468
2003.000000	100.236516
2002.000000	100.235521
2001.000000	100.234600
2000.000000	100.233859
1999.000000	100.233197
1998.000000	100.232362
1997.000000	100.231292
1996.000000	100.230225
1995.000000	100.229324
1994.000000	100.228448
1993.000000	100.227478
1992.000000	100.226684
1991.000000	100.226449
1990.000000	100.226816
1989.000000	100.227475
1988.000000	100.227979
1987.000000	100.227908
1986.000000	100.227066
1985.000000	100.225675
1984.000000	100.224267
1983.000000	100.223241
1982.000000	100.222698
1981.000000	100.222755
1980.000000	100.223550
1979.000000	100.224907
1978.000000	100.226180
1977.000000	100.226708
1976.000000	100.226469
1975.000000	100.226007
1974.000000	100.225873
1973.000000	100.226187
1972.000000	100.226669
1971.000000	100.226932
1970.000000	100.226815
1969.000000	100.226489
1968.000000	100.226156
1967.000000	100.225650
1966.000000	100.224671
1965.000000	100.223557
1964.000000	100.223305
1963.000000	100.224423
1962.000000	100.226112
1961.000000	100.226978
1960.000000	100.226609
1959.000000	100.225836
1958.000000	100.225461
1957.000000	100.225269
1956.000000	100.224641
1955.000000	100.223582
1954.000000	100.222643
1953.000000	100.222028
1952.000000	100.221390
1951.000000	100.220503
1950.000000	100.219833
1949.000000	100.220150
1948.000000	100.221409
1947.000000	100.222438
1946.000000	100.222104
1945.000000	100.220506
1944.000000	100.218658
1943.000000	100.217095
1942.000000	100.215327
1941.000000	100.212940
1940.000000	100.210495
1939.000000	100.208718
1938.000000	100.207580
1937.000000	100.206759
1936.000000	100.206438
1935.000000	100.207110
1934.000000	100.208682
1933.000000	100.210340
1932.000000	100.211413
1931.000000	100.211676
1930.000000	100.211094
1929.000000	100.209773
1928.000000	100.207911
1927.000000	100.205950
1926.000000	100.204345
1925.000000	100.203441
1924.000000	100.203143
1923.000000	100.202485
1922.000000	100.200348
1921.000000	100.196708
1920.000000	100.192775
1919.000000	100.189788
1918.000000	100.187990
1917.000000	100.186683
1916.000000	100.185119
1915.000000	100.183138
1914.000000	100.180928
1913.000000	100.178769
1912.000000	100.177082
1911.000000	100.176089
1910.000000	100.175584
1909.000000	100.175014
1908.000000	100.173806
1907.000000	100.172035
1906.000000	100.170252
1905.000000	100.169042
1904.000000	100.168418
1903.000000	100.167469
1902.000000	100.165266
1901.000000	100.161648
1900.000000	100.157287
1899.000000	100.153527
1898.000000	100.151668
1897.000000	100.151970
1896.000000	100.152960
1895.000000	100.152150
1894.000000	100.148521
1893.000000	100.143655
1892.000000	100.139833
1891.000000	100.137626
1890.000000	100.135902
1889.000000	100.133460
1888.000000	100.130248
1887.000000	100.127175
1886.000000	100.125175
1885.000000	100.124693
1884.000000	100.125486
1883.000000	100.126679
1882.000000	100.127623
1881.000000	100.128417
1880.000000	100.129243
1879.000000	100.129898
1878.000000	100.129920
1877.000000	100.129031
1876.000000	100.127391
1875.000000	100.125180
1874.000000	100.122538
1873.000000	100.119968
1872.000000	100.118116
1871.000000	100.117410
1870.000000	100.118294
1869.000000	100.121132
1868.000000	100.124946
1867.000000	100.127844
1866.000000	100.129215
1865.000000	100.129736
1864.000000	100.130061
1863.000000	100.130410
1862.000000	100.130994
1861.000000	100.132374
1860.000000	100.134898
1859.000000	100.138106
1858.000000	100.141134
1857.000000	100.143376
1856.000000	100.144568
1855.000000	100.144823
1854.000000	100.144971
1853.000000	100.146243
1852.000000	100.148668
1851.000000	100.150962
1850.000000	100.151904
1849.000000	100.151486
1848.000000	100.150845
1847.000000	100.151105
1846.000000	100.152845
1845.000000	100.155991
1844.000000	100.159324
1843.000000	100.160824
1842.000000	100.160080
1841.000000	100.158806
1840.000000	100.158815
1839.000000	100.160626
1838.000000	100.163221
1837.000000	100.165314
1836.000000	100.166678
1835.000000	100.167677
1834.000000	100.168236
1833.000000	100.167934
1832.000000	100.167094
1831.000000	100.167241
1830.000000	100.169240
1829.000000	100.171588
1828.000000	100.172876
1827.000000	100.173740
1826.000000	100.174859
1825.000000	100.175527
1824.000000	100.174664
1823.000000	100.172380
1822.000000	100.169930
1821.000000	100.168359
1820.000000	100.168094
1819.000000	100.169094
1818.000000	100.170672
1817.000000	100.172042
1816.000000	100.172570
1815.000000	100.171557
1814.000000	100.168798
1813.000000	100.165039
1812.000000	100.162092
1811.000000	100.161121
1810.000000	100.161319
1809.000000	100.161534
1808.000000	100.161295
1807.000000	100.160455
1806.000000	100.159413
1805.000000	100.159343
1804.000000	100.161008
1803.000000	100.163422
1802.000000	100.164989
1801.000000	100.165077
1800.000000	100.164273
1799.000000	100.162786
1798.000000	100.160207
1797.000000	100.157206
1796.000000	100.155320
1795.000000	100.155588
1794.000000	100.158088
1793.000000	100.162104
1792.000000	100.166255
1791.000000	100.168508
1790.000000	100.168534
1789.000000	100.168530
1788.000000	100.170386
1787.000000	100.174300
1786.000000	100.179059
1785.000000	100.183059
1784.000000	100.185336
1783.000000	100.186385
1782.000000	100.188162
1781.000000	100.191213
1780.000000	100.193993
1779.000000	100.194972
1778.000000	100.194857
1777.000000	100.196228
1776.000000	100.200476
1775.000000	100.207137
1774.000000	100.214511
1773.000000	100.220540
1772.000000	100.224117
1771.000000	100.225952
1770.000000	100.228140
1769.000000	100.231712
1768.000000	100.235395
1767.000000	100.237552
1766.000000	100.238642
1765.000000	100.240812
1764.000000	100.245499
1763.000000	100.251723
1762.000000	100.256607
1761.000000	100.257843
1760.000000	100.256994
1759.000000	100.256958
1758.000000	100.258088
1757.000000	100.258840
1756.000000	100.258241
1755.000000	100.257910
1754.000000	100.259568
1753.000000	100.262296
1752.000000	100.263853
1751.000000	100.263737
1750.000000	100.262813
1749.000000	100.262369
1748.000000	100.263432
1747.000000	100.265935
1746.000000	100.268818
1745.000000	100.270294
1744.000000	100.270235
1743.000000	100.270365
1742.000000	100.271598
1741.000000	100.272805
1740.000000	100.272130
1739.000000	100.268708
1738.000000	100.263672
1737.000000	100.258796
1736.000000	100.254104
1735.000000	100.249108
1734.000000	100.246570
1733.000000	100.247510
1732.000000	100.249825
1731.000000	100.251866
1730.000000	100.251774
1729.000000	100.249009
1728.000000	100.244917
1727.000000	100.241293
1726.000000	100.238881
1725.000000	100.237473
1724.000000	100.237428
1723.000000	100.238411
1722.000000	100.238928
1721.000000	100.238203
1720.000000	100.236663
1719.000000	100.234870
1718.000000	100.232985
1717.000000	100.231299
1716.000000	100.230257
1715.000000	100.229388
1714.000000	100.227473
1713.000000	100.224442
1712.000000	100.221363
1711.000000	100.218817
1710.000000	100.216634
1709.000000	100.214543
1708.000000	100.212419
1707.000000	100.210177
1706.000000	100.207669
1705.000000	100.205229
1704.000000	100.203320
1703.000000	100.201774
1702.000000	100.199669
1701.000000	100.196453
1700.000000	100.192983
1699.000000	100.190038
1698.000000	100.187487
1697.000000	100.184965
1696.000000	100.182255
1695.000000	100.179407
1694.000000	100.176630
1693.000000	100.173982
1692.000000	100.171313
1691.000000	100.168459
1690.000000	100.165414
1689.000000	100.162357
1688.000000	100.159471
1687.000000	100.156958
1686.000000	100.154723
1685.000000	100.152345
1684.000000	100.149461
1683.000000	100.145488
1682.000000	100.141693
1681.000000	100.139495
1680.000000	100.137726
1679.000000	100.135138
1678.000000	100.131817
1677.000000	100.128361
1676.000000	100.124854
1675.000000	100.121316
1674.000000	100.118123
1673.000000	100.115606
1672.000000	100.113881
1671.000000	100.112242
1670.000000	100.109990
1669.000000	100.106739
1668.000000	100.102601
1667.000000	100.098997
1666.000000	100.096681
1665.000000	100.095087
1664.000000	100.093452
1663.000000	100.090524
1662.000000	100.085450
1661.000000	100.079501
1660.000000	100.075363
1659.000000	100.073931
1658.000000	100.073263
1657.000000	100.071014
1656.000000	100.067629
1655.000000	100.065747
1654.000000	100.067179
1653.000000	100.067733
1652.000000	100.059804
1651.000000	100.050821
1650.000000	100.047681
1649.000000	100.047080
1648.000000	100.046654
1647.000000	100.046085
1646.000000	100.044305
1645.000000	100.040814
1644.000000	100.038946
1643.000000	100.040919
1642.000000	100.046681
1641.000000	100.053422
1640.000000	100.057224
1639.000000	100.056911
1638.000000	100.053899
1637.000000	100.050258
1636.000000	100.048550
1635.000000	100.050180
1634.000000	100.054430
1633.000000	100.060391
1632.000000	100.065982
1631.000000	100.069291
1630.000000	100.070998
1629.000000	100.073090
1628.000000	100.076855
1627.000000	100.082315
1626.000000	100.089270
1625.000000	100.096466
1624.000000	100.101781
1623.000000	100.104431
1622.000000	100.105907
1621.000000	100.107884
1620.000000	100.110018
1619.000000	100.111203
1618.000000	100.111555
1617.000000	100.113658
1616.000000	100.118828
1615.000000	100.126723
1614.000000	100.138085
1613.000000	100.151857
1612.000000	100.164324
1611.000000	100.173027
1610.000000	100.179753
1609.000000	100.187328
1608.000000	100.195174
1607.000000	100.200791
1606.000000	100.204416
1605.000000	100.208522
1604.000000	100.214808
1603.000000	100.223064
1602.000000	100.231172
1601.000000	100.236841
1600.000000	100.239558
1599.000000	100.241006
1598.000000	100.243465
1597.000000	100.247709
1596.000000	100.252695
1595.000000	100.256698
1594.000000	100.258971
1593.000000	100.260342
1592.000000	100.262187
1591.000000	100.265001
1590.000000	100.268035
1589.000000	100.270120
1588.000000	100.270918
1587.000000	100.271087
1586.000000	100.271083
1585.000000	100.270466
1584.000000	100.268214
1583.000000	100.264965
1582.000000	100.262478
1581.000000	100.261312
1580.000000	100.261129
1579.000000	100.262426
1578.000000	100.265111
1577.000000	100.266179
1576.000000	100.261928
1575.000000	100.253181
1574.000000	100.246054
1573.000000	100.243040
1572.000000	100.241313
1571.000000	100.238764
1570.000000	100.237703
1569.000000	100.240073
1568.000000	100.243178
1567.000000	100.245193
1566.000000	100.245397
1565.000000	100.243003
1564.000000	100.238103
1563.000000	100.232924
1562.000000	100.229429
1561.000000	100.227586
1560.000000	100.225497
1559.000000	100.224961
1558.000000	100.215915
1557.000000	100.201612
1556.000000	100.195021
1555.000000	100.192020
1554.000000	100.186532
1553.000000	100.177030
1552.000000	100.167158
1551.000000	100.160451
1550.000000	100.155823
1549.000000	100.149987
1548.000000	100.141231
1547.000000	100.130127
1546.000000	100.117358
1545.000000	100.104322
1544.000000	100.093242
1543.000000	100.085053
1542.000000	100.078690
1541.000000	100.073537
1540.000000	100.068572
1539.000000	100.058999
1538.000000	100.045263
1537.000000	100.031712
1536.000000	100.019216
1535.000000	100.007267
1534.000000	99.995953
1533.000000	99.984194
1532.000000	99.970903
1531.000000	99.957690
1530.000000	99.946033
1529.000000	99.936212
1528.000000	99.927993
1527.000000	99.919881
1526.000000	99.909968
1525.000000	99.898107
1524.000000	99.886791
1523.000000	99.878496
1522.000000	99.873104
1521.000000	99.866644
1520.000000	99.855593
1519.000000	99.842800
1518.000000	99.832285
1517.000000	99.824283
1516.000000	99.816153
1515.000000	99.806081
1514.000000	99.795636
1513.000000	99.786508
1512.000000	99.779333
1511.000000	99.773847
1510.000000	99.769430
1509.000000	99.766525
1508.000000	99.765953
1507.000000	99.764747
1506.000000	99.753328
1505.000000	99.735057
1504.000000	99.721024
1503.000000	99.711594
1502.000000	99.703595
1501.000000	99.695800
1500.000000	99.688950
1499.000000	99.683922
1498.000000	99.679167
1497.000000	99.672431
1496.000000	99.664143
1495.000000	99.655746
1494.000000	99.647842
1493.000000	99.640807
1492.000000	99.635684
1491.000000	99.634052
1490.000000	99.635799
1489.000000	99.637429
1488.000000	99.635918
1487.000000	99.630529
1486.000000	99.622261
1485.000000	99.613754
1484.000000	99.606228
1483.000000	99.599188
1482.000000	99.591598
1481.000000	99.584212
1480.000000	99.579720
1479.000000	99.579710
1478.000000	99.583003
1477.000000	99.586902
1476.000000	99.589689
1475.000000	99.591556
1474.000000	99.594765
1473.000000	99.600619
1472.000000	99.606033
1471.000000	99.607490
1470.000000	99.606474
1469.000000	99.605945
1468.000000	99.607259
1467.000000	99.611050
1466.000000	99.617987
1465.000000	99.627111
1464.000000	99.634076
1463.000000	99.635549
1462.000000	99.632173
1461.000000	99.626669
1460.000000	99.622047
1459.000000	99.621176
1458.000000	99.625699
1457.000000	99.633459
1456.000000	99.638880
1455.000000	99.641634
1454.000000	99.644246
1453.000000	99.645863
1452.000000	99.645292
1451.000000	99.643449
1450.000000	99.643158
1449.000000	99.646695
1448.000000	99.653147
1447.000000	99.658111
1446.000000	99.658923
1445.000000	99.657002
1444.000000	99.655752
1443.000000	99.657618
1442.000000	99.661944
1441.000000	99.665946
1440.000000	99.667116
1439.000000	99.665216
1438.000000	99.661856
1437.000000	99.660925
1436.000000	99.664678
1435.000000	99.670510
1434.000000	99.675352
1433.000000	99.678610
1432.000000	99.681037
1431.000000	99.683978
1430.000000	99.688056
1429.000000	99.692717
1428.000000	99.697185
1427.000000	99.700735
1426.000000	99.704005
1425.000000	99.708673
1424.000000	99.716214
1423.000000	99.725920
1422.000000	99.735158
1421.000000	99.742607
1420.000000	99.749937
1419.000000	99.760355
1418.000000	99.772223
1417.000000	99.782101
1416.000000	99.790201
1415.000000	99.796900
1414.000000	99.802171
1413.000000	99.807705
1412.000000	99.816239
1411.000000	99.828138
1410.000000	99.839827
1409.000000	99.848413
1408.000000	99.856011
1407.000000	99.866604
1406.000000	99.881120
1405.000000	99.895816
1404.000000	99.906348
1403.000000	99.912544
1402.000000	99.917102
1401.000000	99.922506
1400.000000	99.930403
1399.000000	99.941318
1398.000000	99.953729
1397.000000	99.966161
1396.000000	99.978813
1395.000000	99.991760
1394.000000	100.003590
1393.000000	100.012856
1392.000000	100.020527
1391.000000	100.028360
1390.000000	100.036610
1389.000000	100.044590
1388.000000	100.052570
1387.000000	100.061966
1386.000000	100.073072
1385.000000	100.084025
1384.000000	100.092492
1383.000000	100.097951
1382.000000	100.102171
1381.000000	100.107560
1380.000000	100.114629
1379.000000	100.121829
1378.000000	100.127612
1377.000000	100.131733
1376.000000	100.134914
1375.000000	100.138188
1374.000000	100.142333
1373.000000	100.147211
1372.000000	100.152651
1371.000000	100.159018
1370.000000	100.166600
1369.000000	100.174042
1368.000000	100.178649
1367.000000	100.179620
1366.000000	100.179711
1365.000000	100.182812
1364.000000	100.190276
1363.000000	100.199589
1362.000000	100.206555
1361.000000	100.209259
1360.000000	100.208845
1359.000000	100.207455
1358.000000	100.207276
1357.000000	100.210001
1356.000000	100.215614
1355.000000	100.222199
1354.000000	100.227598
1353.000000	100.231028
1352.000000	100.232863
1351.000000	100.233535
1350.000000	100.234164
1349.000000	100.236408
1348.000000	100.240898
1347.000000	100.246205
1346.000000	100.250026
1345.000000	100.251552
1344.000000	100.252125
1343.000000	100.253602
1342.000000	100.256511
1341.000000	100.260026
1340.000000	100.263147
1339.000000	100.265315
1338.000000	100.265984
1337.000000	100.264541
1336.000000	100.261414
1335.000000	100.258816
1334.000000	100.259164
1333.000000	100.262425
1332.000000	100.266071
1331.000000	100.268138
1330.000000	100.269218
1329.000000	100.270439
1328.000000	100.270992
1327.000000	100.269470
1326.000000	100.266891
1325.000000	100.265954
1324.000000	100.267548
1323.000000	100.269819
1322.000000	100.270825
1321.000000	100.270728
1320.000000	100.270778
1319.000000	100.271384
1318.000000	100.272049
1317.000000	100.272504
1316.000000	100.272865
1315.000000	100.272962
1314.000000	100.272300
1313.000000	100.270638
1312.000000	100.268301
1311.000000	100.265971
1310.000000	100.264348
1309.000000	100.263794
1308.000000	100.264271
1307.000000	100.265651
1306.000000	100.268038
1305.000000	100.271128
1304.000000	100.273478
1303.000000	100.273189
1302.000000	100.269828
1301.000000	100.265530
1300.000000	100.263639
1299.000000	100.265859
1298.000000	100.270577
1297.000000	100.274106
1296.000000	100.273951
1295.000000	100.271082
1294.000000	100.268743
1293.000000	100.268622
1292.000000	100.268835
1291.000000	100.266462
1290.000000	100.261494
1289.000000	100.256994
1288.000000	100.255474
1287.000000	100.256717
1286.000000	100.259516
1285.000000	100.263549
1284.000000	100.268197
1283.000000	100.271206
1282.000000	100.270880
1281.000000	100.268923
1280.000000	100.268700
1279.000000	100.270633
1278.000000	100.271462
1277.000000	100.268645
1276.000000	100.263542
1275.000000	100.259449
1274.000000	100.258017
1273.000000	100.258607
1272.000000	100.259858
1271.000000	100.260655
1270.000000	100.260565
1269.000000	100.260420
1268.000000	100.261711
1267.000000	100.264650
1266.000000	100.267697
1265.000000	100.269830
1264.000000	100.271909
1263.000000	100.274480
1262.000000	100.275582
1261.000000	100.272763
1260.000000	100.266676
1259.000000	100.260852
1258.000000	100.257697
1257.000000	100.256117
1256.000000	100.253193
1255.000000	100.246987
1254.000000	100.237729
1253.000000	100.227275
1252.000000	100.217472
1251.000000	100.208646
1250.000000	100.200062
1249.000000	100.191997
1248.000000	100.185983
1247.000000	100.181944
1246.000000	100.176556
1245.000000	100.166588
1244.000000	100.153137
1243.000000	100.140493
1242.000000	100.131177
1241.000000	100.124224
1240.000000	100.118083
1239.000000	100.112658
1238.000000	100.108043
1237.000000	100.103346
1236.000000	100.097416
1235.000000	100.089302
1234.000000	100.077821
1233.000000	100.062287
1232.000000	100.043760
1231.000000	100.023968
1230.000000	100.003099
1229.000000	99.980617
1228.000000	99.957950
1227.000000	99.937345
1226.000000	99.917273
1225.000000	99.891993
1224.000000	99.857506
1223.000000	99.815911
1222.000000	99.772261
1221.000000	99.728768
1220.000000	99.684072
1219.000000	99.636830
1218.000000	99.587693
1217.000000	99.537945
1216.000000	99.487510
1215.000000	99.434292
1214.000000	99.375334
1213.000000	99.309734
1212.000000	99.240795
1211.000000	99.173859
1210.000000	99.111312
1209.000000	99.051029
1208.000000	98.989924
1207.000000	98.927118
1206.000000	98.863599
1205.000000	98.801139
1204.000000	98.741749
1203.000000	98.685528
1202.000000	98.628484
1201.000000	98.565228
1200.000000	98.494944
1199.000000	98.422828
1198.000000	98.354917
1197.000000	98.293293
1196.000000	98.236290
1195.000000	98.180305
1194.000000	98.121002
1193.000000	98.055964
1192.000000	97.987243
1191.000000	97.918996
1190.000000	97.852077
1189.000000	97.783285
1188.000000	97.709982
1187.000000	97.632714
1186.000000	97.553356
1185.000000	97.473621
1184.000000	97.395078
1183.000000	97.317091
1182.000000	97.235115
1181.000000	97.145100
1180.000000	97.049484
1179.000000	96.954410
1178.000000	96.860931
1177.000000	96.763820
1176.000000	96.659605
1175.000000	96.550699
1174.000000	96.440884
1173.000000	96.332025
1172.000000	96.226333
1171.000000	96.126091
1170.000000	96.029205
1169.000000	95.930559
1168.000000	95.830099
1167.000000	95.734947
1166.000000	95.652386
1165.000000	95.586367
1164.000000	95.541829
1163.000000	95.525075
1162.000000	95.536324
1161.000000	95.566524
1160.000000	95.603255
1159.000000	95.635069
1158.000000	95.650005
1157.000000	95.637582
1156.000000	95.595866
1155.000000	95.532418
1154.000000	95.456246
1153.000000	95.372296
1152.000000	95.284370
1151.000000	95.197157
1150.000000	95.112683
1149.000000	95.029876
1148.000000	94.949552
1147.000000	94.874270
1146.000000	94.801910
1145.000000	94.726237
1144.000000	94.646247
1143.000000	94.568171
1142.000000	94.495261
1141.000000	94.422261
1140.000000	94.343535
1139.000000	94.260433
1138.000000	94.177128
1137.000000	94.094874
1136.000000	94.013551
1135.000000	93.933079
1134.000000	93.850453
1133.000000	93.761543
1132.000000	93.668604
1131.000000	93.579492
1130.000000	93.496563
1129.000000	93.413264
1128.000000	93.324844
1127.000000	93.235005
1126.000000	93.148139
1125.000000	93.062445
1124.000000	92.975388
1123.000000	92.889183
1122.000000	92.805935
1121.000000	92.723312
1120.000000	92.639409
1119.000000	92.556133
1118.000000	92.474310
1117.000000	92.392148
1116.000000	92.311764
1115.000000	92.239552
1114.000000	92.176027
1113.000000	92.112973
1112.000000	92.044963
1111.000000	91.975885
1110.000000	91.910157
1109.000000	91.845988
1108.000000	91.781607
1107.000000	91.719568
1106.000000	91.660070
1105.000000	91.597786
1104.000000	91.530022
1103.000000	91.461304
1102.000000	91.396357
1101.000000	91.335375
1100.000000	91.278679
1099.000000	91.227246
1098.000000	91.176416
1097.000000	91.118334
1096.000000	91.053861
1095.000000	90.993047
1094.000000	90.940608
1093.000000	90.890658
1092.000000	90.839215
1091.000000	90.791363
1090.000000	90.751048
1089.000000	90.713337
1088.000000	90.672213
1087.000000	90.627860
1086.000000	90.581972
1085.000000	90.534082
1084.000000	90.486406
1083.000000	90.443909
1082.000000	90.405776
1081.000000	90.365113
1080.000000	90.320189
1079.000000	90.277077
1078.000000	90.237970
1077.000000	90.196032
1076.000000	90.145414
1075.000000	90.087140
1074.000000	90.021477
1073.000000	89.943381
1072.000000	89.849209
1071.000000	89.740008
1070.000000	89.615584
1069.000000	89.473592
1068.000000	89.316436
1067.000000	89.149766
1066.000000	88.972372
1065.000000	88.778414
1064.000000	88.572603
1063.000000	88.371794
1062.000000	88.187107
1061.000000	88.015102
1060.000000	87.850488
1059.000000	87.695608
1058.000000	87.552248
1057.000000	87.415025
1056.000000	87.278094
1055.000000	87.138967
1054.000000	86.992428
1053.000000	86.831468
1052.000000	86.658247
1051.000000	86.483086
1050.000000	86.308978
1049.000000	86.129784
1048.000000	85.945942
1047.000000	85.766072
1046.000000	85.590607
1045.000000	85.410233
1044.000000	85.223524
1043.000000	85.041033
1042.000000	84.868572
1041.000000	84.700845
1040.000000	84.535614
1039.000000	84.379948
1038.000000	84.237623
1037.000000	84.103766
1036.000000	83.976504
1035.000000	83.861140
1034.000000	83.759323
1033.000000	83.667040
1032.000000	83.585504
1031.000000	83.519965
1030.000000	83.465836
1029.000000	83.411235
1028.000000	83.355842
1027.000000	83.311686
1026.000000	83.282588
1025.000000	83.258817
1024.000000	83.234861
1023.000000	83.215861
1022.000000	83.202475
1021.000000	83.185715
1020.000000	83.161635
1019.000000	83.136151
1018.000000	83.111309
1017.000000	83.081751
1016.000000	83.048219
1015.000000	83.019027
1014.000000	82.994238
1013.000000	82.963977
1012.000000	82.926960
1011.000000	82.895676
1010.000000	82.878586
1009.000000	82.871413
1008.000000	82.869671
1007.000000	82.875211
1006.000000	82.886731
1005.000000	82.898832
1004.000000	82.914893
1003.000000	82.946578
1002.000000	82.996328
1001.000000	83.053779
1000.000000	83.112567
999.000000	83.176665
998.000000	83.247235
997.000000	83.318510
996.000000	83.390640
995.000000	83.471940
994.000000	83.563791
993.000000	83.657112
992.000000	83.747995
991.000000	83.843248
990.000000	83.946080
989.000000	84.050063
988.000000	84.152263
987.000000	84.259680
986.000000	84.377604
985.000000	84.503304
984.000000	84.635473
983.000000	84.778240
982.000000	84.931538
981.000000	85.088654
980.000000	85.247506
979.000000	85.414004
978.000000	85.590577
977.000000	85.771391
976.000000	85.952229
975.000000	86.135713
974.000000	86.323979
973.000000	86.515062
972.000000	86.708471
971.000000	86.905583
970.000000	87.103277
969.000000	87.295867
968.000000	87.483862
967.000000	87.671990
966.000000	87.858898
965.000000	88.038634
964.000000	88.212270
963.000000	88.387508
962.000000	88.565823
961.000000	88.740099
960.000000	88.906238
959.000000	89.067158
958.000000	89.223779
957.000000	89.371800
956.000000	89.509898
955.000000	89.642618
954.000000	89.772877
953.000000	89.898635
952.000000	90.018257
951.000000	90.132258
950.000000	90.239605
949.000000	90.339410
948.000000	90.435640
947.000000	90.532369
946.000000	90.625224
945.000000	90.706084
944.000000	90.775627
943.000000	90.842634
942.000000	90.911307
941.000000	90.978167
940.000000	91.041353
939.000000	91.103598
938.000000	91.165653
937.000000	91.226034
936.000000	91.287820
935.000000	91.356452
934.000000	91.430025
933.000000	91.500942
932.000000	91.567847
931.000000	91.636517
930.000000	91.707729
929.000000	91.773806
928.000000	91.829588
927.000000	91.878538
926.000000	91.925682
925.000000	91.971653
924.000000	92.015399
923.000000	92.056130
922.000000	92.091546
921.000000	92.120086
920.000000	92.144411
919.000000	92.166514
918.000000	92.182016
917.000000	92.188012
916.000000	92.194178
915.000000	92.215293
914.000000	92.253556
913.000000	92.299517
912.000000	92.350863
911.000000	92.418459
910.000000	92.511644
909.000000	92.628798
908.000000	92.764928
907.000000	92.917962
906.000000	93.084155
905.000000	93.256532
904.000000	93.431445
903.000000	93.609650
902.000000	93.789666
901.000000	93.967410
900.000000	94.142632
899.000000	94.317609
898.000000	94.489200
897.000000	94.650201
896.000000	94.798981
895.000000	94.940540
894.000000	95.078720
893.000000	95.214947
892.000000	95.352865
891.000000	95.494254
890.000000	95.630404
889.000000	95.747676
888.000000	95.842855
887.000000	95.924530
886.000000	95.999047
885.000000	96.064796
884.000000	96.121612
883.000000	96.174634
882.000000	96.225109
881.000000	96.267740
880.000000	96.302524
879.000000	96.340086
878.000000	96.389118
877.000000	96.446601
876.000000	96.507130
875.000000	96.574749
874.000000	96.658517
873.000000	96.761185
872.000000	96.877748
871.000000	97.001224
870.000000	97.125978
869.000000	97.248750
868.000000	97.369272
867.000000	97.487685
866.000000	97.600820
865.000000	97.704112
864.000000	97.796979
863.000000	97.882688
862.000000	97.963562
861.000000	98.040655
860.000000	98.117554
859.000000	98.199372
858.000000	98.288013
857.000000	98.383057
856.000000	98.486037
855.000000	98.597525
854.000000	98.710355
853.000000	98.812590
852.000000	98.898237
851.000000	98.970130
850.000000	99.032943
849.000000	99.089150
848.000000	99.140991
847.000000	99.189272
846.000000	99.230013
845.000000	99.259436
844.000000	99.282668
843.000000	99.309587
842.000000	99.340501
841.000000	99.364246
840.000000	99.373337
839.000000	99.373262
838.000000	99.373161
837.000000	99.374337
836.000000	99.372949
835.000000	99.368411
834.000000	99.363822
833.000000	99.361989
832.000000	99.365374
831.000000	99.376427
830.000000	99.394120
829.000000	99.413491
828.000000	99.431979
827.000000	99.452531
826.000000	99.477158
825.000000	99.501722
824.000000	99.520741
823.000000	99.532477
822.000000	99.535449
821.000000	99.525359
820.000000	99.500031
819.000000	99.463136
818.000000	99.419105
817.000000	99.367185
816.000000	99.303083
815.000000	99.223440
814.000000	99.125721
813.000000	99.005207
812.000000	98.853751
811.000000	98.660037
810.000000	98.411499
809.000000	98.100778
808.000000	97.733031
807.000000	97.324157
806.000000	96.890122
805.000000	96.441978
804.000000	95.992829
803.000000	95.562776
802.000000	95.172496
801.000000	94.837455
800.000000	94.571007
799.000000	94.384445
798.000000	94.278877
797.000000	94.243314
796.000000	94.263090
795.000000	94.323288
794.000000	94.405022
793.000000	94.490113
792.000000	94.571674
791.000000	94.649822
790.000000	94.715091
789.000000	94.747151
788.000000	94.733421
787.000000	94.678727
786.000000	94.592566
785.000000	94.477105
784.000000	94.333821
783.000000	94.172904
782.000000	94.008842
781.000000	93.854305
780.000000	93.725244
779.000000	93.643390
778.000000	93.623347
777.000000	93.660445
776.000000	93.737482
775.000000	93.840552
774.000000	93.964908
773.000000	94.109603
772.000000	94.270349
771.000000	94.435630
770.000000	94.589411
769.000000	94.721184
768.000000	94.832619
767.000000	94.930442
766.000000	95.015290
765.000000	95.084196
764.000000	95.142241
763.000000	95.202639
762.000000	95.273669
761.000000	95.352674
760.000000	95.434060
759.000000	95.515595
758.000000	95.595209
757.000000	95.669495
756.000000	95.738441
755.000000	95.805890
754.000000	95.873505
753.000000	95.939748
752.000000	96.005243
751.000000	96.072177
750.000000	96.137863
749.000000	96.197178
748.000000	96.253552
747.000000	96.319293
746.000000	96.401008
745.000000	96.491354
744.000000	96.579204
743.000000	96.662097
742.000000	96.745085
741.000000	96.833024
740.000000	96.927987
739.000000	97.029329
738.000000	97.132081
737.000000	97.228803
736.000000	97.315984
735.000000	97.395618
734.000000	97.469062
733.000000	97.532645
732.000000	97.581115
731.000000	97.613166
730.000000	97.633093
729.000000	97.649391
728.000000	97.670561
727.000000	97.698565
726.000000	97.727483
725.000000	97.752517
724.000000	97.778602
723.000000	97.814868
722.000000	97.862092
721.000000	97.912293
720.000000	97.960469
719.000000	98.009246
718.000000	98.060072
717.000000	98.106678
716.000000	98.140618
715.000000	98.159483
714.000000	98.168651
713.000000	98.178426
712.000000	98.198732
711.000000	98.230960
710.000000	98.264026
709.000000	98.283365
708.000000	98.284599
707.000000	98.273870
706.000000	98.255668
705.000000	98.226083
704.000000	98.177544
703.000000	98.103188
702.000000	97.994754
701.000000	97.842881
700.000000	97.643452
699.000000	97.402103
698.000000	97.135834
697.000000	96.876274
696.000000	96.666903
695.000000	96.543533
694.000000	96.512158
693.000000	96.550667
692.000000	96.631713
691.000000	96.738239
690.000000	96.859824
689.000000	96.985950
688.000000	97.108838
687.000000	97.226855
686.000000	97.339717
685.000000	97.444066
684.000000	97.535478
683.000000	97.610823
682.000000	97.669260
681.000000	97.715688
680.000000	97.761358
679.000000	97.813723
678.000000	97.867795
677.000000	97.915513
676.000000	97.960207
675.000000	98.013457
674.000000	98.076201
673.000000	98.134520
672.000000	98.177770
671.000000	98.211931
670.000000	98.251209
669.000000	98.309251
668.000000	98.396137
667.000000	98.482796
666.000000	98.527500
665.000000	98.545569
664.000000	98.572708
663.000000	98.624864
662.000000	98.690786
661.000000	98.744622
660.000000	98.771430
659.000000	98.773341
658.000000	98.758174
657.000000	98.733969
656.000000	98.712269
655.000000	98.703627
654.000000	98.702073
653.000000	98.686963
652.000000	98.650757
651.000000	98.615215
650.000000	98.608858
