4000.000000	102.611144
3999.000000	102.605757
3998.000000	102.601096
3997.000000	102.598433
3996.000000	102.597560
3995.000000	102.597268
3994.000000	102.596461
3993.000000	102.594799
3992.000000	102.592468
3991.000000	102.589888
3990.000000	102.587737
3989.000000	102.586782
3988.000000	102.587369
3987.000000	102.589058
3986.000000	102.590713
3985.000000	102.591278
3984.000000	102.590601
3983.000000	102.589507
3982.000000	102.589071
3981.000000	102.589648
3980.000000	102.590624
3979.000000	102.591243
3978.000000	102.591561
3977.000000	102.592299
3976.000000	102.593675
3975.000000	102.594667
3974.000000	102.593843
3973.000000	102.590838
3972.000000	102.586829
3971.000000	102.583534
3970.000000	102.581722
3969.000000	102.580803
3968.000000	102.579646
3967.000000	102.577734
3966.000000	102.575604
3965.000000	102.574325
3964.000000	102.574587
3963.000000	102.576249
3962.000000	102.578473
3961.000000	102.580237
3960.000000	102.580923
3959.000000	102.580505
3958.000000	102.579374
3957.000000	102.578022
3956.000000	102.576795
3955.000000	102.575820
3954.000000	102.575103
3953.000000	102.574621
3952.000000	102.574392
3951.000000	102.574469
3950.000000	102.574825
3949.000000	102.575231
3948.000000	102.575339
3947.000000	102.574958
3946.000000	102.574264
3945.000000	102.573719
3944.000000	102.573721
3943.000000	102.574314
3942.000000	102.575204
3941.000000	102.575935
3940.000000	102.576225
3939.000000	102.576083
3938.000000	102.575696
3937.000000	102.575283
3936.000000	102.574995
3935.000000	102.574921
3934.000000	102.575106
3933.000000	102.575502
3932.000000	102.575968
3931.000000	102.576358
3930.000000	102.576633
3929.000000	102.576836
3928.000000	102.576979
3927.000000	102.577016
3926.000000	102.576939
3925.000000	102.576863
3924.000000	102.576952
3923.000000	102.577217
3922.000000	102.577527
3921.000000	102.577831
3920.000000	102.578250
3919.000000	102.578930
3918.000000	102.579833
3917.000000	102.580689
3916.000000	102.581168
3915.000000	102.581086
3914.000000	102.580539
3913.000000	102.579963
3912.000000	102.579962
3911.000000	102.580932
3910.000000	102.582738
3909.000000	102.584641
3908.000000	102.585800
3907.000000	102.585919
3906.000000	102.585555
3905.000000	102.585701
3904.000000	102.586861
3903.000000	102.588528
3902.000000	102.589731
3901.000000	102.590096
3900.000000	102.589950
3899.000000	102.589600
3898.000000	102.589017
3897.000000	102.588242
3896.000000	102.587882
3895.000000	102.588621
3894.000000	102.590324
3893.000000	102.591993
3892.000000	102.592715
3891.000000	102.592630
3890.000000	102.592188
3889.000000	102.591350
3888.000000	102.590107
3887.000000	102.588743
3886.000000	102.587565
3885.000000	102.586816
3884.000000	102.586445
3883.000000	102.586063
3882.000000	102.585414
3881.000000	102.584640
3880.000000	102.584167
3879.000000	102.584209
3878.000000	102.584517
3877.000000	102.585059
3876.000000	102.586017
3875.000000	102.587183
3874.000000	102.588097
3873.000000	102.588637
3872.000000	102.589121
3871.000000	102.590007
3870.000000	102.591469
3869.000000	102.592942
3868.000000	102.593299
3867.000000	102.592032
3866.000000	102.589812
3865.000000	102.587866
3864.000000	102.587028
3863.000000	102.587167
3862.000000	102.587472
3861.000000	102.587293
3860.000000	102.586598
3859.000000	102.585745
3858.000000	102.585176
3857.000000	102.585484
3856.000000	102.587320
3855.000000	102.590037
3854.000000	102.590730
3853.000000	102.588186
3852.000000	102.585175
3851.000000	102.583776
3850.000000	102.584056
3849.000000	102.585490
3848.000000	102.587332
3847.000000	102.588980
3846.000000	102.590312
3845.000000	102.591917
3844.000000	102.594523
3843.000000	102.597970
3842.000000	102.601191
3841.000000	102.603088
3840.000000	102.602983
3839.000000	102.600756
3838.000000	102.597129
3837.000000	102.593803
3836.000000	102.592316
3835.000000	102.592537
3834.000000	102.592867
3833.000000	102.591562
3832.000000	102.588224
3831.000000	102.584193
3830.000000	102.581183
3829.000000	102.580145
3828.000000	102.581508
3827.000000	102.585525
3826.000000	102.592001
3825.000000	102.599804
3824.000000	102.606861
3823.000000	102.610815
3822.000000	102.609893
3821.000000	102.605764
3820.000000	102.602702
3819.000000	102.600806
3818.000000	102.597331
3817.000000	102.591709
3816.000000	102.585662
3815.000000	102.581121
3814.000000	102.578036
3813.000000	102.575217
3812.000000	102.572762
3811.000000	102.571750
3810.000000	102.572597
3809.000000	102.574789
3808.000000	102.577702
3807.000000	102.581095
3806.000000	102.584760
3805.000000	102.587150
3804.000000	102.586697
3803.000000	102.583742
3802.000000	102.580121
3801.000000	102.578412
3800.000000	102.578905
3799.000000	102.578815
3798.000000	102.576774
3797.000000	102.574410
3796.000000	102.573675
3795.000000	102.574546
3794.000000	102.575666
3793.000000	102.576344
3792.000000	102.576900
3791.000000	102.577369
3790.000000	102.577004
3789.000000	102.575363
3788.000000	102.573225
3787.000000	102.572124
3786.000000	102.573025
3785.000000	102.575480
3784.000000	102.578091
3783.000000	102.579583
3782.000000	102.579605
3781.000000	102.578670
3780.000000	102.577615
3779.000000	102.577164
3778.000000	102.577545
3777.000000	102.578522
3776.000000	102.579918
3775.000000	102.581731
3774.000000	102.583709
3773.000000	102.585205
3772.000000	102.585622
3771.000000	102.585042
3770.000000	102.584625
3769.000000	102.585837
3768.000000	102.588804
3767.000000	102.592367
3766.000000	102.595522
3765.000000	102.598129
3764.000000	102.600337
3763.000000	102.601802
3762.000000	102.601907
3761.000000	102.600371
3760.000000	102.597923
3759.000000	102.596418
3758.000000	102.596954
3757.000000	102.598359
3756.000000	102.598615
3755.000000	102.597422
3754.000000	102.596794
3753.000000	102.598673
3752.000000	102.602017
3751.000000	102.604228
3750.000000	102.605455
3749.000000	102.606748
3748.000000	102.606404
3747.000000	102.602426
3746.000000	102.595305
3745.000000	102.588306
3744.000000	102.585929
3743.000000	102.589077
3742.000000	102.594253
3741.000000	102.598968
3740.000000	102.603344
3739.000000	102.608309
3738.000000	102.613370
3737.000000	102.616156
3736.000000	102.614695
3735.000000	102.609723
3734.000000	102.603670
3733.000000	102.597935
3732.000000	102.593277
3731.000000	102.590024
3730.000000	102.587263
3729.000000	102.584014
3728.000000	102.580370
3727.000000	102.577125
3726.000000	102.574631
3725.000000	102.572153
3724.000000	102.568526
3723.000000	102.563362
3722.000000	102.557797
3721.000000	102.553403
3720.000000	102.550916
3719.000000	102.550292
3718.000000	102.550691
3717.000000	102.550844
3716.000000	102.550124
3715.000000	102.549668
3714.000000	102.551741
3713.000000	102.556192
3712.000000	102.558551
3711.000000	102.554703
3710.000000	102.545650
3709.000000	102.535698
3708.000000	102.528296
3707.000000	102.524658
3706.000000	102.524169
3705.000000	102.525166
3704.000000	102.525391
3703.000000	102.522221
3702.000000	102.514626
3701.000000	102.504697
3700.000000	102.495326
3699.000000	102.487496
3698.000000	102.480878
3697.000000	102.475257
3696.000000	102.471207
3695.000000	102.469717
3694.000000	102.470937
3693.000000	102.473307
3692.000000	102.473762
3691.000000	102.469596
3690.000000	102.461259
3689.000000	102.453729
3688.000000	102.451777
3687.000000	102.454078
3686.000000	102.456241
3685.000000	102.455613
3684.000000	102.451448
3683.000000	102.443921
3682.000000	102.433631
3681.000000	102.421849
3680.000000	102.410027
3679.000000	102.398661
3678.000000	102.387251
3677.000000	102.374125
3676.000000	102.359181
3675.000000	102.349412
3674.000000	102.348067
3673.000000	102.346820
3672.000000	102.339608
3671.000000	102.326001
3670.000000	102.307645
3669.000000	102.289206
3668.000000	102.272901
3667.000000	102.256758
3666.000000	102.240534
3665.000000	102.225670
3664.000000	102.212156
3663.000000	102.198806
3662.000000	102.184804
3661.000000	102.170630
3660.000000	102.157278
3659.000000	102.145271
3658.000000	102.134265
3657.000000	102.122991
3656.000000	102.110846
3655.000000	102.098251
3654.000000	102.086155
3653.000000	102.077327
3652.000000	102.075145
3651.000000	102.077101
3650.000000	102.073479
3649.000000	102.059678
3648.000000	102.042994
3647.000000	102.029951
3646.000000	102.018183
3645.000000	102.002830
3644.000000	101.983113
3643.000000	101.962451
3642.000000	101.943868
3641.000000	101.927536
3640.000000	101.912416
3639.000000	101.899329
3638.000000	101.890541
3637.000000	101.886141
3636.000000	101.882582
3635.000000	101.875331
3634.000000	101.863066
3633.000000	101.849028
3632.000000	101.839456
3631.000000	101.840679
3630.000000	101.852513
3629.000000	101.865361
3628.000000	101.870333
3627.000000	101.864627
3626.000000	101.850379
3625.000000	101.834324
3624.000000	101.822666
3623.000000	101.818211
3622.000000	101.822267
3621.000000	101.835252
3620.000000	101.854579
3619.000000	101.874265
3618.000000	101.888461
3617.000000	101.894490
3616.000000	101.894509
3615.000000	101.894191
3614.000000	101.899403
3613.000000	101.913026
3612.000000	101.932663
3611.000000	101.951515
3610.000000	101.963525
3609.000000	101.967948
3608.000000	101.969891
3607.000000	101.975188
3606.000000	101.984131
3605.000000	101.992846
3604.000000	101.998998
3603.000000	102.003634
3602.000000	102.008854
3601.000000	102.014621
3600.000000	102.018760
3599.000000	102.019745
3598.000000	102.018831
3597.000000	102.019335
3596.000000	102.024010
3595.000000	102.032815
3594.000000	102.043816
3593.000000	102.054791
3592.000000	102.063992
3591.000000	102.070537
3590.000000	102.073934
3589.000000	102.073502
3588.000000	102.069896
3587.000000	102.066854
3586.000000	102.066327
3585.000000	102.065043
3584.000000	102.059949
3583.000000	102.052353
3582.000000	102.045459
3581.000000	102.040517
3580.000000	102.036084
3579.000000	102.030694
3578.000000	102.025539
3577.000000	102.023579
3576.000000	102.026169
3575.000000	102.031239
3574.000000	102.035114
3573.000000	102.035827
3572.000000	102.033786
3571.000000	102.030254
3570.000000	102.026055
3569.000000	102.021470
3568.000000	102.017037
3567.000000	102.014434
3566.000000	102.014329
3565.000000	102.013749
3564.000000	102.009467
3563.000000	102.002349
3562.000000	101.996427
3561.000000	101.995238
3560.000000	101.999160
3559.000000	102.005545
3558.000000	102.011061
3557.000000	102.014289
3556.000000	102.016096
3555.000000	102.017886
3554.000000	102.019666
3553.000000	102.020029
3552.000000	102.017636
3551.000000	102.012374
3550.000000	102.005312
3549.000000	101.998239
3548.000000	101.993033
3547.000000	101.990997
3546.000000	101.992329
3545.000000	101.996028
3544.000000	102.000423
3543.000000	102.004168
3542.000000	102.006796
3541.000000	102.008450
3540.000000	102.009394
3539.000000	102.009933
3538.000000	102.010402
3537.000000	102.010870
3536.000000	102.010994
3535.000000	102.010550
3534.000000	102.010218
3533.000000	102.011197
3532.000000	102.013693
3531.000000	102.016157
3530.000000	102.016675
3529.000000	102.015192
3528.000000	102.013741
3527.000000	102.014211
3526.000000	102.016396
3525.000000	102.018610
3524.000000	102.019694
3523.000000	102.019994
3522.000000	102.020518
3521.000000	102.021734
3520.000000	102.023327
3519.000000	102.024777
3518.000000	102.025903
3517.000000	102.027048
3516.000000	102.028864
3515.000000	102.031693
3514.000000	102.035124
3513.000000	102.038237
3512.000000	102.040401
3511.000000	102.041729
3510.000000	102.042719
3509.000000	102.043461
3508.000000	102.043375
3507.000000	102.041908
3506.000000	102.039350
3505.000000	102.036799
3504.000000	102.035325
3503.000000	102.035141
3502.000000	102.035481
3501.000000	102.035449
3500.000000	102.035184
3499.000000	102.035963
3498.000000	102.038884
3497.000000	102.043496
3496.000000	102.047951
3495.000000	102.050809
3494.000000	102.052396
3493.000000	102.054010
3492.000000	102.056224
3491.000000	102.058511
3490.000000	102.060360
3489.000000	102.061999
3488.000000	102.063715
3487.000000	102.065070
3486.000000	102.065391
3485.000000	102.064716
3484.000000	102.063826
3483.000000	102.063540
3482.000000	102.064229
3481.000000	102.065796
3480.000000	102.067642
3479.000000	102.068811
3478.000000	102.068631
3477.000000	102.067219
3476.000000	102.065289
3475.000000	102.063605
3474.000000	102.062656
3473.000000	102.062640
3472.000000	102.063396
3471.000000	102.064330
3470.000000	102.064708
3469.000000	102.064079
3468.000000	102.062430
3467.000000	102.060135
3466.000000	102.057913
3465.000000	102.056622
3464.000000	102.056628
3463.000000	102.057305
3462.000000	102.057513
3461.000000	102.056737
3460.000000	102.055470
3459.000000	102.054396
3458.000000	102.053494
3457.000000	102.052269
3456.000000	102.050589
3455.000000	102.048980
3454.000000	102.048060
3453.000000	102.047900
3452.000000	102.048023
3451.000000	102.047832
3450.000000	102.047063
3449.000000	102.045837
3448.000000	102.044460
3447.000000	102.043182
3446.000000	102.042049
3445.000000	102.040932
3444.000000	102.039699
3443.000000	102.038368
3442.000000	102.037127
3441.000000	102.036194
3440.000000	102.035620
3439.000000	102.035237
3438.000000	102.034757
3437.000000	102.033997
3436.000000	102.032990
3435.000000	102.031927
3434.000000	102.031003
3433.000000	102.030256
3432.000000	102.029572
3431.000000	102.028885
3430.000000	102.028328
3429.000000	102.028083
3428.000000	102.028120
3427.000000	102.028157
3426.000000	102.027915
3425.000000	102.027349
3424.000000	102.026646
3423.000000	102.026091
3422.000000	102.025844
3421.000000	102.025899
3420.000000	102.026124
3419.000000	102.026309
3418.000000	102.026257
3417.000000	102.025927
3416.000000	102.025497
3415.000000	102.025204
3414.000000	102.025079
3413.000000	102.024909
3412.000000	102.024497
3411.000000	102.023888
3410.000000	102.023350
3409.000000	102.023192
3408.000000	102.023590
3407.000000	102.024489
3406.000000	102.025590
3405.000000	102.026497
3404.000000	102.026897
3403.000000	102.026625
3402.000000	102.025673
3401.000000	102.024250
3400.000000	102.022825
3399.000000	102.021931
3398.000000	102.021893
3397.000000	102.022696
3396.000000	102.024083
3395.000000	102.025752
3394.000000	102.027462
3393.000000	102.029147
3392.000000	102.030893
3391.000000	102.032639
3390.000000	102.033939
3389.000000	102.034197
3388.000000	102.033231
3387.000000	102.031464
3386.000000	102.029538
3385.000000	102.027895
3384.000000	102.026736
3383.000000	102.026211
3382.000000	102.026352
3381.000000	102.026926
3380.000000	102.027632
3379.000000	102.028359
3378.000000	102.029124
3377.000000	102.029784
3376.000000	102.030085
3375.000000	102.030110
3374.000000	102.030411
3373.000000	102.031464
3372.000000	102.033049
3371.000000	102.034377
3370.000000	102.034877
3369.000000	102.034704
3368.000000	102.034475
3367.000000	102.034683
3366.000000	102.035407
3365.000000	102.036448
3364.000000	102.037651
3363.000000	102.039101
3362.000000	102.040996
3361.000000	102.043245
3360.000000	102.045254
3359.000000	102.046326
3358.000000	102.046337
3357.000000	102.045864
3356.000000	102.045683
3355.000000	102.046091
3354.000000	102.046854
3353.000000	102.047608
3352.000000	102.048203
3351.000000	102.048774
3350.000000	102.049607
3349.000000	102.050872
3348.000000	102.052409
3347.000000	102.053771
3346.000000	102.054632
3345.000000	102.055061
3344.000000	102.055451
3343.000000	102.056162
3342.000000	102.057203
3341.000000	102.058326
3340.000000	102.059276
3339.000000	102.059961
3338.000000	102.060455
3337.000000	102.060962
3336.000000	102.061699
3335.000000	102.062740
3334.000000	102.063983
3333.000000	102.065305
3332.000000	102.066683
3331.000000	102.068126
3330.000000	102.069547
3329.000000	102.070798
3328.000000	102.071818
3327.000000	102.072696
3326.000000	102.073604
3325.000000	102.074645
3324.000000	102.075798
3323.000000	102.076976
3322.000000	102.078113
3321.000000	102.079203
3320.000000	102.080265
3319.000000	102.081301
3318.000000	102.082296
3317.000000	102.083264
3316.000000	102.084261
3315.000000	102.085337
3314.000000	102.086489
3313.000000	102.087664
3312.000000	102.088806
3311.000000	102.089889
3310.000000	102.090924
3309.000000	102.091937
3308.000000	102.092956
3307.000000	102.094008
3306.000000	102.095109
3305.000000	102.096259
3304.000000	102.097431
3303.000000	102.098563
3302.000000	102.099598
3301.000000	102.100529
3300.000000	102.101403
3299.000000	102.102291
3298.000000	102.103247
3297.000000	102.104282
3296.000000	102.105370
3295.000000	102.106466
3294.000000	102.107524
3293.000000	102.108519
3292.000000	102.109443
3291.000000	102.110300
3290.000000	102.111109
3289.000000	102.111898
3288.000000	102.112691
3287.000000	102.113500
3286.000000	102.114308
3285.000000	102.115091
3284.000000	102.115833
3283.000000	102.116545
3282.000000	102.117265
3281.000000	102.118031
3280.000000	102.118847
3279.000000	102.119681
3278.000000	102.120490
3277.000000	102.121273
3276.000000	102.122054
3275.000000	102.122842
3274.000000	102.123602
3273.000000	102.124301
3272.000000	102.124951
3271.000000	102.125618
3270.000000	102.126353
3269.000000	102.127164
3268.000000	102.128010
3267.000000	102.128831
3266.000000	102.129571
3265.000000	102.130206
3264.000000	102.130777
3263.000000	102.131362
3262.000000	102.132008
3261.000000	102.132706
3260.000000	102.133441
3259.000000	102.134226
3258.000000	102.135066
3257.000000	102.135910
3256.000000	102.136685
3255.000000	102.137365
3254.000000	102.137993
3253.000000	102.138631
3252.000000	102.139299
3251.000000	102.140005
3250.000000	102.140788
3249.000000	102.141704
3248.000000	102.142765
3247.000000	102.143916
3246.000000	102.145055
3245.000000	102.146077
3244.000000	102.146933
3243.000000	102.147652
3242.000000	102.148307
3241.000000	102.148963
3240.000000	102.149675
3239.000000	102.150496
3238.000000	102.151463
3237.000000	102.152533
3236.000000	102.153599
3235.000000	102.154584
3234.000000	102.155508
3233.000000	102.156445
3232.000000	102.157445
3231.000000	102.158498
3230.000000	102.159565
3229.000000	102.160624
3228.000000	102.161669
3227.000000	102.162703
3226.000000	102.163735
3225.000000	102.164775
3224.000000	102.165838
3223.000000	102.166937
3222.000000	102.168070
3221.000000	102.169220
3220.000000	102.170368
3219.000000	102.171500
3218.000000	102.172614
3217.000000	102.173709
3216.000000	102.174782
3215.000000	102.175827
3214.000000	102.176846
3213.000000	102.177843
3212.000000	102.178823
3211.000000	102.179794
3210.000000	102.180763
3209.000000	102.181733
3208.000000	102.182704
3207.000000	102.183671
3206.000000	102.184626
3205.000000	102.185565
3204.000000	102.186495
3203.000000	102.187429
3202.000000	102.188382
3201.000000	102.189360
3200.000000	102.190355
3199.000000	102.191352
3198.000000	102.192334
3197.000000	102.193297
3196.000000	102.194246
3195.000000	102.195190
3194.000000	102.196133
3193.000000	102.197072
3192.000000	102.198004
3191.000000	102.198929
3190.000000	102.199849
3189.000000	102.200765
3188.000000	102.201682
3187.000000	102.202599
3186.000000	102.203497
3185.000000	102.204355
3184.000000	102.205186
3183.000000	102.206051
3182.000000	102.207000
3181.000000	102.207991
3180.000000	102.208872
3179.000000	102.209503
3178.000000	102.209854
3177.000000	102.210051
3176.000000	102.210302
3175.000000	102.210761
3174.000000	102.211459
3173.000000	102.212333
3172.000000	102.213332
3171.000000	102.214436
3170.000000	102.215591
3169.000000	102.216726
3168.000000	102.217844
3167.000000	102.218990
3166.000000	102.220074
3165.000000	102.220856
3164.000000	102.221206
3163.000000	102.221342
3162.000000	102.221711
3161.000000	102.222580
3160.000000	102.223847
3159.000000	102.225180
3158.000000	102.226280
3157.000000	102.227091
3156.000000	102.227846
3155.000000	102.228902
3154.000000	102.230366
3153.000000	102.231836
3152.000000	102.232667
3151.000000	102.232630
3150.000000	102.232225
3149.000000	102.232246
3148.000000	102.232940
3147.000000	102.233780
3146.000000	102.234121
3145.000000	102.234018
3144.000000	102.234211
3143.000000	102.235300
3142.000000	102.237153
3141.000000	102.239203
3140.000000	102.241076
3139.000000	102.242792
3138.000000	102.244454
3137.000000	102.245955
3136.000000	102.247089
3135.000000	102.247849
3134.000000	102.248499
3133.000000	102.249377
3132.000000	102.250630
3131.000000	102.252107
3130.000000	102.253496
3129.000000	102.254622
3128.000000	102.255647
3127.000000	102.256899
3126.000000	102.258461
3125.000000	102.260017
3124.000000	102.261205
3123.000000	102.262054
3122.000000	102.262965
3121.000000	102.264242
3120.000000	102.265755
3119.000000	102.267095
3118.000000	102.268016
3117.000000	102.268680
3116.000000	102.269496
3115.000000	102.270762
3114.000000	102.272464
3113.000000	102.274378
3112.000000	102.276302
3111.000000	102.278116
3110.000000	102.279639
3109.000000	102.280555
3108.000000	102.280667
3107.000000	102.280187
3106.000000	102.279773
3105.000000	102.280154
3104.000000	102.281642
3103.000000	102.283942
3102.000000	102.286230
3101.000000	102.287776
3100.000000	102.288522
3099.000000	102.289018
3098.000000	102.289730
3097.000000	102.290426
3096.000000	102.290503
3095.000000	102.289804
3094.000000	102.288909
3093.000000	102.288582
3092.000000	102.289097
3091.000000	102.290200
3090.000000	102.291464
3089.000000	102.292539
3088.000000	102.293247
3087.000000	102.293741
3086.000000	102.294531
3085.000000	102.296044
3084.000000	102.298107
3083.000000	102.300053
3082.000000	102.301409
3081.000000	102.302266
3080.000000	102.302885
3079.000000	102.303279
3078.000000	102.303388
3077.000000	102.303460
3076.000000	102.303868
3075.000000	102.304601
3074.000000	102.305317
3073.000000	102.305924
3072.000000	102.306786
3071.000000	102.308157
3070.000000	102.309683
3069.000000	102.310648
3068.000000	102.310606
3067.000000	102.309681
3066.000000	102.308487
3065.000000	102.307865
3064.000000	102.308469
3063.000000	102.310429
3062.000000	102.313411
3061.000000	102.317013
3060.000000	102.320945
3059.000000	102.324651
3058.000000	102.327119
3057.000000	102.327588
3056.000000	102.326312
3055.000000	102.324378
3054.000000	102.322752
3053.000000	102.321678
3052.000000	102.321082
3051.000000	102.321086
3050.000000	102.321942
3049.000000	102.323712
3048.000000	102.326282
3047.000000	102.329504
3046.000000	102.333014
3045.000000	102.335973
3044.000000	102.337398
3043.000000	102.337004
3042.000000	102.335596
3041.000000	102.334444
3040.000000	102.334200
3039.000000	102.334648
3038.000000	102.335481
3037.000000	102.336991
3036.000000	102.339725
3035.000000	102.343658
3034.000000	102.348065
3033.000000	102.352224
3032.000000	102.355846
3031.000000	102.358790
3030.000000	102.360829
3029.000000	102.362016
3028.000000	102.362939
3027.000000	102.364231
3026.000000	102.365969
3025.000000	102.367901
3024.000000	102.370075
3023.000000	102.372761
3022.000000	102.375737
3021.000000	102.378130
3020.000000	102.379098
3019.000000	102.378451
3018.000000	102.376762
3017.000000	102.375408
3016.000000	102.376305
3015.000000	102.380687
3014.000000	102.387761
3013.000000	102.395028
3012.000000	102.400364
3011.000000	102.403355
3010.000000	102.404422
3009.000000	102.403603
3008.000000	102.401157
3007.000000	102.398967
3006.000000	102.400104
3005.000000	102.406469
3004.000000	102.417086
3003.000000	102.428895
3002.000000	102.439167
3001.000000	102.447134
3000.000000	102.453681
2999.000000	102.459864
2998.000000	102.465662
2997.000000	102.469959
2996.000000	102.471686
2995.000000	102.471133
2994.000000	102.470223
2993.000000	102.471405
2992.000000	102.476073
2991.000000	102.483765
2990.000000	102.492671
2989.000000	102.500790
2988.000000	102.506778
2987.000000	102.510178
2986.000000	102.511445
2985.000000	102.511956
2984.000000	102.513603
2983.000000	102.517623
2982.000000	102.523434
2981.000000	102.528930
2980.000000	102.532399
2979.000000	102.534247
2978.000000	102.536593
2977.000000	102.540851
2976.000000	102.545567
2975.000000	102.546766
2974.000000	102.540785
2973.000000	102.527164
2972.000000	102.509354
2971.000000	102.492321
2970.000000	102.478693
2969.000000	102.466868
2968.000000	102.453162
2967.000000	102.436114
2966.000000	102.418508
2965.000000	102.404635
2964.000000	102.395665
2963.000000	102.388424
2962.000000	102.378774
2961.000000	102.365535
2960.000000	102.350920
2959.000000	102.338206
2958.000000	102.329602
2957.000000	102.325411
2956.000000	102.323891
2955.000000	102.322292
2954.000000	102.319350
2953.000000	102.316664
2952.000000	102.316331
2951.000000	102.317314
2950.000000	102.316002
2949.000000	102.311125
2948.000000	102.306141
2947.000000	102.304978
2946.000000	102.306364
2945.000000	102.304825
2944.000000	102.297382
2943.000000	102.287121
2942.000000	102.279059
2941.000000	102.273674
2940.000000	102.266060
2939.000000	102.251241
2938.000000	102.229400
2937.000000	102.205731
2936.000000	102.185552
2935.000000	102.169746
2934.000000	102.155036
2933.000000	102.138492
2932.000000	102.121351
2931.000000	102.107795
2930.000000	102.100266
2929.000000	102.096930
2928.000000	102.093741
2927.000000	102.088035
2926.000000	102.079681
2925.000000	102.070188
2924.000000	102.062370
2923.000000	102.060595
2922.000000	102.069352
2921.000000	102.089948
2920.000000	102.118479
2919.000000	102.147585
2918.000000	102.171215
2917.000000	102.188411
2916.000000	102.202833
2915.000000	102.218674
2914.000000	102.236803
2913.000000	102.254704
2912.000000	102.269527
2911.000000	102.280605
2910.000000	102.289305
2909.000000	102.297752
2908.000000	102.308101
2907.000000	102.321620
2906.000000	102.337048
2905.000000	102.350539
2904.000000	102.359006
2903.000000	102.363657
2902.000000	102.368893
2901.000000	102.377174
2900.000000	102.386701
2899.000000	102.394105
2898.000000	102.398491
2897.000000	102.401699
2896.000000	102.405719
2895.000000	102.411159
2894.000000	102.417650
2893.000000	102.424306
2892.000000	102.429802
2891.000000	102.433151
2890.000000	102.434786
2889.000000	102.436355
2888.000000	102.439301
2887.000000	102.443906
2886.000000	102.449327
2885.000000	102.453960
2884.000000	102.456298
2883.000000	102.456351
2882.000000	102.455923
2881.000000	102.456471
2880.000000	102.457050
2879.000000	102.455661
2878.000000	102.452415
2877.000000	102.449532
2876.000000	102.447859
2875.000000	102.445372
2874.000000	102.440214
2873.000000	102.433683
2872.000000	102.428776
2871.000000	102.426671
2870.000000	102.426009
2869.000000	102.424923
2868.000000	102.422320
2867.000000	102.417554
2866.000000	102.410333
2865.000000	102.401037
2864.000000	102.390249
2863.000000	102.378167
2862.000000	102.365291
2861.000000	102.352994
2860.000000	102.341963
2859.000000	102.330600
2858.000000	102.316841
2857.000000	102.301568
2856.000000	102.288401
2855.000000	102.279787
2854.000000	102.275213
2853.000000	102.273972
2852.000000	102.277707
2851.000000	102.288414
2850.000000	102.304773
2849.000000	102.322155
2848.000000	102.336562
2847.000000	102.347673
2846.000000	102.357838
2845.000000	102.368956
2844.000000	102.380627
2843.000000	102.390835
2842.000000	102.398090
2841.000000	102.403057
2840.000000	102.408150
2839.000000	102.415377
2838.000000	102.424548
2837.000000	102.433550
2836.000000	102.440197
2835.000000	102.443867
2834.000000	102.445870
2833.000000	102.448538
2832.000000	102.453450
2831.000000	102.459968
2830.000000	102.465632
2829.000000	102.468430
2828.000000	102.468614
2827.000000	102.467922
2826.000000	102.467184
2825.000000	102.465416
2824.000000	102.461809
2823.000000	102.458171
2822.000000	102.458314
2821.000000	102.464325
2820.000000	102.473768
2819.000000	102.481448
2818.000000	102.484196
2817.000000	102.483260
2816.000000	102.481908
2815.000000	102.481730
2814.000000	102.482098
2813.000000	102.482362
2812.000000	102.483015
2811.000000	102.484718
2810.000000	102.487401
2809.000000	102.490616
2808.000000	102.493866
2807.000000	102.496321
2806.000000	102.497010
2805.000000	102.495820
2804.000000	102.494051
2803.000000	102.493571
2802.000000	102.495306
2801.000000	102.498776
2800.000000	102.502707
2799.000000	102.505874
2798.000000	102.507646
2797.000000	102.508056
2796.000000	102.507553
2795.000000	102.506647
2794.000000	102.505719
2793.000000	102.505086
2792.000000	102.505051
2791.000000	102.505726
2790.000000	102.506916
2789.000000	102.508304
2788.000000	102.509663
2787.000000	102.510883
2786.000000	102.511892
2785.000000	102.512656
2784.000000	102.513239
2783.000000	102.513797
2782.000000	102.514471
2781.000000	102.515292
2780.000000	102.516172
2779.000000	102.516998
2778.000000	102.517723
2777.000000	102.518395
2776.000000	102.519069
2775.000000	102.519757
2774.000000	102.520447
2773.000000	102.521130
2772.000000	102.521810
2771.000000	102.522491
2770.000000	102.523177
2769.000000	102.523870
2768.000000	102.524574
2767.000000	102.525286
2766.000000	102.525999
2765.000000	102.526703
2764.000000	102.527395
2763.000000	102.528080
2762.000000	102.528767
2761.000000	102.529463
2760.000000	102.530167
2759.000000	102.530876
2758.000000	102.531584
2757.000000	102.532290
2756.000000	102.532993
2755.000000	102.533694
2754.000000	102.534391
2753.000000	102.535076
2752.000000	102.535747
2751.000000	102.536401
2750.000000	102.537040
2749.000000	102.537666
2748.000000	102.538273
2747.000000	102.538849
2746.000000	102.539388
2745.000000	102.539888
2744.000000	102.540363
2743.000000	102.540829
2742.000000	102.541298
2741.000000	102.541772
2740.000000	102.542241
2739.000000	102.542690
2738.000000	102.543105
2737.000000	102.543486
2736.000000	102.543838
2735.000000	102.544172
2734.000000	102.544493
2733.000000	102.544801
2732.000000	102.545097
2731.000000	102.545385
2730.000000	102.545668
2729.000000	102.545946
2728.000000	102.546215
2727.000000	102.546467
2726.000000	102.546701
2725.000000	102.546920
2724.000000	102.547114
2723.000000	102.547266
2722.000000	102.547371
2721.000000	102.547459
2720.000000	102.547552
2719.000000	102.547656
2718.000000	102.547779
2717.000000	102.547943
2716.000000	102.548144
2715.000000	102.548328
2714.000000	102.548427
2713.000000	102.548435
2712.000000	102.548404
2711.000000	102.548367
2710.000000	102.548296
2709.000000	102.548176
2708.000000	102.548061
2707.000000	102.548011
2706.000000	102.548005
2705.000000	102.548004
2704.000000	102.548107
2703.000000	102.548463
2702.000000	102.548980
2701.000000	102.549294
2700.000000	102.549150
2699.000000	102.548694
2698.000000	102.548307
2697.000000	102.548158
2696.000000	102.548147
2695.000000	102.548244
2694.000000	102.548623
2693.000000	102.549349
2692.000000	102.550152
2691.000000	102.550678
2690.000000	102.550865
2689.000000	102.550958
2688.000000	102.551130
2687.000000	102.551247
2686.000000	102.551112
2685.000000	102.550786
2684.000000	102.550561
2683.000000	102.550626
2682.000000	102.550907
2681.000000	102.551191
2680.000000	102.551329
2679.000000	102.551348
2678.000000	102.551351
2677.000000	102.551386
2676.000000	102.551416
2675.000000	102.551400
2674.000000	102.551341
2673.000000	102.551273
2672.000000	102.551228
2671.000000	102.551218
2670.000000	102.551236
2669.000000	102.551261
2668.000000	102.551278
2667.000000	102.551297
2666.000000	102.551346
2665.000000	102.551442
2664.000000	102.551567
2663.000000	102.551692
2662.000000	102.551805
2661.000000	102.551908
2660.000000	102.552002
2659.000000	102.552077
2658.000000	102.552131
2657.000000	102.552171
2656.000000	102.552207
2655.000000	102.552247
2654.000000	102.552293
2653.000000	102.552342
2652.000000	102.552386
2651.000000	102.552412
2650.000000	102.552418
2649.000000	102.552410
2648.000000	102.552399
2647.000000	102.552390
2646.000000	102.552377
2645.000000	102.552359
2644.000000	102.552341
2643.000000	102.552335
2642.000000	102.552349
2641.000000	102.552390
2640.000000	102.552460
2639.000000	102.552546
2638.000000	102.552639
2637.000000	102.552739
2636.000000	102.552848
2635.000000	102.552956
2634.000000	102.553048
2633.000000	102.553134
2632.000000	102.553255
2631.000000	102.553443
2630.000000	102.553696
2629.000000	102.553989
2628.000000	102.554294
2627.000000	102.554573
2626.000000	102.554779
2625.000000	102.554887
2624.000000	102.554908
2623.000000	102.554881
2622.000000	102.554858
2621.000000	102.554903
2620.000000	102.555059
2619.000000	102.555301
2618.000000	102.555525
2617.000000	102.555631
2616.000000	102.555613
2615.000000	102.555548
2614.000000	102.555530
2613.000000	102.555595
2612.000000	102.555752
2611.000000	102.555999
2610.000000	102.556284
2609.000000	102.556523
2608.000000	102.556671
2607.000000	102.556764
2606.000000	102.556895
2605.000000	102.557152
2604.000000	102.557558
2603.000000	102.558027
2602.000000	102.558391
2601.000000	102.558522
2600.000000	102.558445
2599.000000	102.558297
2598.000000	102.558216
2597.000000	102.558226
2596.000000	102.558232
2595.000000	102.558124
2594.000000	102.557917
2593.000000	102.557782
2592.000000	102.557880
2591.000000	102.558170
2590.000000	102.558429
2589.000000	102.558490
2588.000000	102.558404
2587.000000	102.558342
2586.000000	102.558373
2585.000000	102.558409
2584.000000	102.558368
2583.000000	102.558294
2582.000000	102.558297
2581.000000	102.558425
2580.000000	102.558615
2579.000000	102.558766
2578.000000	102.558834
2577.000000	102.558852
2576.000000	102.558873
2575.000000	102.558913
2574.000000	102.558957
2573.000000	102.559006
2572.000000	102.559082
2571.000000	102.559204
2570.000000	102.559373
2569.000000	102.559582
2568.000000	102.559817
2567.000000	102.560048
2566.000000	102.560240
2565.000000	102.560397
2564.000000	102.560548
2563.000000	102.560727
2562.000000	102.560941
2561.000000	102.561180
2560.000000	102.561428
2559.000000	102.561672
2558.000000	102.561899
2557.000000	102.562107
2556.000000	102.562300
2555.000000	102.562485
2554.000000	102.562668
2553.000000	102.562853
2552.000000	102.563036
2551.000000	102.563210
2550.000000	102.563366
2549.000000	102.563501
2548.000000	102.563623
2547.000000	102.563746
2546.000000	102.563886
2545.000000	102.564045
2544.000000	102.564211
2543.000000	102.564369
2542.000000	102.564505
2541.000000	102.564618
2540.000000	102.564732
2539.000000	102.564881
2538.000000	102.565086
2537.000000	102.565343
2536.000000	102.565624
2535.000000	102.565903
2534.000000	102.566162
2533.000000	102.566411
2532.000000	102.566674
2531.000000	102.566956
2530.000000	102.567209
2529.000000	102.567368
2528.000000	102.567436
2527.000000	102.567506
2526.000000	102.567670
2525.000000	102.567914
2524.000000	102.568144
2523.000000	102.568321
2522.000000	102.568536
2521.000000	102.568899
2520.000000	102.569379
2519.000000	102.569755
2518.000000	102.569782
2517.000000	102.569408
2516.000000	102.568823
2515.000000	102.568334
2514.000000	102.568153
2513.000000	102.568302
2512.000000	102.568648
2511.000000	102.568988
2510.000000	102.569165
2509.000000	102.569234
2508.000000	102.569461
2507.000000	102.570086
2506.000000	102.571061
2505.000000	102.572061
2504.000000	102.572735
2503.000000	102.572930
2502.000000	102.572769
2501.000000	102.572579
2500.000000	102.572706
2499.000000	102.573303
2498.000000	102.574293
2497.000000	102.575501
2496.000000	102.576709
2495.000000	102.577599
2494.000000	102.577852
2493.000000	102.577449
2492.000000	102.576818
2491.000000	102.576492
2490.000000	102.576603
2489.000000	102.576870
2488.000000	102.576989
2487.000000	102.576925
2486.000000	102.576872
2485.000000	102.577013
2484.000000	102.577343
2483.000000	102.577642
2482.000000	102.577662
2481.000000	102.577426
2480.000000	102.577301
2479.000000	102.577642
2478.000000	102.578423
2477.000000	102.579261
2476.000000	102.579796
2475.000000	102.579977
2474.000000	102.579955
2473.000000	102.579884
2472.000000	102.579879
2471.000000	102.580049
2470.000000	102.580437
2469.000000	102.580926
2468.000000	102.581316
2467.000000	102.581486
2466.000000	102.581451
2465.000000	102.581279
2464.000000	102.581051
2463.000000	102.580910
2462.000000	102.581048
2461.000000	102.581558
2460.000000	102.582351
2459.000000	102.583242
2458.000000	102.584092
2457.000000	102.584795
2456.000000	102.585240
2455.000000	102.585377
2454.000000	102.585303
2453.000000	102.585215
2452.000000	102.585245
2451.000000	102.585396
2450.000000	102.585624
2449.000000	102.585915
2448.000000	102.586256
2447.000000	102.586617
2446.000000	102.586997
2445.000000	102.587452
2444.000000	102.588002
2443.000000	102.588533
2442.000000	102.588901
2441.000000	102.589121
2440.000000	102.589384
2439.000000	102.589811
2438.000000	102.590289
2437.000000	102.590615
2436.000000	102.590738
2435.000000	102.590808
2434.000000	102.591013
2433.000000	102.591435
2432.000000	102.592033
2431.000000	102.592684
2430.000000	102.593243
2429.000000	102.593627
2428.000000	102.593877
2427.000000	102.594149
2426.000000	102.594569
2425.000000	102.595133
2424.000000	102.595736
2423.000000	102.596282
2422.000000	102.596762
2421.000000	102.597247
2420.000000	102.597830
2419.000000	102.598554
2418.000000	102.599358
2417.000000	102.600091
2416.000000	102.600624
2415.000000	102.600939
2414.000000	102.601079
2413.000000	102.601094
2412.000000	102.601087
2411.000000	102.601253
2410.000000	102.601775
2409.000000	102.602676
2408.000000	102.603761
2407.000000	102.604740
2406.000000	102.605385
2405.000000	102.605641
2404.000000	102.605665
2403.000000	102.605702
2402.000000	102.605858
2401.000000	102.606102
2400.000000	102.606511
2399.000000	102.607348
2398.000000	102.608736
2397.000000	102.610338
2396.000000	102.611612
2395.000000	102.612378
2394.000000	102.612883
2393.000000	102.613335
2392.000000	102.613621
2391.000000	102.613630
2390.000000	102.613612
2389.000000	102.613919
2388.000000	102.614491
2387.000000	102.614874
2386.000000	102.614795
2385.000000	102.614512
2384.000000	102.614521
2383.000000	102.615044
2382.000000	102.615955
2381.000000	102.617069
2380.000000	102.618326
2379.000000	102.619671
2378.000000	102.620932
2377.000000	102.621894
2376.000000	102.622421
2375.000000	102.622467
2374.000000	102.622034
2373.000000	102.621282
2372.000000	102.620618
2371.000000	102.620491
2370.000000	102.621028
2369.000000	102.621938
2368.000000	102.622779
2367.000000	102.623365
2366.000000	102.623786
2365.000000	102.624112
2364.000000	102.624282
2363.000000	102.624347
2362.000000	102.624567
2361.000000	102.625109
2360.000000	102.625791
2359.000000	102.626139
2358.000000	102.625935
2357.000000	102.625422
2356.000000	102.625018
2355.000000	102.624929
2354.000000	102.625008
2353.000000	102.625119
2352.000000	102.625210
2351.000000	102.625238
2350.000000	102.625193
2349.000000	102.625080
2348.000000	102.624996
2347.000000	102.624941
2346.000000	102.624823
2345.000000	102.624699
2344.000000	102.624711
2343.000000	102.624983
2342.000000	102.625193
2341.000000	102.625015
2340.000000	102.624444
2339.000000	102.623754
2338.000000	102.623159
2337.000000	102.622610
2336.000000	102.622096
2335.000000	102.621645
2334.000000	102.621300
2333.000000	102.620955
2332.000000	102.620650
2331.000000	102.620422
2330.000000	102.620432
2329.000000	102.620353
2328.000000	102.619917
2327.000000	102.618892
2326.000000	102.617520
2325.000000	102.616179
2324.000000	102.615099
2323.000000	102.614370
2322.000000	102.614015
2321.000000	102.614149
2320.000000	102.614663
2319.000000	102.615100
2318.000000	102.615146
2317.000000	102.614794
2316.000000	102.614377
2315.000000	102.613800
2314.000000	102.613007
2313.000000	102.611933
2312.000000	102.610902
2311.000000	102.609870
2310.000000	102.608878
2309.000000	102.608073
2308.000000	102.607884
2307.000000	102.608158
2306.000000	102.608303
2305.000000	102.607769
2304.000000	102.606779
2303.000000	102.605832
2302.000000	102.605292
2301.000000	102.605107
2300.000000	102.605198
2299.000000	102.605191
2298.000000	102.604598
2297.000000	102.603115
2296.000000	102.601176
2295.000000	102.599467
2294.000000	102.598280
2293.000000	102.597320
2292.000000	102.596334
2291.000000	102.595376
2290.000000	102.594595
2289.000000	102.594025
2288.000000	102.593703
2287.000000	102.593716
2286.000000	102.593969
2285.000000	102.594153
2284.000000	102.593972
2283.000000	102.593373
2282.000000	102.592426
2281.000000	102.591262
2280.000000	102.590049
2279.000000	102.588911
2278.000000	102.587838
2277.000000	102.586830
2276.000000	102.586056
2275.000000	102.585617
2274.000000	102.585216
2273.000000	102.584344
2272.000000	102.582872
2271.000000	102.581242
2270.000000	102.579986
2269.000000	102.579224
2268.000000	102.578727
2267.000000	102.578252
2266.000000	102.577673
2265.000000	102.576977
2264.000000	102.576373
2263.000000	102.576190
2262.000000	102.576436
2261.000000	102.576568
2260.000000	102.575979
2259.000000	102.574701
2258.000000	102.573460
2257.000000	102.572947
2256.000000	102.573130
2255.000000	102.573406
2254.000000	102.573312
2253.000000	102.572959
2252.000000	102.572685
2251.000000	102.572476
2250.000000	102.572008
2249.000000	102.571131
2248.000000	102.570125
2247.000000	102.569388
2246.000000	102.569082
2245.000000	102.569134
2244.000000	102.569404
2243.000000	102.569750
2242.000000	102.570064
2241.000000	102.570315
2240.000000	102.570491
2239.000000	102.570509
2238.000000	102.570320
2237.000000	102.570072
2236.000000	102.570020
2235.000000	102.570234
2234.000000	102.570595
2233.000000	102.571033
2232.000000	102.571553
2231.000000	102.571941
2230.000000	102.571809
2229.000000	102.571102
2228.000000	102.570297
2227.000000	102.569915
2226.000000	102.569952
2225.000000	102.570021
2224.000000	102.569830
2223.000000	102.569401
2222.000000	102.568905
2221.000000	102.568493
2220.000000	102.568292
2219.000000	102.568378
2218.000000	102.568685
2217.000000	102.568994
2216.000000	102.569109
2215.000000	102.569001
2214.000000	102.568768
2213.000000	102.568525
2212.000000	102.568327
2211.000000	102.568147
2210.000000	102.567933
2209.000000	102.567715
2208.000000	102.567595
2207.000000	102.567596
2206.000000	102.567584
2205.000000	102.567420
2204.000000	102.567119
2203.000000	102.566797
2202.000000	102.566533
2201.000000	102.566327
2200.000000	102.566181
2199.000000	102.566113
2198.000000	102.566093
2197.000000	102.566026
2196.000000	102.565863
2195.000000	102.565657
2194.000000	102.565486
2193.000000	102.565367
2192.000000	102.565298
2191.000000	102.565300
2190.000000	102.565378
2189.000000	102.565467
2188.000000	102.565485
2187.000000	102.565417
2186.000000	102.565320
2185.000000	102.565264
2184.000000	102.565281
2183.000000	102.565361
2182.000000	102.565475
2181.000000	102.565601
2180.000000	102.565731
2179.000000	102.565879
2178.000000	102.566079
2177.000000	102.566356
2176.000000	102.566689
2175.000000	102.567011
2174.000000	102.567253
2173.000000	102.567395
2172.000000	102.567480
2171.000000	102.567576
2170.000000	102.567727
2169.000000	102.567933
2168.000000	102.568166
2167.000000	102.568400
2166.000000	102.568620
2165.000000	102.568837
2164.000000	102.569085
2163.000000	102.569401
2162.000000	102.569791
2161.000000	102.570230
2160.000000	102.570684
2159.000000	102.571106
2158.000000	102.571435
2157.000000	102.571636
2156.000000	102.571775
2155.000000	102.571977
2154.000000	102.572292
2153.000000	102.572659
2152.000000	102.573003
2151.000000	102.573275
2150.000000	102.573407
2149.000000	102.573375
2148.000000	102.573347
2147.000000	102.573593
2146.000000	102.574183
2145.000000	102.574879
2144.000000	102.575420
2143.000000	102.575809
2142.000000	102.576134
2141.000000	102.576304
2140.000000	102.576182
2139.000000	102.575895
2138.000000	102.575793
2137.000000	102.576091
2136.000000	102.576678
2135.000000	102.577221
2134.000000	102.577358
2133.000000	102.576962
2132.000000	102.576391
2131.000000	102.576335
2130.000000	102.577204
2129.000000	102.578762
2128.000000	102.580472
2127.000000	102.582029
2126.000000	102.583375
2125.000000	102.584409
2124.000000	102.585020
2123.000000	102.585238
2122.000000	102.585052
2121.000000	102.584210
2120.000000	102.582586
2119.000000	102.580668
2118.000000	102.579381
2117.000000	102.579285
2116.000000	102.580203
2115.000000	102.581555
2114.000000	102.582967
2113.000000	102.584496
2112.000000	102.586261
2111.000000	102.587986
2110.000000	102.589015
2109.000000	102.588899
2108.000000	102.587904
2107.000000	102.586842
2106.000000	102.586274
2105.000000	102.586073
2104.000000	102.585922
2103.000000	102.585990
2102.000000	102.586819
2101.000000	102.588581
2100.000000	102.590691
2099.000000	102.592234
2098.000000	102.592748
2097.000000	102.592612
2096.000000	102.592744
2095.000000	102.593768
2094.000000	102.595464
2093.000000	102.597104
2092.000000	102.598246
2091.000000	102.598883
2090.000000	102.598985
2089.000000	102.598466
2088.000000	102.597771
2087.000000	102.597828
2086.000000	102.598877
2085.000000	102.599877
2084.000000	102.599662
2083.000000	102.598396
2082.000000	102.597304
2081.000000	102.597127
2080.000000	102.597469
2079.000000	102.597652
2078.000000	102.597551
2077.000000	102.597366
2076.000000	102.597079
2075.000000	102.596551
2074.000000	102.595983
2073.000000	102.595976
2072.000000	102.597080
2071.000000	102.599387
2070.000000	102.602480
2069.000000	102.605716
2068.000000	102.608514
2067.000000	102.610373
2066.000000	102.610859
2065.000000	102.609919
2064.000000	102.608150
2063.000000	102.606425
2062.000000	102.605142
2061.000000	102.604089
2060.000000	102.603072
2059.000000	102.602238
2058.000000	102.601657
2057.000000	102.601043
2056.000000	102.600277
2055.000000	102.599861
2054.000000	102.600351
2053.000000	102.601394
2052.000000	102.601796
2051.000000	102.600780
2050.000000	102.598886
2049.000000	102.597382
2048.000000	102.596808
2047.000000	102.596402
2046.000000	102.595058
2045.000000	102.592572
2044.000000	102.589818
2043.000000	102.587817
2042.000000	102.586952
2041.000000	102.587033
2040.000000	102.587588
2039.000000	102.587864
2038.000000	102.587075
2037.000000	102.585154
2036.000000	102.583101
2035.000000	102.582078
2034.000000	102.582153
2033.000000	102.582361
2032.000000	102.581893
2031.000000	102.580794
2030.000000	102.579467
2029.000000	102.578051
2028.000000	102.576565
2027.000000	102.575235
2026.000000	102.574285
2025.000000	102.573571
2024.000000	102.572711
2023.000000	102.571519
2022.000000	102.570106
2021.000000	102.568631
2020.000000	102.567144
2019.000000	102.565644
2018.000000	102.564155
2017.000000	102.562721
2016.000000	102.561438
2015.000000	102.560494
2014.000000	102.560066
2013.000000	102.560072
2012.000000	102.560064
2011.000000	102.559495
2010.000000	102.558165
2009.000000	102.556438
2008.000000	102.554977
2007.000000	102.554092
2006.000000	102.553450
2005.000000	102.552547
2004.000000	102.551408
2003.000000	102.550600
2002.000000	102.550512
2001.000000	102.550973
2000.000000	102.551542
1999.000000	102.551866
1998.000000	102.551751
1997.000000	102.551102
1996.000000	102.549970
1995.000000	102.548636
1994.000000	102.547492
1993.000000	102.546800
1992.000000	102.546604
1991.000000	102.546752
1990.000000	102.547022
1989.000000	102.547246
1988.000000	102.547351
1987.000000	102.547375
1986.000000	102.547460
1985.000000	102.547730
1984.000000	102.548122
1983.000000	102.548355
1982.000000	102.548132
1981.000000	102.547426
1980.000000	102.546558
1979.000000	102.545975
1978.000000	102.546005
1977.000000	102.546687
1976.000000	102.547666
1975.000000	102.548316
1974.000000	102.548214
1973.000000	102.547523
1972.000000	102.546853
1971.000000	102.546713
1970.000000	102.547185
1969.000000	102.548018
1968.000000	102.548800
1967.000000	102.549125
1966.000000	102.548822
1965.000000	102.548084
1964.000000	102.547255
1963.000000	102.546505
1962.000000	102.545912
1961.000000	102.545821
1960.000000	102.546692
1959.000000	102.548402
1958.000000	102.550007
1957.000000	102.550594
1956.000000	102.550241
1955.000000	102.549913
1954.000000	102.550514
1953.000000	102.552155
1952.000000	102.554197
1951.000000	102.555714
1950.000000	102.555915
1949.000000	102.554596
1948.000000	102.552303
1947.000000	102.549652
1946.000000	102.546669
1945.000000	102.543235
1944.000000	102.540000
1943.000000	102.538206
1942.000000	102.538370
1941.000000	102.539681
1940.000000	102.541027
1939.000000	102.542016
1938.000000	102.542511
1937.000000	102.542122
1936.000000	102.540693
1935.000000	102.538822
1934.000000	102.537343
1933.000000	102.536394
1932.000000	102.535526
1931.000000	102.534566
1930.000000	102.533704
1929.000000	102.533175
1928.000000	102.533100
1927.000000	102.533173
1926.000000	102.532484
1925.000000	102.530136
1924.000000	102.526532
1923.000000	102.523584
1922.000000	102.522687
1921.000000	102.523030
1920.000000	102.522674
1919.000000	102.520441
1918.000000	102.516790
1917.000000	102.513469
1916.000000	102.511780
1915.000000	102.511218
1914.000000	102.510156
1913.000000	102.507633
1912.000000	102.504347
1911.000000	102.501491
1910.000000	102.498820
1909.000000	102.495321
1908.000000	102.491357
1907.000000	102.488358
1906.000000	102.486528
1905.000000	102.484373
1904.000000	102.481039
1903.000000	102.477345
1902.000000	102.473985
1901.000000	102.470677
1900.000000	102.467437
1899.000000	102.464987
1898.000000	102.463426
1897.000000	102.461725
1896.000000	102.459639
1895.000000	102.458457
1894.000000	102.458429
1893.000000	102.457422
1892.000000	102.453668
1891.000000	102.448310
1890.000000	102.444316
1889.000000	102.443270
1888.000000	102.443908
1887.000000	102.443998
1886.000000	102.442630
1885.000000	102.440437
1884.000000	102.438747
1883.000000	102.438308
1882.000000	102.438366
1881.000000	102.437802
1880.000000	102.436794
1879.000000	102.436389
1878.000000	102.436626
1877.000000	102.435961
1876.000000	102.433271
1875.000000	102.429760
1874.000000	102.427820
1873.000000	102.428595
1872.000000	102.431432
1871.000000	102.434836
1870.000000	102.437020
1869.000000	102.436941
1868.000000	102.436067
1867.000000	102.436533
1866.000000	102.437971
1865.000000	102.438732
1864.000000	102.438470
1863.000000	102.438455
1862.000000	102.439731
1861.000000	102.441798
1860.000000	102.443720
1859.000000	102.445823
1858.000000	102.449363
1857.000000	102.455060
1856.000000	102.462355
1855.000000	102.469390
1854.000000	102.473796
1853.000000	102.474487
1852.000000	102.472844
1851.000000	102.471448
1850.000000	102.472012
1849.000000	102.474712
1848.000000	102.479047
1847.000000	102.484620
1846.000000	102.490803
1845.000000	102.496012
1844.000000	102.498547
1843.000000	102.498433
1842.000000	102.496770
1841.000000	102.494855
1840.000000	102.493903
1839.000000	102.494470
1838.000000	102.496008
1837.000000	102.497244
1836.000000	102.497649
1835.000000	102.498059
1834.000000	102.499606
1833.000000	102.502446
1832.000000	102.505353
1831.000000	102.506442
1830.000000	102.504961
1829.000000	102.502305
1828.000000	102.500375
1827.000000	102.500229
1826.000000	102.501918
1825.000000	102.504194
1824.000000	102.505536
1823.000000	102.505769
1822.000000	102.505708
1821.000000	102.505692
1820.000000	102.505457
1819.000000	102.505290
1818.000000	102.505849
1817.000000	102.506753
1816.000000	102.506904
1815.000000	102.506220
1814.000000	102.505794
1813.000000	102.506302
1812.000000	102.507131
1811.000000	102.507534
1810.000000	102.507358
1809.000000	102.506674
1808.000000	102.506092
1807.000000	102.506408
1806.000000	102.507280
1805.000000	102.507272
1804.000000	102.505707
1803.000000	102.503820
1802.000000	102.503558
1801.000000	102.505448
1800.000000	102.508050
1799.000000	102.509842
1798.000000	102.510318
1797.000000	102.509666
1796.000000	102.508810
1795.000000	102.509019
1794.000000	102.510643
1793.000000	102.512211
1792.000000	102.512534
1791.000000	102.513404
1790.000000	102.515686
1789.000000	102.517661
1788.000000	102.518260
1787.000000	102.518116
1786.000000	102.518264
1785.000000	102.519132
1784.000000	102.520806
1783.000000	102.522987
1782.000000	102.524975
1781.000000	102.526323
1780.000000	102.527244
1779.000000	102.528919
1778.000000	102.532343
1777.000000	102.537416
1776.000000	102.542681
1775.000000	102.546294
1774.000000	102.547630
1773.000000	102.546930
1772.000000	102.544587
1771.000000	102.542385
1770.000000	102.541942
1769.000000	102.543557
1768.000000	102.547028
1767.000000	102.551784
1766.000000	102.556931
1765.000000	102.561805
1764.000000	102.566042
1763.000000	102.569117
1762.000000	102.570700
1761.000000	102.570872
1760.000000	102.569231
1759.000000	102.566439
1758.000000	102.564453
1757.000000	102.564665
1756.000000	102.565690
1755.000000	102.564947
1754.000000	102.562769
1753.000000	102.561781
1752.000000	102.562373
1751.000000	102.560809
1750.000000	102.554239
1749.000000	102.544634
1748.000000	102.536053
1747.000000	102.530598
1746.000000	102.528067
1745.000000	102.526979
1744.000000	102.525338
1743.000000	102.522785
1742.000000	102.521222
1741.000000	102.522272
1740.000000	102.524961
1739.000000	102.527127
1738.000000	102.527529
1737.000000	102.525911
1736.000000	102.523692
1735.000000	102.523197
1734.000000	102.525394
1733.000000	102.530308
1732.000000	102.534751
1731.000000	102.536315
1730.000000	102.536029
1729.000000	102.536218
1728.000000	102.537470
1727.000000	102.538701
1726.000000	102.539791
1725.000000	102.541521
1724.000000	102.543759
1723.000000	102.545585
1722.000000	102.546017
1721.000000	102.544363
1720.000000	102.540721
1719.000000	102.536796
1718.000000	102.535495
1717.000000	102.536858
1716.000000	102.538267
1715.000000	102.538678
1714.000000	102.537843
1713.000000	102.535594
1712.000000	102.532746
1711.000000	102.530160
1710.000000	102.528072
1709.000000	102.526454
1708.000000	102.525449
1707.000000	102.525411
1706.000000	102.525947
1705.000000	102.525647
1704.000000	102.523983
1703.000000	102.522073
1702.000000	102.521468
1701.000000	102.520641
1700.000000	102.516267
1699.000000	102.512682
1698.000000	102.511935
1697.000000	102.510854
1696.000000	102.507441
1695.000000	102.503867
1694.000000	102.502055
1693.000000	102.500904
1692.000000	102.499416
1691.000000	102.497236
1690.000000	102.494003
1689.000000	102.489720
1688.000000	102.485103
1687.000000	102.481361
1686.000000	102.479498
1685.000000	102.477098
1684.000000	102.470936
1683.000000	102.465440
1682.000000	102.462004
1681.000000	102.459333
1680.000000	102.457234
1679.000000	102.455718
1678.000000	102.454592
1677.000000	102.453928
1676.000000	102.453295
1675.000000	102.451475
1674.000000	102.448805
1673.000000	102.446660
1672.000000	102.445374
1671.000000	102.444099
1670.000000	102.441152
1669.000000	102.437000
1668.000000	102.433970
1667.000000	102.432435
1666.000000	102.431819
1665.000000	102.431572
1664.000000	102.430727
1663.000000	102.428122
1662.000000	102.424226
1661.000000	102.421157
1660.000000	102.419391
1659.000000	102.417135
1658.000000	102.412932
1657.000000	102.407454
1656.000000	102.403126
1655.000000	102.402207
1654.000000	102.403598
1653.000000	102.402825
1652.000000	102.404830
1651.000000	102.409110
1650.000000	102.412174
1649.000000	102.411974
1648.000000	102.410189
1647.000000	102.409893
1646.000000	102.411977
1645.000000	102.413019
1644.000000	102.411444
1643.000000	102.409480
1642.000000	102.408753
1641.000000	102.409165
1640.000000	102.409894
1639.000000	102.410322
1638.000000	102.410200
1637.000000	102.409128
1636.000000	102.406858
1635.000000	102.405076
1634.000000	102.405523
1633.000000	102.406716
1632.000000	102.407597
1631.000000	102.407783
1630.000000	102.407183
1629.000000	102.406810
1628.000000	102.408877
1627.000000	102.413662
1626.000000	102.418472
1625.000000	102.421391
1624.000000	102.423044
1623.000000	102.424804
1622.000000	102.427030
1621.000000	102.429410
1620.000000	102.431587
1619.000000	102.433341
1618.000000	102.434406
1617.000000	102.435187
1616.000000	102.438750
1615.000000	102.445462
1614.000000	102.451343
1613.000000	102.454952
1612.000000	102.457965
1611.000000	102.461129
1610.000000	102.462875
1609.000000	102.463269
1608.000000	102.464808
1607.000000	102.467983
1606.000000	102.470899
1605.000000	102.473996
1604.000000	102.480096
1603.000000	102.489539
1602.000000	102.498507
1601.000000	102.503538
1600.000000	102.505249
1599.000000	102.506334
1598.000000	102.508162
1597.000000	102.510010
1596.000000	102.510673
1595.000000	102.509979
1594.000000	102.508998
1593.000000	102.509715
1592.000000	102.513448
1591.000000	102.519113
1590.000000	102.523897
1589.000000	102.526374
1588.000000	102.527425
1587.000000	102.527930
1586.000000	102.527601
1585.000000	102.526809
1584.000000	102.527038
1583.000000	102.528469
1582.000000	102.529824
1581.000000	102.530466
1580.000000	102.530678
1579.000000	102.530288
1578.000000	102.529075
1577.000000	102.527429
1576.000000	102.526029
1575.000000	102.525240
1574.000000	102.524224
1573.000000	102.522578
1572.000000	102.520763
1571.000000	102.519650
1570.000000	102.519547
1569.000000	102.521467
1568.000000	102.524903
1567.000000	102.526826
1566.000000	102.526532
1565.000000	102.525630
1564.000000	102.525092
1563.000000	102.523567
1562.000000	102.520199
1561.000000	102.517420
1560.000000	102.517669
1559.000000	102.517501
1558.000000	102.517472
1557.000000	102.518740
1556.000000	102.518797
1555.000000	102.517187
1554.000000	102.515136
1553.000000	102.514167
1552.000000	102.514185
1551.000000	102.514311
1550.000000	102.514340
1549.000000	102.514919
1548.000000	102.516343
1547.000000	102.518206
1546.000000	102.519791
1545.000000	102.520386
1544.000000	102.520267
1543.000000	102.520666
1542.000000	102.522160
1541.000000	102.522906
1540.000000	102.520707
1539.000000	102.517747
1538.000000	102.516434
1537.000000	102.516101
1536.000000	102.515708
1535.000000	102.515009
1534.000000	102.514378
1533.000000	102.514543
1532.000000	102.515781
1531.000000	102.517322
1530.000000	102.518489
1529.000000	102.518935
1528.000000	102.518814
1527.000000	102.519043
1526.000000	102.520599
1525.000000	102.523349
1524.000000	102.526556
1523.000000	102.529726
1522.000000	102.531816
1521.000000	102.531926
1520.000000	102.531505
1519.000000	102.532070
1518.000000	102.533679
1517.000000	102.535177
1516.000000	102.535620
1515.000000	102.535309
1514.000000	102.535306
1513.000000	102.536367
1512.000000	102.538027
1511.000000	102.539811
1510.000000	102.542001
1509.000000	102.544787
1508.000000	102.547216
1507.000000	102.548898
1506.000000	102.551963
1505.000000	102.555107
1504.000000	102.556838
1503.000000	102.558199
1502.000000	102.559691
1501.000000	102.561502
1500.000000	102.563085
1499.000000	102.563677
1498.000000	102.562899
1497.000000	102.559706
1496.000000	102.554496
1495.000000	102.551614
1494.000000	102.553722
1493.000000	102.559076
1492.000000	102.564337
1491.000000	102.566921
1490.000000	102.566492
1489.000000	102.564563
1488.000000	102.562774
1487.000000	102.562988
1486.000000	102.564512
1485.000000	102.564770
1484.000000	102.562996
1483.000000	102.560670
1482.000000	102.560065
1481.000000	102.561848
1480.000000	102.565214
1479.000000	102.569543
1478.000000	102.574053
1477.000000	102.576624
1476.000000	102.576250
1475.000000	102.575604
1474.000000	102.576384
1473.000000	102.574968
1472.000000	102.567358
1471.000000	102.556595
1470.000000	102.546769
1469.000000	102.538310
1468.000000	102.529981
1467.000000	102.521728
1466.000000	102.514817
1465.000000	102.510289
1464.000000	102.508462
1463.000000	102.508991
1462.000000	102.511082
1461.000000	102.513178
1460.000000	102.513533
1459.000000	102.511771
1458.000000	102.510346
1457.000000	102.511579
1456.000000	102.513136
1455.000000	102.511556
1454.000000	102.509315
1453.000000	102.509828
1452.000000	102.513641
1451.000000	102.518881
1450.000000	102.523149
1449.000000	102.524414
1448.000000	102.521549
1447.000000	102.515922
1446.000000	102.509717
1445.000000	102.503265
1444.000000	102.496112
1443.000000	102.489385
1442.000000	102.485023
1441.000000	102.483149
1440.000000	102.481928
1439.000000	102.480699
1438.000000	102.481498
1437.000000	102.484861
1436.000000	102.487414
1435.000000	102.486831
1434.000000	102.485396
1433.000000	102.485748
1432.000000	102.487807
1431.000000	102.489409
1430.000000	102.489885
1429.000000	102.490657
1428.000000	102.492043
1427.000000	102.493188
1426.000000	102.494445
1425.000000	102.497821
1424.000000	102.503626
1423.000000	102.509194
1422.000000	102.512768
1421.000000	102.515518
1420.000000	102.518240
1419.000000	102.519603
1418.000000	102.520660
1417.000000	102.522042
1416.000000	102.522394
1415.000000	102.522072
1414.000000	102.522861
1413.000000	102.526222
1412.000000	102.532271
1411.000000	102.539986
1410.000000	102.547981
1409.000000	102.554356
1408.000000	102.557436
1407.000000	102.557549
1406.000000	102.557051
1405.000000	102.558791
1404.000000	102.563326
1403.000000	102.568852
1402.000000	102.573898
1401.000000	102.577724
1400.000000	102.579679
1399.000000	102.580495
1398.000000	102.583394
1397.000000	102.590476
1396.000000	102.599839
1395.000000	102.606814
1394.000000	102.608465
1393.000000	102.606316
1392.000000	102.603435
1391.000000	102.602241
1390.000000	102.603540
1389.000000	102.605910
1388.000000	102.606576
1387.000000	102.604503
1386.000000	102.601898
1385.000000	102.601265
1384.000000	102.602739
1383.000000	102.604826
1382.000000	102.606255
1381.000000	102.606811
1380.000000	102.607019
1379.000000	102.607334
1378.000000	102.607986
1377.000000	102.609213
1376.000000	102.610913
1375.000000	102.612092
1374.000000	102.611505
1373.000000	102.608846
1372.000000	102.604711
1371.000000	102.600553
1370.000000	102.598073
1369.000000	102.598331
1368.000000	102.600694
1367.000000	102.603311
1366.000000	102.605193
1365.000000	102.606899
1364.000000	102.609090
1363.000000	102.611264
1362.000000	102.611925
1361.000000	102.610177
1360.000000	102.606840
1359.000000	102.603581
1358.000000	102.601266
1357.000000	102.599742
1356.000000	102.598765
1355.000000	102.598678
1354.000000	102.599805
1353.000000	102.601397
1352.000000	102.602098
1351.000000	102.601535
1350.000000	102.600644
1349.000000	102.600950
1348.000000	102.603062
1347.000000	102.606237
1346.000000	102.609258
1345.000000	102.611246
1344.000000	102.611593
1343.000000	102.609922
1342.000000	102.606572
1341.000000	102.603060
1340.000000	102.601519
1339.000000	102.603026
1338.000000	102.606490
1337.000000	102.609545
1336.000000	102.610379
1335.000000	102.608804
1334.000000	102.606256
1333.000000	102.604702
1332.000000	102.604958
1331.000000	102.606164
1330.000000	102.607177
1329.000000	102.608146
1328.000000	102.609860
1327.000000	102.611825
1326.000000	102.612188
1325.000000	102.610144
1324.000000	102.607139
1323.000000	102.605445
1322.000000	102.606015
1321.000000	102.607961
1320.000000	102.609571
1319.000000	102.609552
1318.000000	102.607695
1317.000000	102.604803
1316.000000	102.602178
1315.000000	102.601098
1314.000000	102.602356
1313.000000	102.605774
1312.000000	102.610013
1311.000000	102.613144
1310.000000	102.613756
1309.000000	102.611710
1308.000000	102.608213
1307.000000	102.605268
1306.000000	102.604453
1305.000000	102.606014
1304.000000	102.608631
1303.000000	102.610260
1302.000000	102.609620
1301.000000	102.607182
1300.000000	102.604833
1299.000000	102.604511
1298.000000	102.606749
1297.000000	102.610182
1296.000000	102.612544
1295.000000	102.612336
1294.000000	102.609793
1293.000000	102.606315
1292.000000	102.603172
1291.000000	102.600908
1290.000000	102.599732
1289.000000	102.599893
1288.000000	102.601235
1287.000000	102.602396
1286.000000	102.601012
1285.000000	102.595457
1284.000000	102.586803
1283.000000	102.578825
1282.000000	102.575260
1281.000000	102.576710
1280.000000	102.580496
1279.000000	102.583301
1278.000000	102.583723
1277.000000	102.582293
1276.000000	102.580010
1275.000000	102.577756
1274.000000	102.576922
1273.000000	102.579471
1272.000000	102.586506
1271.000000	102.596673
1270.000000	102.606454
1269.000000	102.612527
1268.000000	102.613969
1267.000000	102.612361
1266.000000	102.610030
1265.000000	102.608039
1264.000000	102.605940
1263.000000	102.603274
1262.000000	102.600537
1261.000000	102.598288
1260.000000	102.596075
1259.000000	102.592950
1258.000000	102.588833
1257.000000	102.584185
1256.000000	102.578426
1255.000000	102.570128
1254.000000	102.559387
1253.000000	102.548794
1252.000000	102.540853
1251.000000	102.534812
1250.000000	102.527177
1249.000000	102.515352
1248.000000	102.499978
1247.000000	102.483874
1246.000000	102.469754
1245.000000	102.458795
1244.000000	102.450182
1243.000000	102.441407
1242.000000	102.429840
1241.000000	102.414904
1240.000000	102.398439
1239.000000	102.382306
1238.000000	102.366130
1237.000000	102.348352
1236.000000	102.329238
1235.000000	102.311431
1234.000000	102.296704
1233.000000	102.282950
1232.000000	102.265553
1231.000000	102.241886
1230.000000	102.213903
1229.000000	102.185920
1228.000000	102.159949
1227.000000	102.133428
1226.000000	102.101245
1225.000000	102.059532
1224.000000	102.007816
1223.000000	101.948861
1222.000000	101.887047
1221.000000	101.825667
1220.000000	101.764174
1219.000000	101.698320
1218.000000	101.624794
1217.000000	101.545743
1216.000000	101.466788
1215.000000	101.390135
1214.000000	101.312209
1213.000000	101.229459
1212.000000	101.143469
1211.000000	101.057745
1210.000000	100.972156
1209.000000	100.884400
1208.000000	100.795006
1207.000000	100.706540
1206.000000	100.619336
1205.000000	100.532628
1204.000000	100.448292
1203.000000	100.367883
1202.000000	100.287221
1201.000000	100.200588
1200.000000	100.110386
1199.000000	100.025833
1198.000000	99.950719
1197.000000	99.878868
1196.000000	99.803513
1195.000000	99.724823
1194.000000	99.645682
1193.000000	99.565841
1192.000000	99.483570
1191.000000	99.398755
1190.000000	99.311626
1189.000000	99.222303
1188.000000	99.133656
1187.000000	99.050233
1186.000000	98.971905
1185.000000	98.892487
1184.000000	98.806467
1183.000000	98.713076
1182.000000	98.613106
1181.000000	98.507556
1180.000000	98.401122
1179.000000	98.300437
1178.000000	98.205441
1177.000000	98.108232
1176.000000	98.003651
1175.000000	97.895078
1174.000000	97.786252
1173.000000	97.674060
1172.000000	97.554748
1171.000000	97.431732
1170.000000	97.311322
1169.000000	97.194904
1168.000000	97.081034
1167.000000	96.972270
1166.000000	96.875618
1165.000000	96.799303
1164.000000	96.752304
1163.000000	96.742458
1162.000000	96.770050
1161.000000	96.825108
1160.000000	96.892423
1159.000000	96.955688
1158.000000	96.997185
1157.000000	97.001525
1156.000000	96.965015
1155.000000	96.898673
1154.000000	96.818453
1153.000000	96.733497
1152.000000	96.645288
1151.000000	96.553993
1150.000000	96.461354
1149.000000	96.369500
1148.000000	96.280021
1147.000000	96.192962
1146.000000	96.105725
1145.000000	96.015415
1144.000000	95.922694
1143.000000	95.830357
1142.000000	95.738507
1141.000000	95.645298
1140.000000	95.551805
1139.000000	95.460687
1138.000000	95.370222
1137.000000	95.275669
1136.000000	95.176837
1135.000000	95.078085
1134.000000	94.980574
1133.000000	94.881255
1132.000000	94.779805
1131.000000	94.679158
1130.000000	94.578534
1129.000000	94.473751
1128.000000	94.365330
1127.000000	94.258019
1126.000000	94.151254
1125.000000	94.039267
1124.000000	93.922711
1123.000000	93.810706
1122.000000	93.708076
1121.000000	93.609141
1120.000000	93.507425
1119.000000	93.403135
1118.000000	93.298158
1117.000000	93.192381
1116.000000	93.087823
1115.000000	92.987643
1114.000000	92.888480
1113.000000	92.783113
1112.000000	92.673056
1111.000000	92.568476
1110.000000	92.473741
1109.000000	92.383715
1108.000000	92.295810
1107.000000	92.214223
1106.000000	92.139396
1105.000000	92.064745
1104.000000	91.987192
1103.000000	91.910226
1102.000000	91.834179
1101.000000	91.755285
1100.000000	91.676374
1099.000000	91.606755
1098.000000	91.546606
1097.000000	91.484315
1096.000000	91.413278
1095.000000	91.340276
1094.000000	91.273269
1093.000000	91.211793
1092.000000	91.153229
1091.000000	91.098163
1090.000000	91.046116
1089.000000	90.995395
1088.000000	90.948753
1087.000000	90.909313
1086.000000	90.871020
1085.000000	90.825011
1084.000000	90.775179
1083.000000	90.734288
1082.000000	90.704469
1081.000000	90.675646
1080.000000	90.643441
1079.000000	90.612783
1078.000000	90.582461
1077.000000	90.543033
1076.000000	90.493453
1075.000000	90.443006
1074.000000	90.391561
1073.000000	90.323531
1072.000000	90.227699
1071.000000	90.109308
1070.000000	89.977125
1069.000000	89.830726
1068.000000	89.666311
1067.000000	89.483853
1066.000000	89.284100
1065.000000	89.070111
1064.000000	88.855577
1063.000000	88.659116
1062.000000	88.485862
1061.000000	88.326564
1060.000000	88.176571
1059.000000	88.040893
1058.000000	87.918392
1057.000000	87.797639
1056.000000	87.672774
1055.000000	87.547697
1054.000000	87.420049
1053.000000	87.277126
1052.000000	87.113767
1051.000000	86.938445
1050.000000	86.755091
1049.000000	86.556221
1048.000000	86.340941
1047.000000	86.120832
1046.000000	85.901280
1045.000000	85.674769
1044.000000	85.437902
1043.000000	85.198493
1042.000000	84.961026
1041.000000	84.720977
1040.000000	84.478793
1039.000000	84.244366
1038.000000	84.023167
1037.000000	83.813341
1036.000000	83.619272
1035.000000	83.450254
1034.000000	83.302310
1033.000000	83.160272
1032.000000	83.022405
1031.000000	82.903689
1030.000000	82.809607
1029.000000	82.726248
1028.000000	82.642524
1027.000000	82.563637
1026.000000	82.495474
1025.000000	82.433153
1024.000000	82.371681
1023.000000	82.312098
1022.000000	82.252297
1021.000000	82.187809
1020.000000	82.125129
1019.000000	82.077258
1018.000000	82.042558
1017.000000	82.004797
1016.000000	81.956653
1015.000000	81.905639
1014.000000	81.855090
1013.000000	81.798986
1012.000000	81.739304
1011.000000	81.689332
1010.000000	81.654444
1009.000000	81.625702
1008.000000	81.595580
1007.000000	81.564452
1006.000000	81.531055
1005.000000	81.494070
1004.000000	81.463249
1003.000000	81.450356
1002.000000	81.449342
1001.000000	81.444918
1000.000000	81.439739
999.000000	81.450795
998.000000	81.478800
997.000000	81.505326
996.000000	81.523129
995.000000	81.545493
994.000000	81.580430
993.000000	81.618578
992.000000	81.653073
991.000000	81.690734
990.000000	81.737141
989.000000	81.789857
988.000000	81.851904
987.000000	81.933183
986.000000	82.033583
985.000000	82.142539
984.000000	82.258685
983.000000	82.391487
982.000000	82.541010
981.000000	82.696357
980.000000	82.857480
979.000000	83.037808
978.000000	83.240663
977.000000	83.452925
976.000000	83.666733
975.000000	83.888315
974.000000	84.120744
973.000000	84.357407
972.000000	84.597861
971.000000	84.851205
970.000000	85.117305
969.000000	85.382217
968.000000	85.638647
967.000000	85.894675
966.000000	86.155990
965.000000	86.414858
964.000000	86.663075
963.000000	86.901965
962.000000	87.133876
961.000000	87.356715
960.000000	87.572214
959.000000	87.787640
958.000000	88.004471
957.000000	88.215903
956.000000	88.418365
955.000000	88.614406
954.000000	88.802471
953.000000	88.975944
952.000000	89.134890
951.000000	89.287448
950.000000	89.437523
949.000000	89.581508
948.000000	89.717965
947.000000	89.849055
946.000000	89.972166
945.000000	90.082390
944.000000	90.183831
943.000000	90.286211
942.000000	90.389867
941.000000	90.486944
940.000000	90.577558
939.000000	90.670704
938.000000	90.768271
937.000000	90.862580
936.000000	90.951605
935.000000	91.042379
934.000000	91.137102
933.000000	91.230007
932.000000	91.320694
931.000000	91.416656
930.000000	91.519707
929.000000	91.623349
928.000000	91.726176
927.000000	91.833980
926.000000	91.945592
925.000000	92.050668
924.000000	92.145220
923.000000	92.236060
922.000000	92.326276
921.000000	92.409620
920.000000	92.483433
919.000000	92.554208
918.000000	92.625855
917.000000	92.695031
916.000000	92.762918
915.000000	92.839324
914.000000	92.929704
913.000000	93.029243
912.000000	93.134532
911.000000	93.250447
910.000000	93.380892
909.000000	93.523129
908.000000	93.675411
907.000000	93.840414
906.000000	94.017981
905.000000	94.204338
904.000000	94.400433
903.000000	94.610288
902.000000	94.829307
901.000000	95.045482
900.000000	95.254476
899.000000	95.462629
898.000000	95.672939
897.000000	95.879713
896.000000	96.079234
895.000000	96.274591
894.000000	96.466943
893.000000	96.652362
892.000000	96.830222
891.000000	97.004803
890.000000	97.176061
889.000000	97.338657
888.000000	97.492665
887.000000	97.645217
886.000000	97.798555
885.000000	97.946511
884.000000	98.086345
883.000000	98.223777
882.000000	98.361457
881.000000	98.491628
880.000000	98.606223
879.000000	98.707524
878.000000	98.804917
877.000000	98.907358
876.000000	99.021394
875.000000	99.148649
874.000000	99.282016
873.000000	99.411488
872.000000	99.535489
871.000000	99.659552
870.000000	99.784235
869.000000	99.903635
868.000000	100.016574
867.000000	100.129448
866.000000	100.245823
865.000000	100.361728
864.000000	100.473312
863.000000	100.581081
862.000000	100.684889
861.000000	100.783135
860.000000	100.878852
859.000000	100.977774
858.000000	101.077652
857.000000	101.168566
856.000000	101.247604
855.000000	101.324393
854.000000	101.407030
853.000000	101.490016
852.000000	101.561887
851.000000	101.618249
850.000000	101.661595
849.000000	101.693985
848.000000	101.716496
847.000000	101.732720
846.000000	101.747348
845.000000	101.762493
844.000000	101.777220
843.000000	101.787120
842.000000	101.783005
841.000000	101.755502
840.000000	101.704247
839.000000	101.639026
838.000000	101.569902
837.000000	101.499821
836.000000	101.427766
835.000000	101.353787
834.000000	101.279570
833.000000	101.210146
832.000000	101.156641
831.000000	101.129929
830.000000	101.128307
829.000000	101.138658
828.000000	101.152998
827.000000	101.175651
826.000000	101.209910
825.000000	101.246709
824.000000	101.272966
823.000000	101.283802
822.000000	101.281845
821.000000	101.272334
820.000000	101.262360
819.000000	101.255532
818.000000	101.242587
817.000000	101.204899
816.000000	101.131394
815.000000	101.025608
814.000000	100.892756
813.000000	100.726966
812.000000	100.515897
811.000000	100.250211
810.000000	99.921978
809.000000	99.521207
808.000000	99.043666
807.000000	98.499637
806.000000	97.908962
805.000000	97.291968
804.000000	96.671610
803.000000	96.077830
802.000000	95.540701
801.000000	95.083276
800.000000	94.725060
799.000000	94.482001
798.000000	94.355762
797.000000	94.331770
796.000000	94.392095
795.000000	94.520072
794.000000	94.691013
793.000000	94.873610
792.000000	95.046644
791.000000	95.203583
790.000000	95.336986
789.000000	95.429372
788.000000	95.463817
787.000000	95.434099
786.000000	95.340965
785.000000	95.188420
784.000000	94.988968
783.000000	94.764791
782.000000	94.539441
781.000000	94.335064
780.000000	94.178071
779.000000	94.094595
778.000000	94.095146
777.000000	94.173346
776.000000	94.320919
775.000000	94.530928
774.000000	94.784907
773.000000	95.052659
772.000000	95.310376
771.000000	95.548209
770.000000	95.759213
769.000000	95.935094
768.000000	96.076359
767.000000	96.193255
766.000000	96.291727
765.000000	96.370017
764.000000	96.432745
763.000000	96.494571
762.000000	96.563438
761.000000	96.632775
760.000000	96.697803
759.000000	96.768049
758.000000	96.855538
757.000000	96.960309
756.000000	97.074629
755.000000	97.191514
754.000000	97.302238
753.000000	97.395979
752.000000	97.471281
751.000000	97.541229
750.000000	97.620139
749.000000	97.710844
748.000000	97.809643
747.000000	97.915334
746.000000	98.027029
745.000000	98.141097
744.000000	98.257878
743.000000	98.385025
742.000000	98.527285
741.000000	98.678487
740.000000	98.829030
739.000000	98.975564
738.000000	99.118878
737.000000	99.258787
736.000000	99.395818
735.000000	99.531199
734.000000	99.660075
733.000000	99.771213
732.000000	99.858286
731.000000	99.925336
730.000000	99.976980
729.000000	100.010891
728.000000	100.026261
727.000000	100.033317
726.000000	100.047117
725.000000	100.075304
724.000000	100.117386
723.000000	100.172115
722.000000	100.240189
721.000000	100.322627
720.000000	100.420082
719.000000	100.530147
718.000000	100.642819
717.000000	100.743791
716.000000	100.825750
715.000000	100.892608
714.000000	100.950565
713.000000	101.000265
712.000000	101.040499
711.000000	101.072983
710.000000	101.098183
709.000000	101.111818
708.000000	101.110776
707.000000	101.097725
706.000000	101.074998
705.000000	101.037968
704.000000	100.979060
703.000000	100.892961
702.000000	100.771428
701.000000	100.598297
700.000000	100.359224
699.000000	100.057737
698.000000	99.721020
697.000000	99.394057
696.000000	99.129500
695.000000	98.973049
694.000000	98.945230
693.000000	99.032735
692.000000	99.197637
691.000000	99.397172
690.000000	99.600581
689.000000	99.792455
688.000000	99.963328
687.000000	100.100841
686.000000	100.195203
685.000000	100.254720
684.000000	100.307599
683.000000	100.379245
682.000000	100.469807
681.000000	100.559633
680.000000	100.633110
679.000000	100.689326
678.000000	100.733398
677.000000	100.771335
676.000000	100.812515
675.000000	100.862636
674.000000	100.915787
673.000000	100.962327
672.000000	101.001813
671.000000	101.041254
670.000000	101.086954
669.000000	101.146429
668.000000	101.226834
667.000000	101.317010
666.000000	101.392890
665.000000	101.443862
664.000000	101.476639
663.000000	101.507831
662.000000	101.546279
661.000000	101.582685
660.000000	101.601476
659.000000	101.595827
658.000000	101.570365
657.000000	101.538301
656.000000	101.514108
655.000000	101.498530
654.000000	101.474567
653.000000	101.429299
652.000000	101.375938
651.000000	101.340773
650.000000	101.330401
