4000.000000	100.877086
3999.000000	100.876153
3998.000000	100.875396
3997.000000	100.875118
3996.000000	100.875610
3995.000000	100.876876
3994.000000	100.878366
3993.000000	100.879285
3992.000000	100.879143
3991.000000	100.877937
3990.000000	100.876018
3989.000000	100.873892
3988.000000	100.872163
3987.000000	100.871376
3986.000000	100.871728
3985.000000	100.872831
3984.000000	100.873782
3983.000000	100.873841
3982.000000	100.872995
3981.000000	100.871853
3980.000000	100.870975
3979.000000	100.870350
3978.000000	100.869572
3977.000000	100.868403
3976.000000	100.867023
3975.000000	100.865839
3974.000000	100.865173
3973.000000	100.865132
3972.000000	100.865534
3971.000000	100.865839
3970.000000	100.865404
3969.000000	100.864089
3968.000000	100.862669
3967.000000	100.862414
3966.000000	100.864074
3965.000000	100.867241
3964.000000	100.870568
3963.000000	100.872662
3962.000000	100.872804
3961.000000	100.870973
3960.000000	100.867596
3959.000000	100.863342
3958.000000	100.859065
3957.000000	100.855633
3956.000000	100.853554
3955.000000	100.852737
3954.000000	100.852698
3953.000000	100.853026
3952.000000	100.853615
3951.000000	100.854502
3950.000000	100.855594
3949.000000	100.856635
3948.000000	100.857387
3947.000000	100.857750
3946.000000	100.857722
3945.000000	100.857394
3944.000000	100.856954
3943.000000	100.856608
3942.000000	100.856471
3941.000000	100.856581
3940.000000	100.856934
3939.000000	100.857374
3938.000000	100.857557
3937.000000	100.857189
3936.000000	100.856318
3935.000000	100.855307
3934.000000	100.854422
3933.000000	100.853607
3932.000000	100.852748
3931.000000	100.852073
3930.000000	100.851939
3929.000000	100.852201
3928.000000	100.852138
3927.000000	100.851133
3926.000000	100.849276
3925.000000	100.847187
3924.000000	100.845403
3923.000000	100.844161
3922.000000	100.843579
3921.000000	100.843650
3920.000000	100.843970
3919.000000	100.843802
3918.000000	100.842665
3917.000000	100.840745
3916.000000	100.838773
3915.000000	100.837432
3914.000000	100.836925
3913.000000	100.836996
3912.000000	100.837206
3911.000000	100.837199
3910.000000	100.836871
3909.000000	100.836352
3908.000000	100.835853
3907.000000	100.835478
3906.000000	100.835119
3905.000000	100.834536
3904.000000	100.833579
3903.000000	100.832361
3902.000000	100.831206
3901.000000	100.830379
3900.000000	100.829876
3899.000000	100.829516
3898.000000	100.829168
3897.000000	100.828839
3896.000000	100.828542
3895.000000	100.828192
3894.000000	100.827704
3893.000000	100.827179
3892.000000	100.826882
3891.000000	100.826903
3890.000000	100.826957
3889.000000	100.826667
3888.000000	100.825933
3887.000000	100.824969
3886.000000	100.824068
3885.000000	100.823293
3884.000000	100.822551
3883.000000	100.821889
3882.000000	100.821493
3881.000000	100.821431
3880.000000	100.821496
3879.000000	100.821411
3878.000000	100.821100
3877.000000	100.820680
3876.000000	100.820327
3875.000000	100.820151
3874.000000	100.820101
3873.000000	100.820019
3872.000000	100.819791
3871.000000	100.819437
3870.000000	100.819047
3869.000000	100.818708
3868.000000	100.818445
3867.000000	100.818246
3866.000000	100.818085
3865.000000	100.817937
3864.000000	100.817779
3863.000000	100.817596
3862.000000	100.817390
3861.000000	100.817167
3860.000000	100.816937
3859.000000	100.816705
3858.000000	100.816462
3857.000000	100.816190
3856.000000	100.815875
3855.000000	100.815520
3854.000000	100.815138
3853.000000	100.814736
3852.000000	100.814309
3851.000000	100.813857
3850.000000	100.813382
3849.000000	100.812896
3848.000000	100.812418
3847.000000	100.811965
3846.000000	100.811548
3845.000000	100.811162
3844.000000	100.810789
3843.000000	100.810411
3842.000000	100.810014
3841.000000	100.809599
3840.000000	100.809172
3839.000000	100.808742
3838.000000	100.808312
3837.000000	100.807874
3836.000000	100.807427
3835.000000	100.806969
3834.000000	100.806493
3833.000000	100.806003
3832.000000	100.805521
3831.000000	100.805070
3830.000000	100.804633
3829.000000	100.804165
3828.000000	100.803663
3827.000000	100.803202
3826.000000	100.802871
3825.000000	100.802680
3824.000000	100.802518
3823.000000	100.802243
3822.000000	100.801826
3821.000000	100.801337
3820.000000	100.800782
3819.000000	100.800121
3818.000000	100.799339
3817.000000	100.798469
3816.000000	100.797546
3815.000000	100.796514
3814.000000	100.795440
3813.000000	100.794648
3812.000000	100.794383
3811.000000	100.794481
3810.000000	100.794499
3809.000000	100.794225
3808.000000	100.794073
3807.000000	100.794624
3806.000000	100.795820
3805.000000	100.796916
3804.000000	100.797107
3803.000000	100.795964
3802.000000	100.793741
3801.000000	100.791158
3800.000000	100.788939
3799.000000	100.787783
3798.000000	100.788170
3797.000000	100.789979
3796.000000	100.792319
3795.000000	100.794180
3794.000000	100.795247
3793.000000	100.795697
3792.000000	100.795497
3791.000000	100.794326
3790.000000	100.792187
3789.000000	100.789757
3788.000000	100.787839
3787.000000	100.786560
3786.000000	100.785386
3785.000000	100.783941
3784.000000	100.782620
3783.000000	100.782148
3782.000000	100.782697
3781.000000	100.783626
3780.000000	100.784011
3779.000000	100.783279
3778.000000	100.781416
3777.000000	100.778694
3776.000000	100.775659
3775.000000	100.773282
3774.000000	100.772632
3773.000000	100.774056
3772.000000	100.776800
3771.000000	100.779549
3770.000000	100.781494
3769.000000	100.782808
3768.000000	100.784026
3767.000000	100.785142
3766.000000	100.785564
3765.000000	100.784827
3764.000000	100.783007
3763.000000	100.780490
3762.000000	100.777607
3761.000000	100.774423
3760.000000	100.770862
3759.000000	100.767058
3758.000000	100.763622
3757.000000	100.761010
3756.000000	100.758938
3755.000000	100.756860
3754.000000	100.754947
3753.000000	100.754346
3752.000000	100.756037
3751.000000	100.759368
3750.000000	100.762575
3749.000000	100.764861
3748.000000	100.766241
3747.000000	100.766131
3746.000000	100.763575
3745.000000	100.758815
3744.000000	100.752755
3743.000000	100.746550
3742.000000	100.742317
3741.000000	100.741724
3740.000000	100.744199
3739.000000	100.747050
3738.000000	100.747821
3737.000000	100.746694
3736.000000	100.745652
3735.000000	100.745157
3734.000000	100.743299
3733.000000	100.738797
3732.000000	100.732740
3731.000000	100.727197
3730.000000	100.723372
3729.000000	100.721265
3728.000000	100.720190
3727.000000	100.719305
3726.000000	100.718000
3725.000000	100.716345
3724.000000	100.714972
3723.000000	100.714041
3722.000000	100.712579
3721.000000	100.709180
3720.000000	100.703419
3719.000000	100.696311
3718.000000	100.689614
3717.000000	100.684570
3716.000000	100.681177
3715.000000	100.678428
3714.000000	100.674992
3713.000000	100.670143
3712.000000	100.664538
3711.000000	100.659671
3710.000000	100.656438
3709.000000	100.654393
3708.000000	100.652449
3707.000000	100.649852
3706.000000	100.646234
3705.000000	100.641297
3704.000000	100.635081
3703.000000	100.628575
3702.000000	100.623301
3701.000000	100.619605
3700.000000	100.616061
3699.000000	100.611239
3698.000000	100.605425
3697.000000	100.600155
3696.000000	100.596196
3695.000000	100.592660
3694.000000	100.588157
3693.000000	100.582318
3692.000000	100.576418
3691.000000	100.572734
3690.000000	100.572609
3689.000000	100.573816
3688.000000	100.571504
3687.000000	100.563227
3686.000000	100.551076
3685.000000	100.539373
3684.000000	100.531072
3683.000000	100.526182
3682.000000	100.522854
3681.000000	100.519580
3680.000000	100.515800
3679.000000	100.510850
3678.000000	100.503718
3677.000000	100.494879
3676.000000	100.486475
3675.000000	100.478312
3674.000000	100.468235
3673.000000	100.456278
3672.000000	100.445219
3671.000000	100.438200
3670.000000	100.434879
3669.000000	100.430036
3668.000000	100.419891
3667.000000	100.406290
3666.000000	100.393484
3665.000000	100.383817
3664.000000	100.376018
3663.000000	100.366698
3662.000000	100.353777
3661.000000	100.338548
3660.000000	100.324084
3659.000000	100.312392
3658.000000	100.303382
3657.000000	100.296052
3656.000000	100.289132
3655.000000	100.281464
3654.000000	100.272905
3653.000000	100.264224
3652.000000	100.256252
3651.000000	100.248654
3650.000000	100.238650
3649.000000	100.223264
3648.000000	100.205069
3647.000000	100.190656
3646.000000	100.183100
3645.000000	100.179946
3644.000000	100.176373
3643.000000	100.168466
3642.000000	100.155082
3641.000000	100.138360
3640.000000	100.122561
3639.000000	100.111277
3638.000000	100.104702
3637.000000	100.099717
3636.000000	100.093043
3635.000000	100.083996
3634.000000	100.073752
3633.000000	100.062796
3632.000000	100.050249
3631.000000	100.036052
3630.000000	100.023635
3629.000000	100.017179
3628.000000	100.016149
3627.000000	100.017903
3626.000000	100.021349
3625.000000	100.025139
3624.000000	100.026893
3623.000000	100.025321
3622.000000	100.021783
3621.000000	100.019533
3620.000000	100.021653
3619.000000	100.029253
3618.000000	100.041002
3617.000000	100.053839
3616.000000	100.064206
3615.000000	100.070200
3614.000000	100.073046
3613.000000	100.075511
3612.000000	100.078698
3611.000000	100.081831
3610.000000	100.085250
3609.000000	100.091949
3608.000000	100.104590
3607.000000	100.121373
3606.000000	100.136599
3605.000000	100.145112
3604.000000	100.145600
3603.000000	100.141220
3602.000000	100.137282
3601.000000	100.137305
3600.000000	100.140628
3599.000000	100.144363
3598.000000	100.146744
3597.000000	100.148077
3596.000000	100.149421
3595.000000	100.151764
3594.000000	100.155830
3593.000000	100.161827
3592.000000	100.169046
3591.000000	100.176048
3590.000000	100.181639
3589.000000	100.185627
3588.000000	100.187835
3587.000000	100.186598
3586.000000	100.180132
3585.000000	100.169233
3584.000000	100.157363
3583.000000	100.148566
3582.000000	100.144953
3581.000000	100.145591
3580.000000	100.147436
3579.000000	100.147822
3578.000000	100.146166
3577.000000	100.143520
3576.000000	100.141125
3575.000000	100.139695
3574.000000	100.139699
3573.000000	100.141476
3572.000000	100.144850
3571.000000	100.148697
3570.000000	100.151213
3569.000000	100.150874
3568.000000	100.147481
3567.000000	100.142461
3566.000000	100.137904
3565.000000	100.134950
3564.000000	100.133128
3563.000000	100.131034
3562.000000	100.127442
3561.000000	100.122056
3560.000000	100.115694
3559.000000	100.109774
3558.000000	100.105450
3557.000000	100.103028
3556.000000	100.102196
3555.000000	100.102620
3554.000000	100.104036
3553.000000	100.105786
3552.000000	100.106773
3551.000000	100.106323
3550.000000	100.104743
3549.000000	100.102743
3548.000000	100.100666
3547.000000	100.098537
3546.000000	100.096453
3545.000000	100.094371
3544.000000	100.091712
3543.000000	100.087894
3542.000000	100.083364
3541.000000	100.079525
3540.000000	100.077453
3539.000000	100.077086
3538.000000	100.077958
3537.000000	100.080256
3536.000000	100.084452
3535.000000	100.089985
3534.000000	100.094804
3533.000000	100.096615
3532.000000	100.094466
3531.000000	100.089312
3530.000000	100.083675
3529.000000	100.080071
3528.000000	100.079209
3527.000000	100.079770
3526.000000	100.079853
3525.000000	100.078757
3524.000000	100.077311
3523.000000	100.076617
3522.000000	100.076870
3521.000000	100.077410
3520.000000	100.077532
3519.000000	100.077051
3518.000000	100.076283
3517.000000	100.075768
3516.000000	100.075927
3515.000000	100.076782
3514.000000	100.077935
3513.000000	100.078926
3512.000000	100.079641
3511.000000	100.080277
3510.000000	100.080918
3509.000000	100.081322
3508.000000	100.081187
3507.000000	100.080443
3506.000000	100.079148
3505.000000	100.077316
3504.000000	100.075079
3503.000000	100.072951
3502.000000	100.071599
3501.000000	100.071251
3500.000000	100.071448
3499.000000	100.071498
3498.000000	100.071025
3497.000000	100.070099
3496.000000	100.069006
3495.000000	100.068027
3494.000000	100.067327
3493.000000	100.066906
3492.000000	100.066601
3491.000000	100.066237
3490.000000	100.065784
3489.000000	100.065295
3488.000000	100.064679
3487.000000	100.063626
3486.000000	100.061917
3485.000000	100.059756
3484.000000	100.057688
3483.000000	100.056180
3482.000000	100.055317
3481.000000	100.054838
3480.000000	100.054310
3479.000000	100.053391
3478.000000	100.052016
3477.000000	100.050337
3476.000000	100.048587
3475.000000	100.046916
3474.000000	100.045346
3473.000000	100.043846
3472.000000	100.042397
3471.000000	100.040994
3470.000000	100.039612
3469.000000	100.038207
3468.000000	100.036743
3467.000000	100.035226
3466.000000	100.033680
3465.000000	100.032130
3464.000000	100.030599
3463.000000	100.029109
3462.000000	100.027666
3461.000000	100.026252
3460.000000	100.024822
3459.000000	100.023344
3458.000000	100.021818
3457.000000	100.020273
3456.000000	100.018752
3455.000000	100.017282
3454.000000	100.015865
3453.000000	100.014486
3452.000000	100.013120
3451.000000	100.011746
3450.000000	100.010356
3449.000000	100.008952
3448.000000	100.007535
3447.000000	100.006106
3446.000000	100.004660
3445.000000	100.003196
3444.000000	100.001713
3443.000000	100.000238
3442.000000	99.998814
3441.000000	99.997458
3440.000000	99.996123
3439.000000	99.994743
3438.000000	99.993337
3437.000000	99.992037
3436.000000	99.990951
3435.000000	99.989997
3434.000000	99.988929
3433.000000	99.987581
3432.000000	99.986039
3431.000000	99.984529
3430.000000	99.983119
3429.000000	99.981701
3428.000000	99.980231
3427.000000	99.978827
3426.000000	99.977544
3425.000000	99.976221
3424.000000	99.974716
3423.000000	99.973236
3422.000000	99.972222
3421.000000	99.971832
3420.000000	99.971636
3419.000000	99.970931
3418.000000	99.969479
3417.000000	99.967884
3416.000000	99.967174
3415.000000	99.967851
3414.000000	99.969293
3413.000000	99.970043
3412.000000	99.968992
3411.000000	99.966205
3410.000000	99.962787
3409.000000	99.959860
3408.000000	99.957584
3407.000000	99.955332
3406.000000	99.952673
3405.000000	99.950087
3404.000000	99.948619
3403.000000	99.948906
3402.000000	99.950622
3401.000000	99.952731
3400.000000	99.954249
3399.000000	99.954799
3398.000000	99.954609
3397.000000	99.954109
3396.000000	99.953516
3395.000000	99.952713
3394.000000	99.951474
3393.000000	99.949777
3392.000000	99.947910
3391.000000	99.946329
3390.000000	99.945440
3389.000000	99.945430
3388.000000	99.946196
3387.000000	99.947336
3386.000000	99.948401
3385.000000	99.949332
3384.000000	99.950513
3383.000000	99.952186
3382.000000	99.953880
3381.000000	99.954762
3380.000000	99.954612
3379.000000	99.954104
3378.000000	99.953824
3377.000000	99.953316
3376.000000	99.951650
3375.000000	99.948858
3374.000000	99.946278
3373.000000	99.945249
3372.000000	99.945750
3371.000000	99.946604
3370.000000	99.946881
3369.000000	99.946841
3368.000000	99.947501
3367.000000	99.949492
3366.000000	99.952378
3365.000000	99.954935
3364.000000	99.956246
3363.000000	99.956502
3362.000000	99.956713
3361.000000	99.957620
3360.000000	99.958997
3359.000000	99.960116
3358.000000	99.960626
3357.000000	99.960663
3356.000000	99.960253
3355.000000	99.959060
3354.000000	99.956942
3353.000000	99.954523
3352.000000	99.952908
3351.000000	99.952754
3350.000000	99.953781
3349.000000	99.955134
3348.000000	99.956182
3347.000000	99.956983
3346.000000	99.958002
3345.000000	99.959542
3344.000000	99.961421
3343.000000	99.963022
3342.000000	99.963760
3341.000000	99.963574
3340.000000	99.963003
3339.000000	99.962824
3338.000000	99.963433
3337.000000	99.964624
3336.000000	99.965888
3335.000000	99.966863
3334.000000	99.967529
3333.000000	99.968036
3332.000000	99.968499
3331.000000	99.968968
3330.000000	99.969486
3329.000000	99.970101
3328.000000	99.970823
3327.000000	99.971603
3326.000000	99.972357
3325.000000	99.973033
3324.000000	99.973635
3323.000000	99.974221
3322.000000	99.974846
3321.000000	99.975531
3320.000000	99.976260
3319.000000	99.977003
3318.000000	99.977730
3317.000000	99.978430
3316.000000	99.979110
3315.000000	99.979792
3314.000000	99.980495
3313.000000	99.981226
3312.000000	99.981976
3311.000000	99.982728
3310.000000	99.983472
3309.000000	99.984211
3308.000000	99.984938
3307.000000	99.985634
3306.000000	99.986280
3305.000000	99.986924
3304.000000	99.987689
3303.000000	99.988701
3302.000000	99.989935
3301.000000	99.991165
3300.000000	99.992133
3299.000000	99.992713
3298.000000	99.993007
3297.000000	99.993240
3296.000000	99.993573
3295.000000	99.994089
3294.000000	99.994925
3293.000000	99.996270
3292.000000	99.998115
3291.000000	100.000048
3290.000000	100.001552
3289.000000	100.002478
3288.000000	100.003088
3287.000000	100.003664
3286.000000	100.004273
3285.000000	100.004920
3284.000000	100.005623
3283.000000	100.006284
3282.000000	100.006719
3281.000000	100.006913
3280.000000	100.007028
3279.000000	100.007136
3278.000000	100.007150
3277.000000	100.007097
3276.000000	100.007127
3275.000000	100.007187
3274.000000	100.007046
3273.000000	100.006884
3272.000000	100.007382
3271.000000	100.008890
3270.000000	100.010921
3269.000000	100.012863
3268.000000	100.014933
3267.000000	100.017793
3266.000000	100.021273
3265.000000	100.024136
3264.000000	100.025363
3263.000000	100.025108
3262.000000	100.024233
3261.000000	100.023281
3260.000000	100.022227
3259.000000	100.020993
3258.000000	100.019828
3257.000000	100.019166
3256.000000	100.019247
3255.000000	100.019939
3254.000000	100.020832
3253.000000	100.021558
3252.000000	100.022065
3251.000000	100.022507
3250.000000	100.022926
3249.000000	100.023224
3248.000000	100.023469
3247.000000	100.023960
3246.000000	100.024847
3245.000000	100.025830
3244.000000	100.026436
3243.000000	100.026531
3242.000000	100.026412
3241.000000	100.026468
3240.000000	100.026837
3239.000000	100.027382
3238.000000	100.027867
3237.000000	100.028111
3236.000000	100.028095
3235.000000	100.027990
3234.000000	100.028079
3233.000000	100.028519
3232.000000	100.029215
3231.000000	100.029906
3230.000000	100.030402
3229.000000	100.030728
3228.000000	100.031046
3227.000000	100.031506
3226.000000	100.032113
3225.000000	100.032753
3224.000000	100.033288
3223.000000	100.033696
3222.000000	100.034048
3221.000000	100.034436
3220.000000	100.034904
3219.000000	100.035452
3218.000000	100.036070
3217.000000	100.036729
3216.000000	100.037338
3215.000000	100.037789
3214.000000	100.038065
3213.000000	100.038295
3212.000000	100.038634
3211.000000	100.039124
3210.000000	100.039717
3209.000000	100.040368
3208.000000	100.041041
3207.000000	100.041644
3206.000000	100.042077
3205.000000	100.042356
3204.000000	100.042599
3203.000000	100.042854
3202.000000	100.043058
3201.000000	100.043203
3200.000000	100.043403
3199.000000	100.043703
3198.000000	100.044010
3197.000000	100.044314
3196.000000	100.044805
3195.000000	100.045605
3194.000000	100.046538
3193.000000	100.047391
3192.000000	100.048276
3191.000000	100.049424
3190.000000	100.050726
3189.000000	100.051749
3188.000000	100.052222
3187.000000	100.052292
3186.000000	100.052341
3185.000000	100.052641
3184.000000	100.053289
3183.000000	100.054284
3182.000000	100.055451
3181.000000	100.056415
3180.000000	100.056898
3179.000000	100.057024
3178.000000	100.057207
3177.000000	100.057724
3176.000000	100.058478
3175.000000	100.059193
3174.000000	100.059719
3173.000000	100.060086
3172.000000	100.060393
3171.000000	100.060713
3170.000000	100.061120
3169.000000	100.061677
3168.000000	100.062354
3167.000000	100.063019
3166.000000	100.063564
3165.000000	100.064046
3164.000000	100.064641
3163.000000	100.065449
3162.000000	100.066378
3161.000000	100.067224
3160.000000	100.067873
3159.000000	100.068381
3158.000000	100.068900
3157.000000	100.069565
3156.000000	100.070402
3155.000000	100.071352
3154.000000	100.072317
3153.000000	100.073209
3152.000000	100.073994
3151.000000	100.074695
3150.000000	100.075384
3149.000000	100.076141
3148.000000	100.076995
3147.000000	100.077920
3146.000000	100.078867
3145.000000	100.079794
3144.000000	100.080664
3143.000000	100.081447
3142.000000	100.082158
3141.000000	100.082858
3140.000000	100.083619
3139.000000	100.084460
3138.000000	100.085377
3137.000000	100.086386
3136.000000	100.087501
3135.000000	100.088649
3134.000000	100.089649
3133.000000	100.090359
3132.000000	100.090837
3131.000000	100.091362
3130.000000	100.092152
3129.000000	100.093188
3128.000000	100.094262
3127.000000	100.095209
3126.000000	100.095995
3125.000000	100.096644
3124.000000	100.097192
3123.000000	100.097749
3122.000000	100.098499
3121.000000	100.099559
3120.000000	100.100810
3119.000000	100.101913
3118.000000	100.102539
3117.000000	100.102663
3116.000000	100.102691
3115.000000	100.103205
3114.000000	100.104533
3113.000000	100.106545
3112.000000	100.108812
3111.000000	100.110906
3110.000000	100.112528
3109.000000	100.113557
3108.000000	100.114118
3107.000000	100.114520
3106.000000	100.114958
3105.000000	100.115351
3104.000000	100.115613
3103.000000	100.115890
3102.000000	100.116284
3101.000000	100.116507
3100.000000	100.116291
3099.000000	100.116219
3098.000000	100.117618
3097.000000	100.121204
3096.000000	100.125896
3095.000000	100.129434
3094.000000	100.130499
3093.000000	100.129679
3092.000000	100.128472
3091.000000	100.127553
3090.000000	100.126437
3089.000000	100.124668
3088.000000	100.122705
3087.000000	100.121481
3086.000000	100.121354
3085.000000	100.121801
3084.000000	100.122026
3083.000000	100.121721
3082.000000	100.121293
3081.000000	100.121445
3080.000000	100.122512
3079.000000	100.124186
3078.000000	100.125886
3077.000000	100.127373
3076.000000	100.128857
3075.000000	100.130475
3074.000000	100.131937
3073.000000	100.132873
3072.000000	100.133355
3071.000000	100.133782
3070.000000	100.134259
3069.000000	100.134405
3068.000000	100.133908
3067.000000	100.133133
3066.000000	100.132998
3065.000000	100.134202
3064.000000	100.136646
3063.000000	100.139475
3062.000000	100.141646
3061.000000	100.142659
3060.000000	100.142781
3059.000000	100.142739
3058.000000	100.143136
3057.000000	100.144080
3056.000000	100.145285
3055.000000	100.146381
3054.000000	100.147166
3053.000000	100.147669
3052.000000	100.148089
3051.000000	100.148649
3050.000000	100.149388
3049.000000	100.150096
3048.000000	100.150542
3047.000000	100.150811
3046.000000	100.151361
3045.000000	100.152637
3044.000000	100.154618
3043.000000	100.156723
3042.000000	100.158217
3041.000000	100.158758
3040.000000	100.158578
3039.000000	100.158258
3038.000000	100.158297
3037.000000	100.158936
3036.000000	100.160297
3035.000000	100.162480
3034.000000	100.165427
3033.000000	100.168800
3032.000000	100.172069
3031.000000	100.174718
3030.000000	100.176371
3029.000000	100.176883
3028.000000	100.176568
3027.000000	100.176290
3026.000000	100.176971
3025.000000	100.178830
3024.000000	100.181207
3023.000000	100.183310
3022.000000	100.185092
3021.000000	100.187072
3020.000000	100.189358
3019.000000	100.191305
3018.000000	100.192409
3017.000000	100.193250
3016.000000	100.195019
3015.000000	100.198035
3014.000000	100.201171
3013.000000	100.203083
3012.000000	100.203872
3011.000000	100.205099
3010.000000	100.208115
3009.000000	100.212782
3008.000000	100.217864
3007.000000	100.222337
3006.000000	100.226052
3005.000000	100.229261
3004.000000	100.232024
3003.000000	100.234308
3002.000000	100.236458
3001.000000	100.239232
3000.000000	100.243188
2999.000000	100.248059
2998.000000	100.252750
2997.000000	100.256098
2996.000000	100.257752
2995.000000	100.258463
2994.000000	100.259646
2993.000000	100.262536
2992.000000	100.267473
2991.000000	100.273671
2990.000000	100.279656
2989.000000	100.284282
2988.000000	100.287359
2987.000000	100.289347
2986.000000	100.290777
2985.000000	100.292338
2984.000000	100.295186
2983.000000	100.300267
2982.000000	100.307149
2981.000000	100.314231
2980.000000	100.320397
2979.000000	100.325833
2978.000000	100.330960
2977.000000	100.335515
2976.000000	100.339519
2975.000000	100.344415
2974.000000	100.351875
2973.000000	100.361395
2972.000000	100.370203
2971.000000	100.376117
2970.000000	100.379863
2969.000000	100.384092
2968.000000	100.390806
2967.000000	100.400364
2966.000000	100.412301
2965.000000	100.425649
2964.000000	100.438246
2963.000000	100.447053
2962.000000	100.450395
2961.000000	100.449915
2960.000000	100.449659
2959.000000	100.452859
2958.000000	100.459600
2957.000000	100.467224
2956.000000	100.472301
2955.000000	100.472272
2954.000000	100.466511
2953.000000	100.457069
2952.000000	100.448241
2951.000000	100.444089
2950.000000	100.445584
2949.000000	100.450409
2948.000000	100.455949
2947.000000	100.462199
2946.000000	100.471317
2945.000000	100.484635
2944.000000	100.500947
2943.000000	100.517979
2942.000000	100.535012
2941.000000	100.553430
2940.000000	100.574671
2939.000000	100.598154
2938.000000	100.621735
2937.000000	100.644322
2936.000000	100.667576
2935.000000	100.694403
2934.000000	100.725528
2933.000000	100.757978
2932.000000	100.787334
2931.000000	100.811306
2930.000000	100.830697
2929.000000	100.847203
2928.000000	100.861305
2927.000000	100.872945
2926.000000	100.883301
2925.000000	100.893902
2924.000000	100.903186
2923.000000	100.905402
2922.000000	100.894881
2921.000000	100.871599
2920.000000	100.841497
2919.000000	100.811048
2918.000000	100.782324
2917.000000	100.753754
2916.000000	100.724062
2915.000000	100.693906
2914.000000	100.664330
2913.000000	100.635397
2912.000000	100.606963
2911.000000	100.580090
2910.000000	100.557191
2909.000000	100.540730
2908.000000	100.531468
2907.000000	100.527458
2906.000000	100.524819
2905.000000	100.520135
2904.000000	100.512314
2903.000000	100.502190
2902.000000	100.490802
2901.000000	100.478812
2900.000000	100.467231
2899.000000	100.457589
2898.000000	100.450856
2897.000000	100.446448
2896.000000	100.442594
2895.000000	100.437667
2894.000000	100.431416
2893.000000	100.425243
2892.000000	100.421082
2891.000000	100.419556
2890.000000	100.419457
2889.000000	100.419341
2888.000000	100.419029
2887.000000	100.418633
2886.000000	100.416739
2885.000000	100.411268
2884.000000	100.402589
2883.000000	100.394408
2882.000000	100.390578
2881.000000	100.391620
2880.000000	100.395181
2879.000000	100.399221
2878.000000	100.403620
2877.000000	100.408823
2876.000000	100.414165
2875.000000	100.418260
2874.000000	100.420527
2873.000000	100.421404
2872.000000	100.420947
2871.000000	100.418173
2870.000000	100.412785
2869.000000	100.407260
2868.000000	100.405769
2867.000000	100.410432
2866.000000	100.419626
2865.000000	100.430875
2864.000000	100.444329
2863.000000	100.461895
2862.000000	100.483657
2861.000000	100.507321
2860.000000	100.531159
2859.000000	100.555204
2858.000000	100.578896
2857.000000	100.599590
2856.000000	100.614753
2855.000000	100.624279
2854.000000	100.629295
2853.000000	100.629716
2852.000000	100.624307
2851.000000	100.612221
2850.000000	100.593017
2849.000000	100.565991
2848.000000	100.531390
2847.000000	100.492620
2846.000000	100.455806
2845.000000	100.425990
2844.000000	100.403870
2843.000000	100.386518
2842.000000	100.370875
2841.000000	100.356402
2840.000000	100.344720
2839.000000	100.337152
2838.000000	100.332891
2837.000000	100.329484
2836.000000	100.324802
2835.000000	100.318408
2834.000000	100.311350
2833.000000	100.305047
2832.000000	100.300193
2831.000000	100.296356
2830.000000	100.292847
2829.000000	100.290118
2828.000000	100.289532
2827.000000	100.291015
2826.000000	100.291987
2825.000000	100.290268
2824.000000	100.287549
2823.000000	100.287766
2822.000000	100.291562
2821.000000	100.294438
2820.000000	100.291744
2819.000000	100.284304
2818.000000	100.277823
2817.000000	100.277448
2816.000000	100.283681
2815.000000	100.292341
2814.000000	100.297384
2813.000000	100.295046
2812.000000	100.286968
2811.000000	100.279108
2810.000000	100.276332
2809.000000	100.278056
2808.000000	100.279692
2807.000000	100.277835
2806.000000	100.273323
2805.000000	100.269787
2804.000000	100.270189
2803.000000	100.274608
2802.000000	100.280295
2801.000000	100.283777
2800.000000	100.283660
2799.000000	100.281450
2798.000000	100.279514
2797.000000	100.278751
2796.000000	100.278744
2795.000000	100.279435
2794.000000	100.281398
2793.000000	100.284572
2792.000000	100.287859
2791.000000	100.290210
2790.000000	100.291448
2789.000000	100.291883
2788.000000	100.291826
2787.000000	100.291706
2786.000000	100.292069
2785.000000	100.293152
2784.000000	100.294663
2783.000000	100.296122
2782.000000	100.297266
2781.000000	100.298067
2780.000000	100.298546
2779.000000	100.298721
2778.000000	100.298678
2777.000000	100.298583
2776.000000	100.298608
2775.000000	100.298840
2774.000000	100.299308
2773.000000	100.300033
2772.000000	100.301083
2771.000000	100.302532
2770.000000	100.304225
2769.000000	100.305733
2768.000000	100.306764
2767.000000	100.307468
2766.000000	100.308277
2765.000000	100.309426
2764.000000	100.310734
2763.000000	100.311842
2762.000000	100.312631
2761.000000	100.313247
2760.000000	100.313916
2759.000000	100.314757
2758.000000	100.315754
2757.000000	100.316817
2756.000000	100.317842
2755.000000	100.318775
2754.000000	100.319611
2753.000000	100.320383
2752.000000	100.321142
2751.000000	100.321931
2750.000000	100.322757
2749.000000	100.323597
2748.000000	100.324443
2747.000000	100.325320
2746.000000	100.326239
2745.000000	100.327170
2744.000000	100.328073
2743.000000	100.328951
2742.000000	100.329827
2741.000000	100.330687
2740.000000	100.331484
2739.000000	100.332220
2738.000000	100.332959
2737.000000	100.333761
2736.000000	100.334613
2735.000000	100.335444
2734.000000	100.336202
2733.000000	100.336915
2732.000000	100.337653
2731.000000	100.338447
2730.000000	100.339256
2729.000000	100.340010
2728.000000	100.340674
2727.000000	100.341294
2726.000000	100.341945
2725.000000	100.342630
2724.000000	100.343261
2723.000000	100.343798
2722.000000	100.344359
2721.000000	100.345129
2720.000000	100.346188
2719.000000	100.347441
2718.000000	100.348685
2717.000000	100.349692
2716.000000	100.350240
2715.000000	100.350235
2714.000000	100.349863
2713.000000	100.349572
2712.000000	100.349731
2711.000000	100.350341
2710.000000	100.351102
2709.000000	100.351773
2708.000000	100.352411
2707.000000	100.353147
2706.000000	100.353891
2705.000000	100.354442
2704.000000	100.354792
2703.000000	100.355153
2702.000000	100.355679
2701.000000	100.356305
2700.000000	100.356886
2699.000000	100.357359
2698.000000	100.357755
2697.000000	100.358141
2696.000000	100.358577
2695.000000	100.359092
2694.000000	100.359671
2693.000000	100.360272
2692.000000	100.360844
2691.000000	100.361351
2690.000000	100.361784
2689.000000	100.362179
2688.000000	100.362596
2687.000000	100.363055
2686.000000	100.363527
2685.000000	100.363999
2684.000000	100.364517
2683.000000	100.365110
2682.000000	100.365739
2681.000000	100.366337
2680.000000	100.366882
2679.000000	100.367400
2678.000000	100.367909
2677.000000	100.368413
2676.000000	100.368907
2675.000000	100.369397
2674.000000	100.369883
2673.000000	100.370367
2672.000000	100.370853
2671.000000	100.371343
2670.000000	100.371839
2669.000000	100.372343
2668.000000	100.372855
2667.000000	100.373370
2666.000000	100.373882
2665.000000	100.374377
2664.000000	100.374853
2663.000000	100.375316
2662.000000	100.375780
2661.000000	100.376252
2660.000000	100.376731
2659.000000	100.377205
2658.000000	100.377668
2657.000000	100.378118
2656.000000	100.378558
2655.000000	100.378992
2654.000000	100.379422
2653.000000	100.379843
2652.000000	100.380250
2651.000000	100.380640
2650.000000	100.381016
2649.000000	100.381390
2648.000000	100.381771
2647.000000	100.382168
2646.000000	100.382581
2645.000000	100.383004
2644.000000	100.383431
2643.000000	100.383860
2642.000000	100.384288
2641.000000	100.384716
2640.000000	100.385142
2639.000000	100.385566
2638.000000	100.385988
2637.000000	100.386407
2636.000000	100.386822
2635.000000	100.387234
2634.000000	100.387646
2633.000000	100.388061
2632.000000	100.388486
2631.000000	100.388930
2630.000000	100.389399
2629.000000	100.389886
2628.000000	100.390366
2627.000000	100.390822
2626.000000	100.391256
2625.000000	100.391674
2624.000000	100.392068
2623.000000	100.392440
2622.000000	100.392825
2621.000000	100.393261
2620.000000	100.393723
2619.000000	100.394151
2618.000000	100.394541
2617.000000	100.394958
2616.000000	100.395439
2615.000000	100.395933
2614.000000	100.396356
2613.000000	100.396671
2612.000000	100.396910
2611.000000	100.397168
2610.000000	100.397536
2609.000000	100.398050
2608.000000	100.398658
2607.000000	100.399245
2606.000000	100.399728
2605.000000	100.400106
2604.000000	100.400395
2603.000000	100.400557
2602.000000	100.400558
2601.000000	100.400478
2600.000000	100.400529
2599.000000	100.400888
2598.000000	100.401545
2597.000000	100.402303
2596.000000	100.402962
2595.000000	100.403454
2594.000000	100.403763
2593.000000	100.403829
2592.000000	100.403643
2591.000000	100.403367
2590.000000	100.403185
2589.000000	100.403066
2588.000000	100.402861
2587.000000	100.402703
2586.000000	100.403032
2585.000000	100.404082
2584.000000	100.405585
2583.000000	100.407027
2582.000000	100.408126
2581.000000	100.408870
2580.000000	100.409252
2579.000000	100.409161
2578.000000	100.408582
2577.000000	100.407810
2576.000000	100.407357
2575.000000	100.407575
2574.000000	100.408358
2573.000000	100.409257
2572.000000	100.409938
2571.000000	100.410410
2570.000000	100.410717
2569.000000	100.410713
2568.000000	100.410434
2567.000000	100.410418
2566.000000	100.411144
2565.000000	100.412288
2564.000000	100.413017
2563.000000	100.413080
2562.000000	100.413164
2561.000000	100.413971
2560.000000	100.415409
2559.000000	100.416870
2558.000000	100.417997
2557.000000	100.418891
2556.000000	100.419742
2555.000000	100.420600
2554.000000	100.421438
2553.000000	100.422222
2552.000000	100.422952
2551.000000	100.423734
2550.000000	100.424722
2549.000000	100.425849
2548.000000	100.426716
2547.000000	100.426974
2546.000000	100.426751
2545.000000	100.426607
2544.000000	100.427022
2543.000000	100.428011
2542.000000	100.429197
2541.000000	100.430141
2540.000000	100.430702
2539.000000	100.431067
2538.000000	100.431519
2537.000000	100.432147
2536.000000	100.432819
2535.000000	100.433405
2534.000000	100.433924
2533.000000	100.434393
2532.000000	100.434659
2531.000000	100.434558
2530.000000	100.434257
2529.000000	100.434299
2528.000000	100.435121
2527.000000	100.436633
2526.000000	100.438217
2525.000000	100.439256
2524.000000	100.439651
2523.000000	100.439806
2522.000000	100.440165
2521.000000	100.440795
2520.000000	100.441475
2519.000000	100.442047
2518.000000	100.442500
2517.000000	100.442813
2516.000000	100.442983
2515.000000	100.443216
2514.000000	100.443767
2513.000000	100.444512
2512.000000	100.444936
2511.000000	100.444760
2510.000000	100.444391
2509.000000	100.444564
2508.000000	100.445640
2507.000000	100.447391
2506.000000	100.449260
2505.000000	100.450702
2504.000000	100.451500
2503.000000	100.451946
2502.000000	100.452665
2501.000000	100.454041
2500.000000	100.455872
2499.000000	100.457629
2498.000000	100.458914
2497.000000	100.459601
2496.000000	100.459732
2495.000000	100.459478
2494.000000	100.459102
2493.000000	100.458823
2492.000000	100.458741
2491.000000	100.458893
2490.000000	100.459239
2489.000000	100.459572
2488.000000	100.459678
2487.000000	100.459624
2486.000000	100.459674
2485.000000	100.459875
2484.000000	100.459998
2483.000000	100.460014
2482.000000	100.460351
2481.000000	100.461362
2480.000000	100.462802
2479.000000	100.463989
2478.000000	100.464516
2477.000000	100.464541
2476.000000	100.464481
2475.000000	100.464620
2474.000000	100.464988
2473.000000	100.465559
2472.000000	100.466328
2471.000000	100.467207
2470.000000	100.467992
2469.000000	100.468556
2468.000000	100.468974
2467.000000	100.469441
2466.000000	100.470075
2465.000000	100.470827
2464.000000	100.471563
2463.000000	100.472225
2462.000000	100.472868
2461.000000	100.473551
2460.000000	100.474256
2459.000000	100.474931
2458.000000	100.475573
2457.000000	100.476220
2456.000000	100.476900
2455.000000	100.477602
2454.000000	100.478307
2453.000000	100.479021
2452.000000	100.479770
2451.000000	100.480570
2450.000000	100.481389
2449.000000	100.482177
2448.000000	100.482932
2447.000000	100.483722
2446.000000	100.484603
2445.000000	100.485556
2444.000000	100.486533
2443.000000	100.487533
2442.000000	100.488551
2441.000000	100.489477
2440.000000	100.490168
2439.000000	100.490647
2438.000000	100.491116
2437.000000	100.491719
2436.000000	100.492411
2435.000000	100.493149
2434.000000	100.494023
2433.000000	100.495099
2432.000000	100.496232
2431.000000	100.497198
2430.000000	100.497994
2429.000000	100.498864
2428.000000	100.500010
2427.000000	100.501316
2426.000000	100.502383
2425.000000	100.502903
2424.000000	100.502971
2423.000000	100.503045
2422.000000	100.503500
2421.000000	100.504211
2420.000000	100.504684
2419.000000	100.504612
2418.000000	100.504217
2417.000000	100.504041
2416.000000	100.504434
2415.000000	100.505365
2414.000000	100.506556
2413.000000	100.507661
2412.000000	100.508405
2411.000000	100.508726
2410.000000	100.508871
2409.000000	100.509244
2408.000000	100.510034
2407.000000	100.511040
2406.000000	100.511895
2405.000000	100.512446
2404.000000	100.512844
2403.000000	100.513289
2402.000000	100.513767
2401.000000	100.514094
2400.000000	100.514200
2399.000000	100.514262
2398.000000	100.514549
2397.000000	100.515175
2396.000000	100.516017
2395.000000	100.516812
2394.000000	100.517308
2393.000000	100.517390
2392.000000	100.517118
2391.000000	100.516686
2390.000000	100.516322
2389.000000	100.516170
2388.000000	100.516282
2387.000000	100.516629
2386.000000	100.517098
2385.000000	100.517560
2384.000000	100.517991
2383.000000	100.518502
2382.000000	100.519170
2381.000000	100.519893
2380.000000	100.520441
2379.000000	100.520712
2378.000000	100.520812
2377.000000	100.520934
2376.000000	100.521178
2375.000000	100.521499
2374.000000	100.521830
2373.000000	100.522156
2372.000000	100.522493
2371.000000	100.522834
2370.000000	100.523153
2369.000000	100.523446
2368.000000	100.523735
2367.000000	100.524045
2366.000000	100.524379
2365.000000	100.524730
2364.000000	100.525092
2363.000000	100.525463
2362.000000	100.525841
2361.000000	100.526222
2360.000000	100.526604
2359.000000	100.526987
2358.000000	100.527372
2357.000000	100.527761
2356.000000	100.528151
2355.000000	100.528536
2354.000000	100.528913
2353.000000	100.529289
2352.000000	100.529673
2351.000000	100.530074
2350.000000	100.530492
2349.000000	100.530920
2348.000000	100.531347
2347.000000	100.531766
2346.000000	100.532174
2345.000000	100.532567
2344.000000	100.532942
2343.000000	100.533292
2342.000000	100.533611
2341.000000	100.533901
2340.000000	100.534166
2339.000000	100.534420
2338.000000	100.534671
2337.000000	100.534924
2336.000000	100.535176
2335.000000	100.535415
2334.000000	100.535634
2333.000000	100.535834
2332.000000	100.536023
2331.000000	100.536208
2330.000000	100.536392
2329.000000	100.536575
2328.000000	100.536758
2327.000000	100.536945
2326.000000	100.537136
2325.000000	100.537326
2324.000000	100.537505
2323.000000	100.537663
2322.000000	100.537797
2321.000000	100.537912
2320.000000	100.538016
2319.000000	100.538117
2318.000000	100.538221
2317.000000	100.538328
2316.000000	100.538435
2315.000000	100.538543
2314.000000	100.538650
2313.000000	100.538762
2312.000000	100.538891
2311.000000	100.539036
2310.000000	100.539179
2309.000000	100.539306
2308.000000	100.539403
2307.000000	100.539453
2306.000000	100.539460
2305.000000	100.539447
2304.000000	100.539426
2303.000000	100.539386
2302.000000	100.539337
2301.000000	100.539323
2300.000000	100.539387
2299.000000	100.539559
2298.000000	100.539886
2297.000000	100.540386
2296.000000	100.540960
2295.000000	100.541402
2294.000000	100.541592
2293.000000	100.541620
2292.000000	100.541719
2291.000000	100.542042
2290.000000	100.542514
2289.000000	100.542910
2288.000000	100.543084
2287.000000	100.543090
2286.000000	100.543109
2285.000000	100.543285
2284.000000	100.543649
2283.000000	100.544148
2282.000000	100.544647
2281.000000	100.544948
2280.000000	100.544920
2279.000000	100.544670
2278.000000	100.544541
2277.000000	100.544820
2276.000000	100.545477
2275.000000	100.546200
2274.000000	100.546712
2273.000000	100.546957
2272.000000	100.547014
2271.000000	100.546886
2270.000000	100.546446
2269.000000	100.545651
2268.000000	100.544728
2267.000000	100.544111
2266.000000	100.544095
2265.000000	100.544604
2264.000000	100.545273
2263.000000	100.545789
2262.000000	100.546113
2261.000000	100.546338
2260.000000	100.546493
2259.000000	100.546545
2258.000000	100.546504
2257.000000	100.546393
2256.000000	100.546179
2255.000000	100.545807
2254.000000	100.545314
2253.000000	100.544846
2252.000000	100.544558
2251.000000	100.544486
2250.000000	100.544506
2249.000000	100.544414
2248.000000	100.544094
2247.000000	100.543674
2246.000000	100.543455
2245.000000	100.543639
2244.000000	100.544112
2243.000000	100.544511
2242.000000	100.544496
2241.000000	100.544037
2240.000000	100.543483
2239.000000	100.543311
2238.000000	100.543680
2237.000000	100.544245
2236.000000	100.544526
2235.000000	100.544480
2234.000000	100.544513
2233.000000	100.544916
2232.000000	100.545567
2231.000000	100.546218
2230.000000	100.546814
2229.000000	100.547393
2228.000000	100.547858
2227.000000	100.548041
2226.000000	100.547941
2225.000000	100.547781
2224.000000	100.547817
2223.000000	100.548190
2222.000000	100.548903
2221.000000	100.549835
2220.000000	100.550804
2219.000000	100.551630
2218.000000	100.552162
2217.000000	100.552312
2216.000000	100.552223
2215.000000	100.552362
2214.000000	100.553171
2213.000000	100.554582
2212.000000	100.556046
2211.000000	100.557141
2210.000000	100.557968
2209.000000	100.558791
2208.000000	100.559549
2207.000000	100.559981
2206.000000	100.560109
2205.000000	100.560322
2204.000000	100.560980
2203.000000	100.562109
2202.000000	100.563453
2201.000000	100.564691
2200.000000	100.565655
2199.000000	100.566436
2198.000000	100.567248
2197.000000	100.568073
2196.000000	100.568629
2195.000000	100.568764
2194.000000	100.568696
2193.000000	100.568750
2192.000000	100.569014
2191.000000	100.569384
2190.000000	100.569798
2189.000000	100.570278
2188.000000	100.570806
2187.000000	100.571321
2186.000000	100.571794
2185.000000	100.572226
2184.000000	100.572604
2183.000000	100.572917
2182.000000	100.573213
2181.000000	100.573558
2180.000000	100.573966
2179.000000	100.574396
2178.000000	100.574810
2177.000000	100.575188
2176.000000	100.575535
2175.000000	100.575867
2174.000000	100.576190
2173.000000	100.576504
2172.000000	100.576812
2171.000000	100.577117
2170.000000	100.577418
2169.000000	100.577714
2168.000000	100.578005
2167.000000	100.578292
2166.000000	100.578576
2165.000000	100.578862
2164.000000	100.579150
2163.000000	100.579445
2162.000000	100.579748
2161.000000	100.580060
2160.000000	100.580379
2159.000000	100.580699
2158.000000	100.581014
2157.000000	100.581326
2156.000000	100.581642
2155.000000	100.581973
2154.000000	100.582332
2153.000000	100.582722
2152.000000	100.583142
2151.000000	100.583584
2150.000000	100.584042
2149.000000	100.584509
2148.000000	100.584983
2147.000000	100.585461
2146.000000	100.585945
2145.000000	100.586438
2144.000000	100.586945
2143.000000	100.587470
2142.000000	100.588009
2141.000000	100.588558
2140.000000	100.589111
2139.000000	100.589667
2138.000000	100.590226
2137.000000	100.590786
2136.000000	100.591357
2135.000000	100.591946
2134.000000	100.592548
2133.000000	100.593149
2132.000000	100.593739
2131.000000	100.594319
2130.000000	100.594901
2129.000000	100.595490
2128.000000	100.596066
2127.000000	100.596637
2126.000000	100.597268
2125.000000	100.598008
2124.000000	100.598808
2123.000000	100.599595
2122.000000	100.600397
2121.000000	100.601293
2120.000000	100.602222
2119.000000	100.602978
2118.000000	100.603434
2117.000000	100.603737
2116.000000	100.604208
2115.000000	100.605096
2114.000000	100.606413
2113.000000	100.607959
2112.000000	100.609443
2111.000000	100.610631
2110.000000	100.611424
2109.000000	100.611802
2108.000000	100.611788
2107.000000	100.611544
2106.000000	100.611410
2105.000000	100.611723
2104.000000	100.612597
2103.000000	100.613925
2102.000000	100.615532
2101.000000	100.617193
2100.000000	100.618586
2099.000000	100.619440
2098.000000	100.619779
2097.000000	100.619886
2096.000000	100.619977
2095.000000	100.620054
2094.000000	100.620110
2093.000000	100.620241
2092.000000	100.620510
2091.000000	100.620883
2090.000000	100.621371
2089.000000	100.622123
2088.000000	100.623291
2087.000000	100.624835
2086.000000	100.626416
2085.000000	100.627555
2084.000000	100.627984
2083.000000	100.627944
2082.000000	100.628016
2081.000000	100.628505
2080.000000	100.629169
2079.000000	100.629722
2078.000000	100.630329
2077.000000	100.631222
2076.000000	100.632061
2075.000000	100.632242
2074.000000	100.631871
2073.000000	100.631868
2072.000000	100.632874
2071.000000	100.634520
2070.000000	100.636097
2069.000000	100.637546
2068.000000	100.639272
2067.000000	100.641153
2066.000000	100.642317
2065.000000	100.642102
2064.000000	100.640851
2063.000000	100.639523
2062.000000	100.638703
2061.000000	100.638344
2060.000000	100.638371
2059.000000	100.639036
2058.000000	100.640402
2057.000000	100.641765
2056.000000	100.642112
2055.000000	100.641203
2054.000000	100.639885
2053.000000	100.639215
2052.000000	100.639472
2051.000000	100.640214
2050.000000	100.640879
2049.000000	100.640981
2048.000000	100.640012
2047.000000	100.637756
2046.000000	100.634819
2045.000000	100.632446
2044.000000	100.631426
2043.000000	100.631475
2042.000000	100.631703
2041.000000	100.631568
2040.000000	100.631236
2039.000000	100.631056
2038.000000	100.631054
2037.000000	100.631015
2036.000000	100.630844
2035.000000	100.630619
2034.000000	100.630335
2033.000000	100.629792
2032.000000	100.628888
2031.000000	100.627913
2030.000000	100.627314
2029.000000	100.627144
2028.000000	100.626920
2027.000000	100.626148
2026.000000	100.624842
2025.000000	100.623387
2024.000000	100.622077
2023.000000	100.620968
2022.000000	100.620101
2021.000000	100.619597
2020.000000	100.619511
2019.000000	100.619707
2018.000000	100.619908
2017.000000	100.619758
2016.000000	100.618916
2015.000000	100.617299
2014.000000	100.615287
2013.000000	100.613541
2012.000000	100.612445
2011.000000	100.611885
2010.000000	100.611624
2009.000000	100.611688
2008.000000	100.612157
2007.000000	100.612756
2006.000000	100.612929
2005.000000	100.612355
2004.000000	100.611233
2003.000000	100.610007
2002.000000	100.608950
2001.000000	100.608058
2000.000000	100.607244
1999.000000	100.606600
1998.000000	100.606444
1997.000000	100.607086
1996.000000	100.608444
1995.000000	100.609873
1994.000000	100.610489
1993.000000	100.609846
1992.000000	100.608402
1991.000000	100.607267
1990.000000	100.607224
1989.000000	100.608141
1988.000000	100.609362
1987.000000	100.610470
1986.000000	100.611502
1985.000000	100.612493
1984.000000	100.613219
1983.000000	100.613565
1982.000000	100.613809
1981.000000	100.614178
1980.000000	100.614340
1979.000000	100.613765
1978.000000	100.612425
1977.000000	100.610819
1976.000000	100.609373
1975.000000	100.608131
1974.000000	100.607062
1973.000000	100.606340
1972.000000	100.606286
1971.000000	100.607221
1970.000000	100.609246
1969.000000	100.611896
1968.000000	100.614141
1967.000000	100.615247
1966.000000	100.615547
1965.000000	100.615894
1964.000000	100.616410
1963.000000	100.616391
1962.000000	100.615506
1961.000000	100.614441
1960.000000	100.614078
1959.000000	100.614410
1958.000000	100.614695
1957.000000	100.614435
1956.000000	100.613799
1955.000000	100.613223
1954.000000	100.612961
1953.000000	100.613130
1952.000000	100.613829
1951.000000	100.614939
1950.000000	100.615947
1949.000000	100.616250
1948.000000	100.615649
1947.000000	100.614521
1946.000000	100.613499
1945.000000	100.613011
1944.000000	100.613104
1943.000000	100.613484
1942.000000	100.613586
1941.000000	100.612869
1940.000000	100.611272
1939.000000	100.609428
1938.000000	100.608293
1937.000000	100.608321
1936.000000	100.609004
1935.000000	100.609375
1934.000000	100.608958
1933.000000	100.607968
1932.000000	100.606713
1931.000000	100.605182
1930.000000	100.603385
1929.000000	100.601654
1928.000000	100.600433
1927.000000	100.599824
1926.000000	100.599577
1925.000000	100.599519
1924.000000	100.599711
1923.000000	100.600231
1922.000000	100.600879
1921.000000	100.601241
1920.000000	100.601020
1919.000000	100.600192
1918.000000	100.598901
1917.000000	100.597207
1916.000000	100.594990
1915.000000	100.592250
1914.000000	100.589469
1913.000000	100.587469
1912.000000	100.586660
1911.000000	100.586457
1910.000000	100.585617
1909.000000	100.583187
1908.000000	100.579333
1907.000000	100.575313
1906.000000	100.572559
1905.000000	100.571637
1904.000000	100.571797
1903.000000	100.571765
1902.000000	100.570991
1901.000000	100.569764
1900.000000	100.568342
1899.000000	100.566573
1898.000000	100.564472
1897.000000	100.562531
1896.000000	100.561134
1895.000000	100.560197
1894.000000	100.559518
1893.000000	100.558871
1892.000000	100.557640
1891.000000	100.555188
1890.000000	100.552093
1889.000000	100.550013
1888.000000	100.549470
1887.000000	100.548967
1886.000000	100.547146
1885.000000	100.544693
1884.000000	100.543269
1883.000000	100.543335
1882.000000	100.544123
1881.000000	100.545027
1880.000000	100.545675
1879.000000	100.545079
1878.000000	100.542307
1877.000000	100.538271
1876.000000	100.535372
1875.000000	100.534844
1874.000000	100.535546
1873.000000	100.535686
1872.000000	100.534889
1871.000000	100.534076
1870.000000	100.534055
1869.000000	100.534811
1868.000000	100.536099
1867.000000	100.538063
1866.000000	100.540861
1865.000000	100.544270
1864.000000	100.547814
1863.000000	100.550979
1862.000000	100.553547
1861.000000	100.555884
1860.000000	100.558622
1859.000000	100.561844
1858.000000	100.564787
1857.000000	100.566481
1856.000000	100.566497
1855.000000	100.565033
1854.000000	100.563076
1853.000000	100.562433
1852.000000	100.564776
1851.000000	100.570136
1850.000000	100.576396
1849.000000	100.581025
1848.000000	100.583447
1847.000000	100.585321
1846.000000	100.588520
1845.000000	100.592976
1844.000000	100.596493
1843.000000	100.597380
1842.000000	100.596433
1841.000000	100.595449
1840.000000	100.595584
1839.000000	100.597249
1838.000000	100.600240
1837.000000	100.603826
1836.000000	100.606972
1835.000000	100.608907
1834.000000	100.609601
1833.000000	100.609637
1832.000000	100.609728
1831.000000	100.610247
1830.000000	100.610921
1829.000000	100.611146
1828.000000	100.610554
1827.000000	100.609016
1826.000000	100.606578
1825.000000	100.604104
1824.000000	100.603308
1823.000000	100.605306
1822.000000	100.609402
1821.000000	100.613438
1820.000000	100.615488
1819.000000	100.615440
1818.000000	100.614821
1817.000000	100.615053
1816.000000	100.616038
1815.000000	100.616794
1814.000000	100.616730
1813.000000	100.615899
1812.000000	100.614520
1811.000000	100.612719
1810.000000	100.610862
1809.000000	100.609730
1808.000000	100.610008
1807.000000	100.611601
1806.000000	100.613563
1805.000000	100.614940
1804.000000	100.615375
1803.000000	100.615011
1802.000000	100.614109
1801.000000	100.613121
1800.000000	100.612887
1799.000000	100.613699
1798.000000	100.614655
1797.000000	100.614730
1796.000000	100.614118
1795.000000	100.613752
1794.000000	100.613809
1793.000000	100.613427
1792.000000	100.612609
1791.000000	100.613265
1790.000000	100.616786
1789.000000	100.622318
1788.000000	100.628160
1787.000000	100.633026
1786.000000	100.635856
1785.000000	100.636074
1784.000000	100.634656
1783.000000	100.634043
1782.000000	100.635801
1781.000000	100.639148
1780.000000	100.642647
1779.000000	100.646320
1778.000000	100.651349
1777.000000	100.657492
1776.000000	100.662547
1775.000000	100.664706
1774.000000	100.664468
1773.000000	100.664035
1772.000000	100.665076
1771.000000	100.668155
1770.000000	100.673570
1769.000000	100.680748
1768.000000	100.687403
1767.000000	100.691339
1766.000000	100.692876
1765.000000	100.694436
1764.000000	100.698044
1763.000000	100.703946
1762.000000	100.710458
1761.000000	100.715979
1760.000000	100.721618
1759.000000	100.729990
1758.000000	100.742399
1757.000000	100.756928
1756.000000	100.769773
1755.000000	100.779600
1754.000000	100.788322
1753.000000	100.797630
1752.000000	100.807172
1751.000000	100.815912
1750.000000	100.824741
1749.000000	100.835301
1748.000000	100.846298
1747.000000	100.855364
1746.000000	100.862429
1745.000000	100.868842
1744.000000	100.874892
1743.000000	100.879915
1742.000000	100.884025
1741.000000	100.887221
1740.000000	100.887277
1739.000000	100.882140
1738.000000	100.873900
1737.000000	100.865251
1736.000000	100.855414
1735.000000	100.840938
1734.000000	100.821330
1733.000000	100.803512
1732.000000	100.793271
1731.000000	100.789121
1730.000000	100.788321
1729.000000	100.789559
1728.000000	100.790670
1727.000000	100.789232
1726.000000	100.784560
1725.000000	100.778554
1724.000000	100.773774
1723.000000	100.771083
1722.000000	100.769803
1721.000000	100.768949
1720.000000	100.767434
1719.000000	100.763656
1718.000000	100.755746
1717.000000	100.744600
1716.000000	100.735737
1715.000000	100.733240
1714.000000	100.735456
1713.000000	100.738328
1712.000000	100.738896
1711.000000	100.736606
1710.000000	100.733008
1709.000000	100.730133
1708.000000	100.728714
1707.000000	100.727586
1706.000000	100.724790
1705.000000	100.719820
1704.000000	100.714427
1703.000000	100.710261
1702.000000	100.707841
1701.000000	100.707236
1700.000000	100.707344
1699.000000	100.706580
1698.000000	100.704212
1697.000000	100.700142
1696.000000	100.695634
1695.000000	100.692814
1694.000000	100.691871
1693.000000	100.691375
1692.000000	100.690423
1691.000000	100.689265
1690.000000	100.688389
1689.000000	100.687462
1688.000000	100.685708
1687.000000	100.682788
1686.000000	100.678858
1685.000000	100.674598
1684.000000	100.671493
1683.000000	100.670759
1682.000000	100.671778
1681.000000	100.672916
1680.000000	100.673212
1679.000000	100.673043
1678.000000	100.673160
1677.000000	100.673752
1676.000000	100.674033
1675.000000	100.673100
1674.000000	100.671334
1673.000000	100.669813
1672.000000	100.668723
1671.000000	100.667491
1670.000000	100.665773
1669.000000	100.664002
1668.000000	100.662814
1667.000000	100.662092
1666.000000	100.661261
1665.000000	100.660026
1664.000000	100.658533
1663.000000	100.657125
1662.000000	100.655999
1661.000000	100.655116
1660.000000	100.654290
1659.000000	100.653342
1658.000000	100.652142
1657.000000	100.651012
1656.000000	100.650498
1655.000000	100.651137
1654.000000	100.651860
1653.000000	100.649316
1652.000000	100.644154
1651.000000	100.640970
1650.000000	100.640263
1649.000000	100.640015
1648.000000	100.639152
1647.000000	100.637719
1646.000000	100.637075
1645.000000	100.637809
1644.000000	100.639153
1643.000000	100.639823
1642.000000	100.639202
1641.000000	100.637027
1640.000000	100.633402
1639.000000	100.628773
1638.000000	100.623956
1637.000000	100.620258
1636.000000	100.618834
1635.000000	100.619174
1634.000000	100.619949
1633.000000	100.620496
1632.000000	100.620150
1631.000000	100.618772
1630.000000	100.617170
1629.000000	100.616672
1628.000000	100.617962
1627.000000	100.620525
1626.000000	100.623420
1625.000000	100.626044
1624.000000	100.627946
1623.000000	100.628507
1622.000000	100.627938
1621.000000	100.627503
1620.000000	100.627879
1619.000000	100.628627
1618.000000	100.629134
1617.000000	100.629516
1616.000000	100.631094
1615.000000	100.634905
1614.000000	100.639918
1613.000000	100.643852
1612.000000	100.645182
1611.000000	100.644393
1610.000000	100.643917
1609.000000	100.646220
1608.000000	100.651725
1607.000000	100.658420
1606.000000	100.663807
1605.000000	100.667132
1604.000000	100.669807
1603.000000	100.674018
1602.000000	100.680863
1601.000000	100.689321
1600.000000	100.696923
1599.000000	100.701805
1598.000000	100.704232
1597.000000	100.705826
1596.000000	100.707552
1595.000000	100.709078
1594.000000	100.710226
1593.000000	100.712111
1592.000000	100.716058
1591.000000	100.722004
1590.000000	100.728543
1589.000000	100.734278
1588.000000	100.738690
1587.000000	100.741769
1586.000000	100.743804
1585.000000	100.745621
1584.000000	100.748355
1583.000000	100.752574
1582.000000	100.757589
1581.000000	100.762158
1580.000000	100.765723
1579.000000	100.768759
1578.000000	100.772135
1577.000000	100.776397
1576.000000	100.780754
1575.000000	100.784067
1574.000000	100.786707
1573.000000	100.789073
1572.000000	100.790756
1571.000000	100.791803
1570.000000	100.793025
1569.000000	100.795140
1568.000000	100.797926
1567.000000	100.800979
1566.000000	100.804373
1565.000000	100.808395
1564.000000	100.812269
1563.000000	100.814718
1562.000000	100.815507
1561.000000	100.815827
1560.000000	100.817269
1559.000000	100.817396
1558.000000	100.815023
1557.000000	100.816896
1556.000000	100.824242
1555.000000	100.831410
1554.000000	100.835407
1553.000000	100.836520
1552.000000	100.837877
1551.000000	100.840368
1550.000000	100.842582
1549.000000	100.842975
1548.000000	100.842050
1547.000000	100.841443
1546.000000	100.842343
1545.000000	100.845107
1544.000000	100.849304
1543.000000	100.853721
1542.000000	100.856602
1541.000000	100.855293
1540.000000	100.847394
1539.000000	100.835895
1538.000000	100.827157
1537.000000	100.822932
1536.000000	100.821571
1535.000000	100.822049
1534.000000	100.822701
1533.000000	100.820700
1532.000000	100.815498
1531.000000	100.809624
1530.000000	100.804876
1529.000000	100.801474
1528.000000	100.799024
1527.000000	100.797341
1526.000000	100.796821
1525.000000	100.797824
1524.000000	100.800007
1523.000000	100.802135
1522.000000	100.801843
1521.000000	100.797356
1520.000000	100.790784
1519.000000	100.785457
1518.000000	100.781820
1517.000000	100.778865
1516.000000	100.776172
1515.000000	100.774061
1514.000000	100.772372
1513.000000	100.770034
1512.000000	100.766518
1511.000000	100.762922
1510.000000	100.761510
1509.000000	100.763934
1508.000000	100.770138
1507.000000	100.775332
1506.000000	100.773768
1505.000000	100.768775
1504.000000	100.765945
1503.000000	100.765070
1502.000000	100.764618
1501.000000	100.763787
1500.000000	100.762995
1499.000000	100.762959
1498.000000	100.763587
1497.000000	100.763041
1496.000000	100.759650
1495.000000	100.754785
1494.000000	100.750725
1493.000000	100.748179
1492.000000	100.748005
1491.000000	100.752219
1490.000000	100.760605
1489.000000	100.767682
1488.000000	100.768745
1487.000000	100.765453
1486.000000	100.762078
1485.000000	100.760640
1484.000000	100.760392
1483.000000	100.760166
1482.000000	100.759793
1481.000000	100.759734
1480.000000	100.760509
1479.000000	100.763117
1478.000000	100.768796
1477.000000	100.777594
1476.000000	100.787966
1475.000000	100.799109
1474.000000	100.812149
1473.000000	100.826220
1472.000000	100.837170
1471.000000	100.844542
1470.000000	100.852527
1469.000000	100.862973
1468.000000	100.873635
1467.000000	100.880892
1466.000000	100.882220
1465.000000	100.877515
1464.000000	100.870089
1463.000000	100.864749
1462.000000	100.863666
1461.000000	100.865929
1460.000000	100.869727
1459.000000	100.873747
1458.000000	100.876937
1457.000000	100.876884
1456.000000	100.872819
1455.000000	100.868142
1454.000000	100.864268
1453.000000	100.859492
1452.000000	100.853650
1451.000000	100.848539
1450.000000	100.845636
1449.000000	100.843654
1448.000000	100.840324
1447.000000	100.836308
1446.000000	100.834655
1445.000000	100.835865
1444.000000	100.837142
1443.000000	100.835578
1442.000000	100.831231
1441.000000	100.826699
1440.000000	100.823894
1439.000000	100.822150
1438.000000	100.819100
1437.000000	100.812814
1436.000000	100.804844
1435.000000	100.799641
1434.000000	100.798571
1433.000000	100.799130
1432.000000	100.799288
1431.000000	100.799458
1430.000000	100.800868
1429.000000	100.802629
1428.000000	100.802162
1427.000000	100.798874
1426.000000	100.794962
1425.000000	100.792616
1424.000000	100.791843
1423.000000	100.791394
1422.000000	100.791573
1421.000000	100.794293
1420.000000	100.800566
1419.000000	100.807965
1418.000000	100.812721
1417.000000	100.814378
1416.000000	100.814646
1415.000000	100.814838
1414.000000	100.815545
1413.000000	100.816327
1412.000000	100.816228
1411.000000	100.815530
1410.000000	100.816516
1409.000000	100.821017
1408.000000	100.827787
1407.000000	100.833391
1406.000000	100.835533
1405.000000	100.834984
1404.000000	100.834492
1403.000000	100.836235
1402.000000	100.840524
1401.000000	100.845976
1400.000000	100.849894
1399.000000	100.849866
1398.000000	100.846626
1397.000000	100.843560
1396.000000	100.842966
1395.000000	100.844559
1394.000000	100.846911
1393.000000	100.849184
1392.000000	100.851271
1391.000000	100.853396
1390.000000	100.856117
1389.000000	100.859714
1388.000000	100.863175
1387.000000	100.864921
1386.000000	100.865470
1385.000000	100.867240
1384.000000	100.871174
1383.000000	100.875569
1382.000000	100.878447
1381.000000	100.879886
1380.000000	100.881185
1379.000000	100.882426
1378.000000	100.882367
1377.000000	100.880578
1376.000000	100.878131
1375.000000	100.875969
1374.000000	100.873684
1373.000000	100.870657
1372.000000	100.867622
1371.000000	100.866063
1370.000000	100.866782
1369.000000	100.869319
1368.000000	100.872213
1367.000000	100.874057
1366.000000	100.874512
1365.000000	100.874190
1364.000000	100.873882
1363.000000	100.873863
1362.000000	100.873823
1361.000000	100.873673
1360.000000	100.873818
1359.000000	100.874344
1358.000000	100.874571
1357.000000	100.873772
1356.000000	100.872318
1355.000000	100.871714
1354.000000	100.873056
1353.000000	100.875772
1352.000000	100.878321
1351.000000	100.879794
1350.000000	100.880337
1349.000000	100.880380
1348.000000	100.879982
1347.000000	100.878925
1346.000000	100.877117
1345.000000	100.874750
1344.000000	100.872410
1343.000000	100.870972
1342.000000	100.871038
1341.000000	100.872337
1340.000000	100.873783
1339.000000	100.874397
1338.000000	100.874096
1337.000000	100.873386
1336.000000	100.872758
1335.000000	100.872576
1334.000000	100.872837
1333.000000	100.872903
1332.000000	100.872197
1331.000000	100.871447
1330.000000	100.872300
1329.000000	100.875046
1328.000000	100.877598
1327.000000	100.877861
1326.000000	100.876575
1325.000000	100.876480
1324.000000	100.878623
1323.000000	100.880978
1322.000000	100.881255
1321.000000	100.879663
1320.000000	100.878126
1319.000000	100.877686
1318.000000	100.877779
1317.000000	100.877756
1316.000000	100.877785
1315.000000	100.878086
1314.000000	100.878207
1313.000000	100.877480
1312.000000	100.875825
1311.000000	100.873861
1310.000000	100.872503
1309.000000	100.872591
1308.000000	100.874533
1307.000000	100.877741
1306.000000	100.880554
1305.000000	100.881392
1304.000000	100.880159
1303.000000	100.878326
1302.000000	100.877384
1301.000000	100.877283
1300.000000	100.876812
1299.000000	100.875401
1298.000000	100.874124
1297.000000	100.874779
1296.000000	100.878050
1295.000000	100.882473
1294.000000	100.885048
1293.000000	100.883315
1292.000000	100.877607
1291.000000	100.871475
1290.000000	100.868743
1289.000000	100.869818
1288.000000	100.871761
1287.000000	100.872001
1286.000000	100.870681
1285.000000	100.869019
1284.000000	100.867073
1283.000000	100.864209
1282.000000	100.860565
1281.000000	100.856994
1280.000000	100.854457
1279.000000	100.854208
1278.000000	100.857234
1277.000000	100.862348
1276.000000	100.866156
1275.000000	100.866577
1274.000000	100.865383
1273.000000	100.865396
1272.000000	100.865990
1271.000000	100.863832
1270.000000	100.858163
1269.000000	100.852873
1268.000000	100.852409
1267.000000	100.857233
1266.000000	100.864138
1265.000000	100.869849
1264.000000	100.873395
1263.000000	100.875631
1262.000000	100.877485
1261.000000	100.878997
1260.000000	100.879966
1259.000000	100.881007
1258.000000	100.882782
1257.000000	100.883681
1256.000000	100.879734
1255.000000	100.868473
1254.000000	100.852459
1253.000000	100.837383
1252.000000	100.826538
1251.000000	100.818189
1250.000000	100.808244
1249.000000	100.794514
1248.000000	100.778610
1247.000000	100.764762
1246.000000	100.756585
1245.000000	100.753871
1244.000000	100.752562
1243.000000	100.748426
1242.000000	100.740400
1241.000000	100.729848
1240.000000	100.717721
1239.000000	100.703978
1238.000000	100.689111
1237.000000	100.674417
1236.000000	100.660818
1235.000000	100.648529
1234.000000	100.637243
1233.000000	100.625213
1232.000000	100.608987
1231.000000	100.586424
1230.000000	100.560054
1229.000000	100.535135
1228.000000	100.513761
1227.000000	100.492969
1226.000000	100.469346
1225.000000	100.443008
1224.000000	100.415211
1223.000000	100.383948
1222.000000	100.344944
1221.000000	100.296970
1220.000000	100.243942
1219.000000	100.190832
1218.000000	100.138597
1217.000000	100.084321
1216.000000	100.025736
1215.000000	99.964026
1214.000000	99.902064
1213.000000	99.841232
1212.000000	99.780949
1211.000000	99.720578
1210.000000	99.660671
1209.000000	99.602363
1208.000000	99.545980
1207.000000	99.490141
1206.000000	99.432334
1205.000000	99.371229
1204.000000	99.308651
1203.000000	99.248169
1202.000000	99.191041
1201.000000	99.134364
1200.000000	99.074161
1199.000000	99.009983
1198.000000	98.945842
1197.000000	98.886570
1196.000000	98.833238
1195.000000	98.781752
1194.000000	98.726249
1193.000000	98.664598
1192.000000	98.600152
1191.000000	98.537322
1190.000000	98.476263
1189.000000	98.413439
1188.000000	98.346622
1187.000000	98.277193
1186.000000	98.207802
1185.000000	98.140082
1184.000000	98.074651
1183.000000	98.010666
1182.000000	97.944696
1181.000000	97.872571
1180.000000	97.793555
1179.000000	97.711016
1178.000000	97.628301
1177.000000	97.545715
1176.000000	97.461963
1175.000000	97.376375
1174.000000	97.288866
1173.000000	97.199596
1172.000000	97.109297
1171.000000	97.018522
1170.000000	96.926969
1169.000000	96.835865
1168.000000	96.750410
1167.000000	96.676657
1166.000000	96.616262
1165.000000	96.568043
1164.000000	96.534647
1163.000000	96.523106
1162.000000	96.537310
1161.000000	96.572496
1160.000000	96.616803
1159.000000	96.655327
1158.000000	96.674460
1157.000000	96.667556
1156.000000	96.637678
1155.000000	96.592467
1154.000000	96.536353
1153.000000	96.470172
1152.000000	96.396927
1151.000000	96.322748
1150.000000	96.251391
1149.000000	96.181966
1148.000000	96.112759
1147.000000	96.043115
1146.000000	95.971385
1145.000000	95.896032
1144.000000	95.819797
1143.000000	95.748121
1142.000000	95.682254
1141.000000	95.618200
1140.000000	95.553012
1139.000000	95.487099
1138.000000	95.419801
1137.000000	95.348579
1136.000000	95.274228
1135.000000	95.201399
1134.000000	95.131711
1133.000000	95.061108
1132.000000	94.986100
1131.000000	94.908126
1130.000000	94.830220
1129.000000	94.753912
1128.000000	94.680660
1127.000000	94.611207
1126.000000	94.541924
1125.000000	94.466851
1124.000000	94.385128
1123.000000	94.302103
1122.000000	94.222512
1121.000000	94.147523
1120.000000	94.078194
1119.000000	94.014536
1118.000000	93.950364
1117.000000	93.877423
1116.000000	93.797085
1115.000000	93.720085
1114.000000	93.651571
1113.000000	93.584394
1112.000000	93.511258
1111.000000	93.435844
1110.000000	93.366632
1109.000000	93.305901
1108.000000	93.249690
1107.000000	93.193519
1106.000000	93.134068
1105.000000	93.069657
1104.000000	93.002682
1103.000000	92.938274
1102.000000	92.878631
1101.000000	92.821736
1100.000000	92.765631
1099.000000	92.709502
1098.000000	92.651317
1097.000000	92.590857
1096.000000	92.533982
1095.000000	92.486672
1094.000000	92.445206
1093.000000	92.400025
1092.000000	92.349098
1091.000000	92.299499
1090.000000	92.256248
1089.000000	92.218332
1088.000000	92.185430
1087.000000	92.158785
1086.000000	92.134607
1085.000000	92.106088
1084.000000	92.073196
1083.000000	92.041924
1082.000000	92.013705
1081.000000	91.984934
1080.000000	91.956937
1079.000000	91.935290
1078.000000	91.917515
1077.000000	91.892089
1076.000000	91.852196
1075.000000	91.801090
1074.000000	91.742230
1073.000000	91.673772
1072.000000	91.594817
1071.000000	91.507151
1070.000000	91.407766
1069.000000	91.288572
1068.000000	91.147032
1067.000000	90.990121
1066.000000	90.826157
1065.000000	90.659960
1064.000000	90.496633
1063.000000	90.340933
1062.000000	90.191679
1061.000000	90.045881
1060.000000	89.908433
1059.000000	89.787391
1058.000000	89.679983
1057.000000	89.575077
1056.000000	89.469105
1055.000000	89.366032
1054.000000	89.261112
1053.000000	89.140337
1052.000000	89.000398
1051.000000	88.854455
1050.000000	88.711770
1049.000000	88.566126
1048.000000	88.410834
1047.000000	88.249865
1046.000000	88.088125
1045.000000	87.924865
1044.000000	87.761275
1043.000000	87.601641
1042.000000	87.443416
1041.000000	87.279091
1040.000000	87.111669
1039.000000	86.955373
1038.000000	86.817308
1037.000000	86.691401
1036.000000	86.573155
1035.000000	86.465773
1034.000000	86.368251
1033.000000	86.273205
1032.000000	86.181700
1031.000000	86.104817
1030.000000	86.044304
1029.000000	85.986330
1028.000000	85.921344
1027.000000	85.856831
1026.000000	85.803069
1025.000000	85.758853
1024.000000	85.718256
1023.000000	85.679943
1022.000000	85.643148
1021.000000	85.604568
1020.000000	85.564702
1019.000000	85.528072
1018.000000	85.493799
1017.000000	85.455726
1016.000000	85.413836
1015.000000	85.374409
1014.000000	85.337146
1013.000000	85.294279
1012.000000	85.244726
1011.000000	85.197024
1010.000000	85.155963
1009.000000	85.118572
1008.000000	85.085163
1007.000000	85.061017
1006.000000	85.044160
1005.000000	85.024840
1004.000000	85.001223
1003.000000	84.983619
1002.000000	84.979096
1001.000000	84.982775
1000.000000	84.987464
999.000000	84.991856
998.000000	84.996957
997.000000	85.003995
996.000000	85.016895
995.000000	85.037408
994.000000	85.058544
993.000000	85.073267
992.000000	85.087608
991.000000	85.112942
990.000000	85.147882
989.000000	85.181706
988.000000	85.214207
987.000000	85.257076
986.000000	85.315805
985.000000	85.385130
984.000000	85.462329
983.000000	85.550067
982.000000	85.645511
981.000000	85.741843
980.000000	85.842002
979.000000	85.956717
978.000000	86.088108
977.000000	86.229016
976.000000	86.378096
975.000000	86.540020
974.000000	86.710198
973.000000	86.875682
972.000000	87.033977
971.000000	87.196105
970.000000	87.368268
969.000000	87.544546
968.000000	87.720380
967.000000	87.899308
966.000000	88.082764
965.000000	88.265893
964.000000	88.446719
963.000000	88.627604
962.000000	88.805016
961.000000	88.969754
960.000000	89.120272
959.000000	89.264859
958.000000	89.408252
957.000000	89.546815
956.000000	89.679107
955.000000	89.810035
954.000000	89.941718
953.000000	90.070153
952.000000	90.192791
951.000000	90.309461
950.000000	90.415322
949.000000	90.504794
948.000000	90.584161
947.000000	90.668159
946.000000	90.760625
945.000000	90.849927
944.000000	90.926914
943.000000	90.995695
942.000000	91.063297
941.000000	91.130510
940.000000	91.198303
939.000000	91.271933
938.000000	91.351556
937.000000	91.427608
936.000000	91.492130
935.000000	91.547646
934.000000	91.600183
933.000000	91.651343
932.000000	91.702712
931.000000	91.760544
930.000000	91.829392
929.000000	91.905862
928.000000	91.983158
927.000000	92.057122
926.000000	92.125034
925.000000	92.184581
924.000000	92.238053
923.000000	92.292827
922.000000	92.353953
921.000000	92.419289
920.000000	92.483115
919.000000	92.540615
918.000000	92.589292
917.000000	92.631987
916.000000	92.678697
915.000000	92.738806
914.000000	92.810575
913.000000	92.884168
912.000000	92.954930
911.000000	93.026666
910.000000	93.102420
909.000000	93.181493
908.000000	93.267270
907.000000	93.368586
906.000000	93.489790
905.000000	93.626576
904.000000	93.773980
903.000000	93.931198
902.000000	94.095760
901.000000	94.260059
900.000000	94.417726
899.000000	94.569022
898.000000	94.717655
897.000000	94.866614
896.000000	95.018298
895.000000	95.173624
894.000000	95.328673
893.000000	95.476119
892.000000	95.611970
891.000000	95.738442
890.000000	95.859801
889.000000	95.977997
888.000000	96.092403
887.000000	96.201250
886.000000	96.303556
885.000000	96.401757
884.000000	96.501255
883.000000	96.604917
882.000000	96.709557
881.000000	96.810338
880.000000	96.906348
879.000000	96.999693
878.000000	97.092903
877.000000	97.190227
876.000000	97.296438
875.000000	97.409346
874.000000	97.518124
873.000000	97.614988
872.000000	97.704564
871.000000	97.796653
870.000000	97.894464
869.000000	97.995588
868.000000	98.098841
867.000000	98.202304
866.000000	98.298919
865.000000	98.382761
864.000000	98.457915
863.000000	98.534475
862.000000	98.617275
861.000000	98.704330
860.000000	98.793344
859.000000	98.881989
858.000000	98.963967
857.000000	99.033463
856.000000	99.093396
855.000000	99.152030
854.000000	99.211385
853.000000	99.266186
852.000000	99.314719
851.000000	99.363099
850.000000	99.416501
849.000000	99.471717
848.000000	99.520294
847.000000	99.554444
846.000000	99.569579
845.000000	99.567029
844.000000	99.556130
843.000000	99.548424
842.000000	99.546569
841.000000	99.541914
840.000000	99.524613
839.000000	99.493294
838.000000	99.454491
837.000000	99.416155
836.000000	99.382390
835.000000	99.350953
834.000000	99.315324
833.000000	99.273220
832.000000	99.233759
831.000000	99.211775
830.000000	99.213116
829.000000	99.228818
828.000000	99.244536
827.000000	99.251830
826.000000	99.250405
825.000000	99.245352
824.000000	99.244285
823.000000	99.252201
822.000000	99.266720
821.000000	99.281232
820.000000	99.291339
819.000000	99.293701
818.000000	99.281313
817.000000	99.247067
816.000000	99.192120
815.000000	99.124340
814.000000	99.046070
813.000000	98.947423
812.000000	98.813261
811.000000	98.632315
810.000000	98.398042
809.000000	98.106545
808.000000	97.758964
807.000000	97.364240
806.000000	96.936797
805.000000	96.494070
804.000000	96.057830
803.000000	95.651593
802.000000	95.291673
801.000000	94.985465
800.000000	94.741536
799.000000	94.573439
798.000000	94.487599
797.000000	94.473250
796.000000	94.509256
795.000000	94.576854
794.000000	94.664146
793.000000	94.763523
792.000000	94.866948
791.000000	94.961064
790.000000	95.028701
789.000000	95.060001
788.000000	95.059537
787.000000	95.036262
786.000000	94.988252
785.000000	94.904344
784.000000	94.780182
783.000000	94.626160
782.000000	94.460960
781.000000	94.305239
780.000000	94.180981
779.000000	94.106530
778.000000	94.088332
777.000000	94.123499
776.000000	94.209867
775.000000	94.344332
774.000000	94.511431
773.000000	94.685065
772.000000	94.845776
771.000000	94.990007
770.000000	95.121520
769.000000	95.240928
768.000000	95.345307
767.000000	95.432089
766.000000	95.501400
765.000000	95.557926
764.000000	95.609553
763.000000	95.660128
762.000000	95.706050
761.000000	95.745422
760.000000	95.787137
759.000000	95.843293
758.000000	95.915000
757.000000	95.993537
756.000000	96.072810
755.000000	96.151534
754.000000	96.225767
753.000000	96.290592
752.000000	96.349658
751.000000	96.413364
750.000000	96.486027
749.000000	96.562190
748.000000	96.635694
747.000000	96.704748
746.000000	96.769177
745.000000	96.832433
744.000000	96.906573
743.000000	97.004536
742.000000	97.124461
741.000000	97.250013
740.000000	97.368248
739.000000	97.479037
738.000000	97.586191
737.000000	97.689291
736.000000	97.787466
735.000000	97.882318
734.000000	97.972299
733.000000	98.050694
732.000000	98.112992
731.000000	98.160805
730.000000	98.195952
729.000000	98.217008
728.000000	98.225371
727.000000	98.229687
726.000000	98.240730
725.000000	98.265436
724.000000	98.307357
723.000000	98.367290
722.000000	98.440437
721.000000	98.517490
720.000000	98.591572
719.000000	98.661199
718.000000	98.725725
717.000000	98.783050
716.000000	98.833784
715.000000	98.882901
714.000000	98.934493
713.000000	98.987666
712.000000	99.038652
711.000000	99.083217
710.000000	99.116196
709.000000	99.133302
708.000000	99.135023
707.000000	99.124942
706.000000	99.103308
705.000000	99.066449
704.000000	99.013203
703.000000	98.945693
702.000000	98.860277
701.000000	98.742914
700.000000	98.578939
699.000000	98.367322
698.000000	98.126171
697.000000	97.888577
696.000000	97.693314
695.000000	97.572181
694.000000	97.538669
693.000000	97.585195
692.000000	97.688815
691.000000	97.820082
690.000000	97.953753
689.000000	98.078591
688.000000	98.196697
687.000000	98.310294
686.000000	98.412874
685.000000	98.497757
684.000000	98.569185
683.000000	98.637259
682.000000	98.705269
681.000000	98.768474
680.000000	98.822075
679.000000	98.862992
678.000000	98.887184
677.000000	98.895661
676.000000	98.902803
675.000000	98.928882
674.000000	98.981350
673.000000	99.049800
672.000000	99.120271
671.000000	99.188334
670.000000	99.255455
669.000000	99.319551
668.000000	99.373554
667.000000	99.405303
666.000000	99.411779
665.000000	99.412568
664.000000	99.427440
663.000000	99.462005
662.000000	99.506246
661.000000	99.546740
660.000000	99.581942
659.000000	99.614970
658.000000	99.634757
657.000000	99.622020
656.000000	99.577965
655.000000	99.533176
654.000000	99.517142
653.000000	99.525355
652.000000	99.528308
651.000000	99.507649
650.000000	99.475621
