4000.000000	100.604449
3999.000000	100.602390
3998.000000	100.601439
3997.000000	100.601427
3996.000000	100.601297
3995.000000	100.600366
3994.000000	100.599161
3993.000000	100.598808
3992.000000	100.599800
3991.000000	100.601474
3990.000000	100.602613
3989.000000	100.602485
3988.000000	100.601143
3987.000000	100.599004
3986.000000	100.596411
3985.000000	100.593686
3984.000000	100.591401
3983.000000	100.590266
3982.000000	100.590665
3981.000000	100.592348
3980.000000	100.594534
3979.000000	100.596342
3978.000000	100.597239
3977.000000	100.597183
3976.000000	100.596492
3975.000000	100.595499
3974.000000	100.594213
3973.000000	100.592450
3972.000000	100.590387
3971.000000	100.588795
3970.000000	100.588501
3969.000000	100.589693
3968.000000	100.591824
3967.000000	100.594164
3966.000000	100.596379
3965.000000	100.598458
3964.000000	100.600229
3963.000000	100.601151
3962.000000	100.600644
3961.000000	100.598695
3960.000000	100.596088
3959.000000	100.593985
3958.000000	100.593123
3957.000000	100.593416
3956.000000	100.594216
3955.000000	100.594811
3954.000000	100.594902
3953.000000	100.594681
3952.000000	100.594537
3951.000000	100.594657
3950.000000	100.594868
3949.000000	100.594860
3948.000000	100.594511
3947.000000	100.594004
3946.000000	100.593670
3945.000000	100.593742
3944.000000	100.594174
3943.000000	100.594684
3942.000000	100.594974
3941.000000	100.594991
3940.000000	100.594871
3939.000000	100.594734
3938.000000	100.594566
3937.000000	100.594292
3936.000000	100.593933
3935.000000	100.593620
3934.000000	100.593470
3933.000000	100.593476
3932.000000	100.593544
3931.000000	100.593530
3930.000000	100.593346
3929.000000	100.592995
3928.000000	100.592551
3927.000000	100.592119
3926.000000	100.591757
3925.000000	100.591450
3924.000000	100.591151
3923.000000	100.590834
3922.000000	100.590516
3921.000000	100.590222
3920.000000	100.589955
3919.000000	100.589704
3918.000000	100.589467
3917.000000	100.589250
3916.000000	100.589051
3915.000000	100.588854
3914.000000	100.588652
3913.000000	100.588455
3912.000000	100.588291
3911.000000	100.588189
3910.000000	100.588151
3909.000000	100.588146
3908.000000	100.588144
3907.000000	100.588136
3906.000000	100.588126
3905.000000	100.588113
3904.000000	100.588087
3903.000000	100.588041
3902.000000	100.587982
3901.000000	100.587925
3900.000000	100.587888
3899.000000	100.587877
3898.000000	100.587888
3897.000000	100.587916
3896.000000	100.587963
3895.000000	100.588036
3894.000000	100.588141
3893.000000	100.588286
3892.000000	100.588478
3891.000000	100.588714
3890.000000	100.588979
3889.000000	100.589259
3888.000000	100.589549
3887.000000	100.589854
3886.000000	100.590177
3885.000000	100.590508
3884.000000	100.590834
3883.000000	100.591149
3882.000000	100.591456
3881.000000	100.591762
3880.000000	100.592073
3879.000000	100.592389
3878.000000	100.592712
3877.000000	100.593049
3876.000000	100.593403
3875.000000	100.593768
3874.000000	100.594125
3873.000000	100.594456
3872.000000	100.594757
3871.000000	100.595038
3870.000000	100.595302
3869.000000	100.595541
3868.000000	100.595746
3867.000000	100.595916
3866.000000	100.596071
3865.000000	100.596240
3864.000000	100.596438
3863.000000	100.596669
3862.000000	100.596932
3861.000000	100.597212
3860.000000	100.597495
3859.000000	100.597770
3858.000000	100.598023
3857.000000	100.598220
3856.000000	100.598356
3855.000000	100.598479
3854.000000	100.598602
3853.000000	100.598699
3852.000000	100.598781
3851.000000	100.598865
3850.000000	100.598953
3849.000000	100.599040
3848.000000	100.599122
3847.000000	100.599201
3846.000000	100.599277
3845.000000	100.599366
3844.000000	100.599477
3843.000000	100.599610
3842.000000	100.599759
3841.000000	100.599923
3840.000000	100.600098
3839.000000	100.600287
3838.000000	100.600489
3837.000000	100.600702
3836.000000	100.600918
3835.000000	100.601126
3834.000000	100.601317
3833.000000	100.601486
3832.000000	100.601635
3831.000000	100.601770
3830.000000	100.601897
3829.000000	100.602021
3828.000000	100.602144
3827.000000	100.602274
3826.000000	100.602414
3825.000000	100.602558
3824.000000	100.602698
3823.000000	100.602829
3822.000000	100.602948
3821.000000	100.603046
3820.000000	100.603106
3819.000000	100.603124
3818.000000	100.603119
3817.000000	100.603119
3816.000000	100.603136
3815.000000	100.603165
3814.000000	100.603201
3813.000000	100.603243
3812.000000	100.603290
3811.000000	100.603332
3810.000000	100.603354
3809.000000	100.603341
3808.000000	100.603285
3807.000000	100.603180
3806.000000	100.603015
3805.000000	100.602789
3804.000000	100.602513
3803.000000	100.602210
3802.000000	100.601895
3801.000000	100.601562
3800.000000	100.601196
3799.000000	100.600797
3798.000000	100.600377
3797.000000	100.599944
3796.000000	100.599495
3795.000000	100.599027
3794.000000	100.598543
3793.000000	100.598054
3792.000000	100.597570
3791.000000	100.597105
3790.000000	100.596664
3789.000000	100.596246
3788.000000	100.595846
3787.000000	100.595464
3786.000000	100.595097
3785.000000	100.594733
3784.000000	100.594355
3783.000000	100.593955
3782.000000	100.593539
3781.000000	100.593117
3780.000000	100.592684
3779.000000	100.592242
3778.000000	100.591788
3777.000000	100.591313
3776.000000	100.590841
3775.000000	100.590394
3774.000000	100.589924
3773.000000	100.589386
3772.000000	100.588847
3771.000000	100.588446
3770.000000	100.588191
3769.000000	100.587831
3768.000000	100.587080
3767.000000	100.586004
3766.000000	100.585080
3765.000000	100.584525
3764.000000	100.583890
3763.000000	100.582853
3762.000000	100.582041
3761.000000	100.582284
3760.000000	100.583290
3759.000000	100.583907
3758.000000	100.583685
3757.000000	100.582940
3756.000000	100.582081
3755.000000	100.581597
3754.000000	100.582118
3753.000000	100.583512
3752.000000	100.584376
3751.000000	100.584102
3750.000000	100.584017
3749.000000	100.584424
3748.000000	100.583235
3747.000000	100.579308
3746.000000	100.576064
3745.000000	100.576571
3744.000000	100.576439
3743.000000	100.571756
3742.000000	100.565667
3741.000000	100.562632
3740.000000	100.562730
3739.000000	100.562419
3738.000000	100.559477
3737.000000	100.554615
3736.000000	100.548529
3735.000000	100.541411
3734.000000	100.535759
3733.000000	100.535231
3732.000000	100.539831
3731.000000	100.545161
3730.000000	100.547030
3729.000000	100.545160
3728.000000	100.542158
3727.000000	100.539219
3726.000000	100.534399
3725.000000	100.526663
3724.000000	100.518320
3723.000000	100.512290
3722.000000	100.508834
3721.000000	100.505928
3720.000000	100.502012
3719.000000	100.497621
3718.000000	100.494078
3717.000000	100.490773
3716.000000	100.485791
3715.000000	100.478894
3714.000000	100.472109
3713.000000	100.466747
3712.000000	100.460613
3711.000000	100.450829
3710.000000	100.438393
3709.000000	100.427035
3708.000000	100.418833
3707.000000	100.412062
3706.000000	100.403054
3705.000000	100.390002
3704.000000	100.375152
3703.000000	100.363268
3702.000000	100.357109
3701.000000	100.354250
3700.000000	100.349409
3699.000000	100.340384
3698.000000	100.330405
3697.000000	100.323832
3696.000000	100.321795
3695.000000	100.323513
3694.000000	100.328304
3693.000000	100.334156
3692.000000	100.336358
3691.000000	100.330664
3690.000000	100.318460
3689.000000	100.305480
3688.000000	100.295061
3687.000000	100.286511
3686.000000	100.279527
3685.000000	100.275089
3684.000000	100.272168
3683.000000	100.267229
3682.000000	100.259363
3681.000000	100.252058
3680.000000	100.245972
3679.000000	100.234963
3678.000000	100.215133
3677.000000	100.195237
3676.000000	100.185125
3675.000000	100.178789
3674.000000	100.164130
3673.000000	100.138378
3672.000000	100.110111
3671.000000	100.090685
3670.000000	100.080126
3669.000000	100.068963
3668.000000	100.052030
3667.000000	100.031461
3666.000000	100.011504
3665.000000	99.994093
3664.000000	99.977941
3663.000000	99.960994
3662.000000	99.943385
3661.000000	99.926628
3660.000000	99.910802
3659.000000	99.894459
3658.000000	99.877983
3657.000000	99.863935
3656.000000	99.852058
3655.000000	99.838949
3654.000000	99.822368
3653.000000	99.803609
3652.000000	99.785726
3651.000000	99.767688
3650.000000	99.742998
3649.000000	99.710876
3648.000000	99.680515
3647.000000	99.659051
3646.000000	99.644847
3645.000000	99.632872
3644.000000	99.620383
3643.000000	99.606802
3642.000000	99.591670
3641.000000	99.575209
3640.000000	99.560252
3639.000000	99.548955
3638.000000	99.537658
3637.000000	99.519613
3636.000000	99.494159
3635.000000	99.469060
3634.000000	99.450071
3633.000000	99.432969
3632.000000	99.409483
3631.000000	99.381165
3630.000000	99.360222
3629.000000	99.349867
3628.000000	99.339586
3627.000000	99.322984
3626.000000	99.304359
3625.000000	99.290297
3624.000000	99.282843
3623.000000	99.280382
3622.000000	99.282732
3621.000000	99.291655
3620.000000	99.305835
3619.000000	99.319621
3618.000000	99.329120
3617.000000	99.335775
3616.000000	99.344218
3615.000000	99.359012
3614.000000	99.380681
3613.000000	99.403878
3612.000000	99.421482
3611.000000	99.431318
3610.000000	99.438185
3609.000000	99.448694
3608.000000	99.464503
3607.000000	99.481410
3606.000000	99.494262
3605.000000	99.501001
3604.000000	99.503084
3603.000000	99.503793
3602.000000	99.506449
3601.000000	99.512417
3600.000000	99.520726
3599.000000	99.529953
3598.000000	99.538854
3597.000000	99.546128
3596.000000	99.551920
3595.000000	99.558894
3594.000000	99.569179
3593.000000	99.580742
3592.000000	99.587866
3591.000000	99.586777
3590.000000	99.580839
3589.000000	99.578201
3588.000000	99.582163
3587.000000	99.586414
3586.000000	99.583622
3585.000000	99.574606
3584.000000	99.566440
3583.000000	99.564456
3582.000000	99.567612
3581.000000	99.570700
3580.000000	99.569792
3579.000000	99.565530
3578.000000	99.561344
3577.000000	99.559658
3576.000000	99.560423
3575.000000	99.562635
3574.000000	99.565707
3573.000000	99.568860
3572.000000	99.569991
3571.000000	99.566533
3570.000000	99.558559
3569.000000	99.550242
3568.000000	99.546506
3567.000000	99.548099
3566.000000	99.551475
3565.000000	99.552970
3564.000000	99.551670
3563.000000	99.548697
3562.000000	99.545201
3561.000000	99.541406
3560.000000	99.536876
3559.000000	99.531333
3558.000000	99.525321
3557.000000	99.520048
3556.000000	99.516613
3555.000000	99.515482
3554.000000	99.516389
3553.000000	99.518211
3552.000000	99.519201
3551.000000	99.518092
3550.000000	99.515166
3549.000000	99.511917
3548.000000	99.509537
3547.000000	99.507914
3546.000000	99.506208
3545.000000	99.504063
3544.000000	99.501890
3543.000000	99.500164
3542.000000	99.498823
3541.000000	99.497316
3540.000000	99.495004
3539.000000	99.491613
3538.000000	99.487675
3537.000000	99.484579
3536.000000	99.483742
3535.000000	99.485477
3534.000000	99.488547
3533.000000	99.490895
3532.000000	99.491113
3531.000000	99.489231
3530.000000	99.486479
3529.000000	99.484372
3528.000000	99.483621
3527.000000	99.483772
3526.000000	99.483831
3525.000000	99.483250
3524.000000	99.482325
3523.000000	99.481737
3522.000000	99.481770
3521.000000	99.482010
3520.000000	99.481752
3519.000000	99.480597
3518.000000	99.478718
3517.000000	99.476757
3516.000000	99.475495
3515.000000	99.475391
3514.000000	99.476265
3513.000000	99.477395
3512.000000	99.477951
3511.000000	99.477418
3510.000000	99.475750
3509.000000	99.473243
3508.000000	99.470314
3507.000000	99.467373
3506.000000	99.464769
3505.000000	99.462683
3504.000000	99.461023
3503.000000	99.459526
3502.000000	99.458075
3501.000000	99.456862
3500.000000	99.456256
3499.000000	99.456490
3498.000000	99.457382
3497.000000	99.458247
3496.000000	99.458238
3495.000000	99.456940
3494.000000	99.454652
3493.000000	99.452136
3492.000000	99.450015
3491.000000	99.448414
3490.000000	99.447244
3489.000000	99.446633
3488.000000	99.446788
3487.000000	99.447379
3486.000000	99.447357
3485.000000	99.445749
3484.000000	99.442560
3483.000000	99.438856
3482.000000	99.435953
3481.000000	99.434404
3480.000000	99.433775
3479.000000	99.433112
3478.000000	99.431666
3477.000000	99.429369
3476.000000	99.426763
3475.000000	99.424482
3474.000000	99.422619
3473.000000	99.420641
3472.000000	99.417959
3471.000000	99.414548
3470.000000	99.411026
3469.000000	99.408163
3468.000000	99.406312
3467.000000	99.405195
3466.000000	99.404118
3465.000000	99.402404
3464.000000	99.399675
3463.000000	99.395864
3462.000000	99.391222
3461.000000	99.386346
3460.000000	99.382058
3459.000000	99.378956
3458.000000	99.377041
3457.000000	99.375812
3456.000000	99.374713
3455.000000	99.373495
3454.000000	99.372141
3453.000000	99.370553
3452.000000	99.368373
3451.000000	99.365210
3450.000000	99.361073
3449.000000	99.356597
3448.000000	99.352718
3447.000000	99.349924
3446.000000	99.347897
3445.000000	99.345894
3444.000000	99.343495
3443.000000	99.340873
3442.000000	99.338388
3441.000000	99.336091
3440.000000	99.333723
3439.000000	99.331100
3438.000000	99.328346
3437.000000	99.325746
3436.000000	99.323423
3435.000000	99.321195
3434.000000	99.318723
3433.000000	99.315798
3432.000000	99.312524
3431.000000	99.309318
3430.000000	99.306735
3429.000000	99.305163
3428.000000	99.304577
3427.000000	99.304525
3426.000000	99.304320
3425.000000	99.303388
3424.000000	99.301535
3423.000000	99.299017
3422.000000	99.296462
3421.000000	99.294584
3420.000000	99.293741
3419.000000	99.293586
3418.000000	99.293190
3417.000000	99.291706
3416.000000	99.289006
3415.000000	99.285781
3414.000000	99.283090
3413.000000	99.281736
3412.000000	99.281902
3411.000000	99.283047
3410.000000	99.284077
3409.000000	99.283938
3408.000000	99.282294
3407.000000	99.279715
3406.000000	99.277090
3405.000000	99.274876
3404.000000	99.273120
3403.000000	99.272077
3402.000000	99.272306
3401.000000	99.273886
3400.000000	99.275883
3399.000000	99.277024
3398.000000	99.276802
3397.000000	99.275713
3396.000000	99.274509
3395.000000	99.273478
3394.000000	99.272504
3393.000000	99.271624
3392.000000	99.271343
3391.000000	99.272318
3390.000000	99.274734
3389.000000	99.277908
3388.000000	99.280578
3387.000000	99.281876
3386.000000	99.282124
3385.000000	99.282670
3384.000000	99.284709
3383.000000	99.288175
3382.000000	99.291685
3381.000000	99.293697
3380.000000	99.293762
3379.000000	99.292770
3378.000000	99.292221
3377.000000	99.293057
3376.000000	99.295146
3375.000000	99.297665
3374.000000	99.299925
3373.000000	99.301888
3372.000000	99.303886
3371.000000	99.305941
3370.000000	99.307555
3369.000000	99.308268
3368.000000	99.308268
3367.000000	99.308279
3366.000000	99.308908
3365.000000	99.310301
3364.000000	99.312425
3363.000000	99.315357
3362.000000	99.319036
3361.000000	99.323016
3360.000000	99.326694
3359.000000	99.329725
3358.000000	99.332114
3357.000000	99.334017
3356.000000	99.335639
3355.000000	99.337277
3354.000000	99.339241
3353.000000	99.341651
3352.000000	99.344349
3351.000000	99.347039
3350.000000	99.349526
3349.000000	99.351837
3348.000000	99.354147
3347.000000	99.356620
3346.000000	99.359278
3345.000000	99.362010
3344.000000	99.364682
3343.000000	99.367264
3342.000000	99.369822
3341.000000	99.372419
3340.000000	99.375066
3339.000000	99.377736
3338.000000	99.380405
3337.000000	99.383066
3336.000000	99.385730
3335.000000	99.388405
3334.000000	99.391090
3333.000000	99.393792
3332.000000	99.396511
3331.000000	99.399242
3330.000000	99.401978
3329.000000	99.404718
3328.000000	99.407468
3327.000000	99.410235
3326.000000	99.413022
3325.000000	99.415828
3324.000000	99.418644
3323.000000	99.421463
3322.000000	99.424273
3321.000000	99.427069
3320.000000	99.429847
3319.000000	99.432612
3318.000000	99.435377
3317.000000	99.438153
3316.000000	99.440945
3315.000000	99.443752
3314.000000	99.446568
3313.000000	99.449387
3312.000000	99.452202
3311.000000	99.455010
3310.000000	99.457806
3309.000000	99.460587
3308.000000	99.463358
3307.000000	99.466107
3306.000000	99.468820
3305.000000	99.471521
3304.000000	99.474259
3303.000000	99.477037
3302.000000	99.479750
3301.000000	99.482286
3300.000000	99.484711
3299.000000	99.487269
3298.000000	99.490129
3297.000000	99.493189
3296.000000	99.496157
3295.000000	99.498897
3294.000000	99.501564
3293.000000	99.504431
3292.000000	99.507613
3291.000000	99.510991
3290.000000	99.514340
3289.000000	99.517536
3288.000000	99.520639
3287.000000	99.523760
3286.000000	99.526874
3285.000000	99.529761
3284.000000	99.532199
3283.000000	99.534213
3282.000000	99.536104
3281.000000	99.538227
3280.000000	99.540789
3279.000000	99.543850
3278.000000	99.547328
3277.000000	99.550926
3276.000000	99.554197
3275.000000	99.556857
3274.000000	99.559007
3273.000000	99.561042
3272.000000	99.563273
3271.000000	99.565706
3270.000000	99.568189
3269.000000	99.570648
3268.000000	99.573165
3267.000000	99.575903
3266.000000	99.578987
3265.000000	99.582427
3264.000000	99.586054
3263.000000	99.589544
3262.000000	99.592652
3261.000000	99.595401
3260.000000	99.598063
3259.000000	99.600907
3258.000000	99.603956
3257.000000	99.607002
3256.000000	99.609838
3255.000000	99.612443
3254.000000	99.614954
3253.000000	99.617534
3252.000000	99.620249
3251.000000	99.623053
3250.000000	99.625870
3249.000000	99.628676
3248.000000	99.631520
3247.000000	99.634445
3246.000000	99.637420
3245.000000	99.640352
3244.000000	99.643179
3243.000000	99.645926
3242.000000	99.648683
3241.000000	99.651542
3240.000000	99.654540
3239.000000	99.657664
3238.000000	99.660871
3237.000000	99.664072
3236.000000	99.667158
3235.000000	99.670082
3234.000000	99.672896
3233.000000	99.675704
3232.000000	99.678578
3231.000000	99.681523
3230.000000	99.684532
3229.000000	99.687613
3228.000000	99.690770
3227.000000	99.693975
3226.000000	99.697174
3225.000000	99.700318
3224.000000	99.703398
3223.000000	99.706444
3222.000000	99.709515
3221.000000	99.712654
3220.000000	99.715852
3219.000000	99.719052
3218.000000	99.722190
3217.000000	99.725245
3216.000000	99.728244
3215.000000	99.731240
3214.000000	99.734287
3213.000000	99.737417
3212.000000	99.740626
3211.000000	99.743871
3210.000000	99.747103
3209.000000	99.750311
3208.000000	99.753507
3207.000000	99.756698
3206.000000	99.759885
3205.000000	99.763090
3204.000000	99.766362
3203.000000	99.769725
3202.000000	99.773162
3201.000000	99.776626
3200.000000	99.780069
3199.000000	99.783465
3198.000000	99.786809
3197.000000	99.790117
3196.000000	99.793421
3195.000000	99.796756
3194.000000	99.800150
3193.000000	99.803602
3192.000000	99.807073
3191.000000	99.810497
3190.000000	99.813847
3189.000000	99.817157
3188.000000	99.820481
3187.000000	99.823801
3186.000000	99.827064
3185.000000	99.830264
3184.000000	99.833464
3183.000000	99.836734
3182.000000	99.840077
3181.000000	99.843432
3180.000000	99.846737
3179.000000	99.849985
3178.000000	99.853217
3177.000000	99.856477
3176.000000	99.859773
3175.000000	99.863087
3174.000000	99.866392
3173.000000	99.869678
3172.000000	99.872961
3171.000000	99.876269
3170.000000	99.879606
3169.000000	99.882948
3168.000000	99.886254
3167.000000	99.889511
3166.000000	99.892757
3165.000000	99.896056
3164.000000	99.899439
3163.000000	99.902875
3162.000000	99.906261
3161.000000	99.909506
3160.000000	99.912601
3159.000000	99.915626
3158.000000	99.918644
3157.000000	99.921648
3156.000000	99.924625
3155.000000	99.927609
3154.000000	99.930654
3153.000000	99.933760
3152.000000	99.936840
3151.000000	99.939778
3150.000000	99.942517
3149.000000	99.945111
3148.000000	99.947719
3147.000000	99.950515
3146.000000	99.953562
3145.000000	99.956781
3144.000000	99.959996
3143.000000	99.963054
3142.000000	99.965868
3141.000000	99.968406
3140.000000	99.970742
3139.000000	99.973132
3138.000000	99.975842
3137.000000	99.978901
3136.000000	99.982024
3135.000000	99.984965
3134.000000	99.987817
3133.000000	99.990835
3132.000000	99.994051
3131.000000	99.997215
3130.000000	100.000133
3129.000000	100.002891
3128.000000	100.005622
3127.000000	100.008217
3126.000000	100.010416
3125.000000	100.012140
3124.000000	100.013604
3123.000000	100.015123
3122.000000	100.016902
3121.000000	100.018986
3120.000000	100.021346
3119.000000	100.024013
3118.000000	100.027044
3117.000000	100.030340
3116.000000	100.033521
3115.000000	100.036144
3114.000000	100.038198
3113.000000	100.040224
3112.000000	100.042739
3111.000000	100.045568
3110.000000	100.048031
3109.000000	100.049811
3108.000000	100.051329
3107.000000	100.053164
3106.000000	100.055337
3105.000000	100.057487
3104.000000	100.059553
3103.000000	100.061898
3102.000000	100.064707
3101.000000	100.067591
3100.000000	100.070046
3099.000000	100.072128
3098.000000	100.074347
3097.000000	100.076869
3096.000000	100.079087
3095.000000	100.080205
3094.000000	100.080119
3093.000000	100.079621
3092.000000	100.079770
3091.000000	100.081077
3090.000000	100.083446
3089.000000	100.086576
3088.000000	100.090223
3087.000000	100.094029
3086.000000	100.097420
3085.000000	100.099931
3084.000000	100.101545
3083.000000	100.102633
3082.000000	100.103584
3081.000000	100.104609
3080.000000	100.105854
3079.000000	100.107432
3078.000000	100.109237
3077.000000	100.110907
3076.000000	100.112145
3075.000000	100.113088
3074.000000	100.114247
3073.000000	100.116035
3072.000000	100.118364
3071.000000	100.120749
3070.000000	100.122813
3069.000000	100.124618
3068.000000	100.126478
3067.000000	100.128490
3066.000000	100.130378
3065.000000	100.131878
3064.000000	100.133100
3063.000000	100.134331
3062.000000	100.135614
3061.000000	100.136749
3060.000000	100.137694
3059.000000	100.138751
3058.000000	100.140253
3057.000000	100.142194
3056.000000	100.144236
3055.000000	100.146027
3054.000000	100.147450
3053.000000	100.148637
3052.000000	100.149872
3051.000000	100.151440
3050.000000	100.153413
3049.000000	100.155525
3048.000000	100.157332
3047.000000	100.158627
3046.000000	100.159663
3045.000000	100.160964
3044.000000	100.162779
3043.000000	100.164804
3042.000000	100.166462
3041.000000	100.167467
3040.000000	100.168126
3039.000000	100.169102
3038.000000	100.170765
3037.000000	100.172859
3036.000000	100.174843
3035.000000	100.176518
3034.000000	100.178180
3033.000000	100.180188
3032.000000	100.182530
3031.000000	100.184827
3030.000000	100.186679
3029.000000	100.188049
3028.000000	100.189403
3027.000000	100.191451
3026.000000	100.194604
3025.000000	100.198551
3024.000000	100.202322
3023.000000	100.204998
3022.000000	100.206362
3021.000000	100.206941
3020.000000	100.207571
3019.000000	100.208792
3018.000000	100.210676
3017.000000	100.213097
3016.000000	100.216019
3015.000000	100.219445
3014.000000	100.223095
3013.000000	100.226318
3012.000000	100.228526
3011.000000	100.229823
3010.000000	100.231160
3009.000000	100.233615
3008.000000	100.237310
3007.000000	100.240994
3006.000000	100.243018
3005.000000	100.243074
3004.000000	100.242998
3003.000000	100.245437
3002.000000	100.251320
3001.000000	100.258623
3000.000000	100.263891
2999.000000	100.265104
2998.000000	100.262949
2997.000000	100.259847
2996.000000	100.257898
2995.000000	100.257645
2994.000000	100.258333
2993.000000	100.258956
2992.000000	100.259197
2991.000000	100.259583
2990.000000	100.260706
2989.000000	100.262463
2988.000000	100.264353
2987.000000	100.266396
2986.000000	100.269105
2985.000000	100.272358
2984.000000	100.274933
2983.000000	100.275642
2982.000000	100.274494
2981.000000	100.272281
2980.000000	100.269636
2979.000000	100.267351
2978.000000	100.267115
2977.000000	100.270561
2976.000000	100.277333
2975.000000	100.285126
2974.000000	100.292284
2973.000000	100.299352
2972.000000	100.307286
2971.000000	100.315232
2970.000000	100.321399
2969.000000	100.325699
2968.000000	100.330102
2967.000000	100.336201
2966.000000	100.343540
2965.000000	100.350937
2964.000000	100.358546
2963.000000	100.367618
2962.000000	100.378472
2961.000000	100.389383
2960.000000	100.397460
2959.000000	100.400388
2958.000000	100.397808
2957.000000	100.391787
2956.000000	100.385713
2955.000000	100.381808
2954.000000	100.379648
2953.000000	100.377772
2952.000000	100.376499
2951.000000	100.378150
2950.000000	100.384177
2949.000000	100.392987
2948.000000	100.401368
2947.000000	100.407740
2946.000000	100.413352
2945.000000	100.420395
2944.000000	100.429635
2943.000000	100.439870
2942.000000	100.449050
2941.000000	100.455663
2940.000000	100.459616
2939.000000	100.462620
2938.000000	100.467808
2937.000000	100.478227
2936.000000	100.494574
2935.000000	100.513813
2934.000000	100.530508
2933.000000	100.540647
2932.000000	100.544910
2931.000000	100.548180
2930.000000	100.555612
2929.000000	100.568881
2928.000000	100.585687
2927.000000	100.601912
2926.000000	100.613742
2925.000000	100.618854
2924.000000	100.617176
2923.000000	100.611061
2922.000000	100.603870
2921.000000	100.597485
2920.000000	100.591217
2919.000000	100.583336
2918.000000	100.573428
2917.000000	100.562983
2916.000000	100.553798
2915.000000	100.545956
2914.000000	100.537374
2913.000000	100.525507
2912.000000	100.509897
2911.000000	100.493235
2910.000000	100.479667
2909.000000	100.471735
2908.000000	100.468797
2907.000000	100.468033
2906.000000	100.466562
2905.000000	100.462956
2904.000000	100.457706
2903.000000	100.452775
2902.000000	100.450035
2901.000000	100.449244
2900.000000	100.447632
2899.000000	100.442201
2898.000000	100.432728
2897.000000	100.422397
2896.000000	100.415448
2895.000000	100.414169
2894.000000	100.417595
2893.000000	100.422286
2892.000000	100.424389
2891.000000	100.421800
2890.000000	100.415031
2889.000000	100.406475
2888.000000	100.399070
2887.000000	100.395310
2886.000000	100.396292
2885.000000	100.400582
2884.000000	100.404382
2883.000000	100.404269
2882.000000	100.400290
2881.000000	100.395718
2880.000000	100.393577
2879.000000	100.394213
2878.000000	100.396439
2877.000000	100.399729
2876.000000	100.404268
2875.000000	100.409634
2874.000000	100.414776
2873.000000	100.419163
2872.000000	100.422866
2871.000000	100.425527
2870.000000	100.426409
2869.000000	100.425893
2868.000000	100.426090
2867.000000	100.429275
2866.000000	100.435885
2865.000000	100.444312
2864.000000	100.452416
2863.000000	100.459220
2862.000000	100.465613
2861.000000	100.473660
2860.000000	100.484795
2859.000000	100.498363
2858.000000	100.511996
2857.000000	100.523364
2856.000000	100.531297
2855.000000	100.535440
2854.000000	100.535606
2853.000000	100.531910
2852.000000	100.525155
2851.000000	100.516635
2850.000000	100.507622
2849.000000	100.499030
2848.000000	100.491044
2847.000000	100.482784
2846.000000	100.472873
2845.000000	100.460813
2844.000000	100.447690
2843.000000	100.435309
2842.000000	100.424905
2841.000000	100.416840
2840.000000	100.410979
2839.000000	100.406765
2838.000000	100.403319
2837.000000	100.400241
2836.000000	100.398349
2835.000000	100.399004
2834.000000	100.402396
2833.000000	100.406858
2832.000000	100.410248
2831.000000	100.411848
2830.000000	100.412563
2829.000000	100.413325
2828.000000	100.413720
2827.000000	100.412412
2826.000000	100.408722
2825.000000	100.403434
2824.000000	100.398032
2823.000000	100.393584
2822.000000	100.390706
2821.000000	100.390111
2820.000000	100.392326
2819.000000	100.396619
2818.000000	100.400791
2817.000000	100.402823
2816.000000	100.402829
2815.000000	100.403026
2814.000000	100.405551
2813.000000	100.410385
2812.000000	100.415435
2811.000000	100.418532
2810.000000	100.419146
2809.000000	100.418185
2808.000000	100.416634
2807.000000	100.414824
2806.000000	100.412864
2805.000000	100.411135
2804.000000	100.410003
2803.000000	100.409446
2802.000000	100.409420
2801.000000	100.410205
2800.000000	100.411808
2799.000000	100.413420
2798.000000	100.414143
2797.000000	100.414175
2796.000000	100.414675
2795.000000	100.416387
2794.000000	100.418888
2793.000000	100.421209
2792.000000	100.422741
2791.000000	100.423436
2790.000000	100.423539
2789.000000	100.423447
2788.000000	100.423669
2787.000000	100.424580
2786.000000	100.426184
2785.000000	100.428152
2784.000000	100.430031
2783.000000	100.431454
2782.000000	100.432326
2781.000000	100.432868
2780.000000	100.433439
2779.000000	100.434234
2778.000000	100.435152
2777.000000	100.435990
2776.000000	100.436671
2775.000000	100.437273
2774.000000	100.437909
2773.000000	100.438619
2772.000000	100.439394
2771.000000	100.440223
2770.000000	100.441092
2769.000000	100.441983
2768.000000	100.442872
2767.000000	100.443751
2766.000000	100.444619
2765.000000	100.445482
2764.000000	100.446347
2763.000000	100.447220
2762.000000	100.448105
2761.000000	100.448998
2760.000000	100.449885
2759.000000	100.450747
2758.000000	100.451574
2757.000000	100.452368
2756.000000	100.453142
2755.000000	100.453907
2754.000000	100.454666
2753.000000	100.455414
2752.000000	100.456147
2751.000000	100.456867
2750.000000	100.457585
2749.000000	100.458308
2748.000000	100.459042
2747.000000	100.459789
2746.000000	100.460545
2745.000000	100.461305
2744.000000	100.462059
2743.000000	100.462803
2742.000000	100.463535
2741.000000	100.464263
2740.000000	100.465011
2739.000000	100.465803
2738.000000	100.466637
2737.000000	100.467457
2736.000000	100.468186
2735.000000	100.468802
2734.000000	100.469399
2733.000000	100.470131
2732.000000	100.471085
2731.000000	100.472156
2730.000000	100.473066
2729.000000	100.473570
2728.000000	100.473634
2727.000000	100.473468
2726.000000	100.473342
2725.000000	100.473352
2724.000000	100.473390
2723.000000	100.473346
2722.000000	100.473374
2721.000000	100.473843
2720.000000	100.474973
2719.000000	100.476506
2718.000000	100.477892
2717.000000	100.478817
2716.000000	100.479336
2715.000000	100.479515
2714.000000	100.479228
2713.000000	100.478523
2712.000000	100.478051
2711.000000	100.478633
2710.000000	100.480270
2709.000000	100.481960
2708.000000	100.482764
2707.000000	100.482840
2706.000000	100.483086
2705.000000	100.483955
2704.000000	100.485049
2703.000000	100.485790
2702.000000	100.485940
2701.000000	100.485384
2700.000000	100.483994
2699.000000	100.482007
2698.000000	100.480204
2697.000000	100.479283
2696.000000	100.479150
2695.000000	100.479112
2694.000000	100.478718
2693.000000	100.478134
2692.000000	100.477761
2691.000000	100.477887
2690.000000	100.478692
2689.000000	100.480142
2688.000000	100.481756
2687.000000	100.482754
2686.000000	100.482617
2685.000000	100.481383
2684.000000	100.479361
2683.000000	100.477059
2682.000000	100.475415
2681.000000	100.475462
2680.000000	100.477363
2679.000000	100.479984
2678.000000	100.481955
2677.000000	100.483163
2676.000000	100.484631
2675.000000	100.486948
2674.000000	100.489324
2673.000000	100.490406
2672.000000	100.489694
2671.000000	100.487909
2670.000000	100.486270
2669.000000	100.485586
2668.000000	100.485969
2667.000000	100.486917
2666.000000	100.487561
2665.000000	100.487282
2664.000000	100.486324
2663.000000	100.485715
2662.000000	100.486375
2661.000000	100.488325
2660.000000	100.490772
2659.000000	100.492847
2658.000000	100.494198
2657.000000	100.494917
2656.000000	100.495138
2655.000000	100.494846
2654.000000	100.494024
2653.000000	100.492834
2652.000000	100.491640
2651.000000	100.490866
2650.000000	100.490710
2649.000000	100.490867
2648.000000	100.490634
2647.000000	100.489568
2646.000000	100.488086
2645.000000	100.487241
2644.000000	100.487719
2643.000000	100.489211
2642.000000	100.490688
2641.000000	100.491291
2640.000000	100.490856
2639.000000	100.489684
2638.000000	100.488154
2637.000000	100.486553
2636.000000	100.485075
2635.000000	100.483874
2634.000000	100.483153
2633.000000	100.483197
2632.000000	100.484130
2631.000000	100.485593
2630.000000	100.486819
2629.000000	100.487203
2628.000000	100.486707
2627.000000	100.485729
2626.000000	100.484770
2625.000000	100.484204
2624.000000	100.484226
2623.000000	100.484805
2622.000000	100.485620
2621.000000	100.486174
2620.000000	100.486168
2619.000000	100.485676
2618.000000	100.484997
2617.000000	100.484361
2616.000000	100.483809
2615.000000	100.483300
2614.000000	100.482822
2613.000000	100.482411
2612.000000	100.482123
2611.000000	100.481998
2610.000000	100.482012
2609.000000	100.482048
2608.000000	100.481939
2607.000000	100.481594
2606.000000	100.481110
2605.000000	100.480760
2604.000000	100.480773
2603.000000	100.481123
2602.000000	100.481540
2601.000000	100.481758
2600.000000	100.481745
2599.000000	100.481630
2598.000000	100.481475
2597.000000	100.481237
2596.000000	100.480908
2595.000000	100.480587
2594.000000	100.480422
2593.000000	100.480501
2592.000000	100.480816
2591.000000	100.481271
2590.000000	100.481697
2589.000000	100.481930
2588.000000	100.481934
2587.000000	100.481750
2586.000000	100.481302
2585.000000	100.480478
2584.000000	100.479499
2583.000000	100.478954
2582.000000	100.479215
2581.000000	100.479991
2580.000000	100.480620
2579.000000	100.480878
2578.000000	100.481068
2577.000000	100.481481
2576.000000	100.482112
2575.000000	100.482806
2574.000000	100.483395
2573.000000	100.483699
2572.000000	100.483639
2571.000000	100.483383
2570.000000	100.483214
2569.000000	100.483213
2568.000000	100.483251
2567.000000	100.483325
2566.000000	100.483619
2565.000000	100.484130
2564.000000	100.484538
2563.000000	100.484692
2562.000000	100.484950
2561.000000	100.485710
2560.000000	100.486755
2559.000000	100.487432
2558.000000	100.487463
2557.000000	100.487311
2556.000000	100.487647
2555.000000	100.488604
2554.000000	100.489676
2553.000000	100.490273
2552.000000	100.490328
2551.000000	100.490343
2550.000000	100.490819
2549.000000	100.491645
2548.000000	100.492124
2547.000000	100.491633
2546.000000	100.490219
2545.000000	100.488571
2544.000000	100.487482
2543.000000	100.487380
2542.000000	100.488209
2541.000000	100.489506
2540.000000	100.490555
2539.000000	100.490770
2538.000000	100.490105
2537.000000	100.489101
2536.000000	100.488440
2535.000000	100.488262
2534.000000	100.488081
2533.000000	100.487444
2532.000000	100.486587
2531.000000	100.486221
2530.000000	100.486677
2529.000000	100.487539
2528.000000	100.488189
2527.000000	100.488540
2526.000000	100.489000
2525.000000	100.489842
2524.000000	100.490866
2523.000000	100.491657
2522.000000	100.492011
2521.000000	100.492033
2520.000000	100.491983
2519.000000	100.492126
2518.000000	100.492629
2517.000000	100.493476
2516.000000	100.494436
2515.000000	100.495216
2514.000000	100.495742
2513.000000	100.496213
2512.000000	100.496794
2511.000000	100.497325
2510.000000	100.497524
2509.000000	100.497438
2508.000000	100.497484
2507.000000	100.497991
2506.000000	100.498861
2505.000000	100.499698
2504.000000	100.500241
2503.000000	100.500547
2502.000000	100.500817
2501.000000	100.501164
2500.000000	100.501611
2499.000000	100.502196
2498.000000	100.502943
2497.000000	100.503793
2496.000000	100.504643
2495.000000	100.505435
2494.000000	100.506174
2493.000000	100.506890
2492.000000	100.507610
2491.000000	100.508346
2490.000000	100.509084
2489.000000	100.509791
2488.000000	100.510449
2487.000000	100.511080
2486.000000	100.511723
2485.000000	100.512394
2484.000000	100.513082
2483.000000	100.513764
2482.000000	100.514434
2481.000000	100.515104
2480.000000	100.515794
2479.000000	100.516503
2478.000000	100.517206
2477.000000	100.517874
2476.000000	100.518505
2475.000000	100.519126
2474.000000	100.519777
2473.000000	100.520487
2472.000000	100.521265
2471.000000	100.522098
2470.000000	100.522951
2469.000000	100.523785
2468.000000	100.524580
2467.000000	100.525340
2466.000000	100.526093
2465.000000	100.526890
2464.000000	100.527761
2463.000000	100.528698
2462.000000	100.529664
2461.000000	100.530603
2460.000000	100.531483
2459.000000	100.532299
2458.000000	100.533076
2457.000000	100.533843
2456.000000	100.534617
2455.000000	100.535404
2454.000000	100.536215
2453.000000	100.537047
2452.000000	100.537885
2451.000000	100.538712
2450.000000	100.539517
2449.000000	100.540300
2448.000000	100.541071
2447.000000	100.541844
2446.000000	100.542628
2445.000000	100.543418
2444.000000	100.544203
2443.000000	100.544986
2442.000000	100.545786
2441.000000	100.546614
2440.000000	100.547442
2439.000000	100.548208
2438.000000	100.548875
2437.000000	100.549464
2436.000000	100.550043
2435.000000	100.550666
2434.000000	100.551327
2433.000000	100.551977
2432.000000	100.552576
2431.000000	100.553135
2430.000000	100.553689
2429.000000	100.554256
2428.000000	100.554828
2427.000000	100.555389
2426.000000	100.555940
2425.000000	100.556479
2424.000000	100.556991
2423.000000	100.557466
2422.000000	100.557915
2421.000000	100.558367
2420.000000	100.558836
2419.000000	100.559324
2418.000000	100.559822
2417.000000	100.560326
2416.000000	100.560832
2415.000000	100.561338
2414.000000	100.561840
2413.000000	100.562339
2412.000000	100.562834
2411.000000	100.563318
2410.000000	100.563787
2409.000000	100.564255
2408.000000	100.564738
2407.000000	100.565232
2406.000000	100.565715
2405.000000	100.566176
2404.000000	100.566628
2403.000000	100.567088
2402.000000	100.567557
2401.000000	100.568025
2400.000000	100.568480
2399.000000	100.568923
2398.000000	100.569366
2397.000000	100.569831
2396.000000	100.570343
2395.000000	100.570911
2394.000000	100.571507
2393.000000	100.572069
2392.000000	100.572555
2391.000000	100.573016
2390.000000	100.573546
2389.000000	100.574179
2388.000000	100.574837
2387.000000	100.575417
2386.000000	100.575888
2385.000000	100.576305
2384.000000	100.576726
2383.000000	100.577169
2382.000000	100.577623
2381.000000	100.578067
2380.000000	100.578481
2379.000000	100.578866
2378.000000	100.579251
2377.000000	100.579674
2376.000000	100.580141
2375.000000	100.580602
2374.000000	100.580981
2373.000000	100.581246
2372.000000	100.581430
2371.000000	100.581588
2370.000000	100.581740
2369.000000	100.581887
2368.000000	100.582036
2367.000000	100.582201
2366.000000	100.582375
2365.000000	100.582536
2364.000000	100.582678
2363.000000	100.582797
2362.000000	100.582887
2361.000000	100.582932
2360.000000	100.582926
2359.000000	100.582883
2358.000000	100.582826
2357.000000	100.582763
2356.000000	100.582680
2355.000000	100.582541
2354.000000	100.582326
2353.000000	100.582041
2352.000000	100.581715
2351.000000	100.581374
2350.000000	100.581025
2349.000000	100.580661
2348.000000	100.580258
2347.000000	100.579803
2346.000000	100.579300
2345.000000	100.578772
2344.000000	100.578244
2343.000000	100.577727
2342.000000	100.577213
2341.000000	100.576693
2340.000000	100.576162
2339.000000	100.575614
2338.000000	100.575040
2337.000000	100.574450
2336.000000	100.573864
2335.000000	100.573292
2334.000000	100.572703
2333.000000	100.572043
2332.000000	100.571286
2331.000000	100.570456
2330.000000	100.569600
2329.000000	100.568761
2328.000000	100.567961
2327.000000	100.567199
2326.000000	100.566457
2325.000000	100.565701
2324.000000	100.564915
2323.000000	100.564099
2322.000000	100.563270
2321.000000	100.562443
2320.000000	100.561627
2319.000000	100.560826
2318.000000	100.560041
2317.000000	100.559276
2316.000000	100.558533
2315.000000	100.557802
2314.000000	100.557066
2313.000000	100.556320
2312.000000	100.555580
2311.000000	100.554872
2310.000000	100.554200
2309.000000	100.553544
2308.000000	100.552876
2307.000000	100.552201
2306.000000	100.551549
2305.000000	100.550936
2304.000000	100.550342
2303.000000	100.549736
2302.000000	100.549112
2301.000000	100.548490
2300.000000	100.547881
2299.000000	100.547280
2298.000000	100.546672
2297.000000	100.546050
2296.000000	100.545419
2295.000000	100.544793
2294.000000	100.544175
2293.000000	100.543563
2292.000000	100.542960
2291.000000	100.542370
2290.000000	100.541800
2289.000000	100.541253
2288.000000	100.540729
2287.000000	100.540225
2286.000000	100.539738
2285.000000	100.539261
2284.000000	100.538789
2283.000000	100.538317
2282.000000	100.537840
2281.000000	100.537360
2280.000000	100.536878
2279.000000	100.536395
2278.000000	100.535909
2277.000000	100.535419
2276.000000	100.534923
2275.000000	100.534422
2274.000000	100.533914
2273.000000	100.533400
2272.000000	100.532880
2271.000000	100.532356
2270.000000	100.531829
2269.000000	100.531302
2268.000000	100.530776
2267.000000	100.530252
2266.000000	100.529728
2265.000000	100.529200
2264.000000	100.528667
2263.000000	100.528132
2262.000000	100.527596
2261.000000	100.527066
2260.000000	100.526546
2259.000000	100.526039
2258.000000	100.525546
2257.000000	100.525066
2256.000000	100.524593
2255.000000	100.524116
2254.000000	100.523627
2253.000000	100.523134
2252.000000	100.522670
2251.000000	100.522254
2250.000000	100.521871
2249.000000	100.521492
2248.000000	100.521101
2247.000000	100.520707
2246.000000	100.520328
2245.000000	100.519994
2244.000000	100.519721
2243.000000	100.519469
2242.000000	100.519146
2241.000000	100.518707
2240.000000	100.518200
2239.000000	100.517749
2238.000000	100.517432
2237.000000	100.517240
2236.000000	100.517089
2235.000000	100.516879
2234.000000	100.516540
2233.000000	100.516059
2232.000000	100.515509
2231.000000	100.515054
2230.000000	100.514834
2229.000000	100.514870
2228.000000	100.515038
2227.000000	100.515164
2226.000000	100.515157
2225.000000	100.515047
2224.000000	100.514942
2223.000000	100.514943
2222.000000	100.515061
2221.000000	100.515217
2220.000000	100.515307
2219.000000	100.515297
2218.000000	100.515242
2217.000000	100.515223
2216.000000	100.515263
2215.000000	100.515354
2214.000000	100.515527
2213.000000	100.515842
2212.000000	100.516273
2211.000000	100.516677
2210.000000	100.516936
2209.000000	100.517095
2208.000000	100.517312
2207.000000	100.517677
2206.000000	100.518117
2205.000000	100.518492
2204.000000	100.518733
2203.000000	100.518870
2202.000000	100.518989
2201.000000	100.519190
2200.000000	100.519543
2199.000000	100.520039
2198.000000	100.520568
2197.000000	100.520988
2196.000000	100.521242
2195.000000	100.521383
2194.000000	100.521508
2193.000000	100.521680
2192.000000	100.521926
2191.000000	100.522244
2190.000000	100.522585
2189.000000	100.522885
2188.000000	100.523126
2187.000000	100.523360
2186.000000	100.523662
2185.000000	100.524067
2184.000000	100.524539
2183.000000	100.524990
2182.000000	100.525348
2181.000000	100.525603
2180.000000	100.525789
2179.000000	100.525960
2178.000000	100.526139
2177.000000	100.526328
2176.000000	100.526531
2175.000000	100.526772
2174.000000	100.527080
2173.000000	100.527475
2172.000000	100.527953
2171.000000	100.528468
2170.000000	100.528926
2169.000000	100.529235
2168.000000	100.529375
2167.000000	100.529426
2166.000000	100.529500
2165.000000	100.529665
2164.000000	100.529918
2163.000000	100.530210
2162.000000	100.530494
2161.000000	100.530762
2160.000000	100.531038
2159.000000	100.531323
2158.000000	100.531573
2157.000000	100.531761
2156.000000	100.531924
2155.000000	100.532131
2154.000000	100.532418
2153.000000	100.532768
2152.000000	100.533144
2151.000000	100.533521
2150.000000	100.533891
2149.000000	100.534258
2148.000000	100.534629
2147.000000	100.535015
2146.000000	100.535419
2145.000000	100.535839
2144.000000	100.536275
2143.000000	100.536724
2142.000000	100.537182
2141.000000	100.537648
2140.000000	100.538124
2139.000000	100.538613
2138.000000	100.539120
2137.000000	100.539642
2136.000000	100.540177
2135.000000	100.540719
2134.000000	100.541268
2133.000000	100.541821
2132.000000	100.542380
2131.000000	100.542943
2130.000000	100.543513
2129.000000	100.544090
2128.000000	100.544678
2127.000000	100.545274
2126.000000	100.545880
2125.000000	100.546497
2124.000000	100.547135
2123.000000	100.547801
2122.000000	100.548497
2121.000000	100.549217
2120.000000	100.549953
2119.000000	100.550697
2118.000000	100.551447
2117.000000	100.552203
2116.000000	100.552976
2115.000000	100.553774
2114.000000	100.554604
2113.000000	100.555460
2112.000000	100.556331
2111.000000	100.557209
2110.000000	100.558089
2109.000000	100.558974
2108.000000	100.559866
2107.000000	100.560765
2106.000000	100.561671
2105.000000	100.562580
2104.000000	100.563489
2103.000000	100.564394
2102.000000	100.565295
2101.000000	100.566191
2100.000000	100.567085
2099.000000	100.567982
2098.000000	100.568888
2097.000000	100.569811
2096.000000	100.570750
2095.000000	100.571701
2094.000000	100.572659
2093.000000	100.573636
2092.000000	100.574619
2091.000000	100.575557
2090.000000	100.576428
2089.000000	100.577323
2088.000000	100.578362
2087.000000	100.579517
2086.000000	100.580584
2085.000000	100.581385
2084.000000	100.581963
2083.000000	100.582596
2082.000000	100.583571
2081.000000	100.584905
2080.000000	100.586248
2079.000000	100.587157
2078.000000	100.587539
2077.000000	100.587765
2076.000000	100.588385
2075.000000	100.589730
2074.000000	100.591728
2073.000000	100.593983
2072.000000	100.596011
2071.000000	100.597489
2070.000000	100.598332
2069.000000	100.598513
2068.000000	100.598046
2067.000000	100.597168
2066.000000	100.596337
2065.000000	100.595934
2064.000000	100.596037
2063.000000	100.596508
2062.000000	100.597166
2061.000000	100.597754
2060.000000	100.598024
2059.000000	100.598163
2058.000000	100.598950
2057.000000	100.601025
2056.000000	100.603877
2055.000000	100.605920
2054.000000	100.605949
2053.000000	100.604360
2052.000000	100.602799
2051.000000	100.602535
2050.000000	100.603255
2049.000000	100.603545
2048.000000	100.602421
2047.000000	100.600149
2046.000000	100.597755
2045.000000	100.596017
2044.000000	100.595040
2043.000000	100.594552
2042.000000	100.594217
2041.000000	100.593716
2040.000000	100.592905
2039.000000	100.592008
2038.000000	100.591389
2037.000000	100.591061
2036.000000	100.590665
2035.000000	100.590014
2034.000000	100.589335
2033.000000	100.588830
2032.000000	100.588301
2031.000000	100.587449
2030.000000	100.586301
2029.000000	100.585089
2028.000000	100.583902
2027.000000	100.582742
2026.000000	100.581780
2025.000000	100.581247
2024.000000	100.581068
2023.000000	100.580823
2022.000000	100.580157
2021.000000	100.579100
2020.000000	100.577920
2019.000000	100.576790
2018.000000	100.575683
2017.000000	100.574559
2016.000000	100.573508
2015.000000	100.572650
2014.000000	100.571932
2013.000000	100.571136
2012.000000	100.570103
2011.000000	100.568878
2010.000000	100.567678
2009.000000	100.566718
2008.000000	100.566048
2007.000000	100.565527
2006.000000	100.564950
2005.000000	100.564235
2004.000000	100.563422
2003.000000	100.562611
2002.000000	100.561898
2001.000000	100.561310
2000.000000	100.560754
1999.000000	100.560097
1998.000000	100.559322
1997.000000	100.558513
1996.000000	100.557685
1995.000000	100.556778
1994.000000	100.555876
1993.000000	100.555206
1992.000000	100.554751
1991.000000	100.554093
1990.000000	100.552922
1989.000000	100.551501
1988.000000	100.550370
1987.000000	100.549777
1986.000000	100.549612
1985.000000	100.549688
1984.000000	100.549779
1983.000000	100.549605
1982.000000	100.549143
1981.000000	100.548794
1980.000000	100.548900
1979.000000	100.549236
1978.000000	100.549263
1977.000000	100.548802
1976.000000	100.548137
1975.000000	100.547583
1974.000000	100.547322
1973.000000	100.547554
1972.000000	100.548378
1971.000000	100.549444
1970.000000	100.550073
1969.000000	100.549836
1968.000000	100.548836
1967.000000	100.547431
1966.000000	100.546041
1965.000000	100.545258
1964.000000	100.545642
1963.000000	100.547094
1962.000000	100.548551
1961.000000	100.548822
1960.000000	100.547758
1959.000000	100.546375
1958.000000	100.545671
1957.000000	100.545528
1956.000000	100.545118
1955.000000	100.544168
1954.000000	100.543273
1953.000000	100.542863
1952.000000	100.542419
1951.000000	100.541232
1950.000000	100.539549
1949.000000	100.538316
1948.000000	100.537839
1947.000000	100.537458
1946.000000	100.536666
1945.000000	100.535741
1944.000000	100.534896
1943.000000	100.533446
1942.000000	100.530604
1941.000000	100.526751
1940.000000	100.523168
1939.000000	100.520772
1938.000000	100.519699
1937.000000	100.519627
1936.000000	100.519996
1935.000000	100.520214
1934.000000	100.520060
1933.000000	100.519850
1932.000000	100.519846
1931.000000	100.519630
1930.000000	100.518527
1929.000000	100.516507
1928.000000	100.514288
1927.000000	100.512577
1926.000000	100.511515
1925.000000	100.510750
1924.000000	100.509617
1923.000000	100.507461
1922.000000	100.504349
1921.000000	100.501306
1920.000000	100.499346
1919.000000	100.498326
1918.000000	100.496997
1917.000000	100.494441
1916.000000	100.491045
1915.000000	100.487683
1914.000000	100.484700
1913.000000	100.482031
1912.000000	100.479740
1911.000000	100.478100
1910.000000	100.477278
1909.000000	100.477020
1908.000000	100.476601
1907.000000	100.475252
1906.000000	100.472836
1905.000000	100.470032
1904.000000	100.467480
1903.000000	100.464925
1902.000000	100.461817
1901.000000	100.458558
1900.000000	100.456382
1899.000000	100.456009
1898.000000	100.456986
1897.000000	100.458200
1896.000000	100.458347
1895.000000	100.456228
1894.000000	100.451771
1893.000000	100.446800
1892.000000	100.443599
1891.000000	100.442406
1890.000000	100.441007
1889.000000	100.437439
1888.000000	100.432512
1887.000000	100.428444
1886.000000	100.426208
1885.000000	100.425223
1884.000000	100.424525
1883.000000	100.423534
1882.000000	100.422155
1881.000000	100.420720
1880.000000	100.419731
1879.000000	100.419373
1878.000000	100.419437
1877.000000	100.419845
1876.000000	100.420741
1875.000000	100.421783
1874.000000	100.421926
1873.000000	100.420555
1872.000000	100.418490
1871.000000	100.417479
1870.000000	100.418781
1869.000000	100.421925
1868.000000	100.424941
1867.000000	100.426197
1866.000000	100.425586
1865.000000	100.424308
1864.000000	100.423937
1863.000000	100.425367
1862.000000	100.428475
1861.000000	100.432751
1860.000000	100.437840
1859.000000	100.443194
1858.000000	100.447627
1857.000000	100.449899
1856.000000	100.449800
1855.000000	100.448378
1854.000000	100.447186
1853.000000	100.447310
1852.000000	100.448788
1851.000000	100.450767
1850.000000	100.452254
1849.000000	100.452893
1848.000000	100.453140
1847.000000	100.453691
1846.000000	100.455040
1845.000000	100.457336
1844.000000	100.459817
1843.000000	100.461229
1842.000000	100.461380
1841.000000	100.461197
1840.000000	100.461458
1839.000000	100.462004
1838.000000	100.462073
1837.000000	100.461426
1836.000000	100.460729
1835.000000	100.460592
1834.000000	100.460771
1833.000000	100.460615
1832.000000	100.459963
1831.000000	100.459276
1830.000000	100.458965
1829.000000	100.459231
1828.000000	100.460425
1827.000000	100.462805
1826.000000	100.465977
1825.000000	100.468699
1824.000000	100.469674
1823.000000	100.468638
1822.000000	100.466296
1821.000000	100.463770
1820.000000	100.462176
1819.000000	100.462036
1818.000000	100.462887
1817.000000	100.463711
1816.000000	100.463821
1815.000000	100.463177
1814.000000	100.462039
1813.000000	100.460709
1812.000000	100.459574
1811.000000	100.458892
1810.000000	100.458561
1809.000000	100.458467
1808.000000	100.458895
1807.000000	100.460286
1806.000000	100.462814
1805.000000	100.466239
1804.000000	100.469825
1803.000000	100.472395
1802.000000	100.472856
1801.000000	100.471120
1800.000000	100.468480
1799.000000	100.466477
1798.000000	100.465621
1797.000000	100.465660
1796.000000	100.466401
1795.000000	100.467891
1794.000000	100.470229
1793.000000	100.473202
1792.000000	100.475746
1791.000000	100.476576
1790.000000	100.475646
1789.000000	100.474326
1788.000000	100.474269
1787.000000	100.476044
1786.000000	100.478583
1785.000000	100.480246
1784.000000	100.480780
1783.000000	100.481669
1782.000000	100.484444
1781.000000	100.489146
1780.000000	100.494301
1779.000000	100.498329
1778.000000	100.500974
1777.000000	100.503349
1776.000000	100.506707
1775.000000	100.510970
1774.000000	100.514737
1773.000000	100.517018
1772.000000	100.518556
1771.000000	100.521395
1770.000000	100.526007
1769.000000	100.530065
1768.000000	100.531311
1767.000000	100.530567
1766.000000	100.530919
1765.000000	100.534320
1764.000000	100.540126
1763.000000	100.545909
1762.000000	100.548991
1761.000000	100.548878
1760.000000	100.548077
1759.000000	100.549187
1758.000000	100.552609
1757.000000	100.557094
1756.000000	100.561830
1755.000000	100.567628
1754.000000	100.575056
1753.000000	100.582441
1752.000000	100.586934
1751.000000	100.587627
1750.000000	100.587020
1749.000000	100.588282
1748.000000	100.591832
1747.000000	100.595934
1746.000000	100.599166
1745.000000	100.601246
1744.000000	100.602479
1743.000000	100.603244
1742.000000	100.603952
1741.000000	100.605019
1740.000000	100.606171
1739.000000	100.606410
1738.000000	100.605803
1737.000000	100.604918
1736.000000	100.603074
1735.000000	100.599711
1734.000000	100.594591
1733.000000	100.588209
1732.000000	100.582665
1731.000000	100.579634
1730.000000	100.579338
1729.000000	100.580736
1728.000000	100.581886
1727.000000	100.580764
1726.000000	100.576670
1725.000000	100.571435
1724.000000	100.568341
1723.000000	100.568583
1722.000000	100.570170
1721.000000	100.570761
1720.000000	100.569674
1719.000000	100.567165
1718.000000	100.562784
1717.000000	100.556609
1716.000000	100.551276
1715.000000	100.548423
1714.000000	100.546655
1713.000000	100.544274
1712.000000	100.541240
1711.000000	100.538064
1710.000000	100.534359
1709.000000	100.529547
1708.000000	100.524328
1707.000000	100.519947
1706.000000	100.516176
1705.000000	100.511949
1704.000000	100.507592
1703.000000	100.503422
1702.000000	100.498307
1701.000000	100.492097
1700.000000	100.486212
1699.000000	100.482014
1698.000000	100.478982
1697.000000	100.475471
1696.000000	100.470953
1695.000000	100.466169
1694.000000	100.461622
1693.000000	100.457113
1692.000000	100.452314
1691.000000	100.447121
1690.000000	100.441833
1689.000000	100.436913
1688.000000	100.432583
1687.000000	100.428497
1686.000000	100.423781
1685.000000	100.417703
1684.000000	100.410455
1683.000000	100.404030
1682.000000	100.399756
1681.000000	100.396549
1680.000000	100.392617
1679.000000	100.387427
1678.000000	100.381785
1677.000000	100.376220
1676.000000	100.370259
1675.000000	100.363673
1674.000000	100.357634
1673.000000	100.353120
1672.000000	100.349306
1671.000000	100.344592
1670.000000	100.338484
1669.000000	100.332216
1668.000000	100.327054
1667.000000	100.322767
1666.000000	100.318622
1665.000000	100.314592
1664.000000	100.311153
1663.000000	100.307575
1662.000000	100.301659
1661.000000	100.292991
1660.000000	100.283936
1659.000000	100.277054
1658.000000	100.273167
1657.000000	100.271187
1656.000000	100.267919
1655.000000	100.259291
1654.000000	100.245773
1653.000000	100.234571
1652.000000	100.230948
1651.000000	100.232051
1650.000000	100.234338
1649.000000	100.235451
1648.000000	100.231951
1647.000000	100.223000
1646.000000	100.213611
1645.000000	100.209209
1644.000000	100.209967
1643.000000	100.213633
1642.000000	100.217091
1641.000000	100.216887
1640.000000	100.212066
1639.000000	100.204984
1638.000000	100.198657
1637.000000	100.195483
1636.000000	100.197060
1635.000000	100.202256
1634.000000	100.208421
1633.000000	100.214157
1632.000000	100.219187
1631.000000	100.223191
1630.000000	100.226079
1629.000000	100.228168
1628.000000	100.229607
1627.000000	100.230658
1626.000000	100.231985
1625.000000	100.234116
1624.000000	100.237128
1623.000000	100.240382
1622.000000	100.243583
1621.000000	100.247741
1620.000000	100.253905
1619.000000	100.262006
1618.000000	100.271097
1617.000000	100.279631
1616.000000	100.286032
1615.000000	100.292099
1614.000000	100.301624
1613.000000	100.315118
1612.000000	100.328823
1611.000000	100.338369
1610.000000	100.343343
1609.000000	100.347406
1608.000000	100.353584
1607.000000	100.361461
1606.000000	100.369397
1605.000000	100.377314
1604.000000	100.386273
1603.000000	100.396314
1602.000000	100.405939
1601.000000	100.413741
1600.000000	100.419597
1599.000000	100.424318
1598.000000	100.429058
1597.000000	100.434923
1596.000000	100.442322
1595.000000	100.450363
1594.000000	100.457539
1593.000000	100.463333
1592.000000	100.468603
1591.000000	100.474418
1590.000000	100.481151
1589.000000	100.488523
1588.000000	100.495705
1587.000000	100.501260
1586.000000	100.504086
1585.000000	100.504967
1584.000000	100.506585
1583.000000	100.510887
1582.000000	100.516614
1581.000000	100.520822
1580.000000	100.522826
1579.000000	100.524770
1578.000000	100.528640
1577.000000	100.534300
1576.000000	100.538962
1575.000000	100.540413
1574.000000	100.540631
1573.000000	100.541554
1572.000000	100.542163
1571.000000	100.541959
1570.000000	100.543259
1569.000000	100.547309
1568.000000	100.551645
1567.000000	100.553803
1566.000000	100.554560
1565.000000	100.556371
1564.000000	100.560195
1563.000000	100.564617
1562.000000	100.566882
1561.000000	100.565265
1560.000000	100.565998
1559.000000	100.570878
1558.000000	100.571675
1557.000000	100.570806
1556.000000	100.572627
1555.000000	100.575599
1554.000000	100.576711
1553.000000	100.575020
1552.000000	100.572177
1551.000000	100.568888
1550.000000	100.564871
1549.000000	100.561178
1548.000000	100.559235
1547.000000	100.557891
1546.000000	100.554043
1545.000000	100.546115
1544.000000	100.536337
1543.000000	100.528234
1542.000000	100.523010
1541.000000	100.520204
1540.000000	100.518661
1539.000000	100.516126
1538.000000	100.510872
1537.000000	100.503708
1536.000000	100.496757
1535.000000	100.490933
1534.000000	100.485549
1533.000000	100.478760
1532.000000	100.470678
1531.000000	100.463425
1530.000000	100.458391
1529.000000	100.456123
1528.000000	100.455882
1527.000000	100.455101
1526.000000	100.451158
1525.000000	100.444359
1524.000000	100.437916
1523.000000	100.434605
1522.000000	100.433615
1521.000000	100.430567
1520.000000	100.423761
1519.000000	100.416780
1518.000000	100.413052
1517.000000	100.412059
1516.000000	100.410784
1515.000000	100.407969
1514.000000	100.404789
1513.000000	100.402213
1512.000000	100.400080
1511.000000	100.397928
1510.000000	100.395803
1509.000000	100.394004
1508.000000	100.392907
1507.000000	100.391808
1506.000000	100.388653
1505.000000	100.382863
1504.000000	100.375908
1503.000000	100.369339
1502.000000	100.363507
1501.000000	100.358377
1500.000000	100.354552
1499.000000	100.352430
1498.000000	100.351065
1497.000000	100.349011
1496.000000	100.346125
1495.000000	100.343183
1494.000000	100.340382
1493.000000	100.337376
1492.000000	100.333891
1491.000000	100.329914
1490.000000	100.325465
1489.000000	100.321052
1488.000000	100.317815
1487.000000	100.315959
1486.000000	100.314339
1485.000000	100.311824
1484.000000	100.308179
1483.000000	100.303825
1482.000000	100.299442
1481.000000	100.296154
1480.000000	100.295130
1479.000000	100.296282
1478.000000	100.297942
1477.000000	100.298167
1476.000000	100.296683
1475.000000	100.295186
1474.000000	100.295654
1473.000000	100.298185
1472.000000	100.300387
1471.000000	100.300217
1470.000000	100.297888
1469.000000	100.294469
1468.000000	100.290861
1467.000000	100.288150
1466.000000	100.287697
1465.000000	100.289800
1464.000000	100.292317
1463.000000	100.292345
1462.000000	100.288863
1461.000000	100.283289
1460.000000	100.278193
1459.000000	100.275463
1458.000000	100.274887
1457.000000	100.274571
1456.000000	100.273880
1455.000000	100.273925
1454.000000	100.274705
1453.000000	100.274244
1452.000000	100.270775
1451.000000	100.265708
1450.000000	100.262250
1449.000000	100.261140
1448.000000	100.259777
1447.000000	100.255701
1446.000000	100.249362
1445.000000	100.243018
1444.000000	100.238939
1443.000000	100.238110
1442.000000	100.239224
1441.000000	100.239604
1440.000000	100.237511
1439.000000	100.232799
1438.000000	100.225969
1437.000000	100.218034
1436.000000	100.210670
1435.000000	100.205696
1434.000000	100.203716
1433.000000	100.203682
1432.000000	100.203622
1431.000000	100.202044
1430.000000	100.199190
1429.000000	100.196770
1428.000000	100.196138
1427.000000	100.196869
1426.000000	100.197614
1425.000000	100.198015
1424.000000	100.199622
1423.000000	100.204263
1422.000000	100.211444
1421.000000	100.218775
1420.000000	100.224789
1419.000000	100.229544
1418.000000	100.233223
1417.000000	100.236172
1416.000000	100.239184
1415.000000	100.243195
1414.000000	100.249191
1413.000000	100.257887
1412.000000	100.268924
1411.000000	100.280283
1410.000000	100.289251
1409.000000	100.294680
1408.000000	100.297958
1407.000000	100.301620
1406.000000	100.307265
1405.000000	100.314535
1404.000000	100.321941
1403.000000	100.328592
1402.000000	100.334820
1401.000000	100.341536
1400.000000	100.349341
1399.000000	100.358014
1398.000000	100.367252
1397.000000	100.377636
1396.000000	100.389782
1395.000000	100.402417
1394.000000	100.412390
1393.000000	100.417961
1392.000000	100.421178
1391.000000	100.425995
1390.000000	100.434625
1389.000000	100.445623
1388.000000	100.455135
1387.000000	100.460929
1386.000000	100.464978
1385.000000	100.470356
1384.000000	100.477039
1383.000000	100.482680
1382.000000	100.486054
1381.000000	100.488259
1380.000000	100.490627
1379.000000	100.493097
1378.000000	100.495409
1377.000000	100.498392
1376.000000	100.502960
1375.000000	100.508505
1374.000000	100.513504
1373.000000	100.517843
1372.000000	100.523012
1371.000000	100.529848
1370.000000	100.537186
1369.000000	100.542621
1368.000000	100.544702
1367.000000	100.544572
1366.000000	100.545226
1365.000000	100.549082
1364.000000	100.556126
1363.000000	100.563710
1362.000000	100.568728
1361.000000	100.570360
1360.000000	100.569996
1359.000000	100.569424
1358.000000	100.569924
1357.000000	100.572152
1356.000000	100.575864
1355.000000	100.579802
1354.000000	100.582470
1353.000000	100.583368
1352.000000	100.583399
1351.000000	100.584185
1350.000000	100.587009
1349.000000	100.591879
1348.000000	100.597264
1347.000000	100.601033
1346.000000	100.602103
1345.000000	100.601277
1344.000000	100.600384
1343.000000	100.600458
1342.000000	100.600810
1341.000000	100.599928
1340.000000	100.597290
1339.000000	100.594358
1338.000000	100.593309
1337.000000	100.594764
1336.000000	100.597427
1335.000000	100.599576
1334.000000	100.600460
1333.000000	100.600564
1332.000000	100.600900
1331.000000	100.602112
1330.000000	100.603907
1329.000000	100.605225
1328.000000	100.605266
1327.000000	100.604508
1326.000000	100.604334
1325.000000	100.605386
1324.000000	100.606735
1323.000000	100.607078
1322.000000	100.606320
1321.000000	100.605388
1320.000000	100.604772
1319.000000	100.604102
1318.000000	100.603154
1317.000000	100.602370
1316.000000	100.602180
1315.000000	100.602583
1314.000000	100.603518
1313.000000	100.604868
1312.000000	100.605874
1311.000000	100.605450
1310.000000	100.603630
1309.000000	100.602006
1308.000000	100.601988
1307.000000	100.603118
1306.000000	100.603978
1305.000000	100.604280
1304.000000	100.604791
1303.000000	100.605304
1302.000000	100.604367
1301.000000	100.601820
1300.000000	100.600313
1299.000000	100.602675
1298.000000	100.607914
1297.000000	100.611488
1296.000000	100.610198
1295.000000	100.605575
1294.000000	100.601795
1293.000000	100.600712
1292.000000	100.600466
1291.000000	100.598948
1290.000000	100.596850
1289.000000	100.596330
1288.000000	100.597767
1287.000000	100.599427
1286.000000	100.600142
1285.000000	100.600686
1284.000000	100.601892
1283.000000	100.602799
1282.000000	100.601891
1281.000000	100.599489
1280.000000	100.597464
1279.000000	100.596583
1278.000000	100.595455
1277.000000	100.592566
1276.000000	100.588426
1275.000000	100.585146
1274.000000	100.584475
1273.000000	100.586671
1272.000000	100.590627
1271.000000	100.594550
1270.000000	100.597138
1269.000000	100.598672
1268.000000	100.600480
1267.000000	100.602957
1266.000000	100.604861
1265.000000	100.605111
1264.000000	100.604463
1263.000000	100.604544
1262.000000	100.605823
1261.000000	100.607390
1260.000000	100.608251
1259.000000	100.607984
1258.000000	100.606629
1257.000000	100.604782
1256.000000	100.603373
1255.000000	100.602495
1254.000000	100.600865
1253.000000	100.597245
1252.000000	100.591866
1251.000000	100.585678
1250.000000	100.578981
1249.000000	100.571708
1248.000000	100.564034
1247.000000	100.555484
1246.000000	100.544668
1245.000000	100.531839
1244.000000	100.520532
1243.000000	100.513927
1242.000000	100.510156
1241.000000	100.504450
1240.000000	100.496046
1239.000000	100.489609
1238.000000	100.488719
1237.000000	100.490833
1236.000000	100.490348
1235.000000	100.484233
1234.000000	100.472898
1233.000000	100.457622
1232.000000	100.439284
1231.000000	100.418579
1230.000000	100.395873
1229.000000	100.371693
1228.000000	100.348021
1227.000000	100.327052
1226.000000	100.307185
1225.000000	100.282532
1224.000000	100.248693
1223.000000	100.207541
1222.000000	100.164175
1221.000000	100.120612
1220.000000	100.075283
1219.000000	100.027517
1218.000000	99.979049
1217.000000	99.930844
1216.000000	99.881012
1215.000000	99.826585
1214.000000	99.765971
1213.000000	99.699656
1212.000000	99.629965
1211.000000	99.560311
1210.000000	99.493448
1209.000000	99.430019
1208.000000	99.368716
1207.000000	99.306993
1206.000000	99.241958
1205.000000	99.172894
1204.000000	99.103633
1203.000000	99.040169
1202.000000	98.984486
1201.000000	98.932233
1200.000000	98.877527
1199.000000	98.818365
1198.000000	98.756442
1197.000000	98.693765
1196.000000	98.631077
1195.000000	98.568201
1194.000000	98.504385
1193.000000	98.439014
1192.000000	98.372568
1191.000000	98.305903
1190.000000	98.238456
1189.000000	98.168497
1188.000000	98.095179
1187.000000	98.019192
1186.000000	97.942247
1185.000000	97.867499
1184.000000	97.798550
1183.000000	97.734660
1182.000000	97.668398
1181.000000	97.592448
1180.000000	97.508033
1179.000000	97.422194
1178.000000	97.337512
1177.000000	97.250068
1176.000000	97.157508
1175.000000	97.062745
1174.000000	96.968220
1173.000000	96.872421
1172.000000	96.774207
1171.000000	96.675130
1170.000000	96.575455
1169.000000	96.473488
1168.000000	96.371284
1167.000000	96.275802
1166.000000	96.192406
1165.000000	96.123149
1164.000000	96.073281
1163.000000	96.051744
1162.000000	96.060600
1161.000000	96.089176
1160.000000	96.122441
1159.000000	96.150762
1158.000000	96.168554
1157.000000	96.169355
1156.000000	96.147699
1155.000000	96.103524
1154.000000	96.041732
1153.000000	95.969311
1152.000000	95.893876
1151.000000	95.820833
1150.000000	95.749500
1149.000000	95.675490
1148.000000	95.598246
1147.000000	95.521808
1146.000000	95.447244
1145.000000	95.370312
1144.000000	95.289029
1143.000000	95.207504
1142.000000	95.128998
1141.000000	95.050522
1140.000000	94.967751
1139.000000	94.880387
1138.000000	94.789716
1137.000000	94.695809
1136.000000	94.600040
1135.000000	94.505463
1134.000000	94.412005
1133.000000	94.316257
1132.000000	94.218102
1131.000000	94.121623
1130.000000	94.027189
1129.000000	93.929330
1128.000000	93.825624
1127.000000	93.721070
1126.000000	93.619941
1125.000000	93.519607
1124.000000	93.416433
1123.000000	93.311767
1122.000000	93.207788
1121.000000	93.102768
1120.000000	92.994691
1119.000000	92.885176
1118.000000	92.776850
1117.000000	92.671360
1116.000000	92.571370
1115.000000	92.478694
1114.000000	92.389282
1113.000000	92.296693
1112.000000	92.201406
1111.000000	92.109310
1110.000000	92.020983
1109.000000	91.931551
1108.000000	91.841414
1107.000000	91.756291
1106.000000	91.674744
1105.000000	91.586989
1104.000000	91.489781
1103.000000	91.392083
1102.000000	91.301844
1101.000000	91.216720
1100.000000	91.131374
1099.000000	91.044310
1098.000000	90.953997
1097.000000	90.858139
1096.000000	90.760749
1095.000000	90.670653
1094.000000	90.589575
1093.000000	90.510894
1092.000000	90.432469
1091.000000	90.359981
1090.000000	90.294811
1089.000000	90.229985
1088.000000	90.161837
1087.000000	90.094883
1086.000000	90.031788
1085.000000	89.969400
1084.000000	89.907676
1083.000000	89.850890
1082.000000	89.796577
1081.000000	89.735217
1080.000000	89.664778
1079.000000	89.594029
1078.000000	89.527725
1077.000000	89.460199
1076.000000	89.387376
1075.000000	89.312220
1074.000000	89.233300
1073.000000	89.140334
1072.000000	89.026845
1071.000000	88.896797
1070.000000	88.754498
1069.000000	88.598332
1068.000000	88.428371
1067.000000	88.249039
1066.000000	88.060545
1065.000000	87.859620
1064.000000	87.652835
1063.000000	87.456267
1062.000000	87.276291
1061.000000	87.103080
1060.000000	86.928304
1059.000000	86.756151
1058.000000	86.591247
1057.000000	86.428458
1056.000000	86.261150
1055.000000	86.088005
1054.000000	85.906101
1053.000000	85.708990
1052.000000	85.497779
1051.000000	85.282730
1050.000000	85.067993
1049.000000	84.846998
1048.000000	84.616894
1047.000000	84.382580
1046.000000	84.143666
1045.000000	83.893448
1044.000000	83.633550
1043.000000	83.374658
1042.000000	83.120329
1041.000000	82.865011
1040.000000	82.610425
1039.000000	82.367740
1038.000000	82.140330
1037.000000	81.920636
1036.000000	81.707003
1035.000000	81.506585
1034.000000	81.319067
1033.000000	81.135947
1032.000000	80.958870
1031.000000	80.799338
1030.000000	80.656882
1029.000000	80.517961
1028.000000	80.381135
1027.000000	80.262176
1026.000000	80.167443
1025.000000	80.082192
1024.000000	79.992364
1023.000000	79.899437
1022.000000	79.806858
1021.000000	79.710807
1020.000000	79.612145
1019.000000	79.520030
1018.000000	79.436168
1017.000000	79.351113
1016.000000	79.261075
1015.000000	79.171906
1014.000000	79.082692
1013.000000	78.984012
1012.000000	78.877410
1011.000000	78.778281
1010.000000	78.694075
1009.000000	78.617079
1008.000000	78.542753
1007.000000	78.476558
1006.000000	78.418266
1005.000000	78.359087
1004.000000	78.299939
1003.000000	78.253567
1002.000000	78.222625
1001.000000	78.194198
1000.000000	78.161862
999.000000	78.134945
998.000000	78.120156
997.000000	78.112577
996.000000	78.110636
995.000000	78.121318
994.000000	78.143601
993.000000	78.164474
992.000000	78.178696
991.000000	78.196487
990.000000	78.225431
989.000000	78.260756
988.000000	78.298838
987.000000	78.344315
986.000000	78.398696
985.000000	78.457923
984.000000	78.525806
983.000000	78.613617
982.000000	78.721779
981.000000	78.838146
980.000000	78.958722
979.000000	79.093807
978.000000	79.249051
977.000000	79.417075
976.000000	79.592952
975.000000	79.782092
974.000000	79.986886
973.000000	80.199918
972.000000	80.415914
971.000000	80.637728
970.000000	80.866177
969.000000	81.095859
968.000000	81.323933
967.000000	81.551593
966.000000	81.775794
965.000000	81.991779
964.000000	82.204318
963.000000	82.423625
962.000000	82.649473
961.000000	82.871850
960.000000	83.087040
959.000000	83.299626
958.000000	83.508825
957.000000	83.707024
956.000000	83.892717
955.000000	84.071944
954.000000	84.246615
953.000000	84.413938
952.000000	84.576576
951.000000	84.739389
950.000000	84.896805
949.000000	85.038185
948.000000	85.165354
947.000000	85.290065
946.000000	85.414095
945.000000	85.527260
944.000000	85.626207
943.000000	85.719251
942.000000	85.810378
941.000000	85.893837
940.000000	85.968277
939.000000	86.042097
938.000000	86.120532
937.000000	86.199881
936.000000	86.277922
935.000000	86.357970
934.000000	86.440033
933.000000	86.520039
932.000000	86.600000
931.000000	86.687030
930.000000	86.780545
929.000000	86.872336
928.000000	86.960335
927.000000	87.049704
926.000000	87.139485
925.000000	87.221677
924.000000	87.295222
923.000000	87.367777
922.000000	87.441566
921.000000	87.509947
920.000000	87.569644
919.000000	87.624301
918.000000	87.675368
917.000000	87.722281
916.000000	87.771586
915.000000	87.831458
914.000000	87.896753
913.000000	87.955365
912.000000	88.011558
911.000000	88.086730
910.000000	88.193966
909.000000	88.327895
908.000000	88.482275
907.000000	88.659869
906.000000	88.858927
905.000000	89.066756
904.000000	89.275525
903.000000	89.491989
902.000000	89.724321
901.000000	89.970133
900.000000	90.222848
899.000000	90.479411
898.000000	90.736475
897.000000	90.987745
896.000000	91.228849
895.000000	91.457794
894.000000	91.670827
893.000000	91.867473
892.000000	92.058921
891.000000	92.258943
890.000000	92.464471
889.000000	92.657129
888.000000	92.826562
887.000000	92.980493
886.000000	93.129046
885.000000	93.271791
884.000000	93.405938
883.000000	93.535954
882.000000	93.667311
881.000000	93.798764
880.000000	93.927188
879.000000	94.053136
878.000000	94.176758
877.000000	94.295675
876.000000	94.412013
875.000000	94.535020
874.000000	94.672364
873.000000	94.824250
872.000000	94.988075
871.000000	95.161980
870.000000	95.342095
869.000000	95.523248
868.000000	95.703978
867.000000	95.884841
866.000000	96.061487
865.000000	96.226026
864.000000	96.375836
863.000000	96.515352
862.000000	96.649387
861.000000	96.780285
860.000000	96.910351
859.000000	97.040175
858.000000	97.165638
857.000000	97.283766
856.000000	97.400005
855.000000	97.521199
854.000000	97.642406
853.000000	97.750566
852.000000	97.841633
851.000000	97.924251
850.000000	98.005027
849.000000	98.079630
848.000000	98.141141
847.000000	98.188316
846.000000	98.222511
845.000000	98.244716
844.000000	98.258880
843.000000	98.270014
842.000000	98.275198
841.000000	98.264204
840.000000	98.232792
839.000000	98.187698
838.000000	98.134650
837.000000	98.070128
836.000000	97.991260
835.000000	97.906822
834.000000	97.831140
833.000000	97.771654
832.000000	97.727910
831.000000	97.697071
830.000000	97.674523
829.000000	97.655207
828.000000	97.641995
827.000000	97.648257
826.000000	97.683964
825.000000	97.741602
824.000000	97.801948
823.000000	97.850606
822.000000	97.884025
821.000000	97.904434
820.000000	97.915633
819.000000	97.921035
818.000000	97.920610
817.000000	97.910646
816.000000	97.887972
815.000000	97.851214
814.000000	97.795714
813.000000	97.710316
812.000000	97.581762
811.000000	97.400332
810.000000	97.160719
809.000000	96.861960
808.000000	96.509630
807.000000	96.115133
806.000000	95.690252
805.000000	95.245716
804.000000	94.796942
803.000000	94.365314
802.000000	93.970248
801.000000	93.625633
800.000000	93.345999
799.000000	93.147048
798.000000	93.035232
797.000000	93.003580
796.000000	93.039474
795.000000	93.128085
794.000000	93.248289
793.000000	93.377254
792.000000	93.502224
791.000000	93.618683
790.000000	93.716112
789.000000	93.776551
788.000000	93.789702
787.000000	93.759192
786.000000	93.690731
785.000000	93.584282
784.000000	93.442914
783.000000	93.280428
782.000000	93.114408
781.000000	92.959344
780.000000	92.831308
779.000000	92.750074
778.000000	92.728717
777.000000	92.766276
776.000000	92.854437
775.000000	92.984647
774.000000	93.145502
773.000000	93.320855
772.000000	93.494990
771.000000	93.655427
770.000000	93.790868
769.000000	93.894064
768.000000	93.968230
767.000000	94.023337
766.000000	94.064005
765.000000	94.087879
764.000000	94.097500
763.000000	94.105379
762.000000	94.123384
761.000000	94.153598
760.000000	94.192667
759.000000	94.238098
758.000000	94.286610
757.000000	94.333040
756.000000	94.375445
755.000000	94.416985
754.000000	94.460457
753.000000	94.505982
752.000000	94.555672
751.000000	94.614499
750.000000	94.683660
749.000000	94.757856
748.000000	94.831607
747.000000	94.904801
746.000000	94.981841
745.000000	95.069947
744.000000	95.177330
743.000000	95.305959
742.000000	95.445755
741.000000	95.583281
740.000000	95.717217
739.000000	95.857960
738.000000	96.010460
737.000000	96.164848
736.000000	96.307027
735.000000	96.431755
734.000000	96.541297
733.000000	96.636446
732.000000	96.713828
731.000000	96.770777
730.000000	96.810783
729.000000	96.844152
728.000000	96.881412
727.000000	96.923573
726.000000	96.961745
725.000000	96.991015
724.000000	97.022143
723.000000	97.073149
722.000000	97.149915
721.000000	97.240671
720.000000	97.329039
719.000000	97.406706
718.000000	97.473525
717.000000	97.532184
716.000000	97.585773
715.000000	97.636668
714.000000	97.685627
713.000000	97.733081
712.000000	97.779155
711.000000	97.819563
710.000000	97.845608
709.000000	97.854400
708.000000	97.856101
707.000000	97.862730
706.000000	97.870290
705.000000	97.859378
704.000000	97.813430
703.000000	97.729824
702.000000	97.613769
701.000000	97.468982
700.000000	97.295568
699.000000	97.091893
698.000000	96.861077
697.000000	96.624164
696.000000	96.424357
695.000000	96.305516
694.000000	96.282893
693.000000	96.339385
692.000000	96.446521
691.000000	96.580942
690.000000	96.723405
689.000000	96.855997
688.000000	96.968439
687.000000	97.062228
686.000000	97.144144
685.000000	97.219162
684.000000	97.289710
683.000000	97.355495
682.000000	97.413532
681.000000	97.463792
680.000000	97.513831
679.000000	97.571157
678.000000	97.632967
677.000000	97.690779
676.000000	97.743632
675.000000	97.798728
674.000000	97.858290
673.000000	97.915874
672.000000	97.967298
671.000000	98.019047
670.000000	98.083566
669.000000	98.174138
668.000000	98.289178
667.000000	98.390125
666.000000	98.448502
665.000000	98.482593
664.000000	98.517260
663.000000	98.561430
662.000000	98.607346
661.000000	98.643774
660.000000	98.669600
659.000000	98.686754
658.000000	98.688161
657.000000	98.666441
656.000000	98.632341
655.000000	98.609592
654.000000	98.606937
653.000000	98.609628
652.000000	98.605166
651.000000	98.602362
650.000000	98.615440
