4000.000000	100.456385
3999.000000	100.456053
3998.000000	100.456125
3997.000000	100.456605
3996.000000	100.457425
3995.000000	100.458381
3994.000000	100.459055
3993.000000	100.459050
3992.000000	100.458343
3991.000000	100.457415
3990.000000	100.456935
3989.000000	100.457214
3988.000000	100.458033
3987.000000	100.458758
3986.000000	100.458798
3985.000000	100.457992
3984.000000	100.456719
3983.000000	100.455746
3982.000000	100.455628
3981.000000	100.456332
3980.000000	100.457323
3979.000000	100.458098
3978.000000	100.458615
3977.000000	100.459042
3976.000000	100.459265
3975.000000	100.458912
3974.000000	100.457823
3973.000000	100.456315
3972.000000	100.455101
3971.000000	100.454697
3970.000000	100.455030
3969.000000	100.455602
3968.000000	100.455883
3967.000000	100.455646
3966.000000	100.454947
3965.000000	100.453969
3964.000000	100.452977
3963.000000	100.452269
3962.000000	100.452016
3961.000000	100.452111
3960.000000	100.452243
3959.000000	100.452192
3958.000000	100.451980
3957.000000	100.451754
3956.000000	100.451591
3955.000000	100.451452
3954.000000	100.451254
3953.000000	100.450916
3952.000000	100.450356
3951.000000	100.449495
3950.000000	100.448337
3949.000000	100.447078
3948.000000	100.446041
3947.000000	100.445417
3946.000000	100.445061
3945.000000	100.444660
3944.000000	100.444141
3943.000000	100.443799
3942.000000	100.443910
3941.000000	100.444328
3940.000000	100.444644
3939.000000	100.444726
3938.000000	100.444906
3937.000000	100.445601
3936.000000	100.446787
3935.000000	100.447804
3934.000000	100.447748
3933.000000	100.446169
3932.000000	100.443497
3931.000000	100.440986
3930.000000	100.439723
3929.000000	100.439907
3928.000000	100.440995
3927.000000	100.442202
3926.000000	100.443087
3925.000000	100.443646
3924.000000	100.443944
3923.000000	100.443855
3922.000000	100.443203
3921.000000	100.441999
3920.000000	100.440510
3919.000000	100.439142
3918.000000	100.438170
3917.000000	100.437521
3916.000000	100.436871
3915.000000	100.436008
3914.000000	100.435040
3913.000000	100.434237
3912.000000	100.433746
3911.000000	100.433527
3910.000000	100.433456
3909.000000	100.433423
3908.000000	100.433340
3907.000000	100.433115
3906.000000	100.432680
3905.000000	100.432029
3904.000000	100.431266
3903.000000	100.430601
3902.000000	100.430251
3901.000000	100.430292
3900.000000	100.430588
3899.000000	100.430845
3898.000000	100.430819
3897.000000	100.430454
3896.000000	100.429876
3895.000000	100.429339
3894.000000	100.429076
3893.000000	100.429202
3892.000000	100.429679
3891.000000	100.430264
3890.000000	100.430559
3889.000000	100.430284
3888.000000	100.429460
3887.000000	100.428451
3886.000000	100.427749
3885.000000	100.427563
3884.000000	100.427656
3883.000000	100.427792
3882.000000	100.428096
3881.000000	100.428783
3880.000000	100.429815
3879.000000	100.430836
3878.000000	100.431485
3877.000000	100.431736
3876.000000	100.431756
3875.000000	100.431668
3874.000000	100.431475
3873.000000	100.431050
3872.000000	100.430445
3871.000000	100.430123
3870.000000	100.430472
3869.000000	100.431177
3868.000000	100.431595
3867.000000	100.431959
3866.000000	100.432921
3865.000000	100.433985
3864.000000	100.433897
3863.000000	100.432529
3862.000000	100.431325
3861.000000	100.431840
3860.000000	100.434299
3859.000000	100.437854
3858.000000	100.441309
3857.000000	100.443447
3856.000000	100.442955
3855.000000	100.439070
3854.000000	100.433545
3853.000000	100.429639
3852.000000	100.426650
3851.000000	100.422308
3850.000000	100.418018
3849.000000	100.415918
3848.000000	100.416316
3847.000000	100.418437
3846.000000	100.421202
3845.000000	100.423710
3844.000000	100.425441
3843.000000	100.426330
3842.000000	100.426306
3841.000000	100.425085
3840.000000	100.422425
3839.000000	100.418720
3838.000000	100.415151
3837.000000	100.412744
3836.000000	100.411327
3835.000000	100.410132
3834.000000	100.409011
3833.000000	100.408774
3832.000000	100.410355
3831.000000	100.413672
3830.000000	100.417493
3829.000000	100.420502
3828.000000	100.422237
3827.000000	100.423062
3826.000000	100.423357
3825.000000	100.422923
3824.000000	100.421322
3823.000000	100.418579
3822.000000	100.415569
3821.000000	100.413661
3820.000000	100.413116
3819.000000	100.413101
3818.000000	100.413296
3817.000000	100.413702
3816.000000	100.413987
3815.000000	100.413651
3814.000000	100.412537
3813.000000	100.411201
3812.000000	100.410351
3811.000000	100.410136
3810.000000	100.410380
3809.000000	100.411074
3808.000000	100.412381
3807.000000	100.414105
3806.000000	100.415348
3805.000000	100.415234
3804.000000	100.413770
3803.000000	100.411957
3802.000000	100.411199
3801.000000	100.412033
3800.000000	100.413345
3799.000000	100.413689
3798.000000	100.412960
3797.000000	100.412010
3796.000000	100.411751
3795.000000	100.412554
3794.000000	100.414284
3793.000000	100.416635
3792.000000	100.419166
3791.000000	100.421216
3790.000000	100.422113
3789.000000	100.421549
3788.000000	100.419756
3787.000000	100.417365
3786.000000	100.415121
3785.000000	100.413447
3784.000000	100.412219
3783.000000	100.411048
3782.000000	100.409856
3781.000000	100.409080
3780.000000	100.409294
3779.000000	100.410663
3778.000000	100.412699
3777.000000	100.414734
3776.000000	100.416467
3775.000000	100.417808
3774.000000	100.418520
3773.000000	100.418432
3772.000000	100.417945
3771.000000	100.418055
3770.000000	100.419455
3769.000000	100.421569
3768.000000	100.423033
3767.000000	100.423301
3766.000000	100.423087
3765.000000	100.423290
3764.000000	100.423828
3763.000000	100.423711
3762.000000	100.421978
3761.000000	100.418274
3760.000000	100.413218
3759.000000	100.408693
3758.000000	100.406562
3757.000000	100.406871
3756.000000	100.407893
3755.000000	100.407704
3754.000000	100.405489
3753.000000	100.401744
3752.000000	100.398303
3751.000000	100.397870
3750.000000	100.401671
3749.000000	100.407476
3748.000000	100.411508
3747.000000	100.411625
3746.000000	100.408094
3745.000000	100.403641
3744.000000	100.401505
3743.000000	100.400698
3742.000000	100.398680
3741.000000	100.396392
3740.000000	100.395538
3739.000000	100.396055
3738.000000	100.396723
3737.000000	100.396126
3736.000000	100.393460
3735.000000	100.389022
3734.000000	100.383922
3733.000000	100.379156
3732.000000	100.374904
3731.000000	100.370655
3730.000000	100.366418
3729.000000	100.363180
3728.000000	100.361488
3727.000000	100.359894
3726.000000	100.355762
3725.000000	100.347880
3724.000000	100.338103
3723.000000	100.329947
3722.000000	100.325430
3721.000000	100.323699
3720.000000	100.322251
3719.000000	100.319272
3718.000000	100.314591
3717.000000	100.308958
3716.000000	100.302933
3715.000000	100.296768
3714.000000	100.290779
3713.000000	100.285511
3712.000000	100.281849
3711.000000	100.279689
3710.000000	100.276616
3709.000000	100.269921
3708.000000	100.259680
3707.000000	100.248791
3706.000000	100.240529
3705.000000	100.236440
3704.000000	100.235378
3703.000000	100.234293
3702.000000	100.230395
3701.000000	100.223134
3700.000000	100.213795
3699.000000	100.204168
3698.000000	100.195519
3697.000000	100.188080
3696.000000	100.181375
3695.000000	100.175270
3694.000000	100.170682
3693.000000	100.168683
3692.000000	100.169243
3691.000000	100.170795
3690.000000	100.170933
3689.000000	100.167226
3688.000000	100.158336
3687.000000	100.145208
3686.000000	100.131325
3685.000000	100.120567
3684.000000	100.114185
3683.000000	100.110635
3682.000000	100.107606
3681.000000	100.103587
3680.000000	100.096791
3679.000000	100.084006
3678.000000	100.063035
3677.000000	100.037492
3676.000000	100.017772
3675.000000	100.009937
3674.000000	100.006253
3673.000000	99.997155
3672.000000	99.982439
3671.000000	99.966695
3670.000000	99.953234
3669.000000	99.940746
3668.000000	99.925606
3667.000000	99.908374
3666.000000	99.892783
3665.000000	99.880088
3664.000000	99.868050
3663.000000	99.854091
3662.000000	99.838193
3661.000000	99.822285
3660.000000	99.807491
3659.000000	99.793175
3658.000000	99.778702
3657.000000	99.764562
3656.000000	99.750952
3655.000000	99.735926
3654.000000	99.718054
3653.000000	99.699374
3652.000000	99.682767
3651.000000	99.668078
3650.000000	99.652709
3649.000000	99.635745
3648.000000	99.619370
3647.000000	99.605671
3646.000000	99.594160
3645.000000	99.583163
3644.000000	99.572065
3643.000000	99.561604
3642.000000	99.552345
3641.000000	99.543507
3640.000000	99.533710
3639.000000	99.522502
3638.000000	99.510162
3637.000000	99.496347
3636.000000	99.480224
3635.000000	99.461533
3634.000000	99.440560
3633.000000	99.417354
3632.000000	99.392687
3631.000000	99.370492
3630.000000	99.357934
3629.000000	99.359497
3628.000000	99.368333
3627.000000	99.371604
3626.000000	99.366147
3625.000000	99.357270
3624.000000	99.348822
3623.000000	99.342048
3622.000000	99.338356
3621.000000	99.339702
3620.000000	99.346239
3619.000000	99.355128
3618.000000	99.363115
3617.000000	99.369992
3616.000000	99.378339
3615.000000	99.390168
3614.000000	99.405153
3613.000000	99.421348
3612.000000	99.436430
3611.000000	99.448804
3610.000000	99.458496
3609.000000	99.466732
3608.000000	99.474446
3607.000000	99.481064
3606.000000	99.485502
3605.000000	99.488173
3604.000000	99.490442
3603.000000	99.492924
3602.000000	99.495284
3601.000000	99.497636
3600.000000	99.501280
3599.000000	99.507833
3598.000000	99.517971
3597.000000	99.530319
3596.000000	99.541565
3595.000000	99.548024
3594.000000	99.548321
3593.000000	99.544305
3592.000000	99.539187
3591.000000	99.534264
3590.000000	99.528257
3589.000000	99.520550
3588.000000	99.515008
3587.000000	99.517073
3586.000000	99.526125
3585.000000	99.535463
3584.000000	99.539301
3583.000000	99.536595
3582.000000	99.530114
3581.000000	99.523385
3580.000000	99.518074
3579.000000	99.513788
3578.000000	99.509897
3577.000000	99.506473
3576.000000	99.503544
3575.000000	99.500124
3574.000000	99.494894
3573.000000	99.487672
3572.000000	99.480024
3571.000000	99.474215
3570.000000	99.471709
3569.000000	99.472193
3568.000000	99.473480
3567.000000	99.472549
3566.000000	99.467630
3565.000000	99.459685
3564.000000	99.451812
3563.000000	99.446787
3562.000000	99.445283
3561.000000	99.445999
3560.000000	99.446851
3559.000000	99.446288
3558.000000	99.443929
3557.000000	99.440175
3556.000000	99.435428
3555.000000	99.429971
3554.000000	99.424510
3553.000000	99.420214
3552.000000	99.417754
3551.000000	99.416560
3550.000000	99.415516
3549.000000	99.414035
3548.000000	99.412064
3547.000000	99.409477
3546.000000	99.406050
3545.000000	99.402078
3544.000000	99.398475
3543.000000	99.395941
3542.000000	99.394342
3541.000000	99.393061
3540.000000	99.391622
3539.000000	99.389968
3538.000000	99.388348
3537.000000	99.387156
3536.000000	99.386672
3535.000000	99.386617
3534.000000	99.385988
3533.000000	99.383618
3532.000000	99.379030
3531.000000	99.372843
3530.000000	99.366605
3529.000000	99.362020
3528.000000	99.360094
3527.000000	99.360713
3526.000000	99.362802
3525.000000	99.365045
3524.000000	99.366667
3523.000000	99.367502
3522.000000	99.367444
3521.000000	99.366180
3520.000000	99.363606
3519.000000	99.360310
3518.000000	99.357427
3517.000000	99.355845
3516.000000	99.355593
3515.000000	99.355872
3514.000000	99.355580
3513.000000	99.354000
3512.000000	99.351244
3511.000000	99.348210
3510.000000	99.345939
3509.000000	99.344731
3508.000000	99.343888
3507.000000	99.342443
3506.000000	99.340173
3505.000000	99.337774
3504.000000	99.336035
3503.000000	99.334862
3502.000000	99.333390
3501.000000	99.331109
3500.000000	99.328548
3499.000000	99.326679
3498.000000	99.325802
3497.000000	99.325166
3496.000000	99.323667
3495.000000	99.320839
3494.000000	99.317103
3493.000000	99.313260
3492.000000	99.309867
3491.000000	99.307085
3490.000000	99.304896
3489.000000	99.303250
3488.000000	99.302064
3487.000000	99.301252
3486.000000	99.300755
3485.000000	99.300386
3484.000000	99.299584
3483.000000	99.297533
3482.000000	99.293866
3481.000000	99.289348
3480.000000	99.285561
3479.000000	99.283578
3478.000000	99.283183
3477.000000	99.283256
3476.000000	99.282724
3475.000000	99.281038
3474.000000	99.278029
3473.000000	99.273884
3472.000000	99.269271
3471.000000	99.265017
3470.000000	99.261409
3469.000000	99.258081
3468.000000	99.254677
3467.000000	99.251331
3466.000000	99.248321
3465.000000	99.245463
3464.000000	99.242214
3463.000000	99.238310
3462.000000	99.234066
3461.000000	99.230031
3460.000000	99.226517
3459.000000	99.223535
3458.000000	99.221015
3457.000000	99.218865
3456.000000	99.216746
3455.000000	99.213978
3454.000000	99.209982
3453.000000	99.204898
3452.000000	99.199576
3451.000000	99.194744
3450.000000	99.190392
3449.000000	99.186201
3448.000000	99.182283
3447.000000	99.179141
3446.000000	99.176921
3445.000000	99.175150
3444.000000	99.173284
3443.000000	99.171120
3442.000000	99.168534
3441.000000	99.165200
3440.000000	99.160860
3439.000000	99.155802
3438.000000	99.150812
3437.000000	99.146630
3436.000000	99.143486
3435.000000	99.141188
3434.000000	99.139738
3433.000000	99.139511
3432.000000	99.140487
3431.000000	99.141396
3430.000000	99.140280
3429.000000	99.136297
3428.000000	99.130763
3427.000000	99.125993
3426.000000	99.123026
3425.000000	99.121060
3424.000000	99.118891
3423.000000	99.116203
3422.000000	99.113292
3421.000000	99.110246
3420.000000	99.106961
3419.000000	99.103585
3418.000000	99.100442
3417.000000	99.097829
3416.000000	99.096240
3415.000000	99.096327
3414.000000	99.098041
3413.000000	99.100050
3412.000000	99.100680
3411.000000	99.099406
3410.000000	99.096902
3409.000000	99.093922
3408.000000	99.090886
3407.000000	99.088495
3406.000000	99.087740
3405.000000	99.088755
3404.000000	99.090268
3403.000000	99.090861
3402.000000	99.090601
3401.000000	99.090782
3400.000000	99.092169
3399.000000	99.094075
3398.000000	99.095200
3397.000000	99.094907
3396.000000	99.093534
3395.000000	99.091848
3394.000000	99.090433
3393.000000	99.089478
3392.000000	99.088992
3391.000000	99.089176
3390.000000	99.090422
3389.000000	99.092713
3388.000000	99.095100
3387.000000	99.096293
3386.000000	99.096055
3385.000000	99.095564
3384.000000	99.095987
3383.000000	99.096995
3382.000000	99.097302
3381.000000	99.096589
3380.000000	99.096220
3379.000000	99.097670
3378.000000	99.100808
3377.000000	99.104174
3376.000000	99.106720
3375.000000	99.108762
3374.000000	99.111084
3373.000000	99.113758
3372.000000	99.116150
3371.000000	99.117805
3370.000000	99.118886
3369.000000	99.119792
3368.000000	99.120686
3367.000000	99.121524
3366.000000	99.122335
3365.000000	99.123272
3364.000000	99.124456
3363.000000	99.125961
3362.000000	99.127938
3361.000000	99.130579
3360.000000	99.133798
3359.000000	99.137031
3358.000000	99.139566
3357.000000	99.141140
3356.000000	99.142146
3355.000000	99.143327
3354.000000	99.145144
3353.000000	99.147484
3352.000000	99.149926
3351.000000	99.152225
3350.000000	99.154518
3349.000000	99.157080
3348.000000	99.159949
3347.000000	99.162807
3346.000000	99.165220
3345.000000	99.166994
3344.000000	99.168311
3343.000000	99.169605
3342.000000	99.171231
3341.000000	99.173268
3340.000000	99.175603
3339.000000	99.178107
3338.000000	99.180677
3337.000000	99.183191
3336.000000	99.185557
3335.000000	99.187865
3334.000000	99.190383
3333.000000	99.193284
3332.000000	99.196343
3331.000000	99.199045
3330.000000	99.201159
3329.000000	99.203125
3328.000000	99.205686
3327.000000	99.209040
3326.000000	99.212568
3325.000000	99.215449
3324.000000	99.217438
3323.000000	99.219007
3322.000000	99.220946
3321.000000	99.223893
3320.000000	99.227974
3319.000000	99.232527
3318.000000	99.236411
3317.000000	99.239058
3316.000000	99.241092
3315.000000	99.243572
3314.000000	99.246593
3313.000000	99.249275
3312.000000	99.251142
3311.000000	99.252809
3310.000000	99.254962
3309.000000	99.257209
3308.000000	99.258529
3307.000000	99.258502
3306.000000	99.257686
3305.000000	99.257068
3304.000000	99.257624
3303.000000	99.260059
3302.000000	99.264245
3301.000000	99.269016
3300.000000	99.273152
3299.000000	99.276643
3298.000000	99.280444
3297.000000	99.284900
3296.000000	99.289057
3295.000000	99.291938
3294.000000	99.293993
3293.000000	99.296678
3292.000000	99.300633
3291.000000	99.304760
3290.000000	99.307382
3289.000000	99.307916
3288.000000	99.307202
3287.000000	99.306658
3286.000000	99.307234
3285.000000	99.309059
3284.000000	99.311659
3283.000000	99.314314
3282.000000	99.316487
3281.000000	99.318142
3280.000000	99.319623
3279.000000	99.321180
3278.000000	99.322712
3277.000000	99.324008
3276.000000	99.325097
3275.000000	99.326272
3274.000000	99.327870
3273.000000	99.330111
3272.000000	99.332998
3271.000000	99.336226
3270.000000	99.339307
3269.000000	99.342027
3268.000000	99.344697
3267.000000	99.347727
3266.000000	99.350954
3265.000000	99.353643
3264.000000	99.355283
3263.000000	99.356186
3262.000000	99.357271
3261.000000	99.359251
3260.000000	99.362128
3259.000000	99.365284
3258.000000	99.367925
3257.000000	99.369668
3256.000000	99.370787
3255.000000	99.371960
3254.000000	99.373628
3253.000000	99.375627
3252.000000	99.377454
3251.000000	99.378840
3250.000000	99.380040
3249.000000	99.381606
3248.000000	99.383899
3247.000000	99.386834
3246.000000	99.389955
3245.000000	99.392796
3244.000000	99.395232
3243.000000	99.397445
3242.000000	99.399645
3241.000000	99.401945
3240.000000	99.404483
3239.000000	99.407454
3238.000000	99.410909
3237.000000	99.414581
3236.000000	99.418016
3235.000000	99.420869
3234.000000	99.423020
3233.000000	99.424617
3232.000000	99.426083
3231.000000	99.427928
3230.000000	99.430351
3229.000000	99.433081
3228.000000	99.435667
3227.000000	99.437901
3226.000000	99.439887
3225.000000	99.441840
3224.000000	99.443967
3223.000000	99.446417
3222.000000	99.449128
3221.000000	99.451752
3220.000000	99.453997
3219.000000	99.456074
3218.000000	99.458567
3217.000000	99.461716
3216.000000	99.465160
3215.000000	99.468382
3214.000000	99.471248
3213.000000	99.473982
3212.000000	99.476797
3211.000000	99.479706
3210.000000	99.482589
3209.000000	99.485345
3208.000000	99.487981
3207.000000	99.490580
3206.000000	99.493211
3205.000000	99.495883
3204.000000	99.498577
3203.000000	99.501291
3202.000000	99.504035
3201.000000	99.506804
3200.000000	99.509583
3199.000000	99.512360
3198.000000	99.515129
3197.000000	99.517890
3196.000000	99.520644
3195.000000	99.523399
3194.000000	99.526160
3193.000000	99.528927
3192.000000	99.531698
3191.000000	99.534469
3190.000000	99.537243
3189.000000	99.540026
3188.000000	99.542823
3187.000000	99.545633
3186.000000	99.548453
3185.000000	99.551276
3184.000000	99.554097
3183.000000	99.556909
3182.000000	99.559713
3181.000000	99.562515
3180.000000	99.565325
3179.000000	99.568146
3178.000000	99.570975
3177.000000	99.573804
3176.000000	99.576629
3175.000000	99.579444
3174.000000	99.582232
3173.000000	99.584971
3172.000000	99.587667
3171.000000	99.590392
3170.000000	99.593220
3169.000000	99.596167
3168.000000	99.599162
3167.000000	99.602103
3166.000000	99.604929
3165.000000	99.607653
3164.000000	99.610384
3163.000000	99.613265
3162.000000	99.616361
3161.000000	99.619569
3160.000000	99.622676
3159.000000	99.625558
3158.000000	99.628279
3157.000000	99.630999
3156.000000	99.633757
3155.000000	99.636417
3154.000000	99.638831
3153.000000	99.641008
3152.000000	99.643138
3151.000000	99.645438
3150.000000	99.647985
3149.000000	99.650742
3148.000000	99.653692
3147.000000	99.656849
3146.000000	99.660121
3145.000000	99.663252
3144.000000	99.666005
3143.000000	99.668349
3142.000000	99.670454
3141.000000	99.672579
3140.000000	99.674970
3139.000000	99.677762
3138.000000	99.680833
3137.000000	99.683802
3136.000000	99.686372
3135.000000	99.688684
3134.000000	99.691170
3133.000000	99.694005
3132.000000	99.696899
3131.000000	99.699539
3130.000000	99.702020
3129.000000	99.704614
3128.000000	99.707209
3127.000000	99.709322
3126.000000	99.710712
3125.000000	99.711824
3124.000000	99.713463
3123.000000	99.716031
3122.000000	99.719259
3121.000000	99.722626
3120.000000	99.725859
3119.000000	99.728994
3118.000000	99.732128
3117.000000	99.735286
3116.000000	99.738460
3115.000000	99.741558
3114.000000	99.744249
3113.000000	99.746108
3112.000000	99.747073
3111.000000	99.747680
3110.000000	99.748666
3109.000000	99.750301
3108.000000	99.752369
3107.000000	99.754705
3106.000000	99.757537
3105.000000	99.761144
3104.000000	99.765380
3103.000000	99.769648
3102.000000	99.773263
3101.000000	99.775781
3100.000000	99.777291
3099.000000	99.778590
3098.000000	99.780764
3097.000000	99.784147
3096.000000	99.787718
3095.000000	99.789946
3094.000000	99.790295
3093.000000	99.789682
3092.000000	99.789580
3091.000000	99.790795
3090.000000	99.793224
3089.000000	99.796346
3088.000000	99.799713
3087.000000	99.803187
3086.000000	99.806891
3085.000000	99.810789
3084.000000	99.814203
3083.000000	99.816124
3082.000000	99.816246
3081.000000	99.815415
3080.000000	99.814710
3079.000000	99.814253
3078.000000	99.813529
3077.000000	99.812766
3076.000000	99.813189
3075.000000	99.815672
3074.000000	99.819817
3073.000000	99.824668
3072.000000	99.829839
3071.000000	99.835377
3070.000000	99.840854
3069.000000	99.845410
3068.000000	99.848691
3067.000000	99.851077
3066.000000	99.852843
3065.000000	99.853693
3064.000000	99.853450
3063.000000	99.852793
3062.000000	99.852770
3061.000000	99.853734
3060.000000	99.855141
3059.000000	99.856353
3058.000000	99.857366
3057.000000	99.858710
3056.000000	99.860799
3055.000000	99.863450
3054.000000	99.866040
3053.000000	99.868127
3052.000000	99.869866
3051.000000	99.871696
3050.000000	99.873678
3049.000000	99.875360
3048.000000	99.876404
3047.000000	99.877126
3046.000000	99.878213
3045.000000	99.880087
3044.000000	99.882709
3043.000000	99.885746
3042.000000	99.888572
3041.000000	99.890298
3040.000000	99.890356
3039.000000	99.889191
3038.000000	99.887993
3037.000000	99.887652
3036.000000	99.888378
3035.000000	99.890330
3034.000000	99.893901
3033.000000	99.898903
3032.000000	99.903953
3031.000000	99.907460
3030.000000	99.909104
3029.000000	99.909766
3028.000000	99.910202
3027.000000	99.910507
3026.000000	99.910891
3025.000000	99.912084
3024.000000	99.914394
3023.000000	99.916859
3022.000000	99.917979
3021.000000	99.917090
3020.000000	99.914700
3019.000000	99.911865
3018.000000	99.909795
3017.000000	99.909803
3016.000000	99.912705
3015.000000	99.918062
3014.000000	99.924430
3013.000000	99.930422
3012.000000	99.935257
3011.000000	99.938750
3010.000000	99.941622
3009.000000	99.945398
3008.000000	99.950728
3007.000000	99.955694
3006.000000	99.957122
3005.000000	99.954074
3004.000000	99.948949
3003.000000	99.944347
3002.000000	99.939981
3001.000000	99.933941
3000.000000	99.926218
2999.000000	99.919446
2998.000000	99.916288
2997.000000	99.917296
2996.000000	99.921206
2995.000000	99.925993
2994.000000	99.929473
2993.000000	99.930245
2992.000000	99.928874
2991.000000	99.927480
2990.000000	99.927471
2989.000000	99.928091
2988.000000	99.927595
2987.000000	99.925407
2986.000000	99.922626
2985.000000	99.920642
2984.000000	99.919589
2983.000000	99.918017
2982.000000	99.914013
2981.000000	99.907187
2980.000000	99.899922
2979.000000	99.896108
2978.000000	99.898228
2977.000000	99.905833
2976.000000	99.916754
2975.000000	99.929124
2974.000000	99.941741
2973.000000	99.953354
2972.000000	99.963094
2971.000000	99.971770
2970.000000	99.981732
2969.000000	99.994785
2968.000000	100.010580
2967.000000	100.027432
2966.000000	100.044371
2965.000000	100.061465
2964.000000	100.077983
2963.000000	100.091398
2962.000000	100.099565
2961.000000	100.103782
2960.000000	100.108160
2959.000000	100.115129
2958.000000	100.122617
2957.000000	100.126958
2956.000000	100.127842
2955.000000	100.128802
2954.000000	100.132877
2953.000000	100.139435
2952.000000	100.145745
2951.000000	100.150313
2950.000000	100.153736
2949.000000	100.157175
2948.000000	100.160994
2947.000000	100.164597
2946.000000	100.167222
2945.000000	100.169455
2944.000000	100.174228
2943.000000	100.185116
2942.000000	100.202623
2941.000000	100.222807
2940.000000	100.240656
2939.000000	100.254521
2938.000000	100.266572
2937.000000	100.280053
2936.000000	100.297592
2935.000000	100.321188
2934.000000	100.351024
2933.000000	100.383362
2932.000000	100.411513
2931.000000	100.430625
2930.000000	100.441217
2929.000000	100.447669
2928.000000	100.453926
2927.000000	100.461082
2926.000000	100.467951
2925.000000	100.472342
2924.000000	100.471981
2923.000000	100.465760
2922.000000	100.454654
2921.000000	100.440637
2920.000000	100.424401
2919.000000	100.405009
2918.000000	100.382306
2917.000000	100.358741
2916.000000	100.337647
2915.000000	100.319851
2914.000000	100.303009
2913.000000	100.284746
2912.000000	100.265887
2911.000000	100.249990
2910.000000	100.239700
2909.000000	100.233819
2908.000000	100.228110
2907.000000	100.219003
2906.000000	100.206535
2905.000000	100.193555
2904.000000	100.182181
2903.000000	100.171766
2902.000000	100.160939
2901.000000	100.150952
2900.000000	100.145356
2899.000000	100.145756
2898.000000	100.149016
2897.000000	100.149585
2896.000000	100.144352
2895.000000	100.134648
2894.000000	100.124232
2893.000000	100.116469
2892.000000	100.113168
2891.000000	100.114356
2890.000000	100.118245
2889.000000	100.122060
2888.000000	100.123765
2887.000000	100.123263
2886.000000	100.121942
2885.000000	100.121303
2884.000000	100.121844
2883.000000	100.122730
2882.000000	100.122457
2881.000000	100.120346
2880.000000	100.117578
2879.000000	100.116411
2878.000000	100.118283
2877.000000	100.122900
2876.000000	100.129010
2875.000000	100.135535
2874.000000	100.141932
2873.000000	100.147951
2872.000000	100.153264
2871.000000	100.157341
2870.000000	100.160188
2869.000000	100.163575
2868.000000	100.170424
2867.000000	100.181428
2866.000000	100.192722
2865.000000	100.199184
2864.000000	100.200850
2863.000000	100.204269
2862.000000	100.216100
2861.000000	100.236485
2860.000000	100.259781
2859.000000	100.280434
2858.000000	100.296402
2857.000000	100.307823
2856.000000	100.315222
2855.000000	100.319510
2854.000000	100.321861
2853.000000	100.322493
2852.000000	100.320275
2851.000000	100.314182
2850.000000	100.304609
2849.000000	100.292871
2848.000000	100.279929
2847.000000	100.266088
2846.000000	100.251538
2845.000000	100.236623
2844.000000	100.221720
2843.000000	100.207307
2842.000000	100.194093
2841.000000	100.182658
2840.000000	100.172935
2839.000000	100.164473
2838.000000	100.157436
2837.000000	100.152950
2836.000000	100.151850
2835.000000	100.153059
2834.000000	100.153881
2833.000000	100.152343
2832.000000	100.149049
2831.000000	100.146463
2830.000000	100.146825
2829.000000	100.150950
2828.000000	100.157976
2827.000000	100.165057
2826.000000	100.167802
2825.000000	100.162950
2824.000000	100.151442
2823.000000	100.138276
2822.000000	100.128729
2821.000000	100.124956
2820.000000	100.126008
2819.000000	100.129534
2818.000000	100.132884
2817.000000	100.134081
2816.000000	100.133176
2815.000000	100.132358
2814.000000	100.133805
2813.000000	100.137538
2812.000000	100.141838
2811.000000	100.145230
2810.000000	100.147388
2809.000000	100.148504
2808.000000	100.148719
2807.000000	100.148200
2806.000000	100.147251
2805.000000	100.146330
2804.000000	100.146193
2803.000000	100.147711
2802.000000	100.150922
2801.000000	100.154357
2800.000000	100.155960
2799.000000	100.155032
2798.000000	100.153016
2797.000000	100.152209
2796.000000	100.153695
2795.000000	100.156557
2794.000000	100.158934
2793.000000	100.159884
2792.000000	100.160215
2791.000000	100.161414
2790.000000	100.163904
2789.000000	100.166676
2788.000000	100.168622
2787.000000	100.169714
2786.000000	100.170672
2785.000000	100.171957
2784.000000	100.173498
2783.000000	100.175089
2782.000000	100.176499
2781.000000	100.177365
2780.000000	100.177490
2779.000000	100.177244
2778.000000	100.177367
2777.000000	100.178298
2776.000000	100.179954
2775.000000	100.181988
2774.000000	100.184035
2773.000000	100.185866
2772.000000	100.187421
2771.000000	100.188758
2770.000000	100.189952
2769.000000	100.191033
2768.000000	100.191975
2767.000000	100.192776
2766.000000	100.193509
2765.000000	100.194312
2764.000000	100.195325
2763.000000	100.196588
2762.000000	100.197974
2761.000000	100.199253
2760.000000	100.200309
2759.000000	100.201233
2758.000000	100.202185
2757.000000	100.203188
2756.000000	100.204150
2755.000000	100.205025
2754.000000	100.205836
2753.000000	100.206593
2752.000000	100.207284
2751.000000	100.207944
2750.000000	100.208650
2749.000000	100.209438
2748.000000	100.210278
2747.000000	100.211120
2746.000000	100.211918
2745.000000	100.212639
2744.000000	100.213279
2743.000000	100.213872
2742.000000	100.214462
2741.000000	100.215067
2740.000000	100.215680
2739.000000	100.216282
2738.000000	100.216857
2737.000000	100.217392
2736.000000	100.217876
2735.000000	100.218314
2734.000000	100.218743
2733.000000	100.219206
2732.000000	100.219714
2731.000000	100.220228
2730.000000	100.220692
2729.000000	100.221098
2728.000000	100.221481
2727.000000	100.221867
2726.000000	100.222270
2725.000000	100.222724
2724.000000	100.223268
2723.000000	100.223858
2722.000000	100.224345
2721.000000	100.224611
2720.000000	100.224686
2719.000000	100.224734
2718.000000	100.224914
2717.000000	100.225282
2716.000000	100.225793
2715.000000	100.226334
2714.000000	100.226785
2713.000000	100.227127
2712.000000	100.227491
2711.000000	100.228076
2710.000000	100.228977
2709.000000	100.230095
2708.000000	100.231178
2707.000000	100.231947
2706.000000	100.232219
2705.000000	100.232023
2704.000000	100.231576
2703.000000	100.231086
2702.000000	100.230651
2701.000000	100.230411
2700.000000	100.230625
2699.000000	100.231363
2698.000000	100.232210
2697.000000	100.232650
2696.000000	100.232803
2695.000000	100.233340
2694.000000	100.234550
2693.000000	100.235929
2692.000000	100.236845
2691.000000	100.237288
2690.000000	100.237655
2689.000000	100.238162
2688.000000	100.238848
2687.000000	100.239885
2686.000000	100.241357
2685.000000	100.242813
2684.000000	100.243563
2683.000000	100.243483
2682.000000	100.243176
2681.000000	100.243237
2680.000000	100.243679
2679.000000	100.244327
2678.000000	100.245353
2677.000000	100.247023
2676.000000	100.249085
2675.000000	100.250810
2674.000000	100.251695
2673.000000	100.251872
2672.000000	100.251886
2671.000000	100.252214
2670.000000	100.252962
2669.000000	100.253867
2668.000000	100.254493
2667.000000	100.254529
2666.000000	100.253971
2665.000000	100.253118
2664.000000	100.252477
2663.000000	100.252542
2662.000000	100.253480
2661.000000	100.254950
2660.000000	100.256328
2659.000000	100.257297
2658.000000	100.258044
2657.000000	100.258806
2656.000000	100.259480
2655.000000	100.259867
2654.000000	100.260146
2653.000000	100.260789
2652.000000	100.261999
2651.000000	100.263462
2650.000000	100.264691
2649.000000	100.265463
2648.000000	100.265791
2647.000000	100.265705
2646.000000	100.265285
2645.000000	100.264809
2644.000000	100.264610
2643.000000	100.264751
2642.000000	100.265025
2641.000000	100.265307
2640.000000	100.265717
2639.000000	100.266386
2638.000000	100.267237
2637.000000	100.268062
2636.000000	100.268723
2635.000000	100.269175
2634.000000	100.269376
2633.000000	100.269327
2632.000000	100.269163
2631.000000	100.269105
2630.000000	100.269292
2629.000000	100.269698
2628.000000	100.270195
2627.000000	100.270624
2626.000000	100.270895
2625.000000	100.271021
2624.000000	100.271093
2623.000000	100.271191
2622.000000	100.271300
2621.000000	100.271362
2620.000000	100.271362
2619.000000	100.271338
2618.000000	100.271329
2617.000000	100.271336
2616.000000	100.271325
2615.000000	100.271261
2614.000000	100.271136
2613.000000	100.270973
2612.000000	100.270814
2611.000000	100.270694
2610.000000	100.270621
2609.000000	100.270583
2608.000000	100.270589
2607.000000	100.270665
2606.000000	100.270748
2605.000000	100.270645
2604.000000	100.270195
2603.000000	100.269531
2602.000000	100.269096
2601.000000	100.269193
2600.000000	100.269670
2599.000000	100.270070
2598.000000	100.270138
2597.000000	100.269952
2596.000000	100.269674
2595.000000	100.269420
2594.000000	100.269242
2593.000000	100.269031
2592.000000	100.268597
2591.000000	100.268111
2590.000000	100.268179
2589.000000	100.269065
2588.000000	100.270050
2587.000000	100.270137
2586.000000	100.269248
2585.000000	100.268128
2584.000000	100.267167
2583.000000	100.266078
2582.000000	100.264746
2581.000000	100.263623
2580.000000	100.263099
2579.000000	100.263007
2578.000000	100.262943
2577.000000	100.262666
2576.000000	100.262095
2575.000000	100.261391
2574.000000	100.261052
2573.000000	100.261422
2572.000000	100.262144
2571.000000	100.262633
2570.000000	100.263135
2569.000000	100.264604
2568.000000	100.267352
2567.000000	100.270406
2566.000000	100.272492
2565.000000	100.273321
2564.000000	100.273625
2563.000000	100.274232
2562.000000	100.275290
2561.000000	100.276201
2560.000000	100.276166
2559.000000	100.274968
2558.000000	100.273387
2557.000000	100.272637
2556.000000	100.273294
2555.000000	100.274907
2554.000000	100.276559
2553.000000	100.277622
2552.000000	100.278065
2551.000000	100.278360
2550.000000	100.279185
2549.000000	100.280804
2548.000000	100.282534
2547.000000	100.283150
2546.000000	100.282101
2545.000000	100.280140
2544.000000	100.278695
2543.000000	100.278504
2542.000000	100.279048
2541.000000	100.279203
2540.000000	100.278351
2539.000000	100.276974
2538.000000	100.276266
2537.000000	100.277012
2536.000000	100.278886
2535.000000	100.280767
2534.000000	100.281873
2533.000000	100.282451
2532.000000	100.283199
2531.000000	100.284297
2530.000000	100.285243
2529.000000	100.285543
2528.000000	100.285300
2527.000000	100.285038
2526.000000	100.285102
2525.000000	100.285371
2524.000000	100.285532
2523.000000	100.285538
2522.000000	100.285712
2521.000000	100.286417
2520.000000	100.287702
2519.000000	100.289266
2518.000000	100.290721
2517.000000	100.291844
2516.000000	100.292606
2515.000000	100.293072
2514.000000	100.293378
2513.000000	100.293757
2512.000000	100.294410
2511.000000	100.295241
2510.000000	100.295809
2509.000000	100.295698
2508.000000	100.294936
2507.000000	100.294051
2506.000000	100.293678
2505.000000	100.294053
2504.000000	100.294938
2503.000000	100.295901
2502.000000	100.296671
2501.000000	100.297264
2500.000000	100.297830
2499.000000	100.298475
2498.000000	100.299184
2497.000000	100.299860
2496.000000	100.300413
2495.000000	100.300814
2494.000000	100.301058
2493.000000	100.301094
2492.000000	100.300868
2491.000000	100.300491
2490.000000	100.300319
2489.000000	100.300685
2488.000000	100.301571
2487.000000	100.302579
2486.000000	100.303300
2485.000000	100.303727
2484.000000	100.304175
2483.000000	100.304891
2482.000000	100.305827
2481.000000	100.306732
2480.000000	100.307383
2479.000000	100.307739
2478.000000	100.307895
2477.000000	100.307989
2476.000000	100.308148
2475.000000	100.308462
2474.000000	100.308968
2473.000000	100.309613
2472.000000	100.310266
2471.000000	100.310814
2470.000000	100.311261
2469.000000	100.311704
2468.000000	100.312230
2467.000000	100.312834
2466.000000	100.313440
2465.000000	100.313981
2464.000000	100.314450
2463.000000	100.314895
2462.000000	100.315374
2461.000000	100.315920
2460.000000	100.316516
2459.000000	100.317103
2458.000000	100.317625
2457.000000	100.318075
2456.000000	100.318500
2455.000000	100.318967
2454.000000	100.319514
2453.000000	100.320133
2452.000000	100.320783
2451.000000	100.321397
2450.000000	100.321916
2449.000000	100.322326
2448.000000	100.322671
2447.000000	100.323011
2446.000000	100.323366
2445.000000	100.323720
2444.000000	100.324056
2443.000000	100.324388
2442.000000	100.324752
2441.000000	100.325157
2440.000000	100.325587
2439.000000	100.326017
2438.000000	100.326442
2437.000000	100.326868
2436.000000	100.327290
2435.000000	100.327698
2434.000000	100.328086
2433.000000	100.328467
2432.000000	100.328852
2431.000000	100.329236
2430.000000	100.329604
2429.000000	100.329948
2428.000000	100.330285
2427.000000	100.330638
2426.000000	100.331014
2425.000000	100.331399
2424.000000	100.331770
2423.000000	100.332113
2422.000000	100.332426
2421.000000	100.332720
2420.000000	100.333022
2419.000000	100.333352
2418.000000	100.333708
2417.000000	100.334049
2416.000000	100.334342
2415.000000	100.334591
2414.000000	100.334833
2413.000000	100.335094
2412.000000	100.335373
2411.000000	100.335651
2410.000000	100.335901
2409.000000	100.336122
2408.000000	100.336328
2407.000000	100.336538
2406.000000	100.336753
2405.000000	100.336963
2404.000000	100.337162
2403.000000	100.337342
2402.000000	100.337498
2401.000000	100.337628
2400.000000	100.337737
2399.000000	100.337824
2398.000000	100.337873
2397.000000	100.337874
2396.000000	100.337826
2395.000000	100.337735
2394.000000	100.337614
2393.000000	100.337473
2392.000000	100.337308
2391.000000	100.337109
2390.000000	100.336869
2389.000000	100.336590
2388.000000	100.336285
2387.000000	100.335966
2386.000000	100.335639
2385.000000	100.335304
2384.000000	100.334957
2383.000000	100.334594
2382.000000	100.334211
2381.000000	100.333805
2380.000000	100.333377
2379.000000	100.332928
2378.000000	100.332460
2377.000000	100.331976
2376.000000	100.331482
2375.000000	100.330986
2374.000000	100.330495
2373.000000	100.330005
2372.000000	100.329506
2371.000000	100.328994
2370.000000	100.328476
2369.000000	100.327968
2368.000000	100.327476
2367.000000	100.326996
2366.000000	100.326510
2365.000000	100.326006
2364.000000	100.325483
2363.000000	100.324952
2362.000000	100.324426
2361.000000	100.323919
2360.000000	100.323435
2359.000000	100.322967
2358.000000	100.322501
2357.000000	100.322027
2356.000000	100.321557
2355.000000	100.321110
2354.000000	100.320703
2353.000000	100.320337
2352.000000	100.320001
2351.000000	100.319679
2350.000000	100.319376
2349.000000	100.319109
2348.000000	100.318898
2347.000000	100.318745
2346.000000	100.318632
2345.000000	100.318532
2344.000000	100.318431
2343.000000	100.318330
2342.000000	100.318238
2341.000000	100.318166
2340.000000	100.318123
2339.000000	100.318121
2338.000000	100.318171
2337.000000	100.318271
2336.000000	100.318410
2335.000000	100.318567
2334.000000	100.318726
2333.000000	100.318877
2332.000000	100.319016
2331.000000	100.319149
2330.000000	100.319287
2329.000000	100.319440
2328.000000	100.319608
2327.000000	100.319783
2326.000000	100.319954
2325.000000	100.320120
2324.000000	100.320285
2323.000000	100.320457
2322.000000	100.320642
2321.000000	100.320839
2320.000000	100.321046
2319.000000	100.321259
2318.000000	100.321490
2317.000000	100.321708
2316.000000	100.321840
2315.000000	100.321849
2314.000000	100.321824
2313.000000	100.321904
2312.000000	100.322146
2311.000000	100.322605
2310.000000	100.323187
2309.000000	100.323750
2308.000000	100.323949
2307.000000	100.323736
2306.000000	100.323307
2305.000000	100.323130
2304.000000	100.323429
2303.000000	100.324221
2302.000000	100.325400
2301.000000	100.326773
2300.000000	100.328126
2299.000000	100.329475
2298.000000	100.330686
2297.000000	100.331390
2296.000000	100.331006
2295.000000	100.329546
2294.000000	100.327602
2293.000000	100.326076
2292.000000	100.325345
2291.000000	100.325445
2290.000000	100.326084
2289.000000	100.326793
2288.000000	100.327050
2287.000000	100.326705
2286.000000	100.326054
2285.000000	100.325495
2284.000000	100.325168
2283.000000	100.325008
2282.000000	100.324991
2281.000000	100.325089
2280.000000	100.325200
2279.000000	100.325228
2278.000000	100.325233
2277.000000	100.325277
2276.000000	100.325251
2275.000000	100.324974
2274.000000	100.324459
2273.000000	100.323918
2272.000000	100.323525
2271.000000	100.323269
2270.000000	100.323044
2269.000000	100.322775
2268.000000	100.322455
2267.000000	100.322116
2266.000000	100.321786
2265.000000	100.321465
2264.000000	100.321132
2263.000000	100.320772
2262.000000	100.320391
2261.000000	100.320001
2260.000000	100.319606
2259.000000	100.319210
2258.000000	100.318818
2257.000000	100.318433
2256.000000	100.318053
2255.000000	100.317683
2254.000000	100.317329
2253.000000	100.316997
2252.000000	100.316691
2251.000000	100.316405
2250.000000	100.316128
2249.000000	100.315853
2248.000000	100.315575
2247.000000	100.315300
2246.000000	100.315037
2245.000000	100.314793
2244.000000	100.314565
2243.000000	100.314338
2242.000000	100.314094
2241.000000	100.313824
2240.000000	100.313525
2239.000000	100.313211
2238.000000	100.312935
2237.000000	100.312757
2236.000000	100.312691
2235.000000	100.312667
2234.000000	100.312594
2233.000000	100.312443
2232.000000	100.312255
2231.000000	100.312110
2230.000000	100.312062
2229.000000	100.312114
2228.000000	100.312235
2227.000000	100.312377
2226.000000	100.312514
2225.000000	100.312657
2224.000000	100.312818
2223.000000	100.312936
2222.000000	100.312920
2221.000000	100.312767
2220.000000	100.312607
2219.000000	100.312591
2218.000000	100.312778
2217.000000	100.313165
2216.000000	100.313727
2215.000000	100.314367
2214.000000	100.314880
2213.000000	100.315077
2212.000000	100.314932
2211.000000	100.314583
2210.000000	100.314211
2209.000000	100.313968
2208.000000	100.313941
2207.000000	100.314123
2206.000000	100.314450
2205.000000	100.314918
2204.000000	100.315571
2203.000000	100.316343
2202.000000	100.316978
2201.000000	100.317260
2200.000000	100.317210
2199.000000	100.317038
2198.000000	100.316915
2197.000000	100.316890
2196.000000	100.316993
2195.000000	100.317301
2194.000000	100.317851
2193.000000	100.318546
2192.000000	100.319210
2191.000000	100.319705
2190.000000	100.320007
2189.000000	100.320180
2188.000000	100.320278
2187.000000	100.320305
2186.000000	100.320259
2185.000000	100.320223
2184.000000	100.320324
2183.000000	100.320570
2182.000000	100.320777
2181.000000	100.320762
2180.000000	100.320554
2179.000000	100.320386
2178.000000	100.320464
2177.000000	100.320803
2176.000000	100.321240
2175.000000	100.321554
2174.000000	100.321616
2173.000000	100.321509
2172.000000	100.321480
2171.000000	100.321717
2170.000000	100.322170
2169.000000	100.322640
2168.000000	100.322997
2167.000000	100.323218
2166.000000	100.323260
2165.000000	100.323084
2164.000000	100.322832
2163.000000	100.322787
2162.000000	100.323066
2161.000000	100.323452
2160.000000	100.323612
2159.000000	100.323464
2158.000000	100.323193
2157.000000	100.323013
2156.000000	100.322977
2155.000000	100.323043
2154.000000	100.323196
2153.000000	100.323475
2152.000000	100.323902
2151.000000	100.324393
2150.000000	100.324792
2149.000000	100.325018
2148.000000	100.325151
2147.000000	100.325327
2146.000000	100.325587
2145.000000	100.325896
2144.000000	100.326283
2143.000000	100.326833
2142.000000	100.327536
2141.000000	100.328240
2140.000000	100.328799
2139.000000	100.329210
2138.000000	100.329559
2137.000000	100.329918
2136.000000	100.330325
2135.000000	100.330811
2134.000000	100.331372
2133.000000	100.331926
2132.000000	100.332380
2131.000000	100.332738
2130.000000	100.333095
2129.000000	100.333529
2128.000000	100.334025
2127.000000	100.334521
2126.000000	100.334984
2125.000000	100.335429
2124.000000	100.335899
2123.000000	100.336448
2122.000000	100.337108
2121.000000	100.337850
2120.000000	100.338546
2119.000000	100.339055
2118.000000	100.339323
2117.000000	100.339438
2116.000000	100.339620
2115.000000	100.340027
2114.000000	100.340651
2113.000000	100.341341
2112.000000	100.342002
2111.000000	100.342676
2110.000000	100.343417
2109.000000	100.344173
2108.000000	100.344834
2107.000000	100.345373
2106.000000	100.345830
2105.000000	100.346200
2104.000000	100.346442
2103.000000	100.346626
2102.000000	100.346923
2101.000000	100.347415
2100.000000	100.347984
2099.000000	100.348431
2098.000000	100.348647
2097.000000	100.348636
2096.000000	100.348457
2095.000000	100.348237
2094.000000	100.348173
2093.000000	100.348423
2092.000000	100.348965
2091.000000	100.349602
2090.000000	100.350131
2089.000000	100.350499
2088.000000	100.350862
2087.000000	100.351462
2086.000000	100.352357
2085.000000	100.353220
2084.000000	100.353559
2083.000000	100.353213
2082.000000	100.352544
2081.000000	100.352077
2080.000000	100.351925
2079.000000	100.351748
2078.000000	100.351241
2077.000000	100.350524
2076.000000	100.350036
2075.000000	100.350033
2074.000000	100.350324
2073.000000	100.350508
2072.000000	100.350377
2071.000000	100.350085
2070.000000	100.349959
2069.000000	100.350206
2068.000000	100.350768
2067.000000	100.351347
2066.000000	100.351579
2065.000000	100.351310
2064.000000	100.350710
2063.000000	100.350143
2062.000000	100.349839
2061.000000	100.349756
2060.000000	100.349735
2059.000000	100.349681
2058.000000	100.349556
2057.000000	100.349306
2056.000000	100.348918
2055.000000	100.348495
2054.000000	100.348167
2053.000000	100.347924
2052.000000	100.347639
2051.000000	100.347223
2050.000000	100.346674
2049.000000	100.346014
2048.000000	100.345296
2047.000000	100.344663
2046.000000	100.344243
2045.000000	100.344004
2044.000000	100.343758
2043.000000	100.343360
2042.000000	100.342813
2041.000000	100.342195
2040.000000	100.341599
2039.000000	100.341137
2038.000000	100.340897
2037.000000	100.340793
2036.000000	100.340524
2035.000000	100.339875
2034.000000	100.338989
2033.000000	100.338211
2032.000000	100.337645
2031.000000	100.337149
2030.000000	100.336716
2029.000000	100.336499
2028.000000	100.336383
2027.000000	100.335872
2026.000000	100.334625
2025.000000	100.332904
2024.000000	100.331290
2023.000000	100.330091
2022.000000	100.329183
2021.000000	100.328337
2020.000000	100.327529
2019.000000	100.326874
2018.000000	100.326378
2017.000000	100.325892
2016.000000	100.325338
2015.000000	100.324854
2014.000000	100.324548
2013.000000	100.324171
2012.000000	100.323255
2011.000000	100.321629
2010.000000	100.319677
2009.000000	100.317984
2008.000000	100.316863
2007.000000	100.316299
2006.000000	100.316140
2005.000000	100.316112
2004.000000	100.315791
2003.000000	100.314844
2002.000000	100.313265
2001.000000	100.311307
2000.000000	100.309202
1999.000000	100.307175
1998.000000	100.305599
1997.000000	100.304770
1996.000000	100.304555
1995.000000	100.304508
1994.000000	100.304421
1993.000000	100.304566
1992.000000	100.305232
1991.000000	100.306146
1990.000000	100.306594
1989.000000	100.306172
1988.000000	100.305288
1987.000000	100.304798
1986.000000	100.305064
1985.000000	100.305462
1984.000000	100.305053
1983.000000	100.303630
1982.000000	100.301907
1981.000000	100.300730
1980.000000	100.300277
1979.000000	100.300234
1978.000000	100.300339
1977.000000	100.300443
1976.000000	100.300324
1975.000000	100.299852
1974.000000	100.299270
1973.000000	100.298929
1972.000000	100.298770
1971.000000	100.298382
1970.000000	100.297592
1969.000000	100.296712
1968.000000	100.296125
1967.000000	100.295803
1966.000000	100.295413
1965.000000	100.294762
1964.000000	100.293928
1963.000000	100.293035
1962.000000	100.292140
1961.000000	100.291388
1960.000000	100.291073
1959.000000	100.291393
1958.000000	100.292094
1957.000000	100.292503
1956.000000	100.292104
1955.000000	100.290947
1954.000000	100.289464
1953.000000	100.287976
1952.000000	100.286688
1951.000000	100.285997
1950.000000	100.286294
1949.000000	100.287414
1948.000000	100.288591
1947.000000	100.289271
1946.000000	100.289673
1945.000000	100.290135
1944.000000	100.290283
1943.000000	100.289414
1942.000000	100.287570
1941.000000	100.285585
1940.000000	100.284024
1939.000000	100.282646
1938.000000	100.280989
1937.000000	100.279050
1936.000000	100.277305
1935.000000	100.276279
1934.000000	100.276146
1933.000000	100.276530
1932.000000	100.276738
1931.000000	100.276307
1930.000000	100.275331
1929.000000	100.274187
1928.000000	100.272901
1927.000000	100.271233
1926.000000	100.269220
1925.000000	100.267267
1924.000000	100.265614
1923.000000	100.263952
1922.000000	100.261906
1921.000000	100.259630
1920.000000	100.257706
1919.000000	100.256660
1918.000000	100.256565
1917.000000	100.256728
1916.000000	100.255992
1915.000000	100.253655
1914.000000	100.250035
1913.000000	100.246365
1912.000000	100.243856
1911.000000	100.242567
1910.000000	100.241403
1909.000000	100.239220
1908.000000	100.235837
1907.000000	100.232112
1906.000000	100.229157
1905.000000	100.227512
1904.000000	100.226795
1903.000000	100.225936
1902.000000	100.224086
1901.000000	100.221276
1900.000000	100.218161
1899.000000	100.215433
1898.000000	100.213444
1897.000000	100.212117
1896.000000	100.210907
1895.000000	100.209003
1894.000000	100.206040
1893.000000	100.202592
1892.000000	100.199703
1891.000000	100.198013
1890.000000	100.197341
1889.000000	100.196750
1888.000000	100.195203
1887.000000	100.192531
1886.000000	100.189672
1885.000000	100.187896
1884.000000	100.187721
1883.000000	100.188484
1882.000000	100.188985
1881.000000	100.188331
1880.000000	100.186251
1879.000000	100.183395
1878.000000	100.181314
1877.000000	100.181355
1876.000000	100.183280
1875.000000	100.185188
1874.000000	100.185216
1873.000000	100.183191
1872.000000	100.180449
1871.000000	100.178640
1870.000000	100.179012
1869.000000	100.181713
1868.000000	100.184825
1867.000000	100.185631
1866.000000	100.183556
1865.000000	100.180633
1864.000000	100.179381
1863.000000	100.180812
1862.000000	100.184146
1861.000000	100.187884
1860.000000	100.190840
1859.000000	100.192522
1858.000000	100.193295
1857.000000	100.194253
1856.000000	100.196420
1855.000000	100.199970
1854.000000	100.204289
1853.000000	100.208534
1852.000000	100.211731
1851.000000	100.213260
1850.000000	100.213563
1849.000000	100.213902
1848.000000	100.215071
1847.000000	100.216493
1846.000000	100.217330
1845.000000	100.218060
1844.000000	100.219997
1843.000000	100.223036
1842.000000	100.226003
1841.000000	100.228661
1840.000000	100.231528
1839.000000	100.234716
1838.000000	100.237141
1837.000000	100.237629
1836.000000	100.236689
1835.000000	100.235905
1834.000000	100.235782
1833.000000	100.235300
1832.000000	100.233814
1831.000000	100.232721
1830.000000	100.234084
1829.000000	100.237400
1828.000000	100.240341
1827.000000	100.242219
1826.000000	100.244032
1825.000000	100.246126
1824.000000	100.247261
1823.000000	100.246243
1822.000000	100.243490
1821.000000	100.240311
1820.000000	100.237701
1819.000000	100.236077
1818.000000	100.235521
1817.000000	100.236045
1816.000000	100.237174
1815.000000	100.237644
1814.000000	100.236501
1813.000000	100.234260
1812.000000	100.232919
1811.000000	100.234102
1810.000000	100.237003
1809.000000	100.239116
1808.000000	100.238670
1807.000000	100.235915
1806.000000	100.232582
1805.000000	100.230427
1804.000000	100.229984
1803.000000	100.230424
1802.000000	100.230682
1801.000000	100.230300
1800.000000	100.229568
1799.000000	100.229147
1798.000000	100.229667
1797.000000	100.231491
1796.000000	100.234290
1795.000000	100.237371
1794.000000	100.240545
1793.000000	100.243714
1792.000000	100.245833
1791.000000	100.245752
1790.000000	100.244267
1789.000000	100.243314
1788.000000	100.243474
1787.000000	100.243977
1786.000000	100.244439
1785.000000	100.245540
1784.000000	100.247474
1783.000000	100.248924
1782.000000	100.249274
1781.000000	100.249984
1780.000000	100.253146
1779.000000	100.258801
1778.000000	100.264740
1777.000000	100.268922
1776.000000	100.270335
1775.000000	100.269433
1774.000000	100.268252
1773.000000	100.268833
1772.000000	100.270579
1771.000000	100.271249
1770.000000	100.271330
1769.000000	100.273784
1768.000000	100.279890
1767.000000	100.287064
1766.000000	100.291707
1765.000000	100.293263
1764.000000	100.294149
1763.000000	100.297085
1762.000000	100.302795
1761.000000	100.309275
1760.000000	100.314889
1759.000000	100.319875
1758.000000	100.324742
1757.000000	100.329726
1756.000000	100.334595
1755.000000	100.339222
1754.000000	100.343833
1753.000000	100.348804
1752.000000	100.354746
1751.000000	100.362136
1750.000000	100.369942
1749.000000	100.376389
1748.000000	100.380481
1747.000000	100.382917
1746.000000	100.386540
1745.000000	100.393727
1744.000000	100.403640
1743.000000	100.412227
1742.000000	100.415868
1741.000000	100.414661
1740.000000	100.411439
1739.000000	100.407814
1738.000000	100.402927
1737.000000	100.395530
1736.000000	100.385173
1735.000000	100.372645
1734.000000	100.361052
1733.000000	100.353926
1732.000000	100.353067
1731.000000	100.356605
1730.000000	100.358902
1729.000000	100.356009
1728.000000	100.349251
1727.000000	100.342966
1726.000000	100.339882
1725.000000	100.339077
1724.000000	100.338240
1723.000000	100.336159
1722.000000	100.333082
1721.000000	100.329691
1720.000000	100.326067
1719.000000	100.321735
1718.000000	100.315839
1717.000000	100.308807
1716.000000	100.303926
1715.000000	100.303904
1714.000000	100.307442
1713.000000	100.310906
1712.000000	100.311421
1711.000000	100.308157
1710.000000	100.302189
1709.000000	100.295984
1708.000000	100.291963
1707.000000	100.290834
1706.000000	100.291033
1705.000000	100.290083
1704.000000	100.286893
1703.000000	100.282201
1702.000000	100.277199
1701.000000	100.273164
1700.000000	100.270668
1699.000000	100.268725
1698.000000	100.266629
1697.000000	100.264178
1696.000000	100.261229
1695.000000	100.258107
1694.000000	100.255367
1693.000000	100.253244
1692.000000	100.251369
1691.000000	100.249400
1690.000000	100.247606
1689.000000	100.246302
1688.000000	100.245186
1687.000000	100.243810
1686.000000	100.242146
1685.000000	100.240344
1684.000000	100.238062
1683.000000	100.234946
1682.000000	100.231930
1681.000000	100.229960
1680.000000	100.228812
1679.000000	100.227862
1678.000000	100.226699
1677.000000	100.225302
1676.000000	100.223851
1675.000000	100.222387
1674.000000	100.220940
1673.000000	100.219828
1672.000000	100.219286
1671.000000	100.218921
1670.000000	100.217984
1669.000000	100.216158
1668.000000	100.213909
1667.000000	100.211890
1666.000000	100.210169
1665.000000	100.208471
1664.000000	100.206856
1663.000000	100.205640
1662.000000	100.204808
1661.000000	100.203972
1660.000000	100.202855
1659.000000	100.201482
1658.000000	100.200070
1657.000000	100.199026
1656.000000	100.198558
1655.000000	100.198869
1654.000000	100.199162
1653.000000	100.196666
1652.000000	100.190606
1651.000000	100.185424
1650.000000	100.183013
1649.000000	100.180207
1648.000000	100.175832
1647.000000	100.173314
1646.000000	100.174710
1645.000000	100.177168
1644.000000	100.178753
1643.000000	100.179830
1642.000000	100.180482
1641.000000	100.180340
1640.000000	100.178892
1639.000000	100.175825
1638.000000	100.171288
1637.000000	100.166895
1636.000000	100.165940
1635.000000	100.168947
1634.000000	100.171847
1633.000000	100.172375
1632.000000	100.171047
1631.000000	100.168497
1630.000000	100.165671
1629.000000	100.162997
1628.000000	100.160472
1627.000000	100.158669
1626.000000	100.158708
1625.000000	100.161052
1624.000000	100.165186
1623.000000	100.169656
1622.000000	100.172448
1621.000000	100.172600
1620.000000	100.170617
1619.000000	100.167865
1618.000000	100.166448
1617.000000	100.167705
1616.000000	100.169800
1615.000000	100.171459
1614.000000	100.174345
1613.000000	100.178952
1612.000000	100.184110
1611.000000	100.189038
1610.000000	100.193639
1609.000000	100.197969
1608.000000	100.202657
1607.000000	100.209046
1606.000000	100.217566
1605.000000	100.226238
1604.000000	100.232215
1603.000000	100.234960
1602.000000	100.236321
1601.000000	100.237800
1600.000000	100.239469
1599.000000	100.241882
1598.000000	100.246883
1597.000000	100.255405
1596.000000	100.265802
1595.000000	100.275233
1594.000000	100.282464
1593.000000	100.288278
1592.000000	100.293393
1591.000000	100.297205
1590.000000	100.298921
1589.000000	100.299209
1588.000000	100.300137
1587.000000	100.303600
1586.000000	100.309723
1585.000000	100.316689
1584.000000	100.321989
1583.000000	100.324594
1582.000000	100.325788
1581.000000	100.327676
1580.000000	100.330990
1579.000000	100.334923
1578.000000	100.338729
1577.000000	100.342739
1576.000000	100.347408
1575.000000	100.352201
1574.000000	100.357188
1573.000000	100.361785
1572.000000	100.364096
1571.000000	100.364029
1570.000000	100.364242
1569.000000	100.367035
1568.000000	100.372047
1567.000000	100.378765
1566.000000	100.386761
1565.000000	100.394510
1564.000000	100.400117
1563.000000	100.403235
1562.000000	100.404960
1561.000000	100.408566
1560.000000	100.417280
1559.000000	100.429493
1558.000000	100.436048
1557.000000	100.436415
1556.000000	100.437707
1555.000000	100.439139
1554.000000	100.438384
1553.000000	100.436762
1552.000000	100.436517
1551.000000	100.438187
1550.000000	100.440587
1549.000000	100.443214
1548.000000	100.446830
1547.000000	100.452331
1546.000000	100.459032
1545.000000	100.464461
1544.000000	100.466733
1543.000000	100.466407
1542.000000	100.464623
1541.000000	100.460505
1540.000000	100.452864
1539.000000	100.442830
1538.000000	100.434486
1537.000000	100.429891
1536.000000	100.425639
1535.000000	100.418719
1534.000000	100.412279
1533.000000	100.410612
1532.000000	100.412750
1531.000000	100.415841
1530.000000	100.418696
1529.000000	100.420512
1528.000000	100.420093
1527.000000	100.416864
1526.000000	100.411992
1525.000000	100.407117
1524.000000	100.402692
1523.000000	100.398273
1522.000000	100.393901
1521.000000	100.389926
1520.000000	100.386441
1519.000000	100.384242
1518.000000	100.382969
1517.000000	100.381080
1516.000000	100.378658
1515.000000	100.377131
1514.000000	100.377357
1513.000000	100.378196
1512.000000	100.377938
1511.000000	100.376396
1510.000000	100.373888
1509.000000	100.370133
1508.000000	100.364441
1507.000000	100.359349
1506.000000	100.357937
1505.000000	100.359488
1504.000000	100.363124
1503.000000	100.366860
1502.000000	100.367862
1501.000000	100.366348
1500.000000	100.364336
1499.000000	100.363363
1498.000000	100.363750
1497.000000	100.364461
1496.000000	100.363847
1495.000000	100.362130
1494.000000	100.362118
1493.000000	100.365322
1492.000000	100.370063
1491.000000	100.373191
1490.000000	100.373001
1489.000000	100.370692
1488.000000	100.367832
1487.000000	100.364030
1486.000000	100.359398
1485.000000	100.356258
1484.000000	100.355967
1483.000000	100.357528
1482.000000	100.359084
1481.000000	100.359965
1480.000000	100.361227
1479.000000	100.364658
1478.000000	100.371841
1477.000000	100.382567
1476.000000	100.393514
1475.000000	100.400432
1474.000000	100.403168
1473.000000	100.405586
1472.000000	100.409430
1471.000000	100.412396
1470.000000	100.413861
1469.000000	100.416067
1468.000000	100.420637
1467.000000	100.427095
1466.000000	100.433224
1465.000000	100.436912
1464.000000	100.437747
1463.000000	100.437423
1462.000000	100.437858
1461.000000	100.439734
1460.000000	100.442132
1459.000000	100.443019
1458.000000	100.439185
1457.000000	100.428475
1456.000000	100.414446
1455.000000	100.404204
1454.000000	100.399554
1453.000000	100.397282
1452.000000	100.396129
1451.000000	100.397022
1450.000000	100.399403
1449.000000	100.401037
1448.000000	100.400650
1447.000000	100.398155
1446.000000	100.393419
1445.000000	100.385934
1444.000000	100.376381
1443.000000	100.367742
1442.000000	100.363279
1441.000000	100.363497
1440.000000	100.365367
1439.000000	100.365102
1438.000000	100.360757
1437.000000	100.353954
1436.000000	100.348734
1435.000000	100.347414
1434.000000	100.348746
1433.000000	100.350136
1432.000000	100.350231
1431.000000	100.349397
1430.000000	100.348020
1429.000000	100.345790
1428.000000	100.343151
1427.000000	100.341367
1426.000000	100.341608
1425.000000	100.343925
1424.000000	100.347044
1423.000000	100.349027
1422.000000	100.348346
1421.000000	100.345131
1420.000000	100.341568
1419.000000	100.340863
1418.000000	100.343657
1417.000000	100.347997
1416.000000	100.352480
1415.000000	100.356703
1414.000000	100.360620
1413.000000	100.363912
1412.000000	100.366116
1411.000000	100.367604
1410.000000	100.369335
1409.000000	100.371638
1408.000000	100.374123
1407.000000	100.376528
1406.000000	100.379663
1405.000000	100.384441
1404.000000	100.390010
1403.000000	100.394595
1402.000000	100.397877
1401.000000	100.401210
1400.000000	100.405504
1399.000000	100.409745
1398.000000	100.412361
1397.000000	100.413750
1396.000000	100.415666
1395.000000	100.418786
1394.000000	100.422256
1393.000000	100.425136
1392.000000	100.427468
1391.000000	100.429437
1390.000000	100.431139
1389.000000	100.433373
1388.000000	100.437070
1387.000000	100.441408
1386.000000	100.444112
1385.000000	100.444148
1384.000000	100.442581
1383.000000	100.441518
1382.000000	100.442811
1381.000000	100.446866
1380.000000	100.451952
1379.000000	100.455122
1378.000000	100.454766
1377.000000	100.452071
1376.000000	100.449722
1375.000000	100.449252
1374.000000	100.449986
1373.000000	100.450631
1372.000000	100.451309
1371.000000	100.452988
1370.000000	100.455850
1369.000000	100.458945
1368.000000	100.461080
1367.000000	100.461733
1366.000000	100.460959
1365.000000	100.459006
1364.000000	100.456384
1363.000000	100.454071
1362.000000	100.453003
1361.000000	100.453264
1360.000000	100.454199
1359.000000	100.455171
1358.000000	100.456066
1357.000000	100.457235
1356.000000	100.458909
1355.000000	100.460598
1354.000000	100.461297
1353.000000	100.460479
1352.000000	100.458647
1351.000000	100.456705
1350.000000	100.455267
1349.000000	100.454539
1348.000000	100.454634
1347.000000	100.455619
1346.000000	100.457102
1345.000000	100.458255
1344.000000	100.458553
1343.000000	100.458319
1342.000000	100.458260
1341.000000	100.458539
1340.000000	100.458505
1339.000000	100.457582
1338.000000	100.456257
1337.000000	100.455668
1336.000000	100.456363
1335.000000	100.457855
1334.000000	100.459238
1333.000000	100.459835
1332.000000	100.459213
1331.000000	100.457182
1330.000000	100.454362
1329.000000	100.452412
1328.000000	100.452894
1327.000000	100.455579
1326.000000	100.458437
1325.000000	100.459629
1324.000000	100.459225
1323.000000	100.458681
1322.000000	100.459031
1321.000000	100.460116
1320.000000	100.461197
1319.000000	100.461470
1318.000000	100.460115
1317.000000	100.457035
1316.000000	100.453884
1315.000000	100.453363
1314.000000	100.456541
1313.000000	100.461093
1312.000000	100.463125
1311.000000	100.460902
1310.000000	100.456119
1309.000000	100.451780
1308.000000	100.449422
1307.000000	100.448532
1306.000000	100.448100
1305.000000	100.448090
1304.000000	100.449371
1303.000000	100.452555
1302.000000	100.457140
1301.000000	100.461804
1300.000000	100.465279
1299.000000	100.466833
1298.000000	100.466217
1297.000000	100.463637
1296.000000	100.459905
1295.000000	100.456260
1294.000000	100.453692
1293.000000	100.452514
1292.000000	100.452426
1291.000000	100.452513
1290.000000	100.451149
1289.000000	100.446732
1288.000000	100.439248
1287.000000	100.431026
1286.000000	100.425297
1285.000000	100.423817
1284.000000	100.425979
1283.000000	100.429758
1282.000000	100.433199
1281.000000	100.435373
1280.000000	100.436278
1279.000000	100.435998
1278.000000	100.434169
1277.000000	100.430627
1276.000000	100.426390
1275.000000	100.423258
1274.000000	100.422121
1273.000000	100.422354
1272.000000	100.423306
1271.000000	100.425607
1270.000000	100.430127
1269.000000	100.435948
1268.000000	100.440269
1267.000000	100.440684
1266.000000	100.437471
1265.000000	100.433770
1264.000000	100.433376
1263.000000	100.437624
1262.000000	100.443842
1261.000000	100.447212
1260.000000	100.444741
1259.000000	100.437739
1258.000000	100.430504
1257.000000	100.426672
1256.000000	100.426459
1255.000000	100.426617
1254.000000	100.423081
1253.000000	100.414678
1252.000000	100.404490
1251.000000	100.396904
1250.000000	100.393081
1249.000000	100.390180
1248.000000	100.385040
1247.000000	100.377217
1246.000000	100.367971
1245.000000	100.357965
1244.000000	100.347314
1243.000000	100.336689
1242.000000	100.326534
1241.000000	100.315504
1240.000000	100.301204
1239.000000	100.282833
1238.000000	100.262548
1237.000000	100.244184
1236.000000	100.230616
1235.000000	100.221443
1234.000000	100.212588
1233.000000	100.199046
1232.000000	100.179018
1231.000000	100.155198
1230.000000	100.131870
1229.000000	100.111476
1228.000000	100.093969
1227.000000	100.077379
1226.000000	100.057761
1225.000000	100.030816
1224.000000	99.995952
1223.000000	99.957587
1222.000000	99.919859
1221.000000	99.880686
1220.000000	99.834142
1219.000000	99.778640
1218.000000	99.719604
1217.000000	99.662757
1216.000000	99.607162
1215.000000	99.547238
1214.000000	99.480504
1213.000000	99.411214
1212.000000	99.346218
1211.000000	99.288208
1210.000000	99.233586
1209.000000	99.176735
1208.000000	99.115529
1207.000000	99.052259
1206.000000	98.989985
1205.000000	98.929320
1204.000000	98.868985
1203.000000	98.808273
1202.000000	98.748158
1201.000000	98.690139
1200.000000	98.633954
1199.000000	98.576574
1198.000000	98.514761
1197.000000	98.449486
1196.000000	98.386212
1195.000000	98.328920
1194.000000	98.274934
1193.000000	98.217801
1192.000000	98.154432
1191.000000	98.087279
1190.000000	98.020603
1189.000000	97.957128
1188.000000	97.897281
1187.000000	97.838407
1186.000000	97.775332
1185.000000	97.705137
1184.000000	97.631168
1183.000000	97.559118
1182.000000	97.489552
1181.000000	97.417938
1180.000000	97.341835
1179.000000	97.263904
1178.000000	97.187339
1177.000000	97.112248
1176.000000	97.037138
1175.000000	96.960067
1174.000000	96.877825
1173.000000	96.788231
1172.000000	96.694188
1171.000000	96.601623
1170.000000	96.512786
1169.000000	96.425547
1168.000000	96.339515
1167.000000	96.257978
1166.000000	96.183457
1165.000000	96.117473
1164.000000	96.066526
1163.000000	96.042086
1162.000000	96.050573
1161.000000	96.085632
1160.000000	96.130930
1159.000000	96.168088
1158.000000	96.183523
1157.000000	96.173276
1156.000000	96.142974
1155.000000	96.100123
1154.000000	96.046214
1153.000000	95.979746
1152.000000	95.905328
1151.000000	95.832925
1150.000000	95.767073
1149.000000	95.703240
1148.000000	95.636749
1147.000000	95.569042
1146.000000	95.502852
1145.000000	95.437174
1144.000000	95.370250
1143.000000	95.302694
1142.000000	95.234712
1141.000000	95.164315
1140.000000	95.090660
1139.000000	95.015367
1138.000000	94.939181
1137.000000	94.861596
1136.000000	94.784761
1135.000000	94.712593
1134.000000	94.644607
1133.000000	94.575648
1132.000000	94.502846
1131.000000	94.427671
1130.000000	94.350577
1129.000000	94.269718
1128.000000	94.186117
1127.000000	94.103821
1126.000000	94.023431
1125.000000	93.941548
1124.000000	93.857813
1123.000000	93.775616
1122.000000	93.694297
1121.000000	93.608043
1120.000000	93.515331
1119.000000	93.422881
1118.000000	93.337114
1117.000000	93.257349
1116.000000	93.179163
1115.000000	93.098315
1114.000000	93.010750
1113.000000	92.916346
1112.000000	92.824132
1111.000000	92.745857
1110.000000	92.682243
1109.000000	92.622208
1108.000000	92.556275
1107.000000	92.483125
1106.000000	92.403522
1105.000000	92.318235
1104.000000	92.233229
1103.000000	92.156199
1102.000000	92.085458
1101.000000	92.012012
1100.000000	91.934352
1099.000000	91.860035
1098.000000	91.790457
1097.000000	91.716431
1096.000000	91.633581
1095.000000	91.551002
1094.000000	91.478735
1093.000000	91.415943
1092.000000	91.356723
1091.000000	91.299193
1090.000000	91.244151
1089.000000	91.192457
1088.000000	91.147342
1087.000000	91.111761
1086.000000	91.080829
1085.000000	91.044772
1084.000000	91.001397
1083.000000	90.957915
1082.000000	90.919690
1081.000000	90.885734
1080.000000	90.855438
1079.000000	90.829427
1078.000000	90.802775
1077.000000	90.767608
1076.000000	90.723562
1075.000000	90.676014
1074.000000	90.624008
1073.000000	90.560501
1072.000000	90.484002
1071.000000	90.398168
1070.000000	90.299796
1069.000000	90.179728
1068.000000	90.036966
1067.000000	89.880276
1066.000000	89.714981
1065.000000	89.540730
1064.000000	89.363706
1063.000000	89.196834
1062.000000	89.044631
1061.000000	88.900485
1060.000000	88.760832
1059.000000	88.628137
1058.000000	88.498185
1057.000000	88.359925
1056.000000	88.211717
1055.000000	88.063873
1054.000000	87.921775
1053.000000	87.780411
1052.000000	87.638811
1051.000000	87.503592
1050.000000	87.372838
1049.000000	87.233624
1048.000000	87.081137
1047.000000	86.923353
1046.000000	86.763766
1045.000000	86.597223
1044.000000	86.425085
1043.000000	86.256686
1042.000000	86.092712
1041.000000	85.924492
1040.000000	85.753624
1039.000000	85.594299
1038.000000	85.450979
1037.000000	85.311846
1036.000000	85.170555
1035.000000	85.037143
1034.000000	84.920468
1033.000000	84.816618
1032.000000	84.721048
1031.000000	84.635712
1030.000000	84.557833
1029.000000	84.478009
1028.000000	84.395868
1027.000000	84.321961
1026.000000	84.258920
1025.000000	84.197378
1024.000000	84.135576
1023.000000	84.084863
1022.000000	84.048817
1021.000000	84.014201
1020.000000	83.970111
1019.000000	83.920244
1018.000000	83.869328
1017.000000	83.813578
1016.000000	83.751927
1015.000000	83.691365
1014.000000	83.634127
1013.000000	83.574107
1012.000000	83.511809
1011.000000	83.457520
1010.000000	83.413730
1009.000000	83.370091
1008.000000	83.322052
1007.000000	83.279034
1006.000000	83.247545
1005.000000	83.221467
1004.000000	83.196051
1003.000000	83.176988
1002.000000	83.168207
1001.000000	83.164047
1000.000000	83.160026
999.000000	83.158802
998.000000	83.160102
997.000000	83.157682
996.000000	83.151556
995.000000	83.150818
994.000000	83.159913
993.000000	83.174331
992.000000	83.192768
991.000000	83.219974
990.000000	83.254126
989.000000	83.285645
988.000000	83.312973
987.000000	83.346424
986.000000	83.392649
985.000000	83.448154
984.000000	83.511024
983.000000	83.585832
982.000000	83.673752
981.000000	83.770332
980.000000	83.875027
979.000000	83.990685
978.000000	84.113656
977.000000	84.238364
976.000000	84.371015
975.000000	84.522868
974.000000	84.689912
973.000000	84.856229
972.000000	85.018717
971.000000	85.190259
970.000000	85.375443
969.000000	85.561439
968.000000	85.737736
967.000000	85.908067
966.000000	86.077209
965.000000	86.242316
964.000000	86.404116
963.000000	86.571540
962.000000	86.747137
961.000000	86.920384
960.000000	87.082707
959.000000	87.237938
958.000000	87.391829
957.000000	87.542092
956.000000	87.685004
955.000000	87.821796
954.000000	87.952564
953.000000	88.073026
952.000000	88.182786
951.000000	88.288808
950.000000	88.396329
949.000000	88.503483
948.000000	88.607172
947.000000	88.705762
946.000000	88.794630
945.000000	88.869180
944.000000	88.934488
943.000000	89.001966
942.000000	89.073975
941.000000	89.141934
940.000000	89.201946
939.000000	89.260970
938.000000	89.324244
937.000000	89.387746
936.000000	89.447640
935.000000	89.506901
934.000000	89.567760
933.000000	89.626945
932.000000	89.683170
931.000000	89.741072
930.000000	89.803762
929.000000	89.869033
928.000000	89.935313
927.000000	90.002975
926.000000	90.068047
925.000000	90.124257
924.000000	90.173741
923.000000	90.226379
922.000000	90.286106
921.000000	90.347216
920.000000	90.405959
919.000000	90.464996
918.000000	90.523395
917.000000	90.573368
916.000000	90.611813
915.000000	90.646072
914.000000	90.683982
913.000000	90.726897
912.000000	90.776400
911.000000	90.838958
910.000000	90.919298
909.000000	91.016491
908.000000	91.129250
907.000000	91.257197
906.000000	91.395284
905.000000	91.536447
904.000000	91.682247
903.000000	91.841583
902.000000	92.016413
901.000000	92.197877
900.000000	92.378927
899.000000	92.561288
898.000000	92.746321
897.000000	92.927650
896.000000	93.097349
895.000000	93.253516
894.000000	93.399014
893.000000	93.537934
892.000000	93.674668
891.000000	93.811220
890.000000	93.944794
889.000000	94.072873
888.000000	94.199246
887.000000	94.328550
886.000000	94.457042
885.000000	94.577425
884.000000	94.691731
883.000000	94.809941
882.000000	94.935612
881.000000	95.062460
880.000000	95.185967
879.000000	95.308304
878.000000	95.429917
877.000000	95.546225
876.000000	95.656001
875.000000	95.764951
874.000000	95.878479
873.000000	95.998022
872.000000	96.125130
871.000000	96.260627
870.000000	96.398366
869.000000	96.527947
868.000000	96.645334
867.000000	96.754571
866.000000	96.859436
865.000000	96.960681
864.000000	97.061494
863.000000	97.167377
862.000000	97.278598
861.000000	97.389126
860.000000	97.494386
859.000000	97.594590
858.000000	97.690547
857.000000	97.782496
856.000000	97.873033
855.000000	97.964330
854.000000	98.052018
853.000000	98.128493
852.000000	98.192537
851.000000	98.249247
850.000000	98.300790
849.000000	98.344790
848.000000	98.382340
847.000000	98.419247
846.000000	98.457016
845.000000	98.489346
844.000000	98.509582
843.000000	98.515900
842.000000	98.508674
841.000000	98.489470
840.000000	98.463198
839.000000	98.433882
838.000000	98.397242
837.000000	98.345164
836.000000	98.279037
835.000000	98.211102
834.000000	98.151192
833.000000	98.100742
832.000000	98.062006
831.000000	98.042331
830.000000	98.043169
829.000000	98.053413
828.000000	98.060535
827.000000	98.062166
826.000000	98.062184
825.000000	98.063742
824.000000	98.072104
823.000000	98.094486
822.000000	98.128430
821.000000	98.158340
820.000000	98.170395
819.000000	98.164151
818.000000	98.145737
817.000000	98.117210
816.000000	98.077113
815.000000	98.024749
814.000000	97.957716
813.000000	97.868582
812.000000	97.747757
811.000000	97.585811
810.000000	97.370588
809.000000	97.088867
808.000000	96.737523
807.000000	96.330677
806.000000	95.891947
805.000000	95.443097
804.000000	95.002642
803.000000	94.587328
802.000000	94.208517
801.000000	93.874064
800.000000	93.598847
799.000000	93.404067
798.000000	93.299298
797.000000	93.273132
796.000000	93.305792
795.000000	93.381107
794.000000	93.482419
793.000000	93.589915
792.000000	93.690499
791.000000	93.782070
790.000000	93.861652
789.000000	93.916974
788.000000	93.935883
787.000000	93.917311
786.000000	93.867029
785.000000	93.788333
784.000000	93.682446
783.000000	93.553366
782.000000	93.408240
781.000000	93.258588
780.000000	93.125108
779.000000	93.034334
778.000000	93.004635
777.000000	93.038862
776.000000	93.130704
775.000000	93.269249
774.000000	93.435560
773.000000	93.605891
772.000000	93.764713
771.000000	93.909473
770.000000	94.041032
769.000000	94.156424
768.000000	94.252628
767.000000	94.329615
766.000000	94.387114
765.000000	94.425850
764.000000	94.454754
763.000000	94.489023
762.000000	94.536493
761.000000	94.591633
760.000000	94.645744
759.000000	94.696931
758.000000	94.748200
757.000000	94.803075
756.000000	94.865622
755.000000	94.937446
754.000000	95.012102
753.000000	95.079768
752.000000	95.139527
751.000000	95.199510
750.000000	95.263254
749.000000	95.325126
748.000000	95.382961
747.000000	95.446265
746.000000	95.526478
745.000000	95.626198
744.000000	95.742270
743.000000	95.871166
742.000000	96.005355
741.000000	96.132296
740.000000	96.245138
739.000000	96.350183
738.000000	96.457745
737.000000	96.569660
736.000000	96.681436
735.000000	96.791875
734.000000	96.902604
733.000000	97.009714
732.000000	97.102624
731.000000	97.172297
730.000000	97.217668
729.000000	97.244583
728.000000	97.261676
727.000000	97.277518
726.000000	97.298997
725.000000	97.330537
724.000000	97.373907
723.000000	97.427955
722.000000	97.489467
721.000000	97.555992
720.000000	97.627129
719.000000	97.701544
718.000000	97.774763
717.000000	97.842571
716.000000	97.904234
715.000000	97.959328
714.000000	98.004613
713.000000	98.039134
712.000000	98.070370
711.000000	98.108752
710.000000	98.155518
709.000000	98.200491
708.000000	98.231673
707.000000	98.242958
706.000000	98.233599
705.000000	98.205721
704.000000	98.161797
703.000000	98.098292
702.000000	98.001779
701.000000	97.857720
700.000000	97.664266
699.000000	97.434234
698.000000	97.186981
697.000000	96.947469
696.000000	96.751980
695.000000	96.639526
694.000000	96.628613
693.000000	96.705014
692.000000	96.832508
691.000000	96.973388
690.000000	97.102766
689.000000	97.214301
688.000000	97.317673
687.000000	97.424376
686.000000	97.531816
685.000000	97.625112
684.000000	97.694259
683.000000	97.743829
682.000000	97.785985
681.000000	97.830212
680.000000	97.880406
679.000000	97.936049
678.000000	97.993810
677.000000	98.052070
676.000000	98.111267
675.000000	98.171383
674.000000	98.228965
673.000000	98.281985
672.000000	98.336932
671.000000	98.403038
670.000000	98.478882
669.000000	98.547397
668.000000	98.589790
667.000000	98.611715
666.000000	98.635348
665.000000	98.668041
664.000000	98.704012
663.000000	98.740081
662.000000	98.779759
661.000000	98.827216
660.000000	98.879126
659.000000	98.922018
658.000000	98.940084
657.000000	98.930996
656.000000	98.908424
655.000000	98.887599
654.000000	98.868555
653.000000	98.841071
652.000000	98.807608
651.000000	98.788389
650.000000	98.798717
