4000.000000	100.139780
3999.000000	100.139021
3998.000000	100.136699
3997.000000	100.132728
3996.000000	100.128173
3995.000000	100.124594
3994.000000	100.123014
3993.000000	100.123249
3992.000000	100.123802
3991.000000	100.123097
3990.000000	100.121052
3989.000000	100.119145
3988.000000	100.118822
3987.000000	100.120023
3986.000000	100.121450
3985.000000	100.122100
3984.000000	100.122284
3983.000000	100.122953
3982.000000	100.124348
3981.000000	100.125609
3980.000000	100.125671
3979.000000	100.124276
3978.000000	100.122038
3977.000000	100.119814
3976.000000	100.118152
3975.000000	100.117258
3974.000000	100.117151
3973.000000	100.117670
3972.000000	100.118452
3971.000000	100.119047
3970.000000	100.119125
3969.000000	100.118555
3968.000000	100.117408
3967.000000	100.116043
3966.000000	100.115149
3965.000000	100.115411
3964.000000	100.116990
3963.000000	100.119329
3962.000000	100.121559
3961.000000	100.123164
3960.000000	100.124096
3959.000000	100.124280
3958.000000	100.123327
3957.000000	100.120976
3956.000000	100.117775
3955.000000	100.115096
3954.000000	100.114101
3953.000000	100.114833
3952.000000	100.116317
3951.000000	100.117428
3950.000000	100.117832
3949.000000	100.118046
3948.000000	100.118626
3947.000000	100.119416
3946.000000	100.119695
3945.000000	100.119012
3944.000000	100.117809
3943.000000	100.117139
3942.000000	100.117651
3941.000000	100.118957
3940.000000	100.120170
3939.000000	100.120898
3938.000000	100.121524
3937.000000	100.122605
3936.000000	100.124222
3935.000000	100.125969
3934.000000	100.127185
3933.000000	100.127102
3932.000000	100.125077
3931.000000	100.121259
3930.000000	100.117029
3929.000000	100.114261
3928.000000	100.114053
3927.000000	100.116192
3926.000000	100.119550
3925.000000	100.122744
3924.000000	100.124738
3923.000000	100.125166
3922.000000	100.124387
3921.000000	100.123085
3920.000000	100.121721
3919.000000	100.120303
3918.000000	100.118626
3917.000000	100.116623
3916.000000	100.114542
3915.000000	100.112870
3914.000000	100.111981
3913.000000	100.111539
3912.000000	100.110602
3911.000000	100.108684
3910.000000	100.106747
3909.000000	100.106485
3908.000000	100.108418
3907.000000	100.111077
3906.000000	100.112141
3905.000000	100.110717
3904.000000	100.108102
3903.000000	100.106240
3902.000000	100.105983
3901.000000	100.107219
3900.000000	100.109687
3899.000000	100.113025
3898.000000	100.116568
3897.000000	100.119730
3896.000000	100.122462
3895.000000	100.124881
3894.000000	100.126910
3893.000000	100.128448
3892.000000	100.129716
3891.000000	100.130766
3890.000000	100.130780
3889.000000	100.128769
3888.000000	100.124941
3887.000000	100.121377
3886.000000	100.120617
3885.000000	100.122841
3884.000000	100.125583
3883.000000	100.126510
3882.000000	100.125534
3881.000000	100.124354
3880.000000	100.124566
3879.000000	100.126150
3878.000000	100.127876
3877.000000	100.128716
3876.000000	100.128693
3875.000000	100.128773
3874.000000	100.129722
3873.000000	100.131225
3872.000000	100.132574
3871.000000	100.133868
3870.000000	100.135724
3869.000000	100.137796
3868.000000	100.139058
3867.000000	100.139315
3866.000000	100.139231
3865.000000	100.138996
3864.000000	100.138053
3863.000000	100.136335
3862.000000	100.134855
3861.000000	100.134321
3860.000000	100.134439
3859.000000	100.134699
3858.000000	100.135053
3857.000000	100.135598
3856.000000	100.136171
3855.000000	100.136896
3854.000000	100.138508
3853.000000	100.140139
3852.000000	100.139756
3851.000000	100.137119
3850.000000	100.133671
3849.000000	100.130785
3848.000000	100.128968
3847.000000	100.128169
3846.000000	100.128275
3845.000000	100.129092
3844.000000	100.130379
3843.000000	100.131844
3842.000000	100.133226
3841.000000	100.134334
3840.000000	100.134966
3839.000000	100.134929
3838.000000	100.134372
3837.000000	100.133898
3836.000000	100.133901
3835.000000	100.134022
3834.000000	100.133568
3833.000000	100.132305
3832.000000	100.130742
3831.000000	100.129593
3830.000000	100.129142
3829.000000	100.129243
3828.000000	100.129746
3827.000000	100.130620
3826.000000	100.131670
3825.000000	100.132398
3824.000000	100.132378
3823.000000	100.131758
3822.000000	100.131428
3821.000000	100.132175
3820.000000	100.133711
3819.000000	100.135090
3818.000000	100.135747
3817.000000	100.135816
3816.000000	100.135699
3815.000000	100.135428
3814.000000	100.134835
3813.000000	100.134103
3812.000000	100.133597
3811.000000	100.133384
3810.000000	100.133202
3809.000000	100.132890
3808.000000	100.132769
3807.000000	100.133264
3806.000000	100.134282
3805.000000	100.135221
3804.000000	100.135575
3803.000000	100.135293
3802.000000	100.134796
3801.000000	100.134603
3800.000000	100.134767
3799.000000	100.135043
3798.000000	100.135253
3797.000000	100.135356
3796.000000	100.135355
3795.000000	100.135246
3794.000000	100.135046
3793.000000	100.134772
3792.000000	100.134388
3791.000000	100.133856
3790.000000	100.133256
3789.000000	100.132750
3788.000000	100.132411
3787.000000	100.132182
3786.000000	100.132026
3785.000000	100.132019
3784.000000	100.132200
3783.000000	100.132408
3782.000000	100.132427
3781.000000	100.132267
3780.000000	100.132157
3779.000000	100.132136
3778.000000	100.131843
3777.000000	100.130920
3776.000000	100.129526
3775.000000	100.128358
3774.000000	100.128021
3773.000000	100.128570
3772.000000	100.129548
3771.000000	100.130323
3770.000000	100.130536
3769.000000	100.130195
3768.000000	100.129543
3767.000000	100.128896
3766.000000	100.128476
3765.000000	100.128238
3764.000000	100.127822
3763.000000	100.126852
3762.000000	100.125417
3761.000000	100.124133
3760.000000	100.123618
3759.000000	100.123930
3758.000000	100.124660
3757.000000	100.125332
3756.000000	100.125682
3755.000000	100.125749
3754.000000	100.125827
3753.000000	100.126098
3752.000000	100.126139
3751.000000	100.125309
3750.000000	100.123890
3749.000000	100.122868
3748.000000	100.122391
3747.000000	100.121751
3746.000000	100.120742
3745.000000	100.120395
3744.000000	100.120781
3743.000000	100.120001
3742.000000	100.117440
3741.000000	100.114801
3740.000000	100.113758
3739.000000	100.114186
3738.000000	100.114414
3737.000000	100.112985
3736.000000	100.109787
3735.000000	100.105786
3734.000000	100.102220
3733.000000	100.099854
3732.000000	100.098524
3731.000000	100.097129
3730.000000	100.094515
3729.000000	100.090748
3728.000000	100.087321
3727.000000	100.085888
3726.000000	100.086467
3725.000000	100.087496
3724.000000	100.087881
3723.000000	100.087797
3722.000000	100.087583
3721.000000	100.086724
3720.000000	100.084409
3719.000000	100.080577
3718.000000	100.076114
3717.000000	100.072172
3716.000000	100.069540
3715.000000	100.068833
3714.000000	100.070493
3713.000000	100.073828
3712.000000	100.076412
3711.000000	100.075357
3710.000000	100.069989
3709.000000	100.062268
3708.000000	100.054420
3707.000000	100.047019
3706.000000	100.038869
3705.000000	100.028698
3704.000000	100.017542
3703.000000	100.009424
3702.000000	100.008247
3701.000000	100.012964
3700.000000	100.017376
3699.000000	100.016144
3698.000000	100.009802
3697.000000	100.003499
3696.000000	100.001621
3695.000000	100.004431
3694.000000	100.009654
3693.000000	100.014959
3692.000000	100.017957
3691.000000	100.015269
3690.000000	100.004510
3689.000000	99.988048
3688.000000	99.972144
3687.000000	99.960799
3686.000000	99.953239
3685.000000	99.946973
3684.000000	99.940101
3683.000000	99.931550
3682.000000	99.921123
3681.000000	99.910338
3680.000000	99.901455
3679.000000	99.894694
3678.000000	99.887722
3677.000000	99.878529
3676.000000	99.867732
3675.000000	99.856217
3674.000000	99.844058
3673.000000	99.831639
3672.000000	99.819206
3671.000000	99.805304
3670.000000	99.787567
3669.000000	99.765732
3668.000000	99.743946
3667.000000	99.727250
3666.000000	99.716595
3665.000000	99.708565
3664.000000	99.698280
3663.000000	99.682925
3662.000000	99.663526
3661.000000	99.643688
3660.000000	99.626193
3659.000000	99.611452
3658.000000	99.598512
3657.000000	99.586695
3656.000000	99.575008
3655.000000	99.561744
3654.000000	99.546934
3653.000000	99.533609
3652.000000	99.525479
3651.000000	99.521724
3650.000000	99.514315
3649.000000	99.495788
3648.000000	99.470343
3647.000000	99.448330
3646.000000	99.433538
3645.000000	99.422778
3644.000000	99.412278
3643.000000	99.400636
3642.000000	99.387638
3641.000000	99.373390
3640.000000	99.359312
3639.000000	99.348514
3638.000000	99.342784
3637.000000	99.339845
3636.000000	99.335377
3635.000000	99.327409
3634.000000	99.317159
3633.000000	99.305400
3632.000000	99.290342
3631.000000	99.270473
3630.000000	99.249449
3629.000000	99.234850
3628.000000	99.229468
3627.000000	99.230027
3626.000000	99.233568
3625.000000	99.239342
3624.000000	99.246829
3623.000000	99.254903
3622.000000	99.262967
3621.000000	99.271930
3620.000000	99.282899
3619.000000	99.294909
3618.000000	99.305347
3617.000000	99.312937
3616.000000	99.319241
3615.000000	99.327434
3614.000000	99.339445
3613.000000	99.353424
3612.000000	99.364975
3611.000000	99.371667
3610.000000	99.375747
3609.000000	99.382343
3608.000000	99.394775
3607.000000	99.411251
3606.000000	99.426128
3605.000000	99.433959
3604.000000	99.432808
3603.000000	99.425962
3602.000000	99.420684
3601.000000	99.423564
3600.000000	99.435643
3599.000000	99.452741
3598.000000	99.469576
3597.000000	99.482703
3596.000000	99.490468
3595.000000	99.492655
3594.000000	99.490599
3593.000000	99.486466
3592.000000	99.481877
3591.000000	99.477587
3590.000000	99.474508
3589.000000	99.474413
3588.000000	99.478311
3587.000000	99.484514
3586.000000	99.490031
3585.000000	99.493397
3584.000000	99.494748
3583.000000	99.494495
3582.000000	99.492826
3581.000000	99.490301
3580.000000	99.487894
3579.000000	99.485948
3578.000000	99.483294
3577.000000	99.478043
3576.000000	99.469923
3575.000000	99.461600
3574.000000	99.457088
3573.000000	99.458162
3572.000000	99.462554
3571.000000	99.465646
3570.000000	99.464201
3569.000000	99.458846
3568.000000	99.453178
3567.000000	99.450109
3566.000000	99.449485
3565.000000	99.449485
3564.000000	99.448902
3563.000000	99.447792
3562.000000	99.447131
3561.000000	99.448006
3560.000000	99.450471
3559.000000	99.452915
3558.000000	99.453102
3557.000000	99.450219
3556.000000	99.445527
3555.000000	99.440882
3554.000000	99.437016
3553.000000	99.433460
3552.000000	99.429682
3551.000000	99.425785
3550.000000	99.422160
3549.000000	99.419075
3548.000000	99.416777
3547.000000	99.415552
3546.000000	99.415355
3545.000000	99.415596
3544.000000	99.415592
3543.000000	99.415152
3542.000000	99.414594
3541.000000	99.414353
3540.000000	99.414777
3539.000000	99.416186
3538.000000	99.418801
3537.000000	99.422544
3536.000000	99.426823
3535.000000	99.430593
3534.000000	99.432605
3533.000000	99.431854
3532.000000	99.428276
3531.000000	99.423305
3530.000000	99.419435
3529.000000	99.418457
3528.000000	99.420234
3527.000000	99.423127
3526.000000	99.425469
3525.000000	99.426471
3524.000000	99.425993
3523.000000	99.424277
3522.000000	99.422112
3521.000000	99.420694
3520.000000	99.420839
3519.000000	99.422411
3518.000000	99.424521
3517.000000	99.426318
3516.000000	99.427598
3515.000000	99.428790
3514.000000	99.430479
3513.000000	99.432804
3512.000000	99.435180
3511.000000	99.436599
3510.000000	99.436407
3509.000000	99.434790
3508.000000	99.432518
3507.000000	99.430290
3506.000000	99.428378
3505.000000	99.426736
3504.000000	99.425153
3503.000000	99.423507
3502.000000	99.422140
3501.000000	99.421886
3500.000000	99.423389
3499.000000	99.426318
3498.000000	99.429278
3497.000000	99.430731
3496.000000	99.430233
3495.000000	99.428725
3494.000000	99.427759
3493.000000	99.428170
3492.000000	99.429520
3491.000000	99.430686
3490.000000	99.430900
3489.000000	99.430221
3488.000000	99.429123
3487.000000	99.427837
3486.000000	99.426299
3485.000000	99.424619
3484.000000	99.423241
3483.000000	99.422538
3482.000000	99.422367
3481.000000	99.422141
3480.000000	99.421374
3479.000000	99.420083
3478.000000	99.418731
3477.000000	99.417862
3476.000000	99.417686
3475.000000	99.417839
3474.000000	99.417567
3473.000000	99.416344
3472.000000	99.414339
3471.000000	99.412190
3470.000000	99.410281
3469.000000	99.408424
3468.000000	99.406389
3467.000000	99.404469
3466.000000	99.403212
3465.000000	99.402685
3464.000000	99.402257
3463.000000	99.401186
3462.000000	99.399279
3461.000000	99.396862
3460.000000	99.394360
3459.000000	99.392157
3458.000000	99.390729
3457.000000	99.390432
3456.000000	99.390931
3455.000000	99.391103
3454.000000	99.389912
3453.000000	99.387380
3452.000000	99.384517
3451.000000	99.382278
3450.000000	99.380793
3449.000000	99.379552
3448.000000	99.377981
3447.000000	99.375713
3446.000000	99.372620
3445.000000	99.369007
3444.000000	99.365797
3443.000000	99.364068
3442.000000	99.363993
3441.000000	99.364280
3440.000000	99.363113
3439.000000	99.359774
3438.000000	99.355081
3437.000000	99.350300
3436.000000	99.345843
3435.000000	99.341420
3434.000000	99.337154
3433.000000	99.333915
3432.000000	99.332417
3431.000000	99.332513
3430.000000	99.333537
3429.000000	99.334878
3428.000000	99.335849
3427.000000	99.335400
3426.000000	99.332687
3425.000000	99.328023
3424.000000	99.322974
3423.000000	99.319236
3422.000000	99.317457
3421.000000	99.317216
3420.000000	99.317867
3419.000000	99.319141
3418.000000	99.320926
3417.000000	99.322659
3416.000000	99.323318
3415.000000	99.322247
3414.000000	99.319934
3413.000000	99.317645
3412.000000	99.316127
3411.000000	99.315037
3410.000000	99.313825
3409.000000	99.312731
3408.000000	99.312475
3407.000000	99.313187
3406.000000	99.314183
3405.000000	99.314788
3404.000000	99.314899
3403.000000	99.314671
3402.000000	99.314106
3401.000000	99.313188
3400.000000	99.312208
3399.000000	99.311686
3398.000000	99.311959
3397.000000	99.312886
3396.000000	99.313861
3395.000000	99.314278
3394.000000	99.314148
3393.000000	99.314177
3392.000000	99.315015
3391.000000	99.316435
3390.000000	99.317494
3389.000000	99.317536
3388.000000	99.316784
3387.000000	99.315921
3386.000000	99.315367
3385.000000	99.315154
3384.000000	99.315377
3383.000000	99.316307
3382.000000	99.317974
3381.000000	99.320004
3380.000000	99.321968
3379.000000	99.323688
3378.000000	99.325193
3377.000000	99.326540
3376.000000	99.327806
3375.000000	99.329120
3374.000000	99.330538
3373.000000	99.331893
3372.000000	99.332903
3371.000000	99.333474
3370.000000	99.333849
3369.000000	99.334487
3368.000000	99.335691
3367.000000	99.337403
3366.000000	99.339304
3365.000000	99.341025
3364.000000	99.342414
3363.000000	99.343538
3362.000000	99.344554
3361.000000	99.345595
3360.000000	99.346725
3359.000000	99.347971
3358.000000	99.349342
3357.000000	99.350812
3356.000000	99.352297
3355.000000	99.353681
3354.000000	99.354896
3353.000000	99.355976
3352.000000	99.357051
3351.000000	99.358261
3350.000000	99.359654
3349.000000	99.361158
3348.000000	99.362642
3347.000000	99.364026
3346.000000	99.365311
3345.000000	99.366491
3344.000000	99.367520
3343.000000	99.368390
3342.000000	99.369232
3341.000000	99.370255
3340.000000	99.371574
3339.000000	99.373123
3338.000000	99.374686
3337.000000	99.376076
3336.000000	99.377287
3335.000000	99.378495
3334.000000	99.379920
3333.000000	99.381599
3332.000000	99.383288
3331.000000	99.384640
3330.000000	99.385522
3329.000000	99.386159
3328.000000	99.386940
3327.000000	99.388048
3326.000000	99.389352
3325.000000	99.390596
3324.000000	99.391635
3323.000000	99.392508
3322.000000	99.393337
3321.000000	99.394200
3320.000000	99.395055
3319.000000	99.395837
3318.000000	99.396668
3317.000000	99.397901
3316.000000	99.399826
3315.000000	99.402314
3314.000000	99.404869
3313.000000	99.407113
3312.000000	99.409142
3311.000000	99.411281
3310.000000	99.413535
3309.000000	99.415405
3308.000000	99.416317
3307.000000	99.416170
3306.000000	99.415432
3305.000000	99.414873
3304.000000	99.415158
3303.000000	99.416498
3302.000000	99.418580
3301.000000	99.420747
3300.000000	99.422494
3299.000000	99.423828
3298.000000	99.425106
3297.000000	99.426609
3296.000000	99.428281
3295.000000	99.429829
3294.000000	99.431016
3293.000000	99.431889
3292.000000	99.432773
3291.000000	99.434034
3290.000000	99.435760
3289.000000	99.437713
3288.000000	99.439525
3287.000000	99.440981
3286.000000	99.442116
3285.000000	99.443099
3284.000000	99.444099
3283.000000	99.445199
3282.000000	99.446418
3281.000000	99.447767
3280.000000	99.449266
3279.000000	99.450919
3278.000000	99.452683
3277.000000	99.454443
3276.000000	99.456048
3275.000000	99.457395
3274.000000	99.458495
3273.000000	99.459500
3272.000000	99.460637
3271.000000	99.462072
3270.000000	99.463775
3269.000000	99.465491
3268.000000	99.466910
3267.000000	99.467973
3266.000000	99.468991
3265.000000	99.470376
3264.000000	99.472177
3263.000000	99.473955
3262.000000	99.475242
3261.000000	99.476087
3260.000000	99.477058
3259.000000	99.478659
3258.000000	99.480888
3257.000000	99.483375
3256.000000	99.485822
3255.000000	99.488137
3254.000000	99.490160
3253.000000	99.491564
3252.000000	99.492227
3251.000000	99.492623
3250.000000	99.493670
3249.000000	99.496091
3248.000000	99.499928
3247.000000	99.504413
3246.000000	99.508222
3245.000000	99.510182
3244.000000	99.510037
3243.000000	99.508713
3242.000000	99.507493
3241.000000	99.506783
3240.000000	99.506126
3239.000000	99.505381
3238.000000	99.505335
3237.000000	99.506778
3236.000000	99.509374
3235.000000	99.512017
3234.000000	99.514256
3233.000000	99.516727
3232.000000	99.520000
3231.000000	99.523527
3230.000000	99.526104
3229.000000	99.527256
3228.000000	99.527823
3227.000000	99.529157
3226.000000	99.531852
3225.000000	99.535369
3224.000000	99.538737
3223.000000	99.541491
3222.000000	99.543817
3221.000000	99.545940
3220.000000	99.547686
3219.000000	99.548786
3218.000000	99.549410
3217.000000	99.550199
3216.000000	99.551799
3215.000000	99.554428
3214.000000	99.557809
3213.000000	99.561331
3212.000000	99.564340
3211.000000	99.566476
3210.000000	99.567831
3209.000000	99.568801
3208.000000	99.569774
3207.000000	99.570963
3206.000000	99.572428
3205.000000	99.574074
3204.000000	99.575687
3203.000000	99.577176
3202.000000	99.578812
3201.000000	99.581012
3200.000000	99.583828
3199.000000	99.586779
3198.000000	99.589274
3197.000000	99.591199
3196.000000	99.592918
3195.000000	99.594808
3194.000000	99.596881
3193.000000	99.598849
3192.000000	99.600436
3191.000000	99.601593
3190.000000	99.602557
3189.000000	99.603791
3188.000000	99.605716
3187.000000	99.608405
3186.000000	99.611390
3185.000000	99.613954
3184.000000	99.615756
3183.000000	99.617091
3182.000000	99.618630
3181.000000	99.620817
3180.000000	99.623548
3179.000000	99.626354
3178.000000	99.628840
3177.000000	99.630906
3176.000000	99.632515
3175.000000	99.633463
3174.000000	99.633638
3173.000000	99.633471
3172.000000	99.633827
3171.000000	99.635181
3170.000000	99.637160
3169.000000	99.639059
3168.000000	99.640640
3167.000000	99.642151
3166.000000	99.643689
3165.000000	99.645002
3164.000000	99.645933
3163.000000	99.646695
3162.000000	99.647552
3161.000000	99.648553
3160.000000	99.649674
3159.000000	99.650921
3158.000000	99.652116
3157.000000	99.652952
3156.000000	99.653525
3155.000000	99.654538
3154.000000	99.656618
3153.000000	99.659665
3152.000000	99.663064
3151.000000	99.666285
3150.000000	99.669114
3149.000000	99.671506
3148.000000	99.673569
3147.000000	99.675494
3146.000000	99.677165
3145.000000	99.678088
3144.000000	99.678011
3143.000000	99.677437
3142.000000	99.677248
3141.000000	99.677916
3140.000000	99.679348
3139.000000	99.681306
3138.000000	99.683531
3137.000000	99.685553
3136.000000	99.686874
3135.000000	99.687482
3134.000000	99.687975
3133.000000	99.689046
3132.000000	99.690843
3131.000000	99.692882
3130.000000	99.694527
3129.000000	99.695626
3128.000000	99.696650
3127.000000	99.698181
3126.000000	99.700338
3125.000000	99.702757
3124.000000	99.705043
3123.000000	99.707141
3122.000000	99.709157
3121.000000	99.711000
3120.000000	99.712417
3119.000000	99.713369
3118.000000	99.714187
3117.000000	99.715283
3116.000000	99.716807
3115.000000	99.718611
3114.000000	99.720471
3113.000000	99.722275
3112.000000	99.724018
3111.000000	99.725652
3110.000000	99.727015
3109.000000	99.728007
3108.000000	99.728856
3107.000000	99.730028
3106.000000	99.731791
3105.000000	99.733990
3104.000000	99.736317
3103.000000	99.738628
3102.000000	99.740783
3101.000000	99.742439
3100.000000	99.743405
3099.000000	99.744183
3098.000000	99.745740
3097.000000	99.748536
3096.000000	99.752047
3095.000000	99.755216
3094.000000	99.757411
3093.000000	99.758830
3092.000000	99.760131
3091.000000	99.761751
3090.000000	99.763473
3089.000000	99.764732
3088.000000	99.765351
3087.000000	99.765865
3086.000000	99.766972
3085.000000	99.768709
3084.000000	99.770429
3083.000000	99.771557
3082.000000	99.772110
3081.000000	99.772482
3080.000000	99.772981
3079.000000	99.773726
3078.000000	99.774806
3077.000000	99.776276
3076.000000	99.778006
3075.000000	99.779698
3074.000000	99.781094
3073.000000	99.782154
3072.000000	99.783008
3071.000000	99.783824
3070.000000	99.784689
3069.000000	99.785583
3068.000000	99.786434
3067.000000	99.787224
3066.000000	99.788038
3065.000000	99.789014
3064.000000	99.790266
3063.000000	99.791847
3062.000000	99.793692
3061.000000	99.795556
3060.000000	99.797083
3059.000000	99.798065
3058.000000	99.798613
3057.000000	99.799161
3056.000000	99.800154
3055.000000	99.801708
3054.000000	99.803558
3053.000000	99.805240
3052.000000	99.806489
3051.000000	99.807399
3050.000000	99.808272
3049.000000	99.809274
3048.000000	99.810307
3047.000000	99.811247
3046.000000	99.812203
3045.000000	99.813374
3044.000000	99.814701
3043.000000	99.815895
3042.000000	99.816869
3041.000000	99.817932
3040.000000	99.819407
3039.000000	99.821243
3038.000000	99.823168
3037.000000	99.825047
3036.000000	99.826883
3035.000000	99.828590
3034.000000	99.830065
3033.000000	99.831514
3032.000000	99.833404
3031.000000	99.835950
3030.000000	99.838798
3029.000000	99.841378
3028.000000	99.843548
3027.000000	99.845676
3026.000000	99.848047
3025.000000	99.850340
3024.000000	99.851931
3023.000000	99.852628
3022.000000	99.852893
3021.000000	99.853341
3020.000000	99.854230
3019.000000	99.855547
3018.000000	99.857382
3017.000000	99.859938
3016.000000	99.863135
3015.000000	99.866387
3014.000000	99.868885
3013.000000	99.870142
3012.000000	99.870422
3011.000000	99.870592
3010.000000	99.871399
3009.000000	99.872930
3008.000000	99.874893
3007.000000	99.877317
3006.000000	99.880566
3005.000000	99.884512
3004.000000	99.888053
3003.000000	99.889907
3002.000000	99.889806
3001.000000	99.888731
3000.000000	99.888096
2999.000000	99.888714
2998.000000	99.890434
2997.000000	99.892496
2996.000000	99.894307
2995.000000	99.896111
2994.000000	99.898771
2993.000000	99.902734
2992.000000	99.907347
2991.000000	99.911441
2990.000000	99.914465
2989.000000	99.916769
2988.000000	99.918966
2987.000000	99.921348
2986.000000	99.923761
2985.000000	99.925611
2984.000000	99.926075
2983.000000	99.924861
2982.000000	99.922858
2981.000000	99.921482
2980.000000	99.921098
2979.000000	99.920704
2978.000000	99.919403
2977.000000	99.917609
2976.000000	99.916412
2975.000000	99.916280
2974.000000	99.917049
2973.000000	99.918812
2972.000000	99.921916
2971.000000	99.925984
2970.000000	99.929797
2969.000000	99.932588
2968.000000	99.934849
2967.000000	99.937307
2966.000000	99.939541
2965.000000	99.940335
2964.000000	99.939299
2963.000000	99.937502
2962.000000	99.936486
2961.000000	99.936953
2960.000000	99.938628
2959.000000	99.940849
2958.000000	99.943012
2957.000000	99.944737
2956.000000	99.945987
2955.000000	99.947026
2954.000000	99.948062
2953.000000	99.948979
2952.000000	99.949485
2951.000000	99.949422
2950.000000	99.948879
2949.000000	99.948225
2948.000000	99.948104
2947.000000	99.949056
2946.000000	99.950936
2945.000000	99.952919
2944.000000	99.954412
2943.000000	99.955735
2942.000000	99.957493
2941.000000	99.959467
2940.000000	99.960705
2939.000000	99.960764
2938.000000	99.960380
2937.000000	99.960665
2936.000000	99.961982
2935.000000	99.963883
2934.000000	99.965739
2933.000000	99.967085
2932.000000	99.967694
2931.000000	99.967782
2930.000000	99.967928
2929.000000	99.968400
2928.000000	99.968851
2927.000000	99.969167
2926.000000	99.970210
2925.000000	99.972968
2924.000000	99.977176
2923.000000	99.981396
2922.000000	99.984452
2921.000000	99.986038
2920.000000	99.986070
2919.000000	99.984443
2918.000000	99.981631
2917.000000	99.978721
2916.000000	99.976517
2915.000000	99.975201
2914.000000	99.974873
2913.000000	99.975660
2912.000000	99.977212
2911.000000	99.978846
2910.000000	99.980447
2909.000000	99.982523
2908.000000	99.985076
2907.000000	99.987164
2906.000000	99.988051
2905.000000	99.988185
2904.000000	99.988549
2903.000000	99.989402
2902.000000	99.990071
2901.000000	99.989802
2900.000000	99.988335
2899.000000	99.986048
2898.000000	99.983928
2897.000000	99.982933
2896.000000	99.983073
2895.000000	99.983476
2894.000000	99.983695
2893.000000	99.984374
2892.000000	99.986112
2891.000000	99.988385
2890.000000	99.990147
2889.000000	99.991094
2888.000000	99.991708
2887.000000	99.992316
2886.000000	99.992802
2885.000000	99.993091
2884.000000	99.993367
2883.000000	99.993798
2882.000000	99.994428
2881.000000	99.995304
2880.000000	99.996405
2879.000000	99.997518
2878.000000	99.998389
2877.000000	99.998973
2876.000000	99.999388
2875.000000	99.999698
2874.000000	99.999912
2873.000000	100.000133
2872.000000	100.000545
2871.000000	100.001198
2870.000000	100.001973
2869.000000	100.002716
2868.000000	100.003359
2867.000000	100.003895
2866.000000	100.004322
2865.000000	100.004665
2864.000000	100.004997
2863.000000	100.005394
2862.000000	100.005863
2861.000000	100.006367
2860.000000	100.006855
2859.000000	100.007301
2858.000000	100.007709
2857.000000	100.008103
2856.000000	100.008494
2855.000000	100.008868
2854.000000	100.009209
2853.000000	100.009518
2852.000000	100.009806
2851.000000	100.010083
2850.000000	100.010351
2849.000000	100.010608
2848.000000	100.010841
2847.000000	100.011032
2846.000000	100.011160
2845.000000	100.011250
2844.000000	100.011355
2843.000000	100.011523
2842.000000	100.011767
2841.000000	100.012070
2840.000000	100.012403
2839.000000	100.012735
2838.000000	100.013036
2837.000000	100.013275
2836.000000	100.013455
2835.000000	100.013633
2834.000000	100.013888
2833.000000	100.014187
2832.000000	100.014327
2831.000000	100.014081
2830.000000	100.013458
2829.000000	100.012810
2828.000000	100.012577
2827.000000	100.012932
2826.000000	100.013695
2825.000000	100.014535
2824.000000	100.015205
2823.000000	100.015633
2822.000000	100.015912
2821.000000	100.016253
2820.000000	100.016858
2819.000000	100.017722
2818.000000	100.018596
2817.000000	100.019212
2816.000000	100.019490
2815.000000	100.019490
2814.000000	100.019248
2813.000000	100.018778
2812.000000	100.018232
2811.000000	100.017906
2810.000000	100.017988
2809.000000	100.018352
2808.000000	100.018667
2807.000000	100.018723
2806.000000	100.018710
2805.000000	100.019203
2804.000000	100.020737
2803.000000	100.023325
2802.000000	100.026326
2801.000000	100.028769
2800.000000	100.030031
2799.000000	100.030113
2798.000000	100.029463
2797.000000	100.028690
2796.000000	100.028300
2795.000000	100.028551
2794.000000	100.029367
2793.000000	100.030429
2792.000000	100.031459
2791.000000	100.032416
2790.000000	100.033360
2789.000000	100.034230
2788.000000	100.034914
2787.000000	100.035509
2786.000000	100.036299
2785.000000	100.037399
2784.000000	100.038550
2783.000000	100.039374
2782.000000	100.039811
2781.000000	100.040159
2780.000000	100.040686
2779.000000	100.041312
2778.000000	100.041818
2777.000000	100.042278
2776.000000	100.043100
2775.000000	100.044534
2774.000000	100.046323
2773.000000	100.047892
2772.000000	100.048927
2771.000000	100.049583
2770.000000	100.050158
2769.000000	100.050731
2768.000000	100.051242
2767.000000	100.051756
2766.000000	100.052420
2765.000000	100.053217
2764.000000	100.053974
2763.000000	100.054624
2762.000000	100.055285
2761.000000	100.056007
2760.000000	100.056612
2759.000000	100.056896
2758.000000	100.056946
2757.000000	100.057126
2756.000000	100.057725
2755.000000	100.058747
2754.000000	100.059973
2753.000000	100.061116
2752.000000	100.061995
2751.000000	100.062643
2750.000000	100.063257
2749.000000	100.063974
2748.000000	100.064679
2747.000000	100.065141
2746.000000	100.065327
2745.000000	100.065489
2744.000000	100.065895
2743.000000	100.066526
2742.000000	100.067065
2741.000000	100.067178
2740.000000	100.066831
2739.000000	100.066399
2738.000000	100.066403
2737.000000	100.067067
2736.000000	100.068175
2735.000000	100.069298
2734.000000	100.070235
2733.000000	100.071084
2732.000000	100.071933
2731.000000	100.072718
2730.000000	100.073383
2729.000000	100.074010
2728.000000	100.074670
2727.000000	100.075246
2726.000000	100.075553
2725.000000	100.075597
2724.000000	100.075659
2723.000000	100.076091
2722.000000	100.077038
2721.000000	100.078303
2720.000000	100.079426
2719.000000	100.080049
2718.000000	100.080245
2717.000000	100.080411
2716.000000	100.080742
2715.000000	100.080964
2714.000000	100.080806
2713.000000	100.080554
2712.000000	100.080762
2711.000000	100.081521
2710.000000	100.082369
2709.000000	100.082901
2708.000000	100.083183
2707.000000	100.083468
2706.000000	100.083881
2705.000000	100.084526
2704.000000	100.085563
2703.000000	100.086890
2702.000000	100.087970
2701.000000	100.088327
2700.000000	100.088159
2699.000000	100.088193
2698.000000	100.088897
2697.000000	100.090073
2696.000000	100.091134
2695.000000	100.091594
2694.000000	100.091276
2693.000000	100.090357
2692.000000	100.089282
2691.000000	100.088495
2690.000000	100.088147
2689.000000	100.088128
2688.000000	100.088324
2687.000000	100.088730
2686.000000	100.089272
2685.000000	100.089663
2684.000000	100.089563
2683.000000	100.088875
2682.000000	100.087881
2681.000000	100.087063
2680.000000	100.086740
2679.000000	100.086842
2678.000000	100.087031
2677.000000	100.087101
2676.000000	100.087202
2675.000000	100.087637
2674.000000	100.088493
2673.000000	100.089522
2672.000000	100.090299
2671.000000	100.090545
2670.000000	100.090297
2669.000000	100.089865
2668.000000	100.089632
2667.000000	100.089752
2666.000000	100.090054
2665.000000	100.090224
2664.000000	100.090118
2663.000000	100.089828
2662.000000	100.089470
2661.000000	100.089044
2660.000000	100.088577
2659.000000	100.088284
2658.000000	100.088418
2657.000000	100.088996
2656.000000	100.089712
2655.000000	100.090149
2654.000000	100.090099
2653.000000	100.089656
2652.000000	100.089139
2651.000000	100.088913
2650.000000	100.089178
2649.000000	100.089840
2648.000000	100.090495
2647.000000	100.090657
2646.000000	100.090123
2645.000000	100.089201
2644.000000	100.088522
2643.000000	100.088488
2642.000000	100.088958
2641.000000	100.089464
2640.000000	100.089713
2639.000000	100.089761
2638.000000	100.089771
2637.000000	100.089824
2636.000000	100.089974
2635.000000	100.090243
2634.000000	100.090463
2633.000000	100.090294
2632.000000	100.089475
2631.000000	100.087930
2630.000000	100.085672
2629.000000	100.082916
2628.000000	100.080397
2627.000000	100.079099
2626.000000	100.079486
2625.000000	100.081171
2624.000000	100.083289
2623.000000	100.085157
2622.000000	100.086463
2621.000000	100.087155
2620.000000	100.087511
2619.000000	100.088035
2618.000000	100.088889
2617.000000	100.089568
2616.000000	100.089460
2615.000000	100.088682
2614.000000	100.088085
2613.000000	100.088358
2612.000000	100.089350
2611.000000	100.090332
2610.000000	100.090763
2609.000000	100.090678
2608.000000	100.090383
2607.000000	100.090025
2606.000000	100.089560
2605.000000	100.089088
2604.000000	100.088974
2603.000000	100.089490
2602.000000	100.090447
2601.000000	100.091355
2600.000000	100.091911
2599.000000	100.092184
2598.000000	100.092311
2597.000000	100.092289
2596.000000	100.092150
2595.000000	100.092097
2594.000000	100.092296
2593.000000	100.092624
2592.000000	100.092772
2591.000000	100.092575
2590.000000	100.092118
2589.000000	100.091615
2588.000000	100.091286
2587.000000	100.091282
2586.000000	100.091612
2585.000000	100.092131
2584.000000	100.092637
2583.000000	100.092982
2582.000000	100.093134
2581.000000	100.093133
2580.000000	100.093047
2579.000000	100.092948
2578.000000	100.092891
2577.000000	100.092893
2576.000000	100.092948
2575.000000	100.093024
2574.000000	100.093092
2573.000000	100.093155
2572.000000	100.093238
2571.000000	100.093347
2570.000000	100.093449
2569.000000	100.093515
2568.000000	100.093548
2567.000000	100.093570
2566.000000	100.093597
2565.000000	100.093631
2564.000000	100.093669
2563.000000	100.093716
2562.000000	100.093771
2561.000000	100.093834
2560.000000	100.093901
2559.000000	100.093976
2558.000000	100.094059
2557.000000	100.094154
2556.000000	100.094256
2555.000000	100.094364
2554.000000	100.094478
2553.000000	100.094606
2552.000000	100.094754
2551.000000	100.094918
2550.000000	100.095090
2549.000000	100.095260
2548.000000	100.095420
2547.000000	100.095567
2546.000000	100.095693
2545.000000	100.095802
2544.000000	100.095901
2543.000000	100.095994
2542.000000	100.096070
2541.000000	100.096132
2540.000000	100.096212
2539.000000	100.096342
2538.000000	100.096485
2537.000000	100.096550
2536.000000	100.096488
2535.000000	100.096369
2534.000000	100.096340
2533.000000	100.096515
2532.000000	100.096896
2531.000000	100.097332
2530.000000	100.097552
2529.000000	100.097350
2528.000000	100.096792
2527.000000	100.096184
2526.000000	100.095796
2525.000000	100.095761
2524.000000	100.096265
2523.000000	100.097538
2522.000000	100.099358
2521.000000	100.100801
2520.000000	100.100999
2519.000000	100.100071
2518.000000	100.099110
2517.000000	100.099100
2516.000000	100.100060
2515.000000	100.101373
2514.000000	100.102598
2513.000000	100.103744
2512.000000	100.104871
2511.000000	100.105663
2510.000000	100.105455
2509.000000	100.103732
2508.000000	100.100743
2507.000000	100.097646
2506.000000	100.095733
2505.000000	100.095425
2504.000000	100.096161
2503.000000	100.097131
2502.000000	100.097966
2501.000000	100.098632
2500.000000	100.099021
2499.000000	100.098978
2498.000000	100.098629
2497.000000	100.098420
2496.000000	100.098772
2495.000000	100.099666
2494.000000	100.100579
2493.000000	100.100979
2492.000000	100.101017
2491.000000	100.101495
2490.000000	100.102911
2489.000000	100.104773
2488.000000	100.106188
2487.000000	100.106976
2486.000000	100.107698
2485.000000	100.108655
2484.000000	100.109453
2483.000000	100.109662
2482.000000	100.109394
2481.000000	100.109001
2480.000000	100.108724
2479.000000	100.108899
2478.000000	100.110045
2477.000000	100.112222
2476.000000	100.114511
2475.000000	100.115659
2474.000000	100.115243
2473.000000	100.114016
2472.000000	100.113173
2471.000000	100.113332
2470.000000	100.114182
2469.000000	100.114877
2468.000000	100.114805
2467.000000	100.114103
2466.000000	100.113408
2465.000000	100.113114
2464.000000	100.113080
2463.000000	100.113182
2462.000000	100.113733
2461.000000	100.115094
2460.000000	100.117131
2459.000000	100.119264
2458.000000	100.120947
2457.000000	100.121958
2456.000000	100.122367
2455.000000	100.122455
2454.000000	100.122548
2453.000000	100.122700
2452.000000	100.122660
2451.000000	100.122302
2450.000000	100.121936
2449.000000	100.121976
2448.000000	100.122414
2447.000000	100.122890
2446.000000	100.123234
2445.000000	100.123701
2444.000000	100.124658
2443.000000	100.126233
2442.000000	100.128189
2441.000000	100.129955
2440.000000	100.130911
2439.000000	100.130907
2438.000000	100.130422
2437.000000	100.130033
2436.000000	100.129752
2435.000000	100.129211
2434.000000	100.128413
2433.000000	100.127946
2432.000000	100.128371
2431.000000	100.129667
2430.000000	100.131351
2429.000000	100.132911
2428.000000	100.134002
2427.000000	100.134447
2426.000000	100.134295
2425.000000	100.133840
2424.000000	100.133442
2423.000000	100.133350
2422.000000	100.133754
2421.000000	100.134774
2420.000000	100.136179
2419.000000	100.137322
2418.000000	100.137710
2417.000000	100.137614
2416.000000	100.137783
2415.000000	100.138444
2414.000000	100.138873
2413.000000	100.138245
2412.000000	100.136676
2411.000000	100.135131
2410.000000	100.134323
2409.000000	100.134084
2408.000000	100.133993
2407.000000	100.134184
2406.000000	100.134940
2405.000000	100.135705
2404.000000	100.135327
2403.000000	100.133632
2402.000000	100.131995
2401.000000	100.131848
2400.000000	100.133093
2399.000000	100.134541
2398.000000	100.135544
2397.000000	100.136436
2396.000000	100.137531
2395.000000	100.138510
2394.000000	100.138922
2393.000000	100.138664
2392.000000	100.137832
2391.000000	100.136572
2390.000000	100.135174
2389.000000	100.133870
2388.000000	100.132401
2387.000000	100.130251
2386.000000	100.127497
2385.000000	100.124929
2384.000000	100.123196
2383.000000	100.122224
2382.000000	100.121689
2381.000000	100.121571
2380.000000	100.121911
2379.000000	100.122380
2378.000000	100.122486
2377.000000	100.122071
2376.000000	100.121312
2375.000000	100.120419
2374.000000	100.119598
2373.000000	100.119056
2372.000000	100.118737
2371.000000	100.118226
2370.000000	100.117228
2369.000000	100.116015
2368.000000	100.115099
2367.000000	100.114652
2366.000000	100.114532
2365.000000	100.114661
2364.000000	100.114985
2363.000000	100.115169
2362.000000	100.114774
2361.000000	100.113744
2360.000000	100.112447
2359.000000	100.111371
2358.000000	100.110730
2357.000000	100.110437
2356.000000	100.110283
2355.000000	100.110135
2354.000000	100.110135
2353.000000	100.110393
2352.000000	100.110738
2351.000000	100.110869
2350.000000	100.110610
2349.000000	100.110039
2348.000000	100.109385
2347.000000	100.108937
2346.000000	100.108781
2345.000000	100.108696
2344.000000	100.108489
2343.000000	100.108265
2342.000000	100.108328
2341.000000	100.108754
2340.000000	100.109346
2339.000000	100.109831
2338.000000	100.110084
2337.000000	100.110140
2336.000000	100.110045
2335.000000	100.109782
2334.000000	100.109375
2333.000000	100.108960
2332.000000	100.108788
2331.000000	100.109154
2330.000000	100.110141
2329.000000	100.111465
2328.000000	100.112468
2327.000000	100.112797
2326.000000	100.112715
2325.000000	100.112858
2324.000000	100.113545
2323.000000	100.114376
2322.000000	100.114803
2321.000000	100.114659
2320.000000	100.114200
2319.000000	100.113695
2318.000000	100.113279
2317.000000	100.113103
2316.000000	100.113271
2315.000000	100.113646
2314.000000	100.113817
2313.000000	100.113544
2312.000000	100.113010
2311.000000	100.112671
2310.000000	100.112799
2309.000000	100.113347
2308.000000	100.114125
2307.000000	100.114917
2306.000000	100.115499
2305.000000	100.115744
2304.000000	100.115785
2303.000000	100.115894
2302.000000	100.116163
2301.000000	100.116421
2300.000000	100.116506
2299.000000	100.116478
2298.000000	100.116490
2297.000000	100.116625
2296.000000	100.116890
2295.000000	100.117277
2294.000000	100.117682
2293.000000	100.117929
2292.000000	100.117970
2291.000000	100.117938
2290.000000	100.117919
2289.000000	100.117785
2288.000000	100.117429
2287.000000	100.117022
2286.000000	100.116848
2285.000000	100.116947
2284.000000	100.117127
2283.000000	100.117216
2282.000000	100.117157
2281.000000	100.116935
2280.000000	100.116599
2279.000000	100.116246
2278.000000	100.115961
2277.000000	100.115750
2276.000000	100.115575
2275.000000	100.115398
2274.000000	100.115192
2273.000000	100.114949
2272.000000	100.114682
2271.000000	100.114412
2270.000000	100.114150
2269.000000	100.113888
2268.000000	100.113612
2267.000000	100.113315
2266.000000	100.112996
2265.000000	100.112660
2264.000000	100.112312
2263.000000	100.111957
2262.000000	100.111601
2261.000000	100.111246
2260.000000	100.110892
2259.000000	100.110538
2258.000000	100.110185
2257.000000	100.109836
2256.000000	100.109499
2255.000000	100.109180
2254.000000	100.108876
2253.000000	100.108572
2252.000000	100.108245
2251.000000	100.107883
2250.000000	100.107489
2249.000000	100.107089
2248.000000	100.106718
2247.000000	100.106402
2246.000000	100.106127
2245.000000	100.105827
2244.000000	100.105437
2243.000000	100.104947
2242.000000	100.104436
2241.000000	100.103997
2240.000000	100.103662
2239.000000	100.103385
2238.000000	100.103094
2237.000000	100.102737
2236.000000	100.102312
2235.000000	100.101892
2234.000000	100.101619
2233.000000	100.101589
2232.000000	100.101758
2231.000000	100.101979
2230.000000	100.102113
2229.000000	100.102095
2228.000000	100.101902
2227.000000	100.101543
2226.000000	100.101093
2225.000000	100.100720
2224.000000	100.100618
2223.000000	100.100875
2222.000000	100.101397
2221.000000	100.101958
2220.000000	100.102377
2219.000000	100.102629
2218.000000	100.102800
2217.000000	100.102948
2216.000000	100.103046
2215.000000	100.103024
2214.000000	100.102822
2213.000000	100.102418
2212.000000	100.101934
2211.000000	100.101653
2210.000000	100.101788
2209.000000	100.102235
2208.000000	100.102619
2207.000000	100.102720
2206.000000	100.102707
2205.000000	100.102857
2204.000000	100.103150
2203.000000	100.103305
2202.000000	100.103176
2201.000000	100.102908
2200.000000	100.102751
2199.000000	100.102871
2198.000000	100.103336
2197.000000	100.104051
2196.000000	100.104703
2195.000000	100.104953
2194.000000	100.104781
2193.000000	100.104550
2192.000000	100.104617
2191.000000	100.104959
2190.000000	100.105312
2189.000000	100.105555
2188.000000	100.105814
2187.000000	100.106233
2186.000000	100.106801
2185.000000	100.107427
2184.000000	100.108013
2183.000000	100.108406
2182.000000	100.108436
2181.000000	100.108058
2180.000000	100.107419
2179.000000	100.106753
2178.000000	100.106265
2177.000000	100.106051
2176.000000	100.106053
2175.000000	100.106161
2174.000000	100.106426
2173.000000	100.107055
2172.000000	100.108039
2171.000000	100.108856
2170.000000	100.108732
2169.000000	100.107286
2168.000000	100.104951
2167.000000	100.102839
2166.000000	100.101963
2165.000000	100.102579
2164.000000	100.104077
2163.000000	100.105474
2162.000000	100.106183
2161.000000	100.106197
2160.000000	100.105688
2159.000000	100.104774
2158.000000	100.103752
2157.000000	100.103187
2156.000000	100.103504
2155.000000	100.104598
2154.000000	100.106069
2153.000000	100.107670
2152.000000	100.109337
2151.000000	100.111006
2150.000000	100.112612
2149.000000	100.114069
2148.000000	100.115115
2147.000000	100.115426
2146.000000	100.115095
2145.000000	100.114718
2144.000000	100.114717
2143.000000	100.114828
2142.000000	100.114610
2141.000000	100.114191
2140.000000	100.114108
2139.000000	100.114567
2138.000000	100.115240
2137.000000	100.115671
2136.000000	100.115504
2135.000000	100.114469
2134.000000	100.112623
2133.000000	100.110576
2132.000000	100.109077
2131.000000	100.108379
2130.000000	100.108288
2129.000000	100.108742
2128.000000	100.109912
2127.000000	100.111767
2126.000000	100.113921
2125.000000	100.115942
2124.000000	100.117481
2123.000000	100.118188
2122.000000	100.118041
2121.000000	100.117785
2120.000000	100.118519
2119.000000	100.120568
2118.000000	100.123005
2117.000000	100.124471
2116.000000	100.124429
2115.000000	100.123467
2114.000000	100.122660
2113.000000	100.122625
2112.000000	100.123111
2111.000000	100.123410
2110.000000	100.123109
2109.000000	100.122415
2108.000000	100.121762
2107.000000	100.121324
2106.000000	100.121086
2105.000000	100.121196
2104.000000	100.121882
2103.000000	100.123042
2102.000000	100.124262
2101.000000	100.125290
2100.000000	100.126260
2099.000000	100.127382
2098.000000	100.128627
2097.000000	100.129759
2096.000000	100.130496
2095.000000	100.130635
2094.000000	100.130262
2093.000000	100.129885
2092.000000	100.130122
2091.000000	100.131082
2090.000000	100.132199
2089.000000	100.132812
2088.000000	100.132797
2087.000000	100.132447
2086.000000	100.131934
2085.000000	100.131235
2084.000000	100.130558
2083.000000	100.130446
2082.000000	100.131256
2081.000000	100.132744
2080.000000	100.134232
2079.000000	100.135177
2078.000000	100.135439
2077.000000	100.135135
2076.000000	100.134474
2075.000000	100.133707
2074.000000	100.133142
2073.000000	100.133084
2072.000000	100.133609
2071.000000	100.134340
2070.000000	100.134654
2069.000000	100.134348
2068.000000	100.134003
2067.000000	100.134361
2066.000000	100.135358
2065.000000	100.136111
2064.000000	100.136004
2063.000000	100.135386
2062.000000	100.135003
2061.000000	100.135153
2060.000000	100.135741
2059.000000	100.136801
2058.000000	100.138334
2057.000000	100.139710
2056.000000	100.139898
2055.000000	100.138590
2054.000000	100.136754
2053.000000	100.135830
2052.000000	100.136365
2051.000000	100.137644
2050.000000	100.138458
2049.000000	100.138024
2048.000000	100.136342
2047.000000	100.134015
2046.000000	100.131827
2045.000000	100.130303
2044.000000	100.129461
2043.000000	100.128946
2042.000000	100.128376
2041.000000	100.127628
2040.000000	100.126846
2039.000000	100.126144
2038.000000	100.125267
2037.000000	100.123641
2036.000000	100.120952
2035.000000	100.117756
2034.000000	100.115280
2033.000000	100.114370
2032.000000	100.114694
2031.000000	100.115080
2030.000000	100.114692
2029.000000	100.113705
2028.000000	100.112777
2027.000000	100.112169
2026.000000	100.111631
2025.000000	100.110953
2024.000000	100.110298
2023.000000	100.109962
2022.000000	100.109953
2021.000000	100.109849
2020.000000	100.109050
2019.000000	100.107247
2018.000000	100.104763
2017.000000	100.102396
2016.000000	100.100659
2015.000000	100.099252
2014.000000	100.097529
2013.000000	100.095415
2012.000000	100.093534
2011.000000	100.092328
2010.000000	100.091401
2009.000000	100.089968
2008.000000	100.087769
2007.000000	100.085265
2006.000000	100.083095
2005.000000	100.081602
2004.000000	100.080868
2003.000000	100.080805
2002.000000	100.081096
2001.000000	100.081352
2000.000000	100.081456
1999.000000	100.081578
1998.000000	100.081804
1997.000000	100.081892
1996.000000	100.081480
1995.000000	100.080497
1994.000000	100.079229
1993.000000	100.078012
1992.000000	100.076948
1991.000000	100.076030
1990.000000	100.075435
1989.000000	100.075479
1988.000000	100.076224
1987.000000	100.077214
1986.000000	100.077689
1985.000000	100.077159
1984.000000	100.075708
1983.000000	100.073901
1982.000000	100.072440
1981.000000	100.071740
1980.000000	100.071749
1979.000000	100.072073
1978.000000	100.072355
1977.000000	100.072547
1976.000000	100.072745
1975.000000	100.072865
1974.000000	100.072641
1973.000000	100.071976
1972.000000	100.071200
1971.000000	100.070868
1970.000000	100.071298
1969.000000	100.072329
1968.000000	100.073387
1967.000000	100.073847
1966.000000	100.073516
1965.000000	100.072833
1964.000000	100.072584
1963.000000	100.073245
1962.000000	100.074575
1961.000000	100.075797
1960.000000	100.076331
1959.000000	100.076240
1958.000000	100.075955
1957.000000	100.075708
1956.000000	100.075406
1955.000000	100.075002
1954.000000	100.074667
1953.000000	100.074525
1952.000000	100.074440
1951.000000	100.074191
1950.000000	100.073743
1949.000000	100.073203
1948.000000	100.072565
1947.000000	100.071625
1946.000000	100.070269
1945.000000	100.068820
1944.000000	100.067937
1943.000000	100.068017
1942.000000	100.068714
1941.000000	100.069313
1940.000000	100.069434
1939.000000	100.068995
1938.000000	100.067783
1937.000000	100.065639
1936.000000	100.063087
1935.000000	100.061269
1934.000000	100.060786
1933.000000	100.060937
1932.000000	100.060638
1931.000000	100.059761
1930.000000	100.058973
1929.000000	100.058627
1928.000000	100.058630
1927.000000	100.059122
1926.000000	100.060254
1925.000000	100.061183
1924.000000	100.060202
1923.000000	100.056528
1922.000000	100.051453
1921.000000	100.047139
1920.000000	100.044655
1919.000000	100.043759
1918.000000	100.043707
1917.000000	100.043736
1916.000000	100.043329
1915.000000	100.042401
1914.000000	100.041395
1913.000000	100.040848
1912.000000	100.040496
1911.000000	100.039023
1910.000000	100.035130
1909.000000	100.028980
1908.000000	100.022420
1907.000000	100.017463
1906.000000	100.014661
1905.000000	100.012896
1904.000000	100.010473
1903.000000	100.006498
1902.000000	100.001463
1901.000000	99.996664
1900.000000	99.992961
1899.000000	99.990337
1898.000000	99.988539
1897.000000	99.987463
1896.000000	99.986743
1895.000000	99.985434
1894.000000	99.982766
1893.000000	99.979164
1892.000000	99.975787
1891.000000	99.973287
1890.000000	99.971551
1889.000000	99.970564
1888.000000	99.970786
1887.000000	99.972157
1886.000000	99.973447
1885.000000	99.973129
1884.000000	99.970619
1883.000000	99.966471
1882.000000	99.961747
1881.000000	99.957568
1880.000000	99.954790
1879.000000	99.953617
1878.000000	99.953670
1877.000000	99.954531
1876.000000	99.955991
1875.000000	99.957583
1874.000000	99.958225
1873.000000	99.957110
1872.000000	99.954982
1871.000000	99.953880
1870.000000	99.955232
1869.000000	99.958172
1868.000000	99.960665
1867.000000	99.962220
1866.000000	99.963897
1865.000000	99.966361
1864.000000	99.968934
1863.000000	99.970068
1862.000000	99.968761
1861.000000	99.965993
1860.000000	99.964784
1859.000000	99.968010
1858.000000	99.975729
1857.000000	99.984544
1856.000000	99.990210
1855.000000	99.991377
1854.000000	99.990518
1853.000000	99.991373
1852.000000	99.995303
1851.000000	100.000441
1850.000000	100.004165
1849.000000	100.005654
1848.000000	100.005925
1847.000000	100.006256
1846.000000	100.007462
1845.000000	100.010181
1844.000000	100.014488
1843.000000	100.019245
1842.000000	100.023021
1841.000000	100.025406
1840.000000	100.027074
1839.000000	100.028881
1838.000000	100.030885
1837.000000	100.032454
1836.000000	100.033181
1835.000000	100.033196
1834.000000	100.032918
1833.000000	100.032904
1832.000000	100.033700
1831.000000	100.035399
1830.000000	100.037055
1829.000000	100.037484
1828.000000	100.036864
1827.000000	100.036376
1826.000000	100.036579
1825.000000	100.036778
1824.000000	100.036128
1823.000000	100.034929
1822.000000	100.033916
1821.000000	100.033184
1820.000000	100.032591
1819.000000	100.032455
1818.000000	100.033133
1817.000000	100.034169
1816.000000	100.034560
1815.000000	100.033639
1814.000000	100.031247
1813.000000	100.027760
1812.000000	100.024664
1811.000000	100.024053
1810.000000	100.026271
1809.000000	100.028988
1808.000000	100.029992
1807.000000	100.029700
1806.000000	100.029709
1805.000000	100.030253
1804.000000	100.030220
1803.000000	100.029310
1802.000000	100.028989
1801.000000	100.030618
1800.000000	100.033443
1799.000000	100.035284
1798.000000	100.034786
1797.000000	100.032451
1796.000000	100.029925
1795.000000	100.028564
1794.000000	100.028755
1793.000000	100.029944
1792.000000	100.031021
1791.000000	100.031558
1790.000000	100.032090
1789.000000	100.033324
1788.000000	100.035737
1787.000000	100.039202
1786.000000	100.042576
1785.000000	100.044571
1784.000000	100.045457
1783.000000	100.046848
1782.000000	100.049558
1781.000000	100.052529
1780.000000	100.054161
1779.000000	100.054324
1778.000000	100.054286
1777.000000	100.054955
1776.000000	100.056092
1775.000000	100.056934
1774.000000	100.057263
1773.000000	100.057526
1772.000000	100.058240
1771.000000	100.059945
1770.000000	100.062696
1769.000000	100.065600
1768.000000	100.067880
1767.000000	100.070007
1766.000000	100.072854
1765.000000	100.076167
1764.000000	100.078845
1763.000000	100.080338
1762.000000	100.081096
1761.000000	100.081887
1760.000000	100.083268
1759.000000	100.085747
1758.000000	100.089661
1757.000000	100.094160
1756.000000	100.097267
1755.000000	100.098568
1754.000000	100.100069
1753.000000	100.103561
1752.000000	100.107983
1751.000000	100.109818
1750.000000	100.107781
1749.000000	100.104753
1748.000000	100.103601
1747.000000	100.104389
1746.000000	100.106055
1745.000000	100.107760
1744.000000	100.108697
1743.000000	100.108327
1742.000000	100.107183
1741.000000	100.106528
1740.000000	100.107034
1739.000000	100.108089
1738.000000	100.108582
1737.000000	100.107617
1736.000000	100.105141
1735.000000	100.102114
1734.000000	100.099622
1733.000000	100.098607
1732.000000	100.099375
1731.000000	100.100980
1730.000000	100.102489
1729.000000	100.103587
1728.000000	100.103651
1727.000000	100.102259
1726.000000	100.099982
1725.000000	100.098228
1724.000000	100.097938
1723.000000	100.098711
1722.000000	100.099240
1721.000000	100.098565
1720.000000	100.096812
1719.000000	100.095172
1718.000000	100.094304
1717.000000	100.092994
1716.000000	100.090923
1715.000000	100.089387
1714.000000	100.088443
1713.000000	100.087208
1712.000000	100.085428
1711.000000	100.083491
1710.000000	100.081612
1709.000000	100.079408
1708.000000	100.076676
1707.000000	100.074366
1706.000000	100.073713
1705.000000	100.073883
1704.000000	100.072741
1703.000000	100.069628
1702.000000	100.066124
1701.000000	100.064018
1700.000000	100.062264
1699.000000	100.059513
1698.000000	100.056378
1697.000000	100.053557
1696.000000	100.051381
1695.000000	100.049732
1694.000000	100.048046
1693.000000	100.045771
1692.000000	100.042579
1691.000000	100.038784
1690.000000	100.035152
1689.000000	100.032291
1688.000000	100.030161
1687.000000	100.028251
1686.000000	100.026480
1685.000000	100.024957
1684.000000	100.023198
1683.000000	100.021349
1682.000000	100.019882
1681.000000	100.018093
1680.000000	100.015109
1679.000000	100.011290
1678.000000	100.007620
1677.000000	100.004961
1676.000000	100.003294
1675.000000	100.001828
1674.000000	100.000287
1673.000000	99.999187
1672.000000	99.998627
1671.000000	99.998231
1670.000000	99.997425
1669.000000	99.995923
1668.000000	99.994084
1667.000000	99.992289
1666.000000	99.990654
1665.000000	99.989256
1664.000000	99.988084
1663.000000	99.986678
1662.000000	99.984469
1661.000000	99.981683
1660.000000	99.978863
1659.000000	99.976407
1658.000000	99.974479
1657.000000	99.973227
1656.000000	99.972387
1655.000000	99.972090
1654.000000	99.971496
1653.000000	99.967078
1652.000000	99.959917
1651.000000	99.955191
1650.000000	99.953336
1649.000000	99.952855
1648.000000	99.953696
1647.000000	99.954702
1646.000000	99.954760
1645.000000	99.954741
1644.000000	99.955746
1643.000000	99.956794
1642.000000	99.956922
1641.000000	99.956459
1640.000000	99.956571
1639.000000	99.957946
1638.000000	99.960470
1637.000000	99.963458
1636.000000	99.964583
1635.000000	99.961857
1634.000000	99.957749
1633.000000	99.955406
1632.000000	99.954215
1631.000000	99.952120
1630.000000	99.948342
1629.000000	99.944802
1628.000000	99.944200
1627.000000	99.946484
1626.000000	99.949041
1625.000000	99.950295
1624.000000	99.951160
1623.000000	99.952819
1622.000000	99.955017
1621.000000	99.957009
1620.000000	99.958315
1619.000000	99.958777
1618.000000	99.958959
1617.000000	99.959958
1616.000000	99.962302
1615.000000	99.965097
1614.000000	99.967117
1613.000000	99.968313
1612.000000	99.969784
1611.000000	99.972220
1610.000000	99.975073
1609.000000	99.977710
1608.000000	99.980158
1607.000000	99.982198
1606.000000	99.983480
1605.000000	99.984540
1604.000000	99.986601
1603.000000	99.990377
1602.000000	99.995347
1601.000000	100.000309
1600.000000	100.004059
1599.000000	100.006299
1598.000000	100.008007
1597.000000	100.010502
1596.000000	100.013972
1595.000000	100.017458
1594.000000	100.020461
1593.000000	100.023657
1592.000000	100.027451
1591.000000	100.030970
1590.000000	100.033394
1589.000000	100.035445
1588.000000	100.038526
1587.000000	100.042871
1586.000000	100.047481
1585.000000	100.051419
1584.000000	100.054378
1583.000000	100.056333
1582.000000	100.057620
1581.000000	100.059124
1580.000000	100.061563
1579.000000	100.064839
1578.000000	100.068535
1577.000000	100.072544
1576.000000	100.076494
1575.000000	100.079539
1574.000000	100.081461
1573.000000	100.082611
1572.000000	100.083387
1571.000000	100.084366
1570.000000	100.086021
1569.000000	100.088593
1568.000000	100.091803
1567.000000	100.094829
1566.000000	100.096888
1565.000000	100.097917
1564.000000	100.098267
1563.000000	100.098123
1562.000000	100.097791
1561.000000	100.098491
1560.000000	100.102221
1559.000000	100.106272
1558.000000	100.105983
1557.000000	100.104412
1556.000000	100.105142
1555.000000	100.106885
1554.000000	100.108071
1553.000000	100.107408
1552.000000	100.105576
1551.000000	100.103894
1550.000000	100.103483
1549.000000	100.104157
1548.000000	100.104926
1547.000000	100.105229
1546.000000	100.105422
1545.000000	100.106126
1544.000000	100.107299
1543.000000	100.108223
1542.000000	100.108407
1541.000000	100.108071
1540.000000	100.107864
1539.000000	100.108007
1538.000000	100.108067
1537.000000	100.107108
1536.000000	100.104292
1535.000000	100.100215
1534.000000	100.096028
1533.000000	100.092115
1532.000000	100.088533
1531.000000	100.085864
1530.000000	100.084386
1529.000000	100.083980
1528.000000	100.084233
1527.000000	100.084360
1526.000000	100.083607
1525.000000	100.081722
1524.000000	100.079072
1523.000000	100.076649
1522.000000	100.075496
1521.000000	100.075408
1520.000000	100.075598
1519.000000	100.075670
1518.000000	100.075236
1517.000000	100.074300
1516.000000	100.073447
1515.000000	100.073453
1514.000000	100.074630
1513.000000	100.076680
1512.000000	100.078571
1511.000000	100.079053
1510.000000	100.077964
1509.000000	100.076706
1508.000000	100.077266
1507.000000	100.078812
1506.000000	100.078478
1505.000000	100.077805
1504.000000	100.078862
1503.000000	100.080012
1502.000000	100.080260
1501.000000	100.080152
1500.000000	100.080497
1499.000000	100.080636
1498.000000	100.079203
1497.000000	100.075808
1496.000000	100.072427
1495.000000	100.071415
1494.000000	100.072292
1493.000000	100.072985
1492.000000	100.072761
1491.000000	100.072421
1490.000000	100.072616
1489.000000	100.073164
1488.000000	100.074371
1487.000000	100.076658
1486.000000	100.079102
1485.000000	100.080663
1484.000000	100.081311
1483.000000	100.081456
1482.000000	100.081206
1481.000000	100.080402
1480.000000	100.079311
1479.000000	100.078647
1478.000000	100.078859
1477.000000	100.079712
1476.000000	100.080666
1475.000000	100.081544
1474.000000	100.082488
1473.000000	100.083148
1472.000000	100.083011
1471.000000	100.082640
1470.000000	100.082447
1469.000000	100.081813
1468.000000	100.080366
1467.000000	100.078414
1466.000000	100.076120
1465.000000	100.073272
1464.000000	100.070365
1463.000000	100.068684
1462.000000	100.068461
1461.000000	100.068921
1460.000000	100.069959
1459.000000	100.072401
1458.000000	100.075584
1457.000000	100.074462
1456.000000	100.067303
1455.000000	100.060578
1454.000000	100.058042
1453.000000	100.057388
1452.000000	100.055843
1451.000000	100.052477
1450.000000	100.048916
1449.000000	100.047150
1448.000000	100.047347
1447.000000	100.047614
1446.000000	100.046340
1445.000000	100.043470
1444.000000	100.039761
1443.000000	100.036100
1442.000000	100.033269
1441.000000	100.031555
1440.000000	100.030011
1439.000000	100.026654
1438.000000	100.020111
1437.000000	100.011477
1436.000000	100.004959
1435.000000	100.004038
1434.000000	100.007198
1433.000000	100.010522
1432.000000	100.012071
1431.000000	100.012123
1430.000000	100.012027
1429.000000	100.013011
1428.000000	100.015080
1427.000000	100.016581
1426.000000	100.015401
1425.000000	100.011312
1424.000000	100.006658
1423.000000	100.004546
1422.000000	100.006345
1421.000000	100.011638
1420.000000	100.018858
1419.000000	100.024821
1418.000000	100.028093
1417.000000	100.030751
1416.000000	100.034284
1415.000000	100.038129
1414.000000	100.041441
1413.000000	100.044278
1412.000000	100.047756
1411.000000	100.052809
1410.000000	100.059039
1409.000000	100.064871
1408.000000	100.069407
1407.000000	100.073576
1406.000000	100.078804
1405.000000	100.084655
1404.000000	100.088516
1403.000000	100.088877
1402.000000	100.087339
1401.000000	100.086833
1400.000000	100.089332
1399.000000	100.094345
1398.000000	100.100004
1397.000000	100.105332
1396.000000	100.109991
1395.000000	100.112942
1394.000000	100.113933
1393.000000	100.115156
1392.000000	100.118692
1391.000000	100.124079
1390.000000	100.129182
1389.000000	100.132583
1388.000000	100.134995
1387.000000	100.137781
1386.000000	100.140540
1385.000000	100.141620
1384.000000	100.140610
1383.000000	100.139021
1382.000000	100.138317
1381.000000	100.138054
1380.000000	100.136881
1379.000000	100.134474
1378.000000	100.131856
1377.000000	100.130427
1376.000000	100.131017
1375.000000	100.133199
1374.000000	100.135158
1373.000000	100.135333
1372.000000	100.134181
1371.000000	100.133306
1370.000000	100.133717
1369.000000	100.135444
1368.000000	100.137757
1367.000000	100.139649
1366.000000	100.140200
1365.000000	100.138932
1364.000000	100.136598
1363.000000	100.135310
1362.000000	100.136674
1361.000000	100.139800
1360.000000	100.142025
1359.000000	100.141377
1358.000000	100.138051
1357.000000	100.134110
1356.000000	100.131818
1355.000000	100.131901
1354.000000	100.133323
1353.000000	100.134609
1352.000000	100.135311
1351.000000	100.135836
1350.000000	100.136400
1349.000000	100.137128
1348.000000	100.138425
1347.000000	100.140418
1346.000000	100.142113
1345.000000	100.141986
1344.000000	100.139631
1343.000000	100.136437
1342.000000	100.134459
1341.000000	100.134828
1340.000000	100.136939
1339.000000	100.138852
1338.000000	100.139097
1337.000000	100.138203
1336.000000	100.137987
1335.000000	100.139254
1334.000000	100.140496
1333.000000	100.139609
1332.000000	100.136875
1331.000000	100.135001
1330.000000	100.135646
1329.000000	100.137213
1328.000000	100.137298
1327.000000	100.136113
1326.000000	100.136023
1325.000000	100.138244
1324.000000	100.141362
1323.000000	100.143389
1322.000000	100.143845
1321.000000	100.143087
1320.000000	100.140855
1319.000000	100.136883
1318.000000	100.132542
1317.000000	100.130324
1316.000000	100.131298
1315.000000	100.133952
1314.000000	100.135880
1313.000000	100.136126
1312.000000	100.135454
1311.000000	100.134571
1310.000000	100.133161
1309.000000	100.131117
1308.000000	100.129827
1307.000000	100.130914
1306.000000	100.133773
1305.000000	100.135840
1304.000000	100.135690
1303.000000	100.134938
1302.000000	100.136302
1301.000000	100.140301
1300.000000	100.144601
1299.000000	100.146333
1298.000000	100.144422
1297.000000	100.140058
1296.000000	100.135634
1295.000000	100.132970
1294.000000	100.132045
1293.000000	100.131503
1292.000000	100.130371
1291.000000	100.128592
1290.000000	100.125741
1289.000000	100.120573
1288.000000	100.112964
1287.000000	100.105373
1286.000000	100.100689
1285.000000	100.098919
1284.000000	100.097455
1283.000000	100.094443
1282.000000	100.090675
1281.000000	100.088119
1280.000000	100.087464
1279.000000	100.087161
1278.000000	100.084562
1277.000000	100.078533
1276.000000	100.071640
1275.000000	100.068884
1274.000000	100.072942
1273.000000	100.080856
1272.000000	100.086419
1271.000000	100.085857
1270.000000	100.080697
1269.000000	100.075602
1268.000000	100.074163
1267.000000	100.076195
1266.000000	100.078043
1265.000000	100.076021
1264.000000	100.070451
1263.000000	100.065602
1262.000000	100.064705
1261.000000	100.066168
1260.000000	100.066011
1259.000000	100.062605
1258.000000	100.057081
1257.000000	100.050365
1256.000000	100.042670
1255.000000	100.035456
1254.000000	100.030759
1253.000000	100.027840
1252.000000	100.022835
1251.000000	100.012765
1250.000000	99.998364
1249.000000	99.982103
1248.000000	99.964833
1247.000000	99.945708
1246.000000	99.924838
1245.000000	99.904861
1244.000000	99.889377
1243.000000	99.879377
1242.000000	99.871293
1241.000000	99.859764
1240.000000	99.842896
1239.000000	99.823649
1238.000000	99.805494
1237.000000	99.788365
1236.000000	99.770222
1235.000000	99.750558
1234.000000	99.730075
1233.000000	99.708376
1232.000000	99.684509
1231.000000	99.658779
1230.000000	99.631542
1229.000000	99.601290
1228.000000	99.566697
1227.000000	99.529329
1226.000000	99.490942
1225.000000	99.448832
1224.000000	99.397709
1223.000000	99.336073
1222.000000	99.267134
1221.000000	99.193322
1220.000000	99.113814
1219.000000	99.028436
1218.000000	98.940064
1217.000000	98.851268
1216.000000	98.761551
1215.000000	98.669720
1214.000000	98.576570
1213.000000	98.483576
1212.000000	98.390786
1211.000000	98.297347
1210.000000	98.202710
1209.000000	98.106413
1208.000000	98.007939
1207.000000	97.907490
1206.000000	97.806281
1205.000000	97.706085
1204.000000	97.608832
1203.000000	97.515730
1202.000000	97.425961
1201.000000	97.337338
1200.000000	97.248981
1199.000000	97.161976
1198.000000	97.076732
1197.000000	96.991496
1196.000000	96.904403
1195.000000	96.815339
1194.000000	96.725272
1193.000000	96.635617
1192.000000	96.548291
1191.000000	96.463580
1190.000000	96.377628
1189.000000	96.285431
1188.000000	96.187157
1187.000000	96.088100
1186.000000	95.991434
1185.000000	95.894801
1184.000000	95.795369
1183.000000	95.693789
1182.000000	95.590996
1181.000000	95.485435
1180.000000	95.376369
1179.000000	95.266126
1178.000000	95.155873
1177.000000	95.042489
1176.000000	94.922787
1175.000000	94.797997
1174.000000	94.671343
1173.000000	94.544067
1172.000000	94.416379
1171.000000	94.289154
1170.000000	94.162143
1169.000000	94.033786
1168.000000	93.905669
1167.000000	93.784709
1166.000000	93.679489
1165.000000	93.597838
1164.000000	93.548666
1163.000000	93.540213
1162.000000	93.572638
1161.000000	93.634781
1160.000000	93.708875
1159.000000	93.775242
1158.000000	93.814353
1157.000000	93.812296
1156.000000	93.767887
1155.000000	93.691796
1154.000000	93.597246
1153.000000	93.493530
1152.000000	93.387483
1151.000000	93.284566
1150.000000	93.185377
1149.000000	93.085738
1148.000000	92.982987
1147.000000	92.878652
1146.000000	92.774156
1145.000000	92.668943
1144.000000	92.563943
1143.000000	92.461115
1142.000000	92.358117
1141.000000	92.249737
1140.000000	92.136622
1139.000000	92.026098
1138.000000	91.921696
1137.000000	91.818177
1136.000000	91.709851
1135.000000	91.597419
1134.000000	91.483283
1133.000000	91.366213
1132.000000	91.244693
1131.000000	91.120565
1130.000000	90.995885
1129.000000	90.870575
1128.000000	90.745707
1127.000000	90.624399
1126.000000	90.507257
1125.000000	90.391506
1124.000000	90.275722
1123.000000	90.160140
1122.000000	90.041967
1121.000000	89.917046
1120.000000	89.787050
1119.000000	89.658352
1118.000000	89.533424
1117.000000	89.410684
1116.000000	89.292171
1115.000000	89.181970
1114.000000	89.076497
1113.000000	88.966555
1112.000000	88.850745
1111.000000	88.737217
1110.000000	88.631236
1109.000000	88.530402
1108.000000	88.431872
1107.000000	88.334284
1106.000000	88.233059
1105.000000	88.124929
1104.000000	88.016943
1103.000000	87.919554
1102.000000	87.831280
1101.000000	87.741502
1100.000000	87.647169
1099.000000	87.554017
1098.000000	87.462494
1097.000000	87.368068
1096.000000	87.274784
1095.000000	87.192642
1094.000000	87.120661
1093.000000	87.048610
1092.000000	86.976655
1091.000000	86.916320
1090.000000	86.869842
1089.000000	86.825748
1088.000000	86.777939
1087.000000	86.732135
1086.000000	86.690082
1085.000000	86.644874
1084.000000	86.596576
1083.000000	86.555589
1082.000000	86.525021
1081.000000	86.495515
1080.000000	86.462440
1079.000000	86.431907
1078.000000	86.404395
1077.000000	86.368985
1076.000000	86.320558
1075.000000	86.266817
1074.000000	86.210773
1073.000000	86.140471
1072.000000	86.043441
1071.000000	85.918500
1070.000000	85.767699
1069.000000	85.589705
1068.000000	85.387732
1067.000000	85.172413
1066.000000	84.950863
1065.000000	84.723846
1064.000000	84.497391
1063.000000	84.283364
1062.000000	84.083967
1061.000000	83.890225
1060.000000	83.700375
1059.000000	83.524228
1058.000000	83.364293
1057.000000	83.208690
1056.000000	83.048675
1055.000000	82.887473
1054.000000	82.725601
1053.000000	82.553226
1052.000000	82.365013
1051.000000	82.168079
1050.000000	81.967699
1049.000000	81.760340
1048.000000	81.546676
1047.000000	81.333530
1046.000000	81.118005
1045.000000	80.888202
1044.000000	80.644022
1043.000000	80.399900
1042.000000	80.163108
1041.000000	79.926907
1040.000000	79.689319
1039.000000	79.459675
1038.000000	79.240890
1037.000000	79.024874
1036.000000	78.812739
1035.000000	78.620697
1034.000000	78.457979
1033.000000	78.316443
1032.000000	78.188557
1031.000000	78.077889
1030.000000	77.984800
1029.000000	77.899493
1028.000000	77.816661
1027.000000	77.741198
1026.000000	77.673973
1025.000000	77.608260
1024.000000	77.544263
1023.000000	77.489588
1022.000000	77.441513
1021.000000	77.386912
1020.000000	77.323400
1019.000000	77.261846
1018.000000	77.204922
1017.000000	77.143433
1016.000000	77.077787
1015.000000	77.021731
1014.000000	76.978776
1013.000000	76.935265
1012.000000	76.883471
1011.000000	76.832325
1010.000000	76.788489
1009.000000	76.745715
1008.000000	76.700460
1007.000000	76.660759
1006.000000	76.632307
1005.000000	76.611194
1004.000000	76.595737
1003.000000	76.590346
1002.000000	76.593642
1001.000000	76.597964
1000.000000	76.603343
999.000000	76.616342
998.000000	76.634099
997.000000	76.647119
996.000000	76.658912
995.000000	76.683833
994.000000	76.723623
993.000000	76.765329
992.000000	76.804802
991.000000	76.852773
990.000000	76.914917
989.000000	76.985878
988.000000	77.065992
987.000000	77.163851
986.000000	77.278504
985.000000	77.398819
984.000000	77.524808
983.000000	77.670305
982.000000	77.839959
981.000000	78.022356
980.000000	78.210426
979.000000	78.410459
978.000000	78.626140
977.000000	78.851505
976.000000	79.084920
975.000000	79.333612
974.000000	79.599353
973.000000	79.874142
972.000000	80.153172
971.000000	80.437903
970.000000	80.725095
969.000000	81.008194
968.000000	81.290539
967.000000	81.581077
966.000000	81.875598
965.000000	82.158463
964.000000	82.424691
963.000000	82.684345
962.000000	82.943258
961.000000	83.195577
960.000000	83.438302
959.000000	83.677493
958.000000	83.915989
957.000000	84.148495
956.000000	84.372017
955.000000	84.588404
954.000000	84.794915
953.000000	84.985734
952.000000	85.164330
951.000000	85.340433
950.000000	85.512712
949.000000	85.668581
948.000000	85.803550
947.000000	85.926919
946.000000	86.046066
945.000000	86.159081
944.000000	86.266266
943.000000	86.374503
942.000000	86.485368
941.000000	86.591695
940.000000	86.690513
939.000000	86.787696
938.000000	86.886407
937.000000	86.982983
936.000000	87.077862
935.000000	87.178389
934.000000	87.286839
933.000000	87.397024
932.000000	87.505877
931.000000	87.616716
930.000000	87.728534
929.000000	87.834775
928.000000	87.936084
927.000000	88.041671
926.000000	88.154257
925.000000	88.266069
924.000000	88.373503
923.000000	88.482618
922.000000	88.594854
921.000000	88.699946
920.000000	88.789771
919.000000	88.869055
918.000000	88.946497
917.000000	89.024839
916.000000	89.104807
915.000000	89.189077
914.000000	89.277036
913.000000	89.365129
912.000000	89.457646
911.000000	89.567793
910.000000	89.702825
909.000000	89.857281
908.000000	90.025725
907.000000	90.212145
906.000000	90.420209
905.000000	90.643063
904.000000	90.870045
903.000000	91.097408
902.000000	91.326679
901.000000	91.557664
900.000000	91.788029
899.000000	92.016127
898.000000	92.241241
897.000000	92.464206
896.000000	92.688225
895.000000	92.914507
894.000000	93.137080
893.000000	93.347341
892.000000	93.543363
891.000000	93.728642
890.000000	93.902556
889.000000	94.060493
888.000000	94.205191
887.000000	94.349586
886.000000	94.503564
885.000000	94.663035
884.000000	94.816352
883.000000	94.957341
882.000000	95.088763
881.000000	95.216941
880.000000	95.346751
879.000000	95.479344
878.000000	95.611673
877.000000	95.739951
876.000000	95.865585
875.000000	95.996146
874.000000	96.138899
873.000000	96.293649
872.000000	96.451488
871.000000	96.599893
870.000000	96.731515
869.000000	96.850714
868.000000	96.970139
867.000000	97.098471
866.000000	97.232233
865.000000	97.361138
864.000000	97.479563
863.000000	97.590866
862.000000	97.702782
861.000000	97.820530
860.000000	97.941945
859.000000	98.057017
858.000000	98.154896
857.000000	98.233970
856.000000	98.302680
855.000000	98.368747
854.000000	98.431604
853.000000	98.488464
852.000000	98.542488
851.000000	98.598523
850.000000	98.653625
849.000000	98.699255
848.000000	98.732949
847.000000	98.761863
846.000000	98.793282
845.000000	98.825412
844.000000	98.848663
843.000000	98.852897
842.000000	98.832836
841.000000	98.789568
840.000000	98.728527
839.000000	98.655218
838.000000	98.572541
837.000000	98.482871
836.000000	98.391658
835.000000	98.306829
834.000000	98.234685
833.000000	98.177845
832.000000	98.136336
831.000000	98.108711
830.000000	98.093461
829.000000	98.091644
828.000000	98.105662
827.000000	98.131935
826.000000	98.157959
825.000000	98.172483
824.000000	98.177012
823.000000	98.181860
822.000000	98.192631
821.000000	98.205407
820.000000	98.212029
819.000000	98.204261
818.000000	98.175305
817.000000	98.122135
816.000000	98.044402
815.000000	97.937587
814.000000	97.790139
813.000000	97.591131
812.000000	97.337116
811.000000	97.026124
810.000000	96.648331
809.000000	96.191194
808.000000	95.654993
807.000000	95.057043
806.000000	94.419049
805.000000	93.757381
804.000000	93.089341
803.000000	92.441962
802.000000	91.849195
801.000000	91.344725
800.000000	90.958141
799.000000	90.707483
798.000000	90.590031
797.000000	90.586768
796.000000	90.676071
795.000000	90.834845
794.000000	91.030811
793.000000	91.229190
792.000000	91.409167
791.000000	91.564459
790.000000	91.689344
789.000000	91.773832
788.000000	91.809554
787.000000	91.788836
786.000000	91.699793
785.000000	91.535114
784.000000	91.307926
783.000000	91.050487
782.000000	90.797095
781.000000	90.576106
780.000000	90.414608
779.000000	90.335263
778.000000	90.345392
777.000000	90.439901
776.000000	90.613842
775.000000	90.858523
774.000000	91.147181
773.000000	91.442379
772.000000	91.721283
771.000000	91.981107
770.000000	92.219485
769.000000	92.424557
768.000000	92.588051
767.000000	92.715024
766.000000	92.815212
765.000000	92.894452
764.000000	92.959010
763.000000	93.019095
762.000000	93.082485
761.000000	93.150931
760.000000	93.225927
759.000000	93.311429
758.000000	93.408591
757.000000	93.514225
756.000000	93.625806
755.000000	93.741630
754.000000	93.856150
753.000000	93.962887
752.000000	94.062575
751.000000	94.161346
750.000000	94.260738
749.000000	94.356790
748.000000	94.449023
747.000000	94.543005
746.000000	94.644228
745.000000	94.756720
744.000000	94.886740
743.000000	95.039069
742.000000	95.209279
741.000000	95.387269
740.000000	95.567163
739.000000	95.745456
738.000000	95.912451
737.000000	96.057760
736.000000	96.184690
735.000000	96.307166
734.000000	96.429997
733.000000	96.541897
732.000000	96.630473
731.000000	96.695416
730.000000	96.743993
729.000000	96.781711
728.000000	96.812847
727.000000	96.843863
726.000000	96.880157
725.000000	96.923238
724.000000	96.974133
723.000000	97.035681
722.000000	97.109193
721.000000	97.192288
720.000000	97.281627
719.000000	97.374812
718.000000	97.469117
717.000000	97.561482
716.000000	97.648937
715.000000	97.726336
714.000000	97.787017
713.000000	97.830894
712.000000	97.869312
711.000000	97.914667
710.000000	97.965969
709.000000	98.010633
708.000000	98.038842
707.000000	98.048938
706.000000	98.039268
705.000000	98.004356
704.000000	97.940230
703.000000	97.843247
702.000000	97.701480
701.000000	97.495820
700.000000	97.214337
699.000000	96.864977
698.000000	96.477892
697.000000	96.105165
696.000000	95.814563
695.000000	95.663378
694.000000	95.667602
693.000000	95.796320
692.000000	95.994917
691.000000	96.213950
690.000000	96.421751
689.000000	96.604666
688.000000	96.764194
687.000000	96.908379
686.000000	97.040663
685.000000	97.157324
684.000000	97.254611
683.000000	97.333781
682.000000	97.398480
681.000000	97.452538
680.000000	97.501503
679.000000	97.552226
678.000000	97.609115
677.000000	97.671778
676.000000	97.739046
675.000000	97.812528
674.000000	97.891063
673.000000	97.967303
672.000000	98.035798
671.000000	98.100396
670.000000	98.170459
669.000000	98.249551
668.000000	98.319729
667.000000	98.363164
666.000000	98.390398
665.000000	98.410394
664.000000	98.433967
663.000000	98.475939
662.000000	98.536052
661.000000	98.591587
660.000000	98.620670
659.000000	98.623662
658.000000	98.613989
657.000000	98.595691
656.000000	98.562270
655.000000	98.511904
654.000000	98.449221
653.000000	98.381135
652.000000	98.322571
651.000000	98.293609
650.000000	98.299929
