4000.000000	100.697758
3999.000000	100.700502
3998.000000	100.705696
3997.000000	100.710823
3996.000000	100.714374
3995.000000	100.715915
3994.000000	100.715299
3993.000000	100.712473
3992.000000	100.708144
3991.000000	100.704090
3990.000000	100.702356
3989.000000	100.704021
3988.000000	100.708236
3987.000000	100.712282
3986.000000	100.713211
3985.000000	100.710041
3984.000000	100.704747
3983.000000	100.700912
3982.000000	100.700796
3981.000000	100.703619
3980.000000	100.706439
3979.000000	100.706610
3978.000000	100.703672
3977.000000	100.699416
3976.000000	100.696338
3975.000000	100.695739
3974.000000	100.696994
3973.000000	100.698387
3972.000000	100.698557
3971.000000	100.697363
3970.000000	100.695655
3969.000000	100.694554
3968.000000	100.694580
3967.000000	100.694965
3966.000000	100.693900
3965.000000	100.690100
3964.000000	100.684323
3963.000000	100.679068
3962.000000	100.676360
3961.000000	100.676058
3960.000000	100.676621
3959.000000	100.676947
3958.000000	100.677032
3957.000000	100.677223
3956.000000	100.677518
3955.000000	100.677759
3954.000000	100.678037
3953.000000	100.678566
3952.000000	100.679205
3951.000000	100.679343
3950.000000	100.678462
3949.000000	100.676758
3948.000000	100.675062
3947.000000	100.674081
3946.000000	100.673864
3945.000000	100.674023
3944.000000	100.674192
3943.000000	100.674238
3942.000000	100.674150
3941.000000	100.673924
3940.000000	100.673556
3939.000000	100.673079
3938.000000	100.672560
3937.000000	100.672139
3936.000000	100.671978
3935.000000	100.672090
3934.000000	100.672150
3933.000000	100.671661
3932.000000	100.670454
3931.000000	100.668937
3930.000000	100.667824
3929.000000	100.667459
3928.000000	100.667652
3927.000000	100.667934
3926.000000	100.668012
3925.000000	100.667965
3924.000000	100.667975
3923.000000	100.668041
3922.000000	100.667954
3921.000000	100.667419
3920.000000	100.666238
3919.000000	100.664517
3918.000000	100.662817
3917.000000	100.661802
3916.000000	100.661693
3915.000000	100.662119
3914.000000	100.662486
3913.000000	100.662500
3912.000000	100.662224
3911.000000	100.661948
3910.000000	100.661956
3909.000000	100.662363
3908.000000	100.662990
3907.000000	100.663460
3906.000000	100.663399
3905.000000	100.662648
3904.000000	100.661289
3903.000000	100.659512
3902.000000	100.657609
3901.000000	100.656016
3900.000000	100.655087
3899.000000	100.654785
3898.000000	100.654812
3897.000000	100.655085
3896.000000	100.655770
3895.000000	100.656805
3894.000000	100.657727
3893.000000	100.658277
3892.000000	100.658680
3891.000000	100.658998
3890.000000	100.658320
3889.000000	100.656110
3888.000000	100.653360
3887.000000	100.651482
3886.000000	100.650737
3885.000000	100.649943
3884.000000	100.647872
3883.000000	100.645424
3882.000000	100.644756
3881.000000	100.646783
3880.000000	100.650582
3879.000000	100.654105
3878.000000	100.655881
3877.000000	100.656045
3876.000000	100.655399
3875.000000	100.654509
3874.000000	100.653306
3873.000000	100.651106
3872.000000	100.647908
3871.000000	100.645069
3870.000000	100.643824
3869.000000	100.643487
3868.000000	100.642592
3867.000000	100.641922
3866.000000	100.643037
3865.000000	100.645288
3864.000000	100.646824
3863.000000	100.647336
3862.000000	100.648041
3861.000000	100.649738
3860.000000	100.651841
3859.000000	100.653688
3858.000000	100.654980
3857.000000	100.655386
3856.000000	100.654360
3855.000000	100.652072
3854.000000	100.650293
3853.000000	100.649902
3852.000000	100.648338
3851.000000	100.645002
3850.000000	100.642845
3849.000000	100.642781
3848.000000	100.643221
3847.000000	100.642999
3846.000000	100.642423
3845.000000	100.642314
3844.000000	100.642856
3843.000000	100.643382
3842.000000	100.642880
3841.000000	100.641057
3840.000000	100.638735
3839.000000	100.637331
3838.000000	100.637556
3837.000000	100.638840
3836.000000	100.639994
3835.000000	100.640492
3834.000000	100.640680
3833.000000	100.641090
3832.000000	100.641852
3831.000000	100.642585
3830.000000	100.642835
3829.000000	100.642577
3828.000000	100.642165
3827.000000	100.641927
3826.000000	100.641810
3825.000000	100.641540
3824.000000	100.641032
3823.000000	100.640453
3822.000000	100.639994
3821.000000	100.639675
3820.000000	100.639320
3819.000000	100.638885
3818.000000	100.638512
3817.000000	100.638235
3816.000000	100.637986
3815.000000	100.637716
3814.000000	100.637443
3813.000000	100.637196
3812.000000	100.636985
3811.000000	100.636804
3810.000000	100.636651
3809.000000	100.636531
3808.000000	100.636452
3807.000000	100.636413
3806.000000	100.636397
3805.000000	100.636382
3804.000000	100.636361
3803.000000	100.636339
3802.000000	100.636323
3801.000000	100.636310
3800.000000	100.636284
3799.000000	100.636239
3798.000000	100.636181
3797.000000	100.636115
3796.000000	100.636040
3795.000000	100.635955
3794.000000	100.635858
3793.000000	100.635759
3792.000000	100.635667
3791.000000	100.635585
3790.000000	100.635492
3789.000000	100.635356
3788.000000	100.635135
3787.000000	100.634800
3786.000000	100.634376
3785.000000	100.633922
3784.000000	100.633481
3783.000000	100.633067
3782.000000	100.632695
3781.000000	100.632426
3780.000000	100.632318
3779.000000	100.632324
3778.000000	100.632259
3777.000000	100.631940
3776.000000	100.631403
3775.000000	100.630956
3774.000000	100.630898
3773.000000	100.631292
3772.000000	100.631975
3771.000000	100.632663
3770.000000	100.633051
3769.000000	100.632925
3768.000000	100.632366
3767.000000	100.631829
3766.000000	100.631547
3765.000000	100.631124
3764.000000	100.630072
3763.000000	100.628640
3762.000000	100.627697
3761.000000	100.627520
3760.000000	100.627259
3759.000000	100.626206
3758.000000	100.624785
3757.000000	100.623783
3756.000000	100.623170
3755.000000	100.622451
3754.000000	100.621413
3753.000000	100.620065
3752.000000	100.618511
3751.000000	100.617380
3750.000000	100.617445
3749.000000	100.618133
3748.000000	100.617756
3747.000000	100.615393
3746.000000	100.611471
3745.000000	100.607886
3744.000000	100.606435
3743.000000	100.605629
3742.000000	100.604386
3741.000000	100.604899
3740.000000	100.607686
3739.000000	100.610730
3738.000000	100.612455
3737.000000	100.612863
3736.000000	100.612140
3735.000000	100.609934
3734.000000	100.606573
3733.000000	100.603380
3732.000000	100.600851
3731.000000	100.597997
3730.000000	100.594436
3729.000000	100.591415
3728.000000	100.590053
3727.000000	100.589533
3726.000000	100.587789
3725.000000	100.583866
3724.000000	100.579080
3723.000000	100.575451
3722.000000	100.573502
3721.000000	100.572232
3720.000000	100.570525
3719.000000	100.568345
3718.000000	100.566430
3717.000000	100.565252
3716.000000	100.564515
3715.000000	100.563611
3714.000000	100.561888
3713.000000	100.558740
3712.000000	100.554287
3711.000000	100.549482
3710.000000	100.545011
3709.000000	100.540824
3708.000000	100.536795
3707.000000	100.533152
3706.000000	100.530276
3705.000000	100.528352
3704.000000	100.527113
3703.000000	100.525824
3702.000000	100.523622
3701.000000	100.519956
3700.000000	100.514868
3699.000000	100.509133
3698.000000	100.503877
3697.000000	100.499694
3696.000000	100.496287
3695.000000	100.493130
3694.000000	100.490154
3693.000000	100.487384
3692.000000	100.484307
3691.000000	100.480148
3690.000000	100.474783
3689.000000	100.469043
3688.000000	100.463636
3687.000000	100.458508
3686.000000	100.453780
3685.000000	100.450010
3684.000000	100.447293
3683.000000	100.444988
3682.000000	100.442362
3681.000000	100.439150
3680.000000	100.435161
3679.000000	100.429787
3678.000000	100.422719
3677.000000	100.414834
3676.000000	100.408016
3675.000000	100.402855
3674.000000	100.397753
3673.000000	100.391693
3672.000000	100.385437
3671.000000	100.379854
3670.000000	100.375057
3669.000000	100.370272
3668.000000	100.364641
3667.000000	100.358545
3666.000000	100.353012
3665.000000	100.348360
3664.000000	100.343921
3663.000000	100.338660
3662.000000	100.332013
3661.000000	100.324207
3660.000000	100.315986
3659.000000	100.308317
3658.000000	100.302302
3657.000000	100.298448
3656.000000	100.295524
3655.000000	100.290638
3654.000000	100.282151
3653.000000	100.271345
3652.000000	100.260725
3651.000000	100.252396
3650.000000	100.247963
3649.000000	100.247212
3648.000000	100.247061
3647.000000	100.244284
3646.000000	100.238301
3645.000000	100.230966
3644.000000	100.224767
3643.000000	100.220823
3642.000000	100.217763
3641.000000	100.212930
3640.000000	100.205039
3639.000000	100.195487
3638.000000	100.186344
3637.000000	100.178023
3636.000000	100.170251
3635.000000	100.163815
3634.000000	100.159408
3633.000000	100.155176
3632.000000	100.148143
3631.000000	100.138147
3630.000000	100.129478
3629.000000	100.127122
3628.000000	100.128233
3627.000000	100.124868
3626.000000	100.118011
3625.000000	100.114121
3624.000000	100.114547
3623.000000	100.116344
3622.000000	100.117133
3621.000000	100.117274
3620.000000	100.118551
3619.000000	100.121987
3618.000000	100.126707
3617.000000	100.131080
3616.000000	100.134342
3615.000000	100.136251
3614.000000	100.136797
3613.000000	100.136588
3612.000000	100.136406
3611.000000	100.136562
3610.000000	100.136991
3609.000000	100.137510
3608.000000	100.138139
3607.000000	100.138908
3606.000000	100.139671
3605.000000	100.140317
3604.000000	100.140885
3603.000000	100.142039
3602.000000	100.144882
3601.000000	100.149313
3600.000000	100.153186
3599.000000	100.154533
3598.000000	100.154211
3597.000000	100.154389
3596.000000	100.155585
3595.000000	100.156207
3594.000000	100.155013
3593.000000	100.152484
3592.000000	100.149845
3591.000000	100.147316
3590.000000	100.144439
3589.000000	100.141845
3588.000000	100.141781
3587.000000	100.145538
3586.000000	100.151322
3585.000000	100.156178
3584.000000	100.158561
3583.000000	100.158328
3582.000000	100.156165
3581.000000	100.153331
3580.000000	100.151279
3579.000000	100.150970
3578.000000	100.152514
3577.000000	100.154972
3576.000000	100.156545
3575.000000	100.155404
3574.000000	100.150914
3573.000000	100.144146
3572.000000	100.137253
3571.000000	100.132060
3570.000000	100.129224
3569.000000	100.128485
3568.000000	100.129022
3567.000000	100.129481
3566.000000	100.128272
3565.000000	100.124661
3564.000000	100.119546
3563.000000	100.114896
3562.000000	100.112512
3561.000000	100.113044
3560.000000	100.115649
3559.000000	100.118612
3558.000000	100.120645
3557.000000	100.121540
3556.000000	100.121476
3555.000000	100.120223
3554.000000	100.117331
3553.000000	100.113013
3552.000000	100.108352
3551.000000	100.104432
3550.000000	100.101532
3549.000000	100.099193
3548.000000	100.096653
3547.000000	100.093358
3546.000000	100.089554
3545.000000	100.086404
3544.000000	100.085130
3543.000000	100.085925
3542.000000	100.087768
3541.000000	100.089238
3540.000000	100.089482
3539.000000	100.088597
3538.000000	100.087391
3537.000000	100.086877
3536.000000	100.087581
3535.000000	100.088912
3534.000000	100.089307
3533.000000	100.087337
3532.000000	100.082860
3531.000000	100.077299
3530.000000	100.072820
3529.000000	100.070833
3528.000000	100.071349
3527.000000	100.073215
3526.000000	100.074959
3525.000000	100.075707
3524.000000	100.075580
3523.000000	100.075397
3522.000000	100.075787
3521.000000	100.076558
3520.000000	100.077082
3519.000000	100.077187
3518.000000	100.077371
3517.000000	100.078090
3516.000000	100.079097
3515.000000	100.079623
3514.000000	100.079137
3513.000000	100.077758
3512.000000	100.076084
3511.000000	100.074751
3510.000000	100.074095
3509.000000	100.074059
3508.000000	100.074246
3507.000000	100.074137
3506.000000	100.073455
3505.000000	100.072419
3504.000000	100.071666
3503.000000	100.071663
3502.000000	100.072144
3501.000000	100.072302
3500.000000	100.071680
3499.000000	100.070618
3498.000000	100.069699
3497.000000	100.068960
3496.000000	100.067953
3495.000000	100.066603
3494.000000	100.065479
3493.000000	100.064981
3492.000000	100.064688
3491.000000	100.063845
3490.000000	100.062252
3489.000000	100.060382
3488.000000	100.058729
3487.000000	100.057473
3486.000000	100.056718
3485.000000	100.056535
3484.000000	100.056709
3483.000000	100.056710
3482.000000	100.056093
3481.000000	100.054896
3480.000000	100.053509
3479.000000	100.052223
3478.000000	100.051035
3477.000000	100.049836
3476.000000	100.048613
3475.000000	100.047426
3474.000000	100.046273
3473.000000	100.045058
3472.000000	100.043675
3471.000000	100.042095
3470.000000	100.040380
3469.000000	100.038625
3468.000000	100.036898
3467.000000	100.035246
3466.000000	100.033724
3465.000000	100.032375
3464.000000	100.031168
3463.000000	100.029970
3462.000000	100.028629
3461.000000	100.027118
3460.000000	100.025582
3459.000000	100.024213
3458.000000	100.023042
3457.000000	100.021895
3456.000000	100.020559
3455.000000	100.018965
3454.000000	100.017221
3453.000000	100.015522
3452.000000	100.013991
3451.000000	100.012641
3450.000000	100.011433
3449.000000	100.010322
3448.000000	100.009231
3447.000000	100.007996
3446.000000	100.006426
3445.000000	100.004451
3444.000000	100.002277
3443.000000	100.000323
3442.000000	99.998913
3441.000000	99.998027
3440.000000	99.997290
3439.000000	99.996281
3438.000000	99.994860
3437.000000	99.993161
3436.000000	99.991359
3435.000000	99.989458
3434.000000	99.987399
3433.000000	99.985326
3432.000000	99.983626
3431.000000	99.982590
3430.000000	99.982091
3429.000000	99.981648
3428.000000	99.980877
3427.000000	99.979857
3426.000000	99.979023
3425.000000	99.978757
3424.000000	99.979098
3423.000000	99.979767
3422.000000	99.980329
3421.000000	99.980296
3420.000000	99.979239
3419.000000	99.977045
3418.000000	99.974173
3417.000000	99.971566
3416.000000	99.970084
3415.000000	99.969976
3414.000000	99.970746
3413.000000	99.971436
3412.000000	99.971186
3411.000000	99.969669
3410.000000	99.967146
3409.000000	99.964279
3408.000000	99.961785
3407.000000	99.960172
3406.000000	99.959645
3405.000000	99.960089
3404.000000	99.961174
3403.000000	99.962564
3402.000000	99.964037
3401.000000	99.965344
3400.000000	99.966072
3399.000000	99.965850
3398.000000	99.964783
3397.000000	99.963478
3396.000000	99.962487
3395.000000	99.961742
3394.000000	99.960713
3393.000000	99.959224
3392.000000	99.958001
3391.000000	99.958151
3390.000000	99.960060
3389.000000	99.962934
3388.000000	99.965439
3387.000000	99.966873
3386.000000	99.967536
3385.000000	99.968034
3384.000000	99.968496
3383.000000	99.968533
3382.000000	99.967796
3381.000000	99.966360
3380.000000	99.964657
3379.000000	99.963266
3378.000000	99.962784
3377.000000	99.963676
3376.000000	99.966094
3375.000000	99.969758
3374.000000	99.973937
3373.000000	99.977665
3372.000000	99.980225
3371.000000	99.981512
3370.000000	99.981829
3369.000000	99.981420
3368.000000	99.980379
3367.000000	99.978995
3366.000000	99.977919
3365.000000	99.977748
3364.000000	99.978591
3363.000000	99.980203
3362.000000	99.982357
3361.000000	99.984811
3360.000000	99.987034
3359.000000	99.988355
3358.000000	99.988511
3357.000000	99.987924
3356.000000	99.987361
3355.000000	99.987400
3354.000000	99.988259
3353.000000	99.989923
3352.000000	99.992269
3351.000000	99.995094
3350.000000	99.998142
3349.000000	100.001110
3348.000000	100.003602
3347.000000	100.005192
3346.000000	100.005660
3345.000000	100.005185
3344.000000	100.004378
3343.000000	100.004045
3342.000000	100.004708
3341.000000	100.006255
3340.000000	100.007988
3339.000000	100.009179
3338.000000	100.009730
3337.000000	100.010193
3336.000000	100.011158
3335.000000	100.012704
3334.000000	100.014511
3333.000000	100.016244
3332.000000	100.017765
3331.000000	100.019056
3330.000000	100.020127
3329.000000	100.021041
3328.000000	100.021908
3327.000000	100.022805
3326.000000	100.023750
3325.000000	100.024746
3324.000000	100.025823
3323.000000	100.027002
3322.000000	100.028257
3321.000000	100.029511
3320.000000	100.030664
3319.000000	100.031658
3318.000000	100.032528
3317.000000	100.033372
3316.000000	100.034266
3315.000000	100.035197
3314.000000	100.036117
3313.000000	100.037006
3312.000000	100.037863
3311.000000	100.038684
3310.000000	100.039475
3309.000000	100.040248
3308.000000	100.041013
3307.000000	100.041776
3306.000000	100.042543
3305.000000	100.043319
3304.000000	100.044110
3303.000000	100.044917
3302.000000	100.045743
3301.000000	100.046582
3300.000000	100.047430
3299.000000	100.048284
3298.000000	100.049146
3297.000000	100.050017
3296.000000	100.050888
3295.000000	100.051747
3294.000000	100.052582
3293.000000	100.053391
3292.000000	100.054181
3291.000000	100.054959
3290.000000	100.055727
3289.000000	100.056484
3288.000000	100.057234
3287.000000	100.057981
3286.000000	100.058730
3285.000000	100.059482
3284.000000	100.060233
3283.000000	100.060996
3282.000000	100.061769
3281.000000	100.062518
3280.000000	100.063205
3279.000000	100.063843
3278.000000	100.064481
3277.000000	100.065127
3276.000000	100.065740
3275.000000	100.066300
3274.000000	100.066845
3273.000000	100.067443
3272.000000	100.068127
3271.000000	100.068855
3270.000000	100.069540
3269.000000	100.070136
3268.000000	100.070739
3267.000000	100.071543
3266.000000	100.072638
3265.000000	100.073846
3264.000000	100.074847
3263.000000	100.075475
3262.000000	100.075887
3261.000000	100.076468
3260.000000	100.077529
3259.000000	100.079034
3258.000000	100.080505
3257.000000	100.081321
3256.000000	100.081210
3255.000000	100.080375
3254.000000	100.079305
3253.000000	100.078474
3252.000000	100.078209
3251.000000	100.078670
3250.000000	100.079734
3249.000000	100.080993
3248.000000	100.082015
3247.000000	100.082681
3246.000000	100.083142
3245.000000	100.083536
3244.000000	100.083846
3243.000000	100.084032
3242.000000	100.084178
3241.000000	100.084432
3240.000000	100.084849
3239.000000	100.085355
3238.000000	100.085858
3237.000000	100.086363
3236.000000	100.086934
3235.000000	100.087583
3234.000000	100.088220
3233.000000	100.088746
3232.000000	100.089175
3231.000000	100.089608
3230.000000	100.090115
3229.000000	100.090663
3228.000000	100.091187
3227.000000	100.091673
3226.000000	100.092161
3225.000000	100.092696
3224.000000	100.093295
3223.000000	100.093947
3222.000000	100.094628
3221.000000	100.095331
3220.000000	100.096054
3219.000000	100.096790
3218.000000	100.097535
3217.000000	100.098288
3216.000000	100.099053
3215.000000	100.099833
3214.000000	100.100632
3213.000000	100.101455
3212.000000	100.102301
3211.000000	100.103164
3210.000000	100.104033
3209.000000	100.104898
3208.000000	100.105759
3207.000000	100.106620
3206.000000	100.107486
3205.000000	100.108363
3204.000000	100.109254
3203.000000	100.110165
3202.000000	100.111103
3201.000000	100.112074
3200.000000	100.113078
3199.000000	100.114105
3198.000000	100.115136
3197.000000	100.116156
3196.000000	100.117158
3195.000000	100.118149
3194.000000	100.119137
3193.000000	100.120126
3192.000000	100.121112
3191.000000	100.122097
3190.000000	100.123084
3189.000000	100.124084
3188.000000	100.125101
3187.000000	100.126134
3186.000000	100.127173
3185.000000	100.128209
3184.000000	100.129237
3183.000000	100.130254
3182.000000	100.131256
3181.000000	100.132236
3180.000000	100.133186
3179.000000	100.134107
3178.000000	100.135006
3177.000000	100.135896
3176.000000	100.136787
3175.000000	100.137686
3174.000000	100.138596
3173.000000	100.139519
3172.000000	100.140453
3171.000000	100.141401
3170.000000	100.142361
3169.000000	100.143333
3168.000000	100.144315
3167.000000	100.145303
3166.000000	100.146292
3165.000000	100.147278
3164.000000	100.148261
3163.000000	100.149247
3162.000000	100.150240
3161.000000	100.151241
3160.000000	100.152242
3159.000000	100.153236
3158.000000	100.154216
3157.000000	100.155182
3156.000000	100.156137
3155.000000	100.157092
3154.000000	100.158056
3153.000000	100.159032
3152.000000	100.160019
3151.000000	100.161013
3150.000000	100.162016
3149.000000	100.163032
3148.000000	100.164067
3147.000000	100.165118
3146.000000	100.166174
3145.000000	100.167230
3144.000000	100.168282
3143.000000	100.169336
3142.000000	100.170399
3141.000000	100.171472
3140.000000	100.172554
3139.000000	100.173642
3138.000000	100.174739
3137.000000	100.175852
3136.000000	100.176981
3135.000000	100.178127
3134.000000	100.179283
3133.000000	100.180445
3132.000000	100.181603
3131.000000	100.182752
3130.000000	100.183884
3129.000000	100.184999
3128.000000	100.186097
3127.000000	100.187185
3126.000000	100.188270
3125.000000	100.189358
3124.000000	100.190454
3123.000000	100.191558
3122.000000	100.192671
3121.000000	100.193789
3120.000000	100.194907
3119.000000	100.196014
3118.000000	100.197106
3117.000000	100.198182
3116.000000	100.199249
3115.000000	100.200316
3114.000000	100.201385
3113.000000	100.202456
3112.000000	100.203529
3111.000000	100.204601
3110.000000	100.205672
3109.000000	100.206742
3108.000000	100.207808
3107.000000	100.208865
3106.000000	100.209911
3105.000000	100.210945
3104.000000	100.211966
3103.000000	100.212975
3102.000000	100.213971
3101.000000	100.214953
3100.000000	100.215925
3099.000000	100.216892
3098.000000	100.217860
3097.000000	100.218836
3096.000000	100.219823
3095.000000	100.220815
3094.000000	100.221808
3093.000000	100.222798
3092.000000	100.223786
3091.000000	100.224771
3090.000000	100.225755
3089.000000	100.226738
3088.000000	100.227724
3087.000000	100.228711
3086.000000	100.229703
3085.000000	100.230705
3084.000000	100.231716
3083.000000	100.232719
3082.000000	100.233684
3081.000000	100.234599
3080.000000	100.235476
3079.000000	100.236332
3078.000000	100.237182
3077.000000	100.238045
3076.000000	100.238939
3075.000000	100.239860
3074.000000	100.240757
3073.000000	100.241582
3072.000000	100.242371
3071.000000	100.243204
3070.000000	100.244081
3069.000000	100.244878
3068.000000	100.245480
3067.000000	100.245934
3066.000000	100.246429
3065.000000	100.247107
3064.000000	100.247922
3063.000000	100.248725
3062.000000	100.249477
3061.000000	100.250272
3060.000000	100.251109
3059.000000	100.251805
3058.000000	100.252320
3057.000000	100.253037
3056.000000	100.254450
3055.000000	100.256515
3054.000000	100.258482
3053.000000	100.259626
3052.000000	100.259911
3051.000000	100.259890
3050.000000	100.260038
3049.000000	100.260362
3048.000000	100.260658
3047.000000	100.260828
3046.000000	100.260928
3045.000000	100.261141
3044.000000	100.261777
3043.000000	100.263048
3042.000000	100.264689
3041.000000	100.265920
3040.000000	100.266061
3039.000000	100.265184
3038.000000	100.264195
3037.000000	100.264092
3036.000000	100.265197
3035.000000	100.267146
3034.000000	100.269361
3033.000000	100.271419
3032.000000	100.273037
3031.000000	100.274068
3030.000000	100.274723
3029.000000	100.275567
3028.000000	100.276992
3027.000000	100.278779
3026.000000	100.280400
3025.000000	100.281703
3024.000000	100.282997
3023.000000	100.284383
3022.000000	100.285385
3021.000000	100.285508
3020.000000	100.284986
3019.000000	100.284745
3018.000000	100.285552
3017.000000	100.287282
3016.000000	100.289115
3015.000000	100.290476
3014.000000	100.291697
3013.000000	100.293650
3012.000000	100.296637
3011.000000	100.299677
3010.000000	100.301174
3009.000000	100.300507
3008.000000	100.298670
3007.000000	100.297270
3006.000000	100.297213
3005.000000	100.298637
3004.000000	100.301465
3003.000000	100.305126
3002.000000	100.307995
3001.000000	100.308317
3000.000000	100.306114
2999.000000	100.303477
2998.000000	100.302375
2997.000000	100.302699
2996.000000	100.302941
2995.000000	100.302245
2994.000000	100.301162
2993.000000	100.300832
2992.000000	100.302234
2991.000000	100.305961
2990.000000	100.311720
2989.000000	100.317772
2988.000000	100.321774
2987.000000	100.322781
2986.000000	100.322184
2985.000000	100.322277
2984.000000	100.323853
2983.000000	100.325356
2982.000000	100.324447
2981.000000	100.320422
2980.000000	100.315219
2979.000000	100.311973
2978.000000	100.312549
2977.000000	100.316596
2976.000000	100.322748
2975.000000	100.330122
2974.000000	100.338277
2973.000000	100.346357
2972.000000	100.353439
2971.000000	100.359910
2970.000000	100.367364
2969.000000	100.376269
2968.000000	100.384427
2967.000000	100.388996
2966.000000	100.390090
2965.000000	100.391155
2964.000000	100.395360
2963.000000	100.402694
2962.000000	100.411207
2961.000000	100.419923
2960.000000	100.429040
2959.000000	100.437842
2958.000000	100.444102
2957.000000	100.446132
2956.000000	100.444688
2955.000000	100.442517
2954.000000	100.442417
2953.000000	100.445512
2952.000000	100.450543
2951.000000	100.454732
2950.000000	100.456284
2949.000000	100.456533
2948.000000	100.458969
2947.000000	100.465900
2946.000000	100.476668
2945.000000	100.489223
2944.000000	100.502139
2943.000000	100.514191
2942.000000	100.523280
2941.000000	100.527767
2940.000000	100.529005
2939.000000	100.531208
2938.000000	100.538274
2937.000000	100.551389
2936.000000	100.569657
2935.000000	100.591727
2934.000000	100.615991
2933.000000	100.639942
2932.000000	100.660547
2931.000000	100.675648
2930.000000	100.685041
2929.000000	100.690558
2928.000000	100.695169
2927.000000	100.701296
2926.000000	100.709275
2925.000000	100.717241
2924.000000	100.722493
2923.000000	100.722835
2922.000000	100.716863
2921.000000	100.703958
2920.000000	100.684803
2919.000000	100.661754
2918.000000	100.638088
2917.000000	100.616447
2916.000000	100.597771
2915.000000	100.581430
2914.000000	100.566254
2913.000000	100.551748
2912.000000	100.538758
2911.000000	100.528836
2910.000000	100.522449
2909.000000	100.517568
2908.000000	100.510437
2907.000000	100.498474
2906.000000	100.482787
2905.000000	100.467620
2904.000000	100.456834
2903.000000	100.450716
2902.000000	100.446474
2901.000000	100.441803
2900.000000	100.437416
2899.000000	100.435524
2898.000000	100.436091
2897.000000	100.435578
2896.000000	100.430013
2895.000000	100.419197
2894.000000	100.407401
2893.000000	100.399839
2892.000000	100.398663
2891.000000	100.402019
2890.000000	100.406201
2889.000000	100.408385
2888.000000	100.407862
2887.000000	100.405646
2886.000000	100.403365
2885.000000	100.402044
2884.000000	100.401347
2883.000000	100.400105
2882.000000	100.398090
2881.000000	100.397112
2880.000000	100.399629
2879.000000	100.405985
2878.000000	100.413571
2877.000000	100.419073
2876.000000	100.421250
2875.000000	100.421308
2874.000000	100.421192
2873.000000	100.421947
2872.000000	100.423178
2871.000000	100.423407
2870.000000	100.421516
2869.000000	100.418765
2868.000000	100.418874
2867.000000	100.424784
2866.000000	100.435292
2865.000000	100.446233
2864.000000	100.455429
2863.000000	100.465038
2862.000000	100.478042
2861.000000	100.493802
2860.000000	100.508663
2859.000000	100.520242
2858.000000	100.529283
2857.000000	100.537355
2856.000000	100.544448
2855.000000	100.549361
2854.000000	100.551203
2853.000000	100.549784
2852.000000	100.545231
2851.000000	100.537864
2850.000000	100.528148
2849.000000	100.516331
2848.000000	100.502412
2847.000000	100.486864
2846.000000	100.471072
2845.000000	100.456529
2844.000000	100.443771
2843.000000	100.432571
2842.000000	100.422820
2841.000000	100.414519
2840.000000	100.407163
2839.000000	100.400175
2838.000000	100.394191
2837.000000	100.390981
2836.000000	100.391351
2835.000000	100.393681
2834.000000	100.395307
2833.000000	100.395057
2832.000000	100.393683
2831.000000	100.392069
2830.000000	100.390120
2829.000000	100.387625
2828.000000	100.385119
2827.000000	100.383191
2826.000000	100.381491
2825.000000	100.379161
2824.000000	100.375945
2823.000000	100.372475
2822.000000	100.369813
2821.000000	100.369063
2820.000000	100.370687
2819.000000	100.373348
2818.000000	100.373969
2817.000000	100.370382
2816.000000	100.364118
2815.000000	100.359612
2814.000000	100.360210
2813.000000	100.365501
2812.000000	100.372276
2811.000000	100.377232
2810.000000	100.378881
2809.000000	100.377815
2808.000000	100.375907
2807.000000	100.374759
2806.000000	100.374376
2805.000000	100.373657
2804.000000	100.372377
2803.000000	100.371931
2802.000000	100.373417
2801.000000	100.375667
2800.000000	100.376355
2799.000000	100.374937
2798.000000	100.373327
2797.000000	100.373475
2796.000000	100.375245
2795.000000	100.377168
2794.000000	100.378343
2793.000000	100.378916
2792.000000	100.379222
2791.000000	100.379348
2790.000000	100.379489
2789.000000	100.380013
2788.000000	100.380986
2787.000000	100.381990
2786.000000	100.382615
2785.000000	100.382916
2784.000000	100.383242
2783.000000	100.383821
2782.000000	100.384591
2781.000000	100.385303
2780.000000	100.385676
2779.000000	100.385558
2778.000000	100.385086
2777.000000	100.384724
2776.000000	100.384966
2775.000000	100.385926
2774.000000	100.387301
2773.000000	100.388676
2772.000000	100.389877
2771.000000	100.390914
2770.000000	100.391781
2769.000000	100.392462
2768.000000	100.393016
2767.000000	100.393550
2766.000000	100.394101
2765.000000	100.394660
2764.000000	100.395297
2763.000000	100.396137
2762.000000	100.397173
2761.000000	100.398196
2760.000000	100.398984
2759.000000	100.399552
2758.000000	100.400109
2757.000000	100.400806
2756.000000	100.401544
2755.000000	100.402105
2754.000000	100.402391
2753.000000	100.402536
2752.000000	100.402829
2751.000000	100.403447
2750.000000	100.404340
2749.000000	100.405315
2748.000000	100.406236
2747.000000	100.407126
2746.000000	100.408029
2745.000000	100.408868
2744.000000	100.409514
2743.000000	100.409961
2742.000000	100.410349
2741.000000	100.410837
2740.000000	100.411450
2739.000000	100.412109
2738.000000	100.412713
2737.000000	100.413211
2736.000000	100.413618
2735.000000	100.414006
2734.000000	100.414460
2733.000000	100.415007
2732.000000	100.415551
2731.000000	100.415928
2730.000000	100.416051
2729.000000	100.416023
2728.000000	100.416039
2727.000000	100.416199
2726.000000	100.416510
2725.000000	100.417028
2724.000000	100.417805
2723.000000	100.418665
2722.000000	100.419211
2721.000000	100.419227
2720.000000	100.419002
2719.000000	100.419073
2718.000000	100.419621
2717.000000	100.420357
2716.000000	100.420958
2715.000000	100.421399
2714.000000	100.421730
2713.000000	100.421806
2712.000000	100.421519
2711.000000	100.421223
2710.000000	100.421568
2709.000000	100.422755
2708.000000	100.424122
2707.000000	100.424655
2706.000000	100.423914
2705.000000	100.422351
2704.000000	100.420884
2703.000000	100.420055
2702.000000	100.419734
2701.000000	100.419559
2700.000000	100.419413
2699.000000	100.419260
2698.000000	100.418708
2697.000000	100.417302
2696.000000	100.415450
2695.000000	100.414495
2694.000000	100.415280
2693.000000	100.417097
2692.000000	100.418521
2691.000000	100.419223
2690.000000	100.420115
2689.000000	100.421705
2688.000000	100.423281
2687.000000	100.424042
2686.000000	100.424240
2685.000000	100.424532
2684.000000	100.424821
2683.000000	100.424602
2682.000000	100.424180
2681.000000	100.424564
2680.000000	100.426005
2679.000000	100.427450
2678.000000	100.427839
2677.000000	100.427435
2676.000000	100.427380
2675.000000	100.428297
2674.000000	100.429886
2673.000000	100.431621
2672.000000	100.433195
2671.000000	100.434277
2670.000000	100.434436
2669.000000	100.433592
2668.000000	100.432283
2667.000000	100.431229
2666.000000	100.430702
2665.000000	100.430601
2664.000000	100.430904
2663.000000	100.431716
2662.000000	100.432932
2661.000000	100.434192
2660.000000	100.435257
2659.000000	100.436265
2658.000000	100.437418
2657.000000	100.438547
2656.000000	100.439230
2655.000000	100.439331
2654.000000	100.439233
2653.000000	100.439383
2652.000000	100.439788
2651.000000	100.440185
2650.000000	100.440528
2649.000000	100.441007
2648.000000	100.441600
2647.000000	100.441904
2646.000000	100.441605
2645.000000	100.440882
2644.000000	100.440229
2643.000000	100.439934
2642.000000	100.439939
2641.000000	100.440107
2640.000000	100.440394
2639.000000	100.440738
2638.000000	100.441020
2637.000000	100.441203
2636.000000	100.441371
2635.000000	100.441564
2634.000000	100.441678
2633.000000	100.441599
2632.000000	100.441358
2631.000000	100.441106
2630.000000	100.440987
2629.000000	100.441052
2628.000000	100.441249
2627.000000	100.441424
2626.000000	100.441396
2625.000000	100.441129
2624.000000	100.440751
2623.000000	100.440415
2622.000000	100.440122
2621.000000	100.439795
2620.000000	100.439428
2619.000000	100.439072
2618.000000	100.438748
2617.000000	100.438437
2616.000000	100.438127
2615.000000	100.437820
2614.000000	100.437512
2613.000000	100.437186
2612.000000	100.436843
2611.000000	100.436496
2610.000000	100.436166
2609.000000	100.435866
2608.000000	100.435599
2607.000000	100.435357
2606.000000	100.435132
2605.000000	100.434916
2604.000000	100.434707
2603.000000	100.434505
2602.000000	100.434311
2601.000000	100.434121
2600.000000	100.433931
2599.000000	100.433739
2598.000000	100.433549
2597.000000	100.433373
2596.000000	100.433210
2595.000000	100.433048
2594.000000	100.432870
2593.000000	100.432667
2592.000000	100.432453
2591.000000	100.432264
2590.000000	100.432142
2589.000000	100.432097
2588.000000	100.432082
2587.000000	100.432029
2586.000000	100.431918
2585.000000	100.431806
2584.000000	100.431765
2583.000000	100.431811
2582.000000	100.431892
2581.000000	100.431949
2580.000000	100.431987
2579.000000	100.432086
2578.000000	100.432337
2577.000000	100.432728
2576.000000	100.433089
2575.000000	100.433220
2574.000000	100.433061
2573.000000	100.432723
2572.000000	100.432392
2571.000000	100.432260
2570.000000	100.432507
2569.000000	100.433210
2568.000000	100.434234
2567.000000	100.435297
2566.000000	100.436136
2565.000000	100.436606
2564.000000	100.436709
2563.000000	100.436563
2562.000000	100.436282
2561.000000	100.435851
2560.000000	100.435204
2559.000000	100.434506
2558.000000	100.434140
2557.000000	100.434292
2556.000000	100.434721
2555.000000	100.435085
2554.000000	100.435303
2553.000000	100.435408
2552.000000	100.435295
2551.000000	100.434993
2550.000000	100.435015
2549.000000	100.435939
2548.000000	100.437571
2547.000000	100.438907
2546.000000	100.439157
2545.000000	100.438469
2544.000000	100.437587
2543.000000	100.437036
2542.000000	100.436700
2541.000000	100.436038
2540.000000	100.434616
2539.000000	100.432674
2538.000000	100.431254
2537.000000	100.431453
2536.000000	100.433454
2535.000000	100.436319
2534.000000	100.438791
2533.000000	100.440299
2532.000000	100.440985
2531.000000	100.441119
2530.000000	100.440850
2529.000000	100.440460
2528.000000	100.440462
2527.000000	100.441136
2526.000000	100.442101
2525.000000	100.442629
2524.000000	100.442481
2523.000000	100.442287
2522.000000	100.442896
2521.000000	100.444463
2520.000000	100.446367
2519.000000	100.447976
2518.000000	100.449247
2517.000000	100.450487
2516.000000	100.451829
2515.000000	100.453104
2514.000000	100.454120
2513.000000	100.454851
2512.000000	100.455369
2511.000000	100.455731
2510.000000	100.455953
2509.000000	100.456028
2508.000000	100.455994
2507.000000	100.455998
2506.000000	100.456261
2505.000000	100.456886
2504.000000	100.457751
2503.000000	100.458608
2502.000000	100.459279
2501.000000	100.459779
2500.000000	100.460222
2499.000000	100.460703
2498.000000	100.461240
2497.000000	100.461799
2496.000000	100.462348
2495.000000	100.462876
2494.000000	100.463383
2493.000000	100.463868
2492.000000	100.464335
2491.000000	100.464792
2490.000000	100.465244
2489.000000	100.465694
2488.000000	100.466136
2487.000000	100.466560
2486.000000	100.466955
2485.000000	100.467318
2484.000000	100.467659
2483.000000	100.467990
2482.000000	100.468318
2481.000000	100.468644
2480.000000	100.468957
2479.000000	100.469254
2478.000000	100.469536
2477.000000	100.469814
2476.000000	100.470102
2475.000000	100.470411
2474.000000	100.470744
2473.000000	100.471095
2472.000000	100.471456
2471.000000	100.471815
2470.000000	100.472167
2469.000000	100.472518
2468.000000	100.472876
2467.000000	100.473253
2466.000000	100.473653
2465.000000	100.474075
2464.000000	100.474508
2463.000000	100.474939
2462.000000	100.475365
2461.000000	100.475788
2460.000000	100.476214
2459.000000	100.476644
2458.000000	100.477075
2457.000000	100.477501
2456.000000	100.477917
2455.000000	100.478327
2454.000000	100.478735
2453.000000	100.479146
2452.000000	100.479560
2451.000000	100.479975
2450.000000	100.480389
2449.000000	100.480798
2448.000000	100.481193
2447.000000	100.481567
2446.000000	100.481924
2445.000000	100.482292
2444.000000	100.482706
2443.000000	100.483183
2442.000000	100.483701
2441.000000	100.484225
2440.000000	100.484732
2439.000000	100.485222
2438.000000	100.485715
2437.000000	100.486243
2436.000000	100.486794
2435.000000	100.487312
2434.000000	100.487762
2433.000000	100.488176
2432.000000	100.488591
2431.000000	100.488971
2430.000000	100.489261
2429.000000	100.489487
2428.000000	100.489777
2427.000000	100.490204
2426.000000	100.490711
2425.000000	100.491162
2424.000000	100.491484
2423.000000	100.491691
2422.000000	100.491838
2421.000000	100.492000
2420.000000	100.492266
2419.000000	100.492668
2418.000000	100.493094
2417.000000	100.493369
2416.000000	100.493480
2415.000000	100.493634
2414.000000	100.494007
2413.000000	100.494498
2412.000000	100.494824
2411.000000	100.494848
2410.000000	100.494751
2409.000000	100.494750
2408.000000	100.494798
2407.000000	100.494741
2406.000000	100.494589
2405.000000	100.494479
2404.000000	100.494487
2403.000000	100.494536
2402.000000	100.494484
2401.000000	100.494261
2400.000000	100.493897
2399.000000	100.493488
2398.000000	100.493122
2397.000000	100.492801
2396.000000	100.492477
2395.000000	100.492112
2394.000000	100.491700
2393.000000	100.491256
2392.000000	100.490798
2391.000000	100.490337
2390.000000	100.489874
2389.000000	100.489404
2388.000000	100.488921
2387.000000	100.488425
2386.000000	100.487919
2385.000000	100.487406
2384.000000	100.486885
2383.000000	100.486355
2382.000000	100.485819
2381.000000	100.485279
2380.000000	100.484735
2379.000000	100.484182
2378.000000	100.483618
2377.000000	100.483046
2376.000000	100.482470
2375.000000	100.481890
2374.000000	100.481308
2373.000000	100.480725
2372.000000	100.480150
2371.000000	100.479598
2370.000000	100.479087
2369.000000	100.478629
2368.000000	100.478219
2367.000000	100.477839
2366.000000	100.477465
2365.000000	100.477079
2364.000000	100.476675
2363.000000	100.476264
2362.000000	100.475860
2361.000000	100.475481
2360.000000	100.475138
2359.000000	100.474830
2358.000000	100.474548
2357.000000	100.474279
2356.000000	100.474017
2355.000000	100.473771
2354.000000	100.473555
2353.000000	100.473382
2352.000000	100.473254
2351.000000	100.473166
2350.000000	100.473110
2349.000000	100.473082
2348.000000	100.473078
2347.000000	100.473096
2346.000000	100.473127
2345.000000	100.473163
2344.000000	100.473203
2343.000000	100.473254
2342.000000	100.473328
2341.000000	100.473428
2340.000000	100.473546
2339.000000	100.473672
2338.000000	100.473822
2337.000000	100.474020
2336.000000	100.474264
2335.000000	100.474511
2334.000000	100.474727
2333.000000	100.474945
2332.000000	100.475246
2331.000000	100.475678
2330.000000	100.476226
2329.000000	100.476812
2328.000000	100.477297
2327.000000	100.477601
2326.000000	100.477727
2325.000000	100.477887
2324.000000	100.478243
2323.000000	100.478742
2322.000000	100.479166
2321.000000	100.479381
2320.000000	100.479527
2319.000000	100.479724
2318.000000	100.479972
2317.000000	100.480111
2316.000000	100.480056
2315.000000	100.479820
2314.000000	100.479536
2313.000000	100.479464
2312.000000	100.479878
2311.000000	100.480961
2310.000000	100.482520
2309.000000	100.484019
2308.000000	100.484871
2307.000000	100.484905
2306.000000	100.484441
2305.000000	100.484114
2304.000000	100.484342
2303.000000	100.485141
2302.000000	100.486236
2301.000000	100.487309
2300.000000	100.488103
2299.000000	100.488466
2298.000000	100.488383
2297.000000	100.488031
2296.000000	100.487571
2295.000000	100.487022
2294.000000	100.486286
2293.000000	100.485487
2292.000000	100.484992
2291.000000	100.485103
2290.000000	100.485639
2289.000000	100.486036
2288.000000	100.485889
2287.000000	100.485379
2286.000000	100.485041
2285.000000	100.485153
2284.000000	100.485492
2283.000000	100.485670
2282.000000	100.485550
2281.000000	100.485249
2280.000000	100.484915
2279.000000	100.484658
2278.000000	100.484619
2277.000000	100.484865
2276.000000	100.485206
2275.000000	100.485261
2274.000000	100.484794
2273.000000	100.483904
2272.000000	100.482905
2271.000000	100.482054
2270.000000	100.481436
2269.000000	100.481041
2268.000000	100.480834
2267.000000	100.480807
2266.000000	100.480952
2265.000000	100.481177
2264.000000	100.481276
2263.000000	100.481103
2262.000000	100.480688
2261.000000	100.480192
2260.000000	100.479756
2259.000000	100.479397
2258.000000	100.479070
2257.000000	100.478738
2256.000000	100.478390
2255.000000	100.478036
2254.000000	100.477702
2253.000000	100.477414
2252.000000	100.477168
2251.000000	100.476925
2250.000000	100.476638
2249.000000	100.476296
2248.000000	100.475921
2247.000000	100.475552
2246.000000	100.475206
2245.000000	100.474877
2244.000000	100.474548
2243.000000	100.474212
2242.000000	100.473875
2241.000000	100.473537
2240.000000	100.473210
2239.000000	100.472932
2238.000000	100.472748
2237.000000	100.472666
2236.000000	100.472635
2235.000000	100.472562
2234.000000	100.472387
2233.000000	100.472120
2232.000000	100.471827
2231.000000	100.471595
2230.000000	100.471462
2229.000000	100.471400
2228.000000	100.471324
2227.000000	100.471165
2226.000000	100.470938
2225.000000	100.470735
2224.000000	100.470603
2223.000000	100.470481
2222.000000	100.470285
2221.000000	100.470054
2220.000000	100.469920
2219.000000	100.469926
2218.000000	100.469953
2217.000000	100.469861
2216.000000	100.469658
2215.000000	100.469498
2214.000000	100.469541
2213.000000	100.469802
2212.000000	100.470095
2211.000000	100.470155
2210.000000	100.469894
2209.000000	100.469502
2208.000000	100.469235
2207.000000	100.469177
2206.000000	100.469336
2205.000000	100.469845
2204.000000	100.470810
2203.000000	100.472012
2202.000000	100.473021
2201.000000	100.473648
2200.000000	100.474032
2199.000000	100.474303
2198.000000	100.474345
2197.000000	100.474048
2196.000000	100.473616
2195.000000	100.473470
2194.000000	100.473883
2193.000000	100.474826
2192.000000	100.476032
2191.000000	100.477105
2190.000000	100.477796
2189.000000	100.478207
2188.000000	100.478592
2187.000000	100.478955
2186.000000	100.479059
2185.000000	100.478880
2184.000000	100.478782
2183.000000	100.479039
2182.000000	100.479444
2181.000000	100.479605
2180.000000	100.479466
2179.000000	100.479331
2178.000000	100.479486
2177.000000	100.480013
2176.000000	100.480880
2175.000000	100.481942
2174.000000	100.482884
2173.000000	100.483427
2172.000000	100.483597
2171.000000	100.483692
2170.000000	100.483972
2169.000000	100.484445
2168.000000	100.484954
2167.000000	100.485387
2166.000000	100.485741
2165.000000	100.486051
2164.000000	100.486348
2163.000000	100.486660
2162.000000	100.487011
2161.000000	100.487399
2160.000000	100.487772
2159.000000	100.488038
2158.000000	100.488121
2157.000000	100.488025
2156.000000	100.487822
2155.000000	100.487634
2154.000000	100.487600
2153.000000	100.487814
2152.000000	100.488253
2151.000000	100.488751
2150.000000	100.489104
2149.000000	100.489226
2148.000000	100.489194
2147.000000	100.489151
2146.000000	100.489178
2145.000000	100.489270
2144.000000	100.489408
2143.000000	100.489610
2142.000000	100.489896
2141.000000	100.490241
2140.000000	100.490568
2139.000000	100.490809
2138.000000	100.490975
2137.000000	100.491169
2136.000000	100.491494
2135.000000	100.491954
2134.000000	100.492449
2133.000000	100.492849
2132.000000	100.493101
2131.000000	100.493263
2130.000000	100.493473
2129.000000	100.493850
2128.000000	100.494400
2127.000000	100.495010
2126.000000	100.495552
2125.000000	100.496006
2124.000000	100.496466
2123.000000	100.497036
2122.000000	100.497729
2121.000000	100.498450
2120.000000	100.499077
2119.000000	100.499535
2118.000000	100.499824
2117.000000	100.500039
2116.000000	100.500334
2115.000000	100.500841
2114.000000	100.501586
2113.000000	100.502492
2112.000000	100.503461
2111.000000	100.504416
2110.000000	100.505281
2109.000000	100.505983
2108.000000	100.506511
2107.000000	100.506937
2106.000000	100.507374
2105.000000	100.507880
2104.000000	100.508441
2103.000000	100.509044
2102.000000	100.509716
2101.000000	100.510481
2100.000000	100.511281
2099.000000	100.511976
2098.000000	100.512477
2097.000000	100.512814
2096.000000	100.513121
2095.000000	100.513524
2094.000000	100.514074
2093.000000	100.514773
2092.000000	100.515582
2091.000000	100.516411
2090.000000	100.517139
2089.000000	100.517707
2088.000000	100.518166
2087.000000	100.518601
2086.000000	100.519029
2085.000000	100.519411
2084.000000	100.519731
2083.000000	100.520024
2082.000000	100.520326
2081.000000	100.520637
2080.000000	100.520911
2079.000000	100.521101
2078.000000	100.521210
2077.000000	100.521322
2076.000000	100.521549
2075.000000	100.521906
2074.000000	100.522317
2073.000000	100.522671
2072.000000	100.522926
2071.000000	100.523107
2070.000000	100.523262
2069.000000	100.523429
2068.000000	100.523630
2067.000000	100.523866
2066.000000	100.524106
2065.000000	100.524304
2064.000000	100.524443
2063.000000	100.524549
2062.000000	100.524661
2061.000000	100.524767
2060.000000	100.524828
2059.000000	100.524841
2058.000000	100.524854
2057.000000	100.524917
2056.000000	100.525029
2055.000000	100.525136
2054.000000	100.525174
2053.000000	100.525113
2052.000000	100.524966
2051.000000	100.524760
2050.000000	100.524512
2049.000000	100.524219
2048.000000	100.523910
2047.000000	100.523653
2046.000000	100.523514
2045.000000	100.523493
2044.000000	100.523508
2043.000000	100.523435
2042.000000	100.523183
2041.000000	100.522779
2040.000000	100.522395
2039.000000	100.522222
2038.000000	100.522272
2037.000000	100.522362
2036.000000	100.522326
2035.000000	100.522189
2034.000000	100.522025
2033.000000	100.521760
2032.000000	100.521318
2031.000000	100.520870
2030.000000	100.520712
2029.000000	100.520895
2028.000000	100.521131
2027.000000	100.521077
2026.000000	100.520562
2025.000000	100.519632
2024.000000	100.518523
2023.000000	100.517539
2022.000000	100.516829
2021.000000	100.516319
2020.000000	100.515917
2019.000000	100.515672
2018.000000	100.515633
2017.000000	100.515676
2016.000000	100.515624
2015.000000	100.515451
2014.000000	100.515171
2013.000000	100.514627
2012.000000	100.513650
2011.000000	100.512395
2010.000000	100.511288
2009.000000	100.510576
2008.000000	100.510160
2007.000000	100.509910
2006.000000	100.509897
2005.000000	100.510139
2004.000000	100.510371
2003.000000	100.510291
2002.000000	100.509878
2001.000000	100.509307
2000.000000	100.508671
1999.000000	100.508006
1998.000000	100.507488
1997.000000	100.507326
1996.000000	100.507479
1995.000000	100.507678
1994.000000	100.507740
1993.000000	100.507724
1992.000000	100.507725
1991.000000	100.507652
1990.000000	100.507311
1989.000000	100.506653
1988.000000	100.505855
1987.000000	100.505206
1986.000000	100.504883
1985.000000	100.504849
1984.000000	100.504920
1983.000000	100.504900
1982.000000	100.504725
1981.000000	100.504437
1980.000000	100.504069
1979.000000	100.503632
1978.000000	100.503226
1977.000000	100.503011
1976.000000	100.503040
1975.000000	100.503182
1974.000000	100.503277
1973.000000	100.503312
1972.000000	100.503354
1971.000000	100.503340
1970.000000	100.503083
1969.000000	100.502506
1968.000000	100.501775
1967.000000	100.501160
1966.000000	100.500821
1965.000000	100.500780
1964.000000	100.500990
1963.000000	100.501283
1962.000000	100.501439
1961.000000	100.501379
1960.000000	100.501200
1959.000000	100.500928
1958.000000	100.500372
1957.000000	100.499403
1956.000000	100.498262
1955.000000	100.497395
1954.000000	100.497003
1953.000000	100.496886
1952.000000	100.496852
1951.000000	100.496985
1950.000000	100.497415
1949.000000	100.498090
1948.000000	100.498761
1947.000000	100.499245
1946.000000	100.499648
1945.000000	100.500162
1944.000000	100.500649
1943.000000	100.500639
1942.000000	100.499876
1941.000000	100.498589
1940.000000	100.497152
1939.000000	100.495729
1938.000000	100.494441
1937.000000	100.493678
1936.000000	100.493833
1935.000000	100.494667
1934.000000	100.495307
1933.000000	100.495044
1932.000000	100.493963
1931.000000	100.492518
1930.000000	100.490876
1929.000000	100.489023
1928.000000	100.486997
1927.000000	100.485023
1926.000000	100.483362
1925.000000	100.482275
1924.000000	100.481937
1923.000000	100.482013
1922.000000	100.481696
1921.000000	100.480485
1920.000000	100.478712
1919.000000	100.477208
1918.000000	100.476480
1917.000000	100.476197
1916.000000	100.475594
1915.000000	100.474341
1914.000000	100.472695
1913.000000	100.471095
1912.000000	100.469838
1911.000000	100.468895
1910.000000	100.467959
1909.000000	100.466723
1908.000000	100.465141
1907.000000	100.463536
1906.000000	100.462259
1905.000000	100.461333
1904.000000	100.460494
1903.000000	100.459428
1902.000000	100.458084
1901.000000	100.456581
1900.000000	100.454876
1899.000000	100.452948
1898.000000	100.451139
1897.000000	100.449987
1896.000000	100.449609
1895.000000	100.449353
1894.000000	100.448490
1893.000000	100.447056
1892.000000	100.445663
1891.000000	100.444699
1890.000000	100.444058
1889.000000	100.443374
1888.000000	100.442291
1887.000000	100.440776
1886.000000	100.439257
1885.000000	100.438299
1884.000000	100.438115
1883.000000	100.438304
1882.000000	100.438307
1881.000000	100.437934
1880.000000	100.437113
1879.000000	100.435775
1878.000000	100.434200
1877.000000	100.433221
1876.000000	100.433729
1875.000000	100.435490
1874.000000	100.436851
1873.000000	100.436361
1872.000000	100.434324
1871.000000	100.432469
1870.000000	100.432325
1869.000000	100.433895
1868.000000	100.435503
1867.000000	100.435601
1866.000000	100.434568
1865.000000	100.433861
1864.000000	100.434290
1863.000000	100.435460
1862.000000	100.436241
1861.000000	100.435926
1860.000000	100.435092
1859.000000	100.435234
1858.000000	100.437412
1857.000000	100.441335
1856.000000	100.445779
1855.000000	100.449850
1854.000000	100.453342
1853.000000	100.456143
1852.000000	100.457694
1851.000000	100.457911
1850.000000	100.457633
1849.000000	100.457495
1848.000000	100.457311
1847.000000	100.456699
1846.000000	100.455954
1845.000000	100.455811
1844.000000	100.456582
1843.000000	100.457699
1842.000000	100.458838
1841.000000	100.460300
1840.000000	100.461869
1839.000000	100.463082
1838.000000	100.463997
1837.000000	100.465128
1836.000000	100.466708
1835.000000	100.468284
1834.000000	100.469293
1833.000000	100.469478
1832.000000	100.468793
1831.000000	100.467653
1830.000000	100.467038
1829.000000	100.467478
1828.000000	100.468758
1827.000000	100.470749
1826.000000	100.473249
1825.000000	100.475307
1824.000000	100.475687
1823.000000	100.474106
1822.000000	100.471721
1821.000000	100.470117
1820.000000	100.470009
1819.000000	100.471040
1818.000000	100.472344
1817.000000	100.473572
1816.000000	100.474937
1815.000000	100.476274
1814.000000	100.477242
1813.000000	100.477930
1812.000000	100.478902
1811.000000	100.480128
1810.000000	100.480343
1809.000000	100.478838
1808.000000	100.476482
1807.000000	100.474437
1806.000000	100.472997
1805.000000	100.471861
1804.000000	100.470930
1803.000000	100.470294
1802.000000	100.470159
1801.000000	100.470248
1800.000000	100.470005
1799.000000	100.469497
1798.000000	100.469532
1797.000000	100.470918
1796.000000	100.473204
1795.000000	100.474986
1794.000000	100.475511
1793.000000	100.475151
1792.000000	100.474865
1791.000000	100.475159
1790.000000	100.476490
1789.000000	100.479459
1788.000000	100.483045
1787.000000	100.485088
1786.000000	100.484931
1785.000000	100.484185
1784.000000	100.484142
1783.000000	100.483969
1782.000000	100.483579
1781.000000	100.484333
1780.000000	100.486967
1779.000000	100.490165
1778.000000	100.492058
1777.000000	100.493088
1776.000000	100.494845
1775.000000	100.498491
1774.000000	100.504066
1773.000000	100.510432
1772.000000	100.516134
1771.000000	100.520325
1770.000000	100.523503
1769.000000	100.526608
1768.000000	100.529622
1767.000000	100.531966
1766.000000	100.533781
1765.000000	100.535637
1764.000000	100.537682
1763.000000	100.539604
1762.000000	100.541796
1761.000000	100.544346
1760.000000	100.546833
1759.000000	100.549081
1758.000000	100.551071
1757.000000	100.553198
1756.000000	100.555788
1755.000000	100.559614
1754.000000	100.565705
1753.000000	100.573695
1752.000000	100.581049
1751.000000	100.585344
1750.000000	100.586532
1749.000000	100.587121
1748.000000	100.589064
1747.000000	100.592083
1746.000000	100.596445
1745.000000	100.603273
1744.000000	100.612951
1743.000000	100.623272
1742.000000	100.630276
1741.000000	100.631569
1740.000000	100.628112
1739.000000	100.622845
1738.000000	100.618405
1737.000000	100.615959
1736.000000	100.614200
1735.000000	100.610061
1734.000000	100.604111
1733.000000	100.599524
1732.000000	100.598246
1731.000000	100.600482
1730.000000	100.603376
1729.000000	100.604374
1728.000000	100.603647
1727.000000	100.602389
1726.000000	100.601053
1725.000000	100.598875
1724.000000	100.595847
1723.000000	100.592335
1722.000000	100.587884
1721.000000	100.582303
1720.000000	100.576215
1719.000000	100.570829
1718.000000	100.567689
1717.000000	100.567264
1716.000000	100.568620
1715.000000	100.571436
1714.000000	100.575318
1713.000000	100.578549
1712.000000	100.579332
1711.000000	100.577169
1710.000000	100.573560
1709.000000	100.571021
1708.000000	100.570728
1707.000000	100.571801
1706.000000	100.572528
1705.000000	100.572482
1704.000000	100.572272
1703.000000	100.572283
1702.000000	100.571838
1701.000000	100.570257
1700.000000	100.568864
1699.000000	100.568330
1698.000000	100.568690
1697.000000	100.569680
1696.000000	100.569492
1695.000000	100.566918
1694.000000	100.563570
1693.000000	100.562280
1692.000000	100.563538
1691.000000	100.565484
1690.000000	100.566611
1689.000000	100.567247
1688.000000	100.568433
1687.000000	100.570644
1686.000000	100.573031
1685.000000	100.573841
1684.000000	100.572582
1683.000000	100.570081
1682.000000	100.568372
1681.000000	100.569063
1680.000000	100.571353
1679.000000	100.573856
1678.000000	100.576159
1677.000000	100.578246
1676.000000	100.579917
1675.000000	100.581059
1674.000000	100.582236
1673.000000	100.584329
1672.000000	100.587634
1671.000000	100.590795
1670.000000	100.592089
1669.000000	100.591569
1668.000000	100.590560
1667.000000	100.590170
1666.000000	100.590484
1665.000000	100.590921
1664.000000	100.591287
1663.000000	100.591917
1662.000000	100.593174
1661.000000	100.594967
1660.000000	100.597167
1659.000000	100.599853
1658.000000	100.602950
1657.000000	100.606450
1656.000000	100.610432
1655.000000	100.614791
1654.000000	100.617369
1653.000000	100.615073
1652.000000	100.607253
1651.000000	100.598641
1650.000000	100.593393
1649.000000	100.590342
1648.000000	100.588720
1647.000000	100.590379
1646.000000	100.594785
1645.000000	100.597993
1644.000000	100.598793
1643.000000	100.598492
1642.000000	100.597896
1641.000000	100.597014
1640.000000	100.595525
1639.000000	100.593562
1638.000000	100.591527
1637.000000	100.589870
1636.000000	100.589243
1635.000000	100.589613
1634.000000	100.589721
1633.000000	100.589435
1632.000000	100.589153
1631.000000	100.588351
1630.000000	100.587033
1629.000000	100.585967
1628.000000	100.585590
1627.000000	100.585369
1626.000000	100.584978
1625.000000	100.584889
1624.000000	100.585505
1623.000000	100.586152
1622.000000	100.585615
1621.000000	100.584099
1620.000000	100.583065
1619.000000	100.583282
1618.000000	100.583790
1617.000000	100.582925
1616.000000	100.580076
1615.000000	100.576776
1614.000000	100.575081
1613.000000	100.575029
1612.000000	100.575264
1611.000000	100.575157
1610.000000	100.575370
1609.000000	100.576157
1608.000000	100.577000
1607.000000	100.578070
1606.000000	100.580147
1605.000000	100.582896
1604.000000	100.584954
1603.000000	100.586185
1602.000000	100.587594
1601.000000	100.589222
1600.000000	100.589863
1599.000000	100.589155
1598.000000	100.588749
1597.000000	100.590624
1596.000000	100.595079
1595.000000	100.600492
1594.000000	100.604805
1593.000000	100.607239
1592.000000	100.608513
1591.000000	100.609773
1590.000000	100.611510
1589.000000	100.613361
1588.000000	100.614907
1587.000000	100.616503
1586.000000	100.618906
1585.000000	100.622328
1584.000000	100.625813
1583.000000	100.628449
1582.000000	100.630257
1581.000000	100.631622
1580.000000	100.632691
1579.000000	100.633603
1578.000000	100.634485
1577.000000	100.635435
1576.000000	100.636920
1575.000000	100.638483
1574.000000	100.639872
1573.000000	100.641318
1572.000000	100.641965
1571.000000	100.641325
1570.000000	100.641340
1569.000000	100.644189
1568.000000	100.649008
1567.000000	100.654653
1566.000000	100.660525
1565.000000	100.665154
1564.000000	100.667263
1563.000000	100.667696
1562.000000	100.668298
1561.000000	100.670772
1560.000000	100.675984
1559.000000	100.686936
1558.000000	100.696083
1557.000000	100.695475
1556.000000	100.692476
1555.000000	100.692221
1554.000000	100.694292
1553.000000	100.696912
1552.000000	100.698050
1551.000000	100.697352
1550.000000	100.695019
1549.000000	100.692890
1548.000000	100.692968
1547.000000	100.696078
1546.000000	100.701503
1545.000000	100.707395
1544.000000	100.712158
1543.000000	100.715133
1542.000000	100.715568
1541.000000	100.712322
1540.000000	100.705912
1539.000000	100.697195
1538.000000	100.688277
1537.000000	100.683286
1536.000000	100.682827
1535.000000	100.683303
1534.000000	100.681511
1533.000000	100.676613
1532.000000	100.670633
1531.000000	100.666372
1530.000000	100.664147
1529.000000	100.662125
1528.000000	100.658753
1527.000000	100.654279
1526.000000	100.650634
1525.000000	100.649305
1524.000000	100.650256
1523.000000	100.651882
1522.000000	100.651412
1521.000000	100.647345
1520.000000	100.641320
1519.000000	100.637112
1518.000000	100.636120
1517.000000	100.636381
1516.000000	100.636383
1515.000000	100.636348
1514.000000	100.636887
1513.000000	100.636601
1512.000000	100.633491
1511.000000	100.627967
1510.000000	100.621918
1509.000000	100.616451
1508.000000	100.611054
1507.000000	100.607822
1506.000000	100.607650
1505.000000	100.607334
1504.000000	100.607929
1503.000000	100.611102
1502.000000	100.614614
1501.000000	100.616323
1500.000000	100.615628
1499.000000	100.613502
1498.000000	100.611205
1497.000000	100.609508
1496.000000	100.608947
1495.000000	100.609376
1494.000000	100.611203
1493.000000	100.614755
1492.000000	100.618707
1491.000000	100.620896
1490.000000	100.620428
1489.000000	100.618194
1488.000000	100.615376
1487.000000	100.611990
1486.000000	100.608131
1485.000000	100.605277
1484.000000	100.603712
1483.000000	100.602761
1482.000000	100.602209
1481.000000	100.602941
1480.000000	100.605939
1479.000000	100.610980
1478.000000	100.617159
1477.000000	100.623577
1476.000000	100.629548
1475.000000	100.633928
1474.000000	100.636426
1473.000000	100.638438
1472.000000	100.641486
1471.000000	100.645242
1470.000000	100.649456
1469.000000	100.654922
1468.000000	100.661799
1467.000000	100.669085
1466.000000	100.674891
1465.000000	100.677184
1464.000000	100.675229
1463.000000	100.670981
1462.000000	100.666998
1461.000000	100.664166
1460.000000	100.661893
1459.000000	100.659968
1458.000000	100.659639
1457.000000	100.661835
1456.000000	100.662766
1455.000000	100.659623
1454.000000	100.654742
1453.000000	100.650076
1452.000000	100.647371
1451.000000	100.648373
1450.000000	100.652286
1449.000000	100.656064
1448.000000	100.657337
1447.000000	100.655958
1446.000000	100.653294
1445.000000	100.650214
1444.000000	100.647277
1443.000000	100.645733
1442.000000	100.646394
1441.000000	100.648589
1440.000000	100.650432
1439.000000	100.650449
1438.000000	100.648123
1437.000000	100.644828
1436.000000	100.642921
1435.000000	100.642877
1434.000000	100.643602
1433.000000	100.644224
1432.000000	100.644432
1431.000000	100.644266
1430.000000	100.643326
1429.000000	100.641013
1428.000000	100.638021
1427.000000	100.635987
1426.000000	100.636135
1425.000000	100.638135
1424.000000	100.640590
1423.000000	100.642325
1422.000000	100.642698
1421.000000	100.641389
1420.000000	100.638606
1419.000000	100.636289
1418.000000	100.636294
1417.000000	100.638533
1416.000000	100.642342
1415.000000	100.646788
1414.000000	100.650400
1413.000000	100.651851
1412.000000	100.651142
1411.000000	100.650015
1410.000000	100.650265
1409.000000	100.652123
1408.000000	100.654857
1407.000000	100.657741
1406.000000	100.660491
1405.000000	100.662626
1404.000000	100.663522
1403.000000	100.663708
1402.000000	100.664723
1401.000000	100.667697
1400.000000	100.672316
1399.000000	100.677024
1398.000000	100.680282
1397.000000	100.681978
1396.000000	100.683012
1395.000000	100.684015
1394.000000	100.685030
1393.000000	100.685673
1392.000000	100.686207
1391.000000	100.687484
1390.000000	100.689889
1389.000000	100.693009
1388.000000	100.695876
1387.000000	100.697661
1386.000000	100.698611
1385.000000	100.699798
1384.000000	100.701670
1383.000000	100.703659
1382.000000	100.705045
1381.000000	100.705892
1380.000000	100.706555
1379.000000	100.706917
1378.000000	100.706851
1377.000000	100.706838
1376.000000	100.707430
1375.000000	100.708211
1374.000000	100.707997
1373.000000	100.706089
1372.000000	100.703383
1371.000000	100.701508
1370.000000	100.701413
1369.000000	100.702787
1368.000000	100.704529
1367.000000	100.705669
1366.000000	100.705729
1365.000000	100.704642
1364.000000	100.702707
1363.000000	100.700738
1362.000000	100.699698
1361.000000	100.699954
1360.000000	100.701235
1359.000000	100.703021
1358.000000	100.704773
1357.000000	100.706063
1356.000000	100.706685
1355.000000	100.706638
1354.000000	100.706123
1353.000000	100.705539
1352.000000	100.705341
1351.000000	100.705645
1350.000000	100.706206
1349.000000	100.706655
1348.000000	100.706827
1347.000000	100.706820
1346.000000	100.706750
1345.000000	100.706618
1344.000000	100.706399
1343.000000	100.706128
1342.000000	100.705889
1341.000000	100.705774
1340.000000	100.705842
1339.000000	100.706062
1338.000000	100.706300
1337.000000	100.706411
1336.000000	100.706352
1335.000000	100.706186
1334.000000	100.706033
1333.000000	100.705995
1332.000000	100.706104
1331.000000	100.706306
1330.000000	100.706486
1329.000000	100.706556
1328.000000	100.706524
1327.000000	100.706454
1326.000000	100.706375
1325.000000	100.706276
1324.000000	100.706206
1323.000000	100.706288
1322.000000	100.706561
1321.000000	100.706853
1320.000000	100.706930
1319.000000	100.706744
1318.000000	100.706462
1317.000000	100.706298
1316.000000	100.706373
1315.000000	100.706725
1314.000000	100.707241
1313.000000	100.707593
1312.000000	100.707484
1311.000000	100.706952
1310.000000	100.706363
1309.000000	100.706060
1308.000000	100.706100
1307.000000	100.706332
1306.000000	100.706564
1305.000000	100.706653
1304.000000	100.706544
1303.000000	100.706303
1302.000000	100.706106
1301.000000	100.706116
1300.000000	100.706362
1299.000000	100.706699
1298.000000	100.706907
1297.000000	100.706814
1296.000000	100.706397
1295.000000	100.705838
1294.000000	100.705540
1293.000000	100.705966
1292.000000	100.707238
1291.000000	100.708736
1290.000000	100.709232
1289.000000	100.707909
1288.000000	100.705413
1287.000000	100.703534
1286.000000	100.703284
1285.000000	100.703770
1284.000000	100.703597
1283.000000	100.702926
1282.000000	100.703210
1281.000000	100.704990
1280.000000	100.706854
1279.000000	100.706805
1278.000000	100.704083
1277.000000	100.699684
1276.000000	100.695699
1275.000000	100.693878
1274.000000	100.694063
1273.000000	100.694269
1272.000000	100.693116
1271.000000	100.691749
1270.000000	100.692249
1269.000000	100.694755
1268.000000	100.697662
1267.000000	100.700267
1266.000000	100.703217
1265.000000	100.706332
1264.000000	100.708081
1263.000000	100.707928
1262.000000	100.707555
1261.000000	100.708595
1260.000000	100.710160
1259.000000	100.709947
1258.000000	100.707251
1257.000000	100.703715
1256.000000	100.701061
1255.000000	100.698710
1254.000000	100.694244
1253.000000	100.686671
1252.000000	100.678946
1251.000000	100.675972
1250.000000	100.679278
1249.000000	100.684798
1248.000000	100.687042
1247.000000	100.684458
1246.000000	100.679457
1245.000000	100.674530
1244.000000	100.670445
1243.000000	100.667375
1242.000000	100.664868
1241.000000	100.660463
1240.000000	100.650999
1239.000000	100.636521
1238.000000	100.621411
1237.000000	100.610626
1236.000000	100.605737
1235.000000	100.604889
1234.000000	100.605040
1233.000000	100.603699
1232.000000	100.599822
1231.000000	100.593898
1230.000000	100.586625
1229.000000	100.577553
1228.000000	100.565885
1227.000000	100.552121
1226.000000	100.537484
1225.000000	100.522260
1224.000000	100.506679
1223.000000	100.492705
1222.000000	100.481883
1221.000000	100.471162
1220.000000	100.454354
1219.000000	100.429207
1218.000000	100.400216
1217.000000	100.372448
1216.000000	100.344907
1215.000000	100.313129
1214.000000	100.276766
1213.000000	100.241196
1212.000000	100.211597
1211.000000	100.187706
1210.000000	100.164964
1209.000000	100.139274
1208.000000	100.110075
1207.000000	100.079945
1206.000000	100.051945
1205.000000	100.026914
1204.000000	100.003026
1203.000000	99.977982
1202.000000	99.951318
1201.000000	99.924182
1200.000000	99.897257
1199.000000	99.869818
1198.000000	99.841014
1197.000000	99.811306
1196.000000	99.782025
1195.000000	99.753882
1194.000000	99.726669
1193.000000	99.700380
1192.000000	99.675795
1191.000000	99.653615
1190.000000	99.633591
1189.000000	99.614779
1188.000000	99.595694
1187.000000	99.573722
1186.000000	99.545815
1185.000000	99.511306
1184.000000	99.473431
1183.000000	99.436728
1182.000000	99.403200
1181.000000	99.372040
1180.000000	99.342061
1179.000000	99.312283
1178.000000	99.280875
1177.000000	99.246532
1176.000000	99.211252
1175.000000	99.179069
1174.000000	99.150992
1173.000000	99.123260
1172.000000	99.091423
1171.000000	99.054140
1170.000000	99.012518
1169.000000	98.968576
1168.000000	98.925775
1167.000000	98.888397
1166.000000	98.858345
1165.000000	98.834471
1164.000000	98.816700
1163.000000	98.808567
1162.000000	98.813391
1161.000000	98.829242
1160.000000	98.849057
1159.000000	98.864657
1158.000000	98.870094
1157.000000	98.863123
1156.000000	98.845284
1155.000000	98.819808
1154.000000	98.788511
1153.000000	98.752197
1152.000000	98.714602
1151.000000	98.682590
1150.000000	98.659853
1149.000000	98.642541
1148.000000	98.623851
1147.000000	98.601137
1146.000000	98.575762
1145.000000	98.547802
1144.000000	98.514842
1143.000000	98.476209
1142.000000	98.435429
1141.000000	98.397420
1140.000000	98.364663
1139.000000	98.336196
1138.000000	98.308798
1137.000000	98.279225
1136.000000	98.246887
1135.000000	98.214665
1134.000000	98.186076
1133.000000	98.161306
1132.000000	98.136605
1131.000000	98.107479
1130.000000	98.072280
1129.000000	98.033261
1128.000000	97.994547
1127.000000	97.958472
1126.000000	97.923609
1125.000000	97.887096
1124.000000	97.848732
1123.000000	97.811314
1122.000000	97.776561
1121.000000	97.742506
1120.000000	97.706134
1119.000000	97.667614
1118.000000	97.630677
1117.000000	97.598966
1116.000000	97.572200
1115.000000	97.545213
1114.000000	97.511391
1113.000000	97.469045
1112.000000	97.424820
1111.000000	97.388942
1110.000000	97.365908
1109.000000	97.350422
1108.000000	97.332245
1107.000000	97.304028
1106.000000	97.265325
1105.000000	97.222007
1104.000000	97.182451
1103.000000	97.151672
1102.000000	97.127622
1101.000000	97.104112
1100.000000	97.077157
1099.000000	97.046501
1098.000000	97.012386
1097.000000	96.974922
1096.000000	96.936969
1095.000000	96.903441
1094.000000	96.876082
1093.000000	96.852014
1092.000000	96.828748
1091.000000	96.807390
1090.000000	96.789353
1089.000000	96.773072
1088.000000	96.756046
1087.000000	96.737806
1086.000000	96.719191
1085.000000	96.700812
1084.000000	96.683849
1083.000000	96.670554
1082.000000	96.662154
1081.000000	96.656997
1080.000000	96.651620
1079.000000	96.643408
1078.000000	96.632556
1077.000000	96.621751
1076.000000	96.612459
1075.000000	96.600717
1074.000000	96.579176
1073.000000	96.545189
1072.000000	96.504296
1071.000000	96.463279
1070.000000	96.422017
1069.000000	96.375130
1068.000000	96.318889
1067.000000	96.252725
1066.000000	96.176933
1065.000000	96.094229
1064.000000	96.012334
1063.000000	95.939289
1062.000000	95.876010
1061.000000	95.817476
1060.000000	95.760035
1059.000000	95.703287
1058.000000	95.646818
1057.000000	95.590534
1056.000000	95.536695
1055.000000	95.486172
1054.000000	95.434270
1053.000000	95.376192
1052.000000	95.314854
1051.000000	95.256102
1050.000000	95.197915
1049.000000	95.133244
1048.000000	95.061818
1047.000000	94.989169
1046.000000	94.915816
1045.000000	94.838118
1044.000000	94.759085
1043.000000	94.687938
1042.000000	94.627740
1041.000000	94.572104
1040.000000	94.515468
1039.000000	94.458407
1038.000000	94.401651
1037.000000	94.343945
1036.000000	94.288017
1035.000000	94.239831
1034.000000	94.199203
1033.000000	94.159057
1032.000000	94.116364
1031.000000	94.076064
1030.000000	94.042130
1029.000000	94.013109
1028.000000	93.988471
1027.000000	93.970223
1026.000000	93.955255
1025.000000	93.935319
1024.000000	93.908876
1023.000000	93.884749
1022.000000	93.869584
1021.000000	93.859170
1020.000000	93.846327
1019.000000	93.830177
1018.000000	93.812946
1017.000000	93.794357
1016.000000	93.774350
1015.000000	93.755530
1014.000000	93.738001
1013.000000	93.716853
1012.000000	93.689434
1011.000000	93.660885
1010.000000	93.638369
1009.000000	93.623351
1008.000000	93.612351
1007.000000	93.601125
1006.000000	93.585850
1005.000000	93.565070
1004.000000	93.543596
1003.000000	93.530388
1002.000000	93.529399
1001.000000	93.535286
1000.000000	93.539667
999.000000	93.538561
998.000000	93.533145
997.000000	93.527412
996.000000	93.526324
995.000000	93.532511
994.000000	93.543618
993.000000	93.555510
992.000000	93.567225
991.000000	93.579124
990.000000	93.588563
989.000000	93.593593
988.000000	93.599653
987.000000	93.615321
986.000000	93.641209
985.000000	93.669719
984.000000	93.696361
983.000000	93.724770
982.000000	93.759341
981.000000	93.799312
980.000000	93.841625
979.000000	93.884167
978.000000	93.925417
977.000000	93.966443
976.000000	94.013648
975.000000	94.073674
974.000000	94.144935
973.000000	94.219757
972.000000	94.295159
971.000000	94.374985
970.000000	94.460345
969.000000	94.544577
968.000000	94.620101
967.000000	94.685554
966.000000	94.744741
965.000000	94.803085
964.000000	94.866126
963.000000	94.936714
962.000000	95.011844
961.000000	95.085449
960.000000	95.154680
959.000000	95.220499
958.000000	95.283536
957.000000	95.343779
956.000000	95.403120
955.000000	95.462922
954.000000	95.519742
953.000000	95.568923
952.000000	95.611792
951.000000	95.653941
950.000000	95.697156
949.000000	95.738849
948.000000	95.778530
947.000000	95.817975
946.000000	95.855324
945.000000	95.886509
944.000000	95.913426
943.000000	95.943275
942.000000	95.977809
941.000000	96.010225
940.000000	96.035402
939.000000	96.056834
938.000000	96.080497
937.000000	96.107291
936.000000	96.134945
935.000000	96.162651
934.000000	96.190352
933.000000	96.217098
932.000000	96.242737
931.000000	96.268031
930.000000	96.291797
929.000000	96.312187
928.000000	96.332279
927.000000	96.359284
926.000000	96.395315
925.000000	96.433054
924.000000	96.463596
923.000000	96.485610
922.000000	96.504749
921.000000	96.527218
920.000000	96.555691
919.000000	96.587918
918.000000	96.616817
917.000000	96.635206
916.000000	96.643379
915.000000	96.650299
914.000000	96.665512
913.000000	96.691398
912.000000	96.723588
911.000000	96.756028
910.000000	96.785371
909.000000	96.813699
908.000000	96.847669
907.000000	96.892185
906.000000	96.944785
905.000000	96.999326
904.000000	97.055064
903.000000	97.117875
902.000000	97.192035
901.000000	97.274798
900.000000	97.359540
899.000000	97.440388
898.000000	97.513423
897.000000	97.577637
896.000000	97.636090
895.000000	97.692896
894.000000	97.748233
893.000000	97.799464
892.000000	97.847197
891.000000	97.895824
890.000000	97.947069
889.000000	97.997534
888.000000	98.044834
887.000000	98.092381
886.000000	98.145461
885.000000	98.205085
884.000000	98.267820
883.000000	98.329378
882.000000	98.386815
881.000000	98.439800
880.000000	98.491497
879.000000	98.545827
878.000000	98.601766
877.000000	98.652467
876.000000	98.692221
875.000000	98.723327
874.000000	98.755117
873.000000	98.796952
872.000000	98.852009
871.000000	98.915293
870.000000	98.976537
869.000000	99.027293
868.000000	99.067136
867.000000	99.102893
866.000000	99.141984
865.000000	99.187151
864.000000	99.236723
863.000000	99.287742
862.000000	99.338320
861.000000	99.388030
860.000000	99.436242
859.000000	99.480087
858.000000	99.515645
857.000000	99.542702
856.000000	99.567105
855.000000	99.595761
854.000000	99.629132
853.000000	99.660831
852.000000	99.684846
851.000000	99.701040
850.000000	99.713245
849.000000	99.724324
848.000000	99.734977
847.000000	99.746680
846.000000	99.763481
845.000000	99.788679
844.000000	99.818879
843.000000	99.843082
842.000000	99.850731
841.000000	99.841007
840.000000	99.821586
839.000000	99.798249
838.000000	99.770110
837.000000	99.736757
836.000000	99.704645
835.000000	99.680968
834.000000	99.663884
833.000000	99.645293
832.000000	99.623445
831.000000	99.607316
830.000000	99.606661
829.000000	99.620851
828.000000	99.638330
827.000000	99.644313
826.000000	99.630577
825.000000	99.603713
824.000000	99.584317
823.000000	99.590877
822.000000	99.620568
821.000000	99.650493
820.000000	99.659944
819.000000	99.647593
818.000000	99.627408
817.000000	99.612808
816.000000	99.606069
815.000000	99.598873
814.000000	99.579257
813.000000	99.538675
812.000000	99.475188
811.000000	99.391833
810.000000	99.292092
809.000000	99.176001
808.000000	99.039624
807.000000	98.878802
806.000000	98.695704
805.000000	98.502407
804.000000	98.314962
803.000000	98.141443
802.000000	97.978805
801.000000	97.825594
800.000000	97.694375
799.000000	97.604363
798.000000	97.562737
797.000000	97.559934
796.000000	97.582252
795.000000	97.621206
794.000000	97.670436
793.000000	97.722341
792.000000	97.770994
791.000000	97.813060
790.000000	97.844438
789.000000	97.861074
788.000000	97.863951
787.000000	97.857986
786.000000	97.844588
785.000000	97.819798
784.000000	97.780539
783.000000	97.728134
782.000000	97.665798
781.000000	97.599059
780.000000	97.540066
779.000000	97.504714
778.000000	97.501674
777.000000	97.527533
776.000000	97.573402
775.000000	97.631579
774.000000	97.695142
773.000000	97.757163
772.000000	97.813351
771.000000	97.862372
770.000000	97.903191
769.000000	97.935848
768.000000	97.964423
767.000000	97.994212
766.000000	98.025768
765.000000	98.056512
764.000000	98.087666
763.000000	98.122993
762.000000	98.160007
761.000000	98.189595
760.000000	98.207047
759.000000	98.218192
758.000000	98.232337
757.000000	98.253740
756.000000	98.281412
755.000000	98.311975
754.000000	98.341153
753.000000	98.367762
752.000000	98.397494
751.000000	98.437041
750.000000	98.482912
749.000000	98.522372
748.000000	98.548368
747.000000	98.567940
746.000000	98.593181
745.000000	98.630019
744.000000	98.678915
743.000000	98.738832
742.000000	98.804270
741.000000	98.864487
740.000000	98.913302
739.000000	98.956803
738.000000	99.005658
737.000000	99.062118
736.000000	99.119904
735.000000	99.174156
734.000000	99.224987
733.000000	99.272092
732.000000	99.312037
731.000000	99.341871
730.000000	99.361185
729.000000	99.370175
728.000000	99.369873
727.000000	99.365563
726.000000	99.366287
725.000000	99.378625
724.000000	99.402258
723.000000	99.431915
722.000000	99.461732
721.000000	99.487804
720.000000	99.509616
719.000000	99.530851
718.000000	99.557084
717.000000	99.590552
716.000000	99.627015
715.000000	99.658196
714.000000	99.677889
713.000000	99.686629
712.000000	99.691261
711.000000	99.699696
710.000000	99.714828
709.000000	99.732490
708.000000	99.745173
707.000000	99.748127
706.000000	99.742533
705.000000	99.733540
704.000000	99.725210
703.000000	99.716031
702.000000	99.697789
701.000000	99.658408
700.000000	99.587803
699.000000	99.485163
698.000000	99.364304
697.000000	99.251241
696.000000	99.171728
695.000000	99.137508
694.000000	99.143628
693.000000	99.177199
692.000000	99.225880
691.000000	99.278293
690.000000	99.323688
689.000000	99.358505
688.000000	99.391166
687.000000	99.433050
686.000000	99.484071
685.000000	99.532513
684.000000	99.568849
683.000000	99.594151
682.000000	99.614306
681.000000	99.631627
680.000000	99.645577
679.000000	99.659197
678.000000	99.680290
677.000000	99.714324
676.000000	99.755658
675.000000	99.788734
674.000000	99.801194
673.000000	99.796866
672.000000	99.793125
671.000000	99.804119
670.000000	99.831178
669.000000	99.868167
668.000000	99.907429
667.000000	99.941408
666.000000	99.965206
665.000000	99.977963
664.000000	99.984394
663.000000	99.993481
662.000000	100.012201
661.000000	100.041253
660.000000	100.077388
659.000000	100.114272
658.000000	100.140652
657.000000	100.147045
656.000000	100.137179
655.000000	100.127491
654.000000	100.129869
653.000000	100.138232
652.000000	100.137869
651.000000	100.124820
650.000000	100.110717
