4000.000000	98.784214
3999.000000	98.783393
3998.000000	98.782570
3997.000000	98.781742
3996.000000	98.780907
3995.000000	98.780066
3994.000000	98.779223
3993.000000	98.778383
3992.000000	98.777549
3991.000000	98.776720
3990.000000	98.775896
3989.000000	98.775080
3988.000000	98.774274
3987.000000	98.773484
3986.000000	98.772717
3985.000000	98.771976
3984.000000	98.771256
3983.000000	98.770553
3982.000000	98.769859
3981.000000	98.769170
3980.000000	98.768487
3979.000000	98.767812
3978.000000	98.767152
3977.000000	98.766506
3976.000000	98.765873
3975.000000	98.765252
3974.000000	98.764638
3973.000000	98.764033
3972.000000	98.763437
3971.000000	98.762852
3970.000000	98.762280
3969.000000	98.761725
3968.000000	98.761197
3967.000000	98.760701
3966.000000	98.760238
3965.000000	98.759802
3964.000000	98.759382
3963.000000	98.758970
3962.000000	98.758568
3961.000000	98.758183
3960.000000	98.757825
3959.000000	98.757495
3958.000000	98.757190
3957.000000	98.756904
3956.000000	98.756641
3955.000000	98.756416
3954.000000	98.756249
3953.000000	98.756149
3952.000000	98.756086
3951.000000	98.755988
3950.000000	98.755774
3949.000000	98.755420
3948.000000	98.755048
3947.000000	98.754861
3946.000000	98.754978
3945.000000	98.755322
3944.000000	98.755652
3943.000000	98.755780
3942.000000	98.755712
3941.000000	98.755641
3940.000000	98.755755
3939.000000	98.756047
3938.000000	98.756314
3937.000000	98.756321
3936.000000	98.755957
3935.000000	98.755315
3934.000000	98.754671
3933.000000	98.754327
3932.000000	98.754445
3931.000000	98.754973
3930.000000	98.755678
3929.000000	98.756278
3928.000000	98.756570
3927.000000	98.756532
3926.000000	98.756341
3925.000000	98.756225
3924.000000	98.756271
3923.000000	98.756450
3922.000000	98.756844
3921.000000	98.757678
3920.000000	98.759019
3919.000000	98.760500
3918.000000	98.761499
3917.000000	98.761676
3916.000000	98.761214
3915.000000	98.760493
3914.000000	98.759761
3913.000000	98.759092
3912.000000	98.758519
3911.000000	98.758035
3910.000000	98.757538
3909.000000	98.756907
3908.000000	98.756212
3907.000000	98.755784
3906.000000	98.756002
3905.000000	98.756893
3904.000000	98.757949
3903.000000	98.758453
3902.000000	98.758103
3901.000000	98.757225
3900.000000	98.756546
3899.000000	98.756561
3898.000000	98.757127
3897.000000	98.757644
3896.000000	98.757622
3895.000000	98.757081
3894.000000	98.756454
3893.000000	98.756180
3892.000000	98.756346
3891.000000	98.756672
3890.000000	98.756791
3889.000000	98.756454
3888.000000	98.755670
3887.000000	98.754766
3886.000000	98.754073
3885.000000	98.753573
3884.000000	98.752981
3883.000000	98.752257
3882.000000	98.751882
3881.000000	98.752296
3880.000000	98.753179
3879.000000	98.753594
3878.000000	98.752824
3877.000000	98.750913
3876.000000	98.748725
3875.000000	98.747181
3874.000000	98.746203
3873.000000	98.744792
3872.000000	98.742237
3871.000000	98.739257
3870.000000	98.737570
3869.000000	98.738070
3868.000000	98.739938
3867.000000	98.741505
3866.000000	98.742032
3865.000000	98.742049
3864.000000	98.742327
3863.000000	98.743007
3862.000000	98.743616
3861.000000	98.743576
3860.000000	98.742624
3859.000000	98.741043
3858.000000	98.739582
3857.000000	98.738838
3856.000000	98.738751
3855.000000	98.738610
3854.000000	98.737786
3853.000000	98.736378
3852.000000	98.734592
3851.000000	98.732607
3850.000000	98.731131
3849.000000	98.731135
3848.000000	98.733071
3847.000000	98.736215
3846.000000	98.739105
3845.000000	98.740355
3844.000000	98.739295
3843.000000	98.736306
3842.000000	98.732649
3841.000000	98.729607
3840.000000	98.727687
3839.000000	98.726478
3838.000000	98.725307
3837.000000	98.724178
3836.000000	98.723756
3835.000000	98.724376
3834.000000	98.725926
3833.000000	98.728531
3832.000000	98.732499
3831.000000	98.737444
3830.000000	98.741871
3829.000000	98.744018
3828.000000	98.743266
3827.000000	98.740534
3826.000000	98.737224
3825.000000	98.733743
3824.000000	98.729596
3823.000000	98.724944
3822.000000	98.721536
3821.000000	98.721270
3820.000000	98.723778
3819.000000	98.727022
3818.000000	98.729708
3817.000000	98.731903
3816.000000	98.734658
3815.000000	98.738720
3814.000000	98.743320
3813.000000	98.746688
3812.000000	98.747870
3811.000000	98.747298
3810.000000	98.745929
3809.000000	98.744648
3808.000000	98.743465
3807.000000	98.741058
3806.000000	98.736140
3805.000000	98.729295
3804.000000	98.723134
3803.000000	98.720606
3802.000000	98.722247
3801.000000	98.725494
3800.000000	98.728108
3799.000000	98.730114
3798.000000	98.732321
3797.000000	98.735720
3796.000000	98.741271
3795.000000	98.749046
3794.000000	98.757723
3793.000000	98.765056
3792.000000	98.769208
3791.000000	98.769711
3790.000000	98.767485
3789.000000	98.764168
3788.000000	98.760997
3787.000000	98.758187
3786.000000	98.755372
3785.000000	98.752424
3784.000000	98.749641
3783.000000	98.747291
3782.000000	98.745382
3781.000000	98.744098
3780.000000	98.743973
3779.000000	98.745189
3778.000000	98.747119
3777.000000	98.748753
3776.000000	98.749194
3775.000000	98.747950
3774.000000	98.745122
3773.000000	98.741399
3772.000000	98.738332
3771.000000	98.737972
3770.000000	98.741237
3769.000000	98.746725
3768.000000	98.751998
3767.000000	98.755764
3766.000000	98.758253
3765.000000	98.759763
3764.000000	98.759428
3763.000000	98.755819
3762.000000	98.748699
3761.000000	98.739854
3760.000000	98.732020
3759.000000	98.727000
3758.000000	98.724954
3757.000000	98.725006
3756.000000	98.725932
3755.000000	98.726668
3754.000000	98.726849
3753.000000	98.726433
3752.000000	98.724777
3751.000000	98.721024
3750.000000	98.716077
3749.000000	98.712669
3748.000000	98.712086
3747.000000	98.713313
3746.000000	98.715915
3745.000000	98.720371
3744.000000	98.726439
3743.000000	98.731797
3742.000000	98.733005
3741.000000	98.730285
3740.000000	98.727556
3739.000000	98.726595
3738.000000	98.725861
3737.000000	98.723978
3736.000000	98.722018
3735.000000	98.722256
3734.000000	98.725512
3733.000000	98.730534
3732.000000	98.734840
3731.000000	98.736103
3730.000000	98.733483
3729.000000	98.728074
3728.000000	98.722451
3727.000000	98.719137
3726.000000	98.718926
3725.000000	98.720566
3724.000000	98.722074
3723.000000	98.722449
3722.000000	98.721806
3721.000000	98.720524
3720.000000	98.718750
3719.000000	98.716623
3718.000000	98.714558
3717.000000	98.712977
3716.000000	98.711908
3715.000000	98.710907
3714.000000	98.709309
3713.000000	98.706463
3712.000000	98.702067
3711.000000	98.696677
3710.000000	98.691881
3709.000000	98.689293
3708.000000	98.688819
3707.000000	98.688821
3706.000000	98.688014
3705.000000	98.686072
3704.000000	98.683101
3703.000000	98.679370
3702.000000	98.675352
3701.000000	98.671377
3700.000000	98.667033
3699.000000	98.661523
3698.000000	98.654929
3697.000000	98.648757
3696.000000	98.644510
3695.000000	98.642091
3694.000000	98.640113
3693.000000	98.637287
3692.000000	98.632985
3691.000000	98.626925
3690.000000	98.619256
3689.000000	98.611049
3688.000000	98.604222
3687.000000	98.599855
3686.000000	98.597108
3685.000000	98.595263
3684.000000	98.594818
3683.000000	98.595279
3682.000000	98.594363
3681.000000	98.589978
3680.000000	98.582002
3679.000000	98.571953
3678.000000	98.561343
3677.000000	98.550878
3676.000000	98.541177
3675.000000	98.533614
3674.000000	98.529109
3673.000000	98.526199
3672.000000	98.521637
3671.000000	98.513822
3670.000000	98.504387
3669.000000	98.496537
3668.000000	98.492130
3667.000000	98.490194
3666.000000	98.488469
3665.000000	98.486116
3664.000000	98.483520
3663.000000	98.480401
3662.000000	98.475964
3661.000000	98.470193
3660.000000	98.463912
3659.000000	98.457476
3658.000000	98.450174
3657.000000	98.441483
3656.000000	98.432244
3655.000000	98.423383
3654.000000	98.414257
3653.000000	98.404454
3652.000000	98.395593
3651.000000	98.389423
3650.000000	98.385137
3649.000000	98.379972
3648.000000	98.373924
3647.000000	98.371218
3646.000000	98.373110
3645.000000	98.375399
3644.000000	98.374768
3643.000000	98.372318
3642.000000	98.371132
3641.000000	98.372061
3640.000000	98.372433
3639.000000	98.368713
3638.000000	98.360073
3637.000000	98.348825
3636.000000	98.337893
3635.000000	98.328784
3634.000000	98.321639
3633.000000	98.316187
3632.000000	98.312231
3631.000000	98.309842
3630.000000	98.309243
3629.000000	98.311516
3628.000000	98.317504
3627.000000	98.324666
3626.000000	98.328574
3625.000000	98.327813
3624.000000	98.325426
3623.000000	98.324461
3622.000000	98.325086
3621.000000	98.325497
3620.000000	98.324314
3619.000000	98.322799
3618.000000	98.323940
3617.000000	98.328919
3616.000000	98.335965
3615.000000	98.342963
3614.000000	98.349445
3613.000000	98.355372
3612.000000	98.359655
3611.000000	98.361078
3610.000000	98.360689
3609.000000	98.362487
3608.000000	98.370056
3607.000000	98.382464
3606.000000	98.395169
3605.000000	98.404080
3604.000000	98.407802
3603.000000	98.407834
3602.000000	98.407590
3601.000000	98.410443
3600.000000	98.417421
3599.000000	98.426453
3598.000000	98.434001
3597.000000	98.437618
3596.000000	98.437404
3595.000000	98.435690
3594.000000	98.435086
3593.000000	98.436641
3592.000000	98.439441
3591.000000	98.441760
3590.000000	98.442390
3589.000000	98.441029
3588.000000	98.438136
3587.000000	98.434801
3586.000000	98.432756
3585.000000	98.433572
3584.000000	98.437103
3583.000000	98.441596
3582.000000	98.445172
3581.000000	98.447165
3580.000000	98.448666
3579.000000	98.451227
3578.000000	98.454699
3577.000000	98.456961
3576.000000	98.455857
3575.000000	98.450974
3574.000000	98.443653
3573.000000	98.435941
3572.000000	98.429732
3571.000000	98.426272
3570.000000	98.425722
3569.000000	98.426754
3568.000000	98.427199
3567.000000	98.426249
3566.000000	98.425800
3565.000000	98.428402
3564.000000	98.434181
3563.000000	98.440425
3562.000000	98.443884
3561.000000	98.443112
3560.000000	98.439227
3559.000000	98.434916
3558.000000	98.432184
3557.000000	98.431000
3556.000000	98.430313
3555.000000	98.429850
3554.000000	98.430336
3553.000000	98.432003
3552.000000	98.433675
3551.000000	98.433914
3550.000000	98.432700
3549.000000	98.431434
3548.000000	98.431488
3547.000000	98.433036
3546.000000	98.435183
3545.000000	98.436887
3544.000000	98.437655
3543.000000	98.437512
3542.000000	98.436764
3541.000000	98.435815
3540.000000	98.435013
3539.000000	98.434622
3538.000000	98.434927
3537.000000	98.436119
3536.000000	98.437935
3535.000000	98.439639
3534.000000	98.440706
3533.000000	98.441388
3532.000000	98.442379
3531.000000	98.443882
3530.000000	98.445242
3529.000000	98.445780
3528.000000	98.445750
3527.000000	98.446137
3526.000000	98.447596
3525.000000	98.449924
3524.000000	98.452465
3523.000000	98.454699
3522.000000	98.456356
3521.000000	98.457259
3520.000000	98.457266
3519.000000	98.456426
3518.000000	98.455293
3517.000000	98.454808
3516.000000	98.455640
3515.000000	98.457642
3514.000000	98.459933
3513.000000	98.461569
3512.000000	98.462110
3511.000000	98.461661
3510.000000	98.460607
3509.000000	98.459294
3508.000000	98.457701
3507.000000	98.455340
3506.000000	98.451827
3505.000000	98.447860
3504.000000	98.445168
3503.000000	98.445055
3502.000000	98.447260
3501.000000	98.450310
3500.000000	98.452906
3499.000000	98.455010
3498.000000	98.457708
3497.000000	98.462123
3496.000000	98.468219
3495.000000	98.474364
3494.000000	98.478256
3493.000000	98.478669
3492.000000	98.476378
3491.000000	98.473542
3490.000000	98.472100
3489.000000	98.472646
3488.000000	98.474615
3487.000000	98.477040
3486.000000	98.479069
3485.000000	98.480068
3484.000000	98.479556
3483.000000	98.477322
3482.000000	98.473767
3481.000000	98.470012
3480.000000	98.467246
3479.000000	98.465663
3478.000000	98.464288
3477.000000	98.462128
3476.000000	98.459397
3475.000000	98.457402
3474.000000	98.457314
3473.000000	98.459307
3472.000000	98.462670
3471.000000	98.466265
3470.000000	98.468931
3469.000000	98.469877
3468.000000	98.469098
3467.000000	98.467405
3466.000000	98.465850
3465.000000	98.465027
3464.000000	98.464803
3463.000000	98.464546
3462.000000	98.463658
3461.000000	98.462142
3460.000000	98.460723
3459.000000	98.460259
3458.000000	98.460928
3457.000000	98.462044
3456.000000	98.462628
3455.000000	98.462232
3454.000000	98.461108
3453.000000	98.459791
3452.000000	98.458647
3451.000000	98.457743
3450.000000	98.456977
3449.000000	98.456240
3448.000000	98.455532
3447.000000	98.454966
3446.000000	98.454607
3445.000000	98.454315
3444.000000	98.453844
3443.000000	98.453091
3442.000000	98.452208
3441.000000	98.451452
3440.000000	98.450963
3439.000000	98.450683
3438.000000	98.450406
3437.000000	98.449900
3436.000000	98.449055
3435.000000	98.447996
3434.000000	98.447039
3433.000000	98.446440
3432.000000	98.446148
3431.000000	98.445802
3430.000000	98.445012
3429.000000	98.443647
3428.000000	98.441942
3427.000000	98.440401
3426.000000	98.439488
3425.000000	98.439260
3424.000000	98.439201
3423.000000	98.438548
3422.000000	98.437003
3421.000000	98.435130
3420.000000	98.433945
3419.000000	98.433978
3418.000000	98.434959
3417.000000	98.436243
3416.000000	98.437427
3415.000000	98.438410
3414.000000	98.439046
3413.000000	98.439032
3412.000000	98.438215
3411.000000	98.436869
3410.000000	98.435560
3409.000000	98.434753
3408.000000	98.434571
3407.000000	98.434827
3406.000000	98.435113
3405.000000	98.434948
3404.000000	98.434041
3403.000000	98.432581
3402.000000	98.431261
3401.000000	98.430792
3400.000000	98.431346
3399.000000	98.432454
3398.000000	98.433397
3397.000000	98.433774
3396.000000	98.433731
3395.000000	98.433734
3394.000000	98.434094
3393.000000	98.434663
3392.000000	98.435017
3391.000000	98.434995
3390.000000	98.434927
3389.000000	98.435217
3388.000000	98.435806
3387.000000	98.436200
3386.000000	98.436020
3385.000000	98.435437
3384.000000	98.435067
3383.000000	98.435473
3382.000000	98.436752
3381.000000	98.438514
3380.000000	98.440135
3379.000000	98.441196
3378.000000	98.441735
3377.000000	98.442007
3376.000000	98.442150
3375.000000	98.442120
3374.000000	98.441874
3373.000000	98.441532
3372.000000	98.441321
3371.000000	98.441411
3370.000000	98.441783
3369.000000	98.442171
3368.000000	98.442172
3367.000000	98.441576
3366.000000	98.440660
3365.000000	98.440068
3364.000000	98.440249
3363.000000	98.441112
3362.000000	98.442188
3361.000000	98.443084
3360.000000	98.443732
3359.000000	98.444291
3358.000000	98.444904
3357.000000	98.445538
3356.000000	98.446050
3355.000000	98.446479
3354.000000	98.447152
3353.000000	98.448306
3352.000000	98.449557
3351.000000	98.450084
3350.000000	98.449510
3349.000000	98.448292
3348.000000	98.447342
3347.000000	98.447103
3346.000000	98.447350
3345.000000	98.447719
3344.000000	98.448145
3343.000000	98.448715
3342.000000	98.449313
3341.000000	98.449664
3340.000000	98.449675
3339.000000	98.449612
3338.000000	98.449879
3337.000000	98.450666
3336.000000	98.451765
3335.000000	98.452699
3334.000000	98.453088
3333.000000	98.452944
3332.000000	98.452725
3331.000000	98.453034
3330.000000	98.454188
3329.000000	98.455994
3328.000000	98.457820
3327.000000	98.459032
3326.000000	98.459464
3325.000000	98.459502
3324.000000	98.459660
3323.000000	98.459961
3322.000000	98.459842
3321.000000	98.458733
3320.000000	98.456723
3319.000000	98.454713
3318.000000	98.453809
3317.000000	98.454430
3316.000000	98.455957
3315.000000	98.457279
3314.000000	98.457917
3313.000000	98.458443
3312.000000	98.459665
3311.000000	98.461558
3310.000000	98.463155
3309.000000	98.463523
3308.000000	98.462714
3307.000000	98.461762
3306.000000	98.461790
3305.000000	98.463172
3304.000000	98.465421
3303.000000	98.467724
3302.000000	98.469634
3301.000000	98.471239
3300.000000	98.472722
3299.000000	98.473941
3298.000000	98.474561
3297.000000	98.474523
3296.000000	98.474136
3295.000000	98.473740
3294.000000	98.473529
3293.000000	98.473620
3292.000000	98.473992
3291.000000	98.474332
3290.000000	98.474150
3289.000000	98.473156
3288.000000	98.471439
3287.000000	98.469374
3286.000000	98.467522
3285.000000	98.466602
3284.000000	98.467188
3283.000000	98.469161
3282.000000	98.471636
3281.000000	98.473632
3280.000000	98.474821
3279.000000	98.475554
3278.000000	98.476228
3277.000000	98.476738
3276.000000	98.476645
3275.000000	98.475879
3274.000000	98.475096
3273.000000	98.475128
3272.000000	98.476174
3271.000000	98.477730
3270.000000	98.479265
3269.000000	98.480619
3268.000000	98.481575
3267.000000	98.481510
3266.000000	98.479981
3265.000000	98.477503
3264.000000	98.475338
3263.000000	98.474357
3262.000000	98.474455
3261.000000	98.475066
3260.000000	98.475763
3259.000000	98.476321
3258.000000	98.476611
3257.000000	98.476769
3256.000000	98.477240
3255.000000	98.478347
3254.000000	98.479914
3253.000000	98.481437
3252.000000	98.482553
3251.000000	98.483223
3250.000000	98.483551
3249.000000	98.483627
3248.000000	98.483560
3247.000000	98.483543
3246.000000	98.483811
3245.000000	98.484517
3244.000000	98.485623
3243.000000	98.486881
3242.000000	98.487932
3241.000000	98.488521
3240.000000	98.488651
3239.000000	98.488565
3238.000000	98.488607
3237.000000	98.489020
3236.000000	98.489838
3235.000000	98.490855
3234.000000	98.491718
3233.000000	98.492159
3232.000000	98.492228
3231.000000	98.492311
3230.000000	98.492831
3229.000000	98.493881
3228.000000	98.495157
3227.000000	98.496275
3226.000000	98.497167
3225.000000	98.498111
3224.000000	98.499352
3223.000000	98.500686
3222.000000	98.501535
3221.000000	98.501518
3220.000000	98.500852
3219.000000	98.500259
3218.000000	98.500371
3217.000000	98.501319
3216.000000	98.502810
3215.000000	98.504426
3214.000000	98.505941
3213.000000	98.507369
3212.000000	98.508753
3211.000000	98.509913
3210.000000	98.510494
3209.000000	98.510375
3208.000000	98.509993
3207.000000	98.510026
3206.000000	98.510706
3205.000000	98.511580
3204.000000	98.512008
3203.000000	98.511779
3202.000000	98.511175
3201.000000	98.510531
3200.000000	98.509924
3199.000000	98.509304
3198.000000	98.508674
3197.000000	98.508069
3196.000000	98.507567
3195.000000	98.507456
3194.000000	98.508162
3193.000000	98.509761
3192.000000	98.511677
3191.000000	98.513145
3190.000000	98.513932
3189.000000	98.514345
3188.000000	98.514583
3187.000000	98.514467
3186.000000	98.513950
3185.000000	98.513497
3184.000000	98.513694
3183.000000	98.514669
3182.000000	98.516084
3181.000000	98.517460
3180.000000	98.518305
3179.000000	98.518293
3178.000000	98.517768
3177.000000	98.517872
3176.000000	98.519593
3175.000000	98.522716
3174.000000	98.525891
3173.000000	98.527912
3172.000000	98.528603
3171.000000	98.528491
3170.000000	98.528136
3169.000000	98.527839
3168.000000	98.527596
3167.000000	98.527066
3166.000000	98.525903
3165.000000	98.524438
3164.000000	98.523751
3163.000000	98.524607
3162.000000	98.526539
3161.000000	98.528227
3160.000000	98.528875
3159.000000	98.528909
3158.000000	98.529257
3157.000000	98.530347
3156.000000	98.531973
3155.000000	98.533804
3154.000000	98.535725
3153.000000	98.537681
3152.000000	98.539400
3151.000000	98.540463
3150.000000	98.540693
3149.000000	98.540471
3148.000000	98.540571
3147.000000	98.541473
3146.000000	98.542884
3145.000000	98.544002
3144.000000	98.544338
3143.000000	98.544131
3142.000000	98.543980
3141.000000	98.544182
3140.000000	98.544607
3139.000000	98.545123
3138.000000	98.545850
3137.000000	98.546892
3136.000000	98.548030
3135.000000	98.548886
3134.000000	98.549374
3133.000000	98.549765
3132.000000	98.550299
3131.000000	98.550913
3130.000000	98.551457
3129.000000	98.552006
3128.000000	98.552775
3127.000000	98.553761
3126.000000	98.554644
3125.000000	98.555148
3124.000000	98.555392
3123.000000	98.555755
3122.000000	98.556385
3121.000000	98.557068
3120.000000	98.557609
3119.000000	98.558161
3118.000000	98.558963
3117.000000	98.559826
3116.000000	98.560165
3115.000000	98.559668
3114.000000	98.558854
3113.000000	98.558696
3112.000000	98.559484
3111.000000	98.560346
3110.000000	98.560170
3109.000000	98.558963
3108.000000	98.557943
3107.000000	98.558125
3106.000000	98.559212
3105.000000	98.560098
3104.000000	98.560246
3103.000000	98.560230
3102.000000	98.560921
3101.000000	98.562485
3100.000000	98.564257
3099.000000	98.565461
3098.000000	98.565896
3097.000000	98.565989
3096.000000	98.566288
3095.000000	98.566993
3094.000000	98.567989
3093.000000	98.569191
3092.000000	98.570659
3091.000000	98.572348
3090.000000	98.573961
3089.000000	98.575213
3088.000000	98.576143
3087.000000	98.576979
3086.000000	98.577722
3085.000000	98.577980
3084.000000	98.577296
3083.000000	98.575666
3082.000000	98.573830
3081.000000	98.572911
3080.000000	98.573463
3079.000000	98.574857
3078.000000	98.575727
3077.000000	98.575283
3076.000000	98.574072
3075.000000	98.573396
3074.000000	98.574036
3073.000000	98.575661
3072.000000	98.577193
3071.000000	98.577664
3070.000000	98.576915
3069.000000	98.575730
3068.000000	98.575202
3067.000000	98.575658
3066.000000	98.576276
3065.000000	98.576061
3064.000000	98.575120
3063.000000	98.574538
3062.000000	98.575027
3061.000000	98.576221
3060.000000	98.577382
3059.000000	98.578336
3058.000000	98.579329
3057.000000	98.580308
3056.000000	98.580957
3055.000000	98.581439
3054.000000	98.582491
3053.000000	98.584434
3052.000000	98.586387
3051.000000	98.586925
3050.000000	98.585500
3049.000000	98.582898
3048.000000	98.580445
3047.000000	98.578816
3046.000000	98.577851
3045.000000	98.577220
3044.000000	98.576920
3043.000000	98.577142
3042.000000	98.577873
3041.000000	98.578692
3040.000000	98.579004
3039.000000	98.578480
3038.000000	98.577327
3037.000000	98.576066
3036.000000	98.574939
3035.000000	98.573737
3034.000000	98.572322
3033.000000	98.570997
3032.000000	98.570052
3031.000000	98.569222
3030.000000	98.568023
3029.000000	98.566566
3028.000000	98.565544
3027.000000	98.565314
3026.000000	98.565386
3025.000000	98.564963
3024.000000	98.563773
3023.000000	98.562161
3022.000000	98.560635
3021.000000	98.559546
3020.000000	98.559031
3019.000000	98.558923
3018.000000	98.558714
3017.000000	98.557915
3016.000000	98.556542
3015.000000	98.555111
3014.000000	98.554092
3013.000000	98.553516
3012.000000	98.553112
3011.000000	98.552594
3010.000000	98.551756
3009.000000	98.550512
3008.000000	98.549003
3007.000000	98.547530
3006.000000	98.546215
3005.000000	98.544853
3004.000000	98.543308
3003.000000	98.541934
3002.000000	98.541269
3001.000000	98.541301
3000.000000	98.541272
2999.000000	98.540400
2998.000000	98.538681
2997.000000	98.536862
2996.000000	98.535696
2995.000000	98.535324
2994.000000	98.535294
2993.000000	98.534972
2992.000000	98.533975
2991.000000	98.532379
2990.000000	98.530663
2989.000000	98.529344
2988.000000	98.528524
2987.000000	98.527857
2986.000000	98.527061
2985.000000	98.526353
2984.000000	98.526234
2983.000000	98.526947
2982.000000	98.528367
2981.000000	98.530265
2980.000000	98.532366
2979.000000	98.534070
2978.000000	98.534523
2977.000000	98.533323
2976.000000	98.531059
2975.000000	98.528959
2974.000000	98.527807
2973.000000	98.527347
2972.000000	98.526744
2971.000000	98.525459
2970.000000	98.523726
2969.000000	98.522316
2968.000000	98.521869
2967.000000	98.522326
2966.000000	98.522839
2965.000000	98.522404
2964.000000	98.520782
2963.000000	98.518798
2962.000000	98.517559
2961.000000	98.517391
2960.000000	98.517750
2959.000000	98.518142
2958.000000	98.518767
2957.000000	98.519926
2956.000000	98.521010
2955.000000	98.520778
2954.000000	98.518954
2953.000000	98.517116
2952.000000	98.517381
2951.000000	98.520101
2950.000000	98.523283
2949.000000	98.524557
2948.000000	98.523457
2947.000000	98.521534
2946.000000	98.520621
2945.000000	98.521283
2944.000000	98.522828
2943.000000	98.524179
2942.000000	98.524484
2941.000000	98.523331
2940.000000	98.520825
2939.000000	98.517462
2938.000000	98.513745
2937.000000	98.509811
2936.000000	98.505638
2935.000000	98.501738
2934.000000	98.499255
2933.000000	98.498997
2932.000000	98.500500
2931.000000	98.502445
2930.000000	98.504045
2929.000000	98.505512
2928.000000	98.506873
2927.000000	98.507199
2926.000000	98.505933
2925.000000	98.504500
2924.000000	98.505233
2923.000000	98.508608
2922.000000	98.512550
2921.000000	98.514852
2920.000000	98.515570
2919.000000	98.516350
2918.000000	98.518218
2917.000000	98.520922
2916.000000	98.523883
2915.000000	98.526825
2914.000000	98.529595
2913.000000	98.532095
2912.000000	98.534427
2911.000000	98.536570
2910.000000	98.538021
2909.000000	98.538361
2908.000000	98.538180
2907.000000	98.538699
2906.000000	98.540281
2905.000000	98.542006
2904.000000	98.543139
2903.000000	98.544416
2902.000000	98.547112
2901.000000	98.551031
2900.000000	98.554156
2899.000000	98.554634
2898.000000	98.552752
2897.000000	98.550875
2896.000000	98.551329
2895.000000	98.554582
2894.000000	98.559331
2893.000000	98.563820
2892.000000	98.567051
2891.000000	98.568977
2890.000000	98.570232
2889.000000	98.571923
2888.000000	98.575164
2887.000000	98.580179
2886.000000	98.585802
2885.000000	98.590289
2884.000000	98.592849
2883.000000	98.594201
2882.000000	98.595572
2881.000000	98.597227
2880.000000	98.598257
2879.000000	98.597846
2878.000000	98.596623
2877.000000	98.596532
2876.000000	98.599029
2875.000000	98.603412
2874.000000	98.607293
2873.000000	98.608953
2872.000000	98.608839
2871.000000	98.608537
2870.000000	98.608737
2869.000000	98.608882
2868.000000	98.608590
2867.000000	98.608441
2866.000000	98.609071
2865.000000	98.610173
2864.000000	98.610764
2863.000000	98.609996
2862.000000	98.607464
2861.000000	98.603418
2860.000000	98.599251
2859.000000	98.597148
2858.000000	98.598292
2857.000000	98.601492
2856.000000	98.604126
2855.000000	98.604755
2854.000000	98.604465
2853.000000	98.605478
2852.000000	98.608989
2851.000000	98.614577
2850.000000	98.621012
2849.000000	98.627068
2848.000000	98.631891
2847.000000	98.635268
2846.000000	98.637780
2845.000000	98.640405
2844.000000	98.643639
2843.000000	98.647005
2842.000000	98.649510
2841.000000	98.650563
2840.000000	98.650393
2839.000000	98.649814
2838.000000	98.649780
2837.000000	98.650942
2836.000000	98.653242
2835.000000	98.655819
2834.000000	98.657706
2833.000000	98.658839
2832.000000	98.660160
2831.000000	98.662433
2830.000000	98.665164
2829.000000	98.667132
2828.000000	98.667917
2827.000000	98.668419
2826.000000	98.669634
2825.000000	98.671270
2824.000000	98.672171
2823.000000	98.672062
2822.000000	98.672276
2821.000000	98.674261
2820.000000	98.677634
2819.000000	98.680367
2818.000000	98.681005
2817.000000	98.680046
2816.000000	98.679024
2815.000000	98.678712
2814.000000	98.678695
2813.000000	98.678600
2812.000000	98.678894
2811.000000	98.680141
2810.000000	98.682039
2809.000000	98.683586
2808.000000	98.684146
2807.000000	98.684043
2806.000000	98.684104
2805.000000	98.684858
2804.000000	98.686300
2803.000000	98.688194
2802.000000	98.690255
2801.000000	98.692097
2800.000000	98.693338
2799.000000	98.693915
2798.000000	98.694194
2797.000000	98.694648
2796.000000	98.695425
2795.000000	98.696332
2794.000000	98.697170
2793.000000	98.697980
2792.000000	98.698935
2791.000000	98.700091
2790.000000	98.701257
2789.000000	98.702090
2788.000000	98.702359
2787.000000	98.702221
2786.000000	98.702204
2785.000000	98.702723
2784.000000	98.703550
2783.000000	98.704044
2782.000000	98.704048
2781.000000	98.704308
2780.000000	98.705633
2779.000000	98.707912
2778.000000	98.710227
2777.000000	98.711981
2776.000000	98.713393
2775.000000	98.714665
2774.000000	98.715293
2773.000000	98.714731
2772.000000	98.713356
2771.000000	98.712321
2770.000000	98.712319
2769.000000	98.712984
2768.000000	98.713500
2767.000000	98.713525
2766.000000	98.713395
2765.000000	98.713629
2764.000000	98.714491
2763.000000	98.715966
2762.000000	98.717830
2761.000000	98.719656
2760.000000	98.720995
2759.000000	98.721666
2758.000000	98.721891
2757.000000	98.722113
2756.000000	98.722606
2755.000000	98.723278
2754.000000	98.723854
2753.000000	98.724183
2752.000000	98.724326
2751.000000	98.724380
2750.000000	98.724369
2749.000000	98.724336
2748.000000	98.724423
2747.000000	98.724793
2746.000000	98.725459
2745.000000	98.726234
2744.000000	98.726835
2743.000000	98.727087
2742.000000	98.727050
2741.000000	98.726962
2740.000000	98.727058
2739.000000	98.727392
2738.000000	98.727860
2737.000000	98.728322
2736.000000	98.728680
2735.000000	98.728904
2734.000000	98.729013
2733.000000	98.729070
2732.000000	98.729154
2731.000000	98.729319
2730.000000	98.729574
2729.000000	98.729901
2728.000000	98.730267
2727.000000	98.730637
2726.000000	98.730982
2725.000000	98.731303
2724.000000	98.731612
2723.000000	98.731914
2722.000000	98.732206
2721.000000	98.732485
2720.000000	98.732747
2719.000000	98.732994
2718.000000	98.733236
2717.000000	98.733486
2716.000000	98.733753
2715.000000	98.734041
2714.000000	98.734348
2713.000000	98.734664
2712.000000	98.734985
2711.000000	98.735307
2710.000000	98.735635
2709.000000	98.735973
2708.000000	98.736325
2707.000000	98.736689
2706.000000	98.737052
2705.000000	98.737398
2704.000000	98.737716
2703.000000	98.738003
2702.000000	98.738267
2701.000000	98.738521
2700.000000	98.738773
2699.000000	98.739025
2698.000000	98.739281
2697.000000	98.739542
2696.000000	98.739812
2695.000000	98.740093
2694.000000	98.740384
2693.000000	98.740682
2692.000000	98.740987
2691.000000	98.741317
2690.000000	98.741696
2689.000000	98.742123
2688.000000	98.742544
2687.000000	98.742890
2686.000000	98.743118
2685.000000	98.743288
2684.000000	98.743537
2683.000000	98.743947
2682.000000	98.744414
2681.000000	98.744732
2680.000000	98.744849
2679.000000	98.744935
2678.000000	98.745175
2677.000000	98.745558
2676.000000	98.745928
2675.000000	98.746161
2674.000000	98.746218
2673.000000	98.746143
2672.000000	98.746121
2671.000000	98.746434
2670.000000	98.747215
2669.000000	98.748239
2668.000000	98.749012
2667.000000	98.749110
2666.000000	98.748389
2665.000000	98.747008
2664.000000	98.745395
2663.000000	98.744080
2662.000000	98.743439
2661.000000	98.743527
2660.000000	98.744106
2659.000000	98.744919
2658.000000	98.745967
2657.000000	98.747460
2656.000000	98.749436
2655.000000	98.751416
2654.000000	98.752614
2653.000000	98.752649
2652.000000	98.751877
2651.000000	98.750933
2650.000000	98.750067
2649.000000	98.749278
2648.000000	98.748932
2647.000000	98.749612
2646.000000	98.751217
2645.000000	98.752640
2644.000000	98.752813
2643.000000	98.751765
2642.000000	98.750407
2641.000000	98.749505
2640.000000	98.749150
2639.000000	98.749096
2638.000000	98.749092
2637.000000	98.748895
2636.000000	98.748420
2635.000000	98.748010
2634.000000	98.748197
2633.000000	98.749013
2632.000000	98.749795
2631.000000	98.749910
2630.000000	98.749480
2629.000000	98.749100
2628.000000	98.748979
2627.000000	98.748669
2626.000000	98.747717
2625.000000	98.746320
2624.000000	98.745183
2623.000000	98.744822
2622.000000	98.745183
2621.000000	98.745866
2620.000000	98.746474
2619.000000	98.746661
2618.000000	98.746088
2617.000000	98.744647
2616.000000	98.742786
2615.000000	98.741370
2614.000000	98.740957
2613.000000	98.741312
2612.000000	98.741718
2611.000000	98.741792
2610.000000	98.741844
2609.000000	98.742416
2608.000000	98.743654
2607.000000	98.745126
2606.000000	98.746184
2605.000000	98.746559
2604.000000	98.746577
2603.000000	98.746781
2602.000000	98.747350
2601.000000	98.747961
2600.000000	98.748228
2599.000000	98.748121
2598.000000	98.747913
2597.000000	98.747798
2596.000000	98.747704
2595.000000	98.747517
2594.000000	98.747410
2593.000000	98.747809
2592.000000	98.748965
2591.000000	98.750595
2590.000000	98.751955
2589.000000	98.752443
2588.000000	98.752047
2587.000000	98.751247
2586.000000	98.750602
2585.000000	98.750390
2584.000000	98.750603
2583.000000	98.751078
2582.000000	98.751573
2581.000000	98.751889
2580.000000	98.751972
2579.000000	98.751894
2578.000000	98.751741
2577.000000	98.751597
2576.000000	98.751614
2575.000000	98.751955
2574.000000	98.752583
2573.000000	98.753181
2572.000000	98.753404
2571.000000	98.753190
2570.000000	98.752749
2569.000000	98.752299
2568.000000	98.751876
2567.000000	98.751400
2566.000000	98.750877
2565.000000	98.750475
2564.000000	98.750400
2563.000000	98.750696
2562.000000	98.751175
2561.000000	98.751524
2560.000000	98.751531
2559.000000	98.751187
2558.000000	98.750679
2557.000000	98.750289
2556.000000	98.750221
2555.000000	98.750489
2554.000000	98.750953
2553.000000	98.751432
2552.000000	98.751804
2551.000000	98.751978
2550.000000	98.751877
2549.000000	98.751531
2548.000000	98.751131
2547.000000	98.750885
2546.000000	98.750826
2545.000000	98.750823
2544.000000	98.750806
2543.000000	98.750871
2542.000000	98.751110
2541.000000	98.751434
2540.000000	98.751690
2539.000000	98.751853
2538.000000	98.752020
2537.000000	98.752260
2536.000000	98.752530
2535.000000	98.752731
2534.000000	98.752822
2533.000000	98.752863
2532.000000	98.752965
2531.000000	98.753201
2530.000000	98.753564
2529.000000	98.754002
2528.000000	98.754443
2527.000000	98.754815
2526.000000	98.755070
2525.000000	98.755219
2524.000000	98.755336
2523.000000	98.755498
2522.000000	98.755725
2521.000000	98.755997
2520.000000	98.756293
2519.000000	98.756595
2518.000000	98.756881
2517.000000	98.757127
2516.000000	98.757349
2515.000000	98.757600
2514.000000	98.757922
2513.000000	98.758307
2512.000000	98.758723
2511.000000	98.759144
2510.000000	98.759554
2509.000000	98.759925
2508.000000	98.760230
2507.000000	98.760470
2506.000000	98.760676
2505.000000	98.760899
2504.000000	98.761182
2503.000000	98.761533
2502.000000	98.761931
2501.000000	98.762317
2500.000000	98.762648
2499.000000	98.762911
2498.000000	98.763134
2497.000000	98.763371
2496.000000	98.763662
2495.000000	98.764012
2494.000000	98.764399
2493.000000	98.764809
2492.000000	98.765244
2491.000000	98.765706
2490.000000	98.766170
2489.000000	98.766594
2488.000000	98.766953
2487.000000	98.767272
2486.000000	98.767591
2485.000000	98.767919
2484.000000	98.768252
2483.000000	98.768606
2482.000000	98.768995
2481.000000	98.769382
2480.000000	98.769692
2479.000000	98.769906
2478.000000	98.770097
2477.000000	98.770348
2476.000000	98.770664
2475.000000	98.770966
2474.000000	98.771180
2473.000000	98.771300
2472.000000	98.771396
2471.000000	98.771550
2470.000000	98.771786
2469.000000	98.772045
2468.000000	98.772233
2467.000000	98.772307
2466.000000	98.772309
2465.000000	98.772345
2464.000000	98.772495
2463.000000	98.772768
2462.000000	98.773104
2461.000000	98.773435
2460.000000	98.773733
2459.000000	98.773996
2458.000000	98.774199
2457.000000	98.774289
2456.000000	98.774282
2455.000000	98.774291
2454.000000	98.774433
2453.000000	98.774728
2452.000000	98.775109
2451.000000	98.775487
2450.000000	98.775789
2449.000000	98.775951
2448.000000	98.775932
2447.000000	98.775784
2446.000000	98.775649
2445.000000	98.775634
2444.000000	98.775740
2443.000000	98.775900
2442.000000	98.776054
2441.000000	98.776203
2440.000000	98.776375
2439.000000	98.776569
2438.000000	98.776757
2437.000000	98.776930
2436.000000	98.777113
2435.000000	98.777327
2434.000000	98.777554
2433.000000	98.777771
2432.000000	98.778000
2431.000000	98.778286
2430.000000	98.778633
2429.000000	98.778976
2428.000000	98.779245
2427.000000	98.779437
2426.000000	98.779605
2425.000000	98.779796
2424.000000	98.780002
2423.000000	98.780186
2422.000000	98.780342
2421.000000	98.780497
2420.000000	98.780682
2419.000000	98.780896
2418.000000	98.781107
2417.000000	98.781282
2416.000000	98.781416
2415.000000	98.781542
2414.000000	98.781711
2413.000000	98.781944
2412.000000	98.782214
2411.000000	98.782474
2410.000000	98.782698
2409.000000	98.782860
2408.000000	98.782932
2407.000000	98.782921
2406.000000	98.782901
2405.000000	98.782971
2404.000000	98.783179
2403.000000	98.783462
2402.000000	98.783653
2401.000000	98.783640
2400.000000	98.783462
2399.000000	98.783275
2398.000000	98.783185
2397.000000	98.783167
2396.000000	98.783094
2395.000000	98.782849
2394.000000	98.782443
2393.000000	98.782023
2392.000000	98.781728
2391.000000	98.781536
2390.000000	98.781306
2389.000000	98.780980
2388.000000	98.780683
2387.000000	98.780555
2386.000000	98.780544
2385.000000	98.780421
2384.000000	98.780029
2383.000000	98.779428
2382.000000	98.778769
2381.000000	98.778119
2380.000000	98.777462
2379.000000	98.776848
2378.000000	98.776421
2377.000000	98.776255
2376.000000	98.776219
2375.000000	98.776092
2374.000000	98.775757
2373.000000	98.775234
2372.000000	98.774532
2371.000000	98.773570
2370.000000	98.772303
2369.000000	98.770878
2368.000000	98.769643
2367.000000	98.768943
2366.000000	98.768896
2365.000000	98.769327
2364.000000	98.769826
2363.000000	98.770030
2362.000000	98.769781
2361.000000	98.769014
2360.000000	98.767757
2359.000000	98.766213
2358.000000	98.764756
2357.000000	98.763737
2356.000000	98.763179
2355.000000	98.762847
2354.000000	98.762440
2353.000000	98.761828
2352.000000	98.761134
2351.000000	98.760580
2350.000000	98.760383
2349.000000	98.760557
2348.000000	98.760879
2347.000000	98.761002
2346.000000	98.760678
2345.000000	98.759988
2344.000000	98.759231
2343.000000	98.758692
2342.000000	98.758398
2341.000000	98.758221
2340.000000	98.758051
2339.000000	98.757812
2338.000000	98.757529
2337.000000	98.757268
2336.000000	98.757075
2335.000000	98.756881
2334.000000	98.756640
2333.000000	98.756403
2332.000000	98.756332
2331.000000	98.756450
2330.000000	98.756670
2329.000000	98.756852
2328.000000	98.756991
2327.000000	98.757155
2326.000000	98.757360
2325.000000	98.757567
2324.000000	98.757723
2323.000000	98.757841
2322.000000	98.757951
2321.000000	98.758050
2320.000000	98.758145
2319.000000	98.758285
2318.000000	98.758569
2317.000000	98.759020
2316.000000	98.759577
2315.000000	98.760115
2314.000000	98.760599
2313.000000	98.761069
2312.000000	98.761569
2311.000000	98.762038
2310.000000	98.762389
2309.000000	98.762596
2308.000000	98.762742
2307.000000	98.762957
2306.000000	98.763348
2305.000000	98.763935
2304.000000	98.764636
2303.000000	98.765262
2302.000000	98.765681
2301.000000	98.765900
2300.000000	98.766066
2299.000000	98.766295
2298.000000	98.766576
2297.000000	98.766836
2296.000000	98.767109
2295.000000	98.767499
2294.000000	98.768061
2293.000000	98.768725
2292.000000	98.769329
2291.000000	98.769724
2290.000000	98.769859
2289.000000	98.769848
2288.000000	98.769839
2287.000000	98.769804
2286.000000	98.769520
2285.000000	98.768935
2284.000000	98.768403
2283.000000	98.768395
2282.000000	98.768972
2281.000000	98.769726
2280.000000	98.770218
2279.000000	98.770374
2278.000000	98.770386
2277.000000	98.770463
2276.000000	98.770806
2275.000000	98.771542
2274.000000	98.772554
2273.000000	98.773494
2272.000000	98.774104
2271.000000	98.774370
2270.000000	98.774225
2269.000000	98.773367
2268.000000	98.771709
2267.000000	98.769858
2266.000000	98.768736
2265.000000	98.768587
2264.000000	98.768704
2263.000000	98.768210
2262.000000	98.766997
2261.000000	98.765721
2260.000000	98.764990
2259.000000	98.764764
2258.000000	98.764518
2257.000000	98.763882
2256.000000	98.763040
2255.000000	98.762551
2254.000000	98.762857
2253.000000	98.763889
2252.000000	98.765052
2251.000000	98.765637
2250.000000	98.765362
2249.000000	98.764530
2248.000000	98.763705
2247.000000	98.763228
2246.000000	98.763039
2245.000000	98.762917
2244.000000	98.762787
2243.000000	98.762794
2242.000000	98.763128
2241.000000	98.763798
2240.000000	98.764478
2239.000000	98.764637
2238.000000	98.763978
2237.000000	98.762709
2236.000000	98.761462
2235.000000	98.760740
2234.000000	98.760517
2233.000000	98.760439
2232.000000	98.760246
2231.000000	98.759969
2230.000000	98.759748
2229.000000	98.759625
2228.000000	98.759543
2227.000000	98.759437
2226.000000	98.759279
2225.000000	98.759067
2224.000000	98.758837
2223.000000	98.758647
2222.000000	98.758527
2221.000000	98.758447
2220.000000	98.758367
2219.000000	98.758296
2218.000000	98.758284
2217.000000	98.758351
2216.000000	98.758449
2215.000000	98.758509
2214.000000	98.758508
2213.000000	98.758485
2212.000000	98.758488
2211.000000	98.758518
2210.000000	98.758528
2209.000000	98.758480
2208.000000	98.758373
2207.000000	98.758233
2206.000000	98.758085
2205.000000	98.757951
2204.000000	98.757851
2203.000000	98.757788
2202.000000	98.757751
2201.000000	98.757728
2200.000000	98.757724
2199.000000	98.757735
2198.000000	98.757739
2197.000000	98.757727
2196.000000	98.757715
2195.000000	98.757735
2194.000000	98.757799
2193.000000	98.757894
2192.000000	98.757988
2191.000000	98.758057
2190.000000	98.758103
2189.000000	98.758142
2188.000000	98.758199
2187.000000	98.758286
2186.000000	98.758401
2185.000000	98.758526
2184.000000	98.758640
2183.000000	98.758726
2182.000000	98.758772
2181.000000	98.758780
2180.000000	98.758767
2179.000000	98.758759
2178.000000	98.758775
2177.000000	98.758804
2176.000000	98.758816
2175.000000	98.758790
2174.000000	98.758722
2173.000000	98.758619
2172.000000	98.758494
2171.000000	98.758385
2170.000000	98.758351
2169.000000	98.758428
2168.000000	98.758582
2167.000000	98.758721
2166.000000	98.758770
2165.000000	98.758711
2164.000000	98.758545
2163.000000	98.758261
2162.000000	98.757861
2161.000000	98.757470
2160.000000	98.757309
2159.000000	98.757522
2158.000000	98.758020
2157.000000	98.758495
2156.000000	98.758719
2155.000000	98.758728
2154.000000	98.758703
2153.000000	98.758702
2152.000000	98.758610
2151.000000	98.758356
2150.000000	98.758049
2149.000000	98.757843
2148.000000	98.757801
2147.000000	98.757905
2146.000000	98.758067
2145.000000	98.758072
2144.000000	98.757685
2143.000000	98.756964
2142.000000	98.756317
2141.000000	98.756090
2140.000000	98.756199
2139.000000	98.756355
2138.000000	98.756543
2137.000000	98.757032
2136.000000	98.757956
2135.000000	98.759129
2134.000000	98.760273
2133.000000	98.761208
2132.000000	98.761819
2131.000000	98.762073
2130.000000	98.762085
2129.000000	98.761913
2128.000000	98.761309
2127.000000	98.760036
2126.000000	98.758515
2125.000000	98.757721
2124.000000	98.758119
2123.000000	98.759069
2122.000000	98.759516
2121.000000	98.759204
2120.000000	98.758813
2119.000000	98.759041
2118.000000	98.759981
2117.000000	98.761295
2116.000000	98.762539
2115.000000	98.763362
2114.000000	98.763740
2113.000000	98.764093
2112.000000	98.764863
2111.000000	98.765932
2110.000000	98.766794
2109.000000	98.767283
2108.000000	98.767698
2107.000000	98.768163
2106.000000	98.768381
2105.000000	98.768244
2104.000000	98.768201
2103.000000	98.768647
2102.000000	98.769286
2101.000000	98.769519
2100.000000	98.769259
2099.000000	98.768926
2098.000000	98.768757
2097.000000	98.768560
2096.000000	98.768194
2095.000000	98.767918
2094.000000	98.768090
2093.000000	98.768735
2092.000000	98.769599
2091.000000	98.770503
2090.000000	98.771483
2089.000000	98.772681
2088.000000	98.774155
2087.000000	98.775670
2086.000000	98.776713
2085.000000	98.776975
2084.000000	98.776886
2083.000000	98.777371
2082.000000	98.778812
2081.000000	98.780470
2080.000000	98.781241
2079.000000	98.780841
2078.000000	98.779954
2077.000000	98.779387
2076.000000	98.779419
2075.000000	98.780012
2074.000000	98.781132
2073.000000	98.782522
2072.000000	98.783448
2071.000000	98.783137
2070.000000	98.781535
2069.000000	98.779504
2068.000000	98.778195
2067.000000	98.778188
2066.000000	98.779238
2065.000000	98.780594
2064.000000	98.781547
2063.000000	98.781792
2062.000000	98.781420
2061.000000	98.780738
2060.000000	98.780127
2059.000000	98.779965
2058.000000	98.780500
2057.000000	98.781625
2056.000000	98.782768
2055.000000	98.783190
2054.000000	98.782641
2053.000000	98.781801
2052.000000	98.781858
2051.000000	98.783383
2050.000000	98.785612
2049.000000	98.787004
2048.000000	98.786494
2047.000000	98.784043
2046.000000	98.780246
2045.000000	98.775920
2044.000000	98.772049
2043.000000	98.769445
2042.000000	98.768093
2041.000000	98.767105
2040.000000	98.765767
2039.000000	98.764446
2038.000000	98.763957
2037.000000	98.764183
2036.000000	98.763959
2035.000000	98.762498
2034.000000	98.760392
2033.000000	98.758838
2032.000000	98.758155
2031.000000	98.757533
2030.000000	98.756132
2029.000000	98.754004
2028.000000	98.751814
2027.000000	98.750009
2026.000000	98.748563
2025.000000	98.747388
2024.000000	98.746598
2023.000000	98.746258
2022.000000	98.746126
2021.000000	98.745886
2020.000000	98.745517
2019.000000	98.745180
2018.000000	98.744764
2017.000000	98.743873
2016.000000	98.742371
2015.000000	98.740652
2014.000000	98.739149
2013.000000	98.737825
2012.000000	98.736398
2011.000000	98.734843
2010.000000	98.733369
2009.000000	98.732056
2008.000000	98.730851
2007.000000	98.729919
2006.000000	98.729637
2005.000000	98.730079
2004.000000	98.730735
2003.000000	98.730872
2002.000000	98.730147
2001.000000	98.728803
2000.000000	98.727464
1999.000000	98.726716
1998.000000	98.726739
1997.000000	98.727257
1996.000000	98.727758
1995.000000	98.727886
1994.000000	98.727615
1993.000000	98.727114
1992.000000	98.726585
1991.000000	98.726199
1990.000000	98.726044
1989.000000	98.726025
1988.000000	98.725891
1987.000000	98.725472
1986.000000	98.724847
1985.000000	98.724192
1984.000000	98.723572
1983.000000	98.722976
1982.000000	98.722475
1981.000000	98.722191
1980.000000	98.722127
1979.000000	98.722177
1978.000000	98.722274
1977.000000	98.722434
1976.000000	98.722634
1975.000000	98.722764
1974.000000	98.722719
1973.000000	98.722484
1972.000000	98.722115
1971.000000	98.721740
1970.000000	98.721550
1969.000000	98.721684
1968.000000	98.722100
1967.000000	98.722524
1966.000000	98.722693
1965.000000	98.722600
1964.000000	98.722432
1963.000000	98.722323
1962.000000	98.722238
1961.000000	98.722117
1960.000000	98.722018
1959.000000	98.722055
1958.000000	98.722274
1957.000000	98.722650
1956.000000	98.723107
1955.000000	98.723473
1954.000000	98.723536
1953.000000	98.723236
1952.000000	98.722745
1951.000000	98.722318
1950.000000	98.722098
1949.000000	98.722087
1948.000000	98.722170
1947.000000	98.722089
1946.000000	98.721532
1945.000000	98.720396
1944.000000	98.718993
1943.000000	98.717941
1942.000000	98.717702
1941.000000	98.718257
1940.000000	98.719233
1939.000000	98.720201
1938.000000	98.720825
1937.000000	98.720858
1936.000000	98.720184
1935.000000	98.718949
1934.000000	98.717647
1933.000000	98.716918
1932.000000	98.717060
1931.000000	98.717682
1930.000000	98.718001
1929.000000	98.717525
1928.000000	98.716279
1927.000000	98.714486
1926.000000	98.712345
1925.000000	98.710151
1924.000000	98.708283
1923.000000	98.706941
1922.000000	98.705977
1921.000000	98.705201
1920.000000	98.704665
1919.000000	98.704372
1918.000000	98.703944
1917.000000	98.702867
1916.000000	98.701125
1915.000000	98.699328
1914.000000	98.698074
1913.000000	98.697393
1912.000000	98.696747
1911.000000	98.695585
1910.000000	98.693961
1909.000000	98.692422
1908.000000	98.691142
1907.000000	98.689534
1906.000000	98.687047
1905.000000	98.684104
1904.000000	98.681731
1903.000000	98.680360
1902.000000	98.679582
1901.000000	98.679068
1900.000000	98.679027
1899.000000	98.679359
1898.000000	98.679003
1897.000000	98.676846
1896.000000	98.673012
1895.000000	98.668928
1894.000000	98.666076
1893.000000	98.664973
1892.000000	98.665185
1891.000000	98.665614
1890.000000	98.665007
1889.000000	98.662989
1888.000000	98.660534
1887.000000	98.658892
1886.000000	98.658216
1885.000000	98.657671
1884.000000	98.656773
1883.000000	98.655996
1882.000000	98.655999
1881.000000	98.656753
1880.000000	98.657567
1879.000000	98.657692
1878.000000	98.656857
1877.000000	98.655540
1876.000000	98.654617
1875.000000	98.654312
1874.000000	98.653825
1873.000000	98.652507
1872.000000	98.651116
1871.000000	98.651208
1870.000000	98.653433
1869.000000	98.656716
1868.000000	98.659138
1867.000000	98.659681
1866.000000	98.658759
1865.000000	98.657376
1864.000000	98.656668
1863.000000	98.657636
1862.000000	98.660286
1861.000000	98.663289
1860.000000	98.665197
1859.000000	98.665869
1858.000000	98.666250
1857.000000	98.667204
1856.000000	98.668989
1855.000000	98.671425
1854.000000	98.674024
1853.000000	98.676184
1852.000000	98.677766
1851.000000	98.679301
1850.000000	98.681163
1849.000000	98.683152
1848.000000	98.685245
1847.000000	98.688059
1846.000000	98.691836
1845.000000	98.695396
1844.000000	98.697048
1843.000000	98.696654
1842.000000	98.695902
1841.000000	98.696305
1840.000000	98.697947
1839.000000	98.700341
1838.000000	98.703039
1837.000000	98.705275
1836.000000	98.706049
1835.000000	98.705164
1834.000000	98.703693
1833.000000	98.703054
1832.000000	98.703905
1831.000000	98.706027
1830.000000	98.708633
1829.000000	98.710647
1828.000000	98.711528
1827.000000	98.711633
1826.000000	98.710971
1825.000000	98.708946
1824.000000	98.705662
1823.000000	98.702373
1822.000000	98.700433
1821.000000	98.700271
1820.000000	98.701589
1819.000000	98.703979
1818.000000	98.706975
1817.000000	98.709739
1816.000000	98.711179
1815.000000	98.710743
1814.000000	98.708897
1813.000000	98.706821
1812.000000	98.705685
1811.000000	98.705744
1810.000000	98.706053
1809.000000	98.705448
1808.000000	98.703765
1807.000000	98.701916
1806.000000	98.700939
1805.000000	98.701172
1804.000000	98.702216
1803.000000	98.703476
1802.000000	98.704523
1801.000000	98.705034
1800.000000	98.704935
1799.000000	98.704596
1798.000000	98.704564
1797.000000	98.705017
1796.000000	98.705837
1795.000000	98.707120
1794.000000	98.709180
1793.000000	98.711929
1792.000000	98.714487
1791.000000	98.715880
1790.000000	98.716400
1789.000000	98.717122
1788.000000	98.718249
1787.000000	98.719070
1786.000000	98.719042
1785.000000	98.718358
1784.000000	98.717693
1783.000000	98.717689
1782.000000	98.718593
1781.000000	98.720035
1780.000000	98.721444
1779.000000	98.722682
1778.000000	98.724083
1777.000000	98.725733
1776.000000	98.727254
1775.000000	98.728491
1774.000000	98.729918
1773.000000	98.732186
1772.000000	98.734987
1771.000000	98.736925
1770.000000	98.737765
1769.000000	98.738931
1768.000000	98.741225
1767.000000	98.743846
1766.000000	98.745627
1765.000000	98.746411
1764.000000	98.746731
1763.000000	98.746957
1762.000000	98.747106
1761.000000	98.747185
1760.000000	98.747770
1759.000000	98.749605
1758.000000	98.752410
1757.000000	98.754608
1756.000000	98.754876
1755.000000	98.753662
1754.000000	98.752437
1753.000000	98.751762
1752.000000	98.751085
1751.000000	98.750084
1750.000000	98.749484
1749.000000	98.750225
1748.000000	98.752232
1747.000000	98.754471
1746.000000	98.755952
1745.000000	98.756396
1744.000000	98.756276
1743.000000	98.756491
1742.000000	98.757798
1741.000000	98.760214
1740.000000	98.762718
1739.000000	98.763970
1738.000000	98.763915
1737.000000	98.763973
1736.000000	98.765381
1735.000000	98.768077
1734.000000	98.770360
1733.000000	98.770012
1732.000000	98.767191
1731.000000	98.763944
1730.000000	98.761405
1729.000000	98.759631
1728.000000	98.758304
1727.000000	98.757202
1726.000000	98.756347
1725.000000	98.755861
1724.000000	98.755741
1723.000000	98.755720
1722.000000	98.755609
1721.000000	98.755529
1720.000000	98.755496
1719.000000	98.754932
1718.000000	98.753136
1717.000000	98.750567
1716.000000	98.748690
1715.000000	98.748188
1714.000000	98.748434
1713.000000	98.748367
1712.000000	98.747557
1711.000000	98.746327
1710.000000	98.745198
1709.000000	98.744396
1708.000000	98.743698
1707.000000	98.742613
1706.000000	98.740759
1705.000000	98.738337
1704.000000	98.736079
1703.000000	98.734510
1702.000000	98.733471
1701.000000	98.732397
1700.000000	98.731125
1699.000000	98.730005
1698.000000	98.729329
1697.000000	98.728995
1696.000000	98.728420
1695.000000	98.727160
1694.000000	98.725427
1693.000000	98.723813
1692.000000	98.722489
1691.000000	98.721251
1690.000000	98.719954
1689.000000	98.718641
1688.000000	98.717462
1687.000000	98.716489
1686.000000	98.715470
1685.000000	98.714120
1684.000000	98.712880
1683.000000	98.712123
1682.000000	98.711641
1681.000000	98.711417
1680.000000	98.711186
1679.000000	98.710788
1678.000000	98.710339
1677.000000	98.709820
1676.000000	98.708883
1675.000000	98.707300
1674.000000	98.705439
1673.000000	98.703928
1672.000000	98.703055
1671.000000	98.702683
1670.000000	98.702608
1669.000000	98.702587
1668.000000	98.702332
1667.000000	98.701799
1666.000000	98.701032
1665.000000	98.699912
1664.000000	98.698493
1663.000000	98.697368
1662.000000	98.697068
1661.000000	98.697158
1660.000000	98.696923
1659.000000	98.696277
1658.000000	98.695614
1657.000000	98.695240
1656.000000	98.695008
1655.000000	98.694168
1654.000000	98.692151
1653.000000	98.690193
1652.000000	98.688604
1651.000000	98.686874
1650.000000	98.686341
1649.000000	98.686743
1648.000000	98.686813
1647.000000	98.685419
1646.000000	98.682838
1645.000000	98.680586
1644.000000	98.679840
1643.000000	98.680403
1642.000000	98.681280
1641.000000	98.681770
1640.000000	98.681785
1639.000000	98.681425
1638.000000	98.680446
1637.000000	98.678318
1636.000000	98.675577
1635.000000	98.673746
1634.000000	98.673039
1633.000000	98.673428
1632.000000	98.674672
1631.000000	98.675702
1630.000000	98.675825
1629.000000	98.675306
1628.000000	98.675011
1627.000000	98.675497
1626.000000	98.676735
1625.000000	98.678389
1624.000000	98.680042
1623.000000	98.681437
1622.000000	98.682404
1621.000000	98.682993
1620.000000	98.683513
1619.000000	98.683723
1618.000000	98.683074
1617.000000	98.682153
1616.000000	98.682012
1615.000000	98.682428
1614.000000	98.683340
1613.000000	98.685138
1612.000000	98.687718
1611.000000	98.690783
1610.000000	98.693939
1609.000000	98.696533
1608.000000	98.698052
1607.000000	98.698873
1606.000000	98.700056
1605.000000	98.702177
1604.000000	98.704939
1603.000000	98.707753
1602.000000	98.710219
1601.000000	98.712078
1600.000000	98.713198
1599.000000	98.713768
1598.000000	98.714292
1597.000000	98.715301
1596.000000	98.717034
1595.000000	98.719322
1594.000000	98.721561
1593.000000	98.722963
1592.000000	98.723158
1591.000000	98.722622
1590.000000	98.722403
1589.000000	98.723204
1588.000000	98.724907
1587.000000	98.727071
1586.000000	98.729564
1585.000000	98.732463
1584.000000	98.735582
1583.000000	98.738336
1582.000000	98.739946
1581.000000	98.739989
1580.000000	98.738952
1579.000000	98.738140
1578.000000	98.738705
1577.000000	98.740783
1576.000000	98.742983
1575.000000	98.743450
1574.000000	98.742485
1573.000000	98.741787
1572.000000	98.741717
1571.000000	98.741577
1570.000000	98.741246
1569.000000	98.741228
1568.000000	98.741487
1567.000000	98.741782
1566.000000	98.741939
1565.000000	98.741692
1564.000000	98.741014
1563.000000	98.740364
1562.000000	98.740341
1561.000000	98.741038
1560.000000	98.741793
1559.000000	98.742153
1558.000000	98.741258
1557.000000	98.739112
1556.000000	98.737889
1555.000000	98.737572
1554.000000	98.737081
1553.000000	98.736089
1552.000000	98.735053
1551.000000	98.734388
1550.000000	98.734105
1549.000000	98.734008
1548.000000	98.733893
1547.000000	98.733611
1546.000000	98.733061
1545.000000	98.732352
1544.000000	98.731754
1543.000000	98.731306
1542.000000	98.730823
1541.000000	98.730345
1540.000000	98.730179
1539.000000	98.730187
1538.000000	98.730015
1537.000000	98.729781
1536.000000	98.729611
1535.000000	98.729446
1534.000000	98.729217
1533.000000	98.728960
1532.000000	98.728782
1531.000000	98.728741
1530.000000	98.728803
1529.000000	98.728858
1528.000000	98.728841
1527.000000	98.728796
1526.000000	98.728827
1525.000000	98.728992
1524.000000	98.729275
1523.000000	98.729612
1522.000000	98.729934
1521.000000	98.730167
1520.000000	98.730251
1519.000000	98.730256
1518.000000	98.730349
1517.000000	98.730660
1516.000000	98.731198
1515.000000	98.731778
1514.000000	98.732238
1513.000000	98.732589
1512.000000	98.732960
1511.000000	98.733456
1510.000000	98.734046
1509.000000	98.734644
1508.000000	98.735323
1507.000000	98.736347
1506.000000	98.737521
1505.000000	98.738285
1504.000000	98.738752
1503.000000	98.739264
1502.000000	98.739938
1501.000000	98.740790
1500.000000	98.741825
1499.000000	98.743076
1498.000000	98.744394
1497.000000	98.745307
1496.000000	98.745449
1495.000000	98.745059
1494.000000	98.744762
1493.000000	98.744836
1492.000000	98.745175
1491.000000	98.745686
1490.000000	98.746491
1489.000000	98.747577
1488.000000	98.748571
1487.000000	98.749172
1486.000000	98.749439
1485.000000	98.749612
1484.000000	98.749833
1483.000000	98.750099
1482.000000	98.750385
1481.000000	98.750710
1480.000000	98.751009
1479.000000	98.751067
1478.000000	98.750690
1477.000000	98.750008
1476.000000	98.749484
1475.000000	98.749380
1474.000000	98.749419
1473.000000	98.749284
1472.000000	98.749235
1471.000000	98.749690
1470.000000	98.750669
1469.000000	98.751775
1468.000000	98.752460
1467.000000	98.752527
1466.000000	98.752248
1465.000000	98.751952
1464.000000	98.751545
1463.000000	98.750790
1462.000000	98.749827
1461.000000	98.748924
1460.000000	98.748159
1459.000000	98.747579
1458.000000	98.747284
1457.000000	98.746933
1456.000000	98.745492
1455.000000	98.743389
1454.000000	98.742355
1453.000000	98.742660
1452.000000	98.743235
1451.000000	98.742748
1450.000000	98.740748
1449.000000	98.738084
1448.000000	98.736098
1447.000000	98.735307
1446.000000	98.735109
1445.000000	98.734763
1444.000000	98.734088
1443.000000	98.733207
1442.000000	98.732267
1441.000000	98.731473
1440.000000	98.731067
1439.000000	98.730953
1438.000000	98.730394
1437.000000	98.728651
1436.000000	98.725906
1435.000000	98.723155
1434.000000	98.721343
1433.000000	98.720649
1432.000000	98.720628
1431.000000	98.720850
1430.000000	98.721150
1429.000000	98.721483
1428.000000	98.721633
1427.000000	98.721244
1426.000000	98.720053
1425.000000	98.718103
1424.000000	98.716035
1423.000000	98.714553
1422.000000	98.713830
1421.000000	98.713781
1420.000000	98.714620
1419.000000	98.716709
1418.000000	98.719247
1417.000000	98.721003
1416.000000	98.721800
1415.000000	98.721503
1414.000000	98.719908
1413.000000	98.717804
1412.000000	98.716840
1411.000000	98.717923
1410.000000	98.720206
1409.000000	98.722260
1408.000000	98.723643
1407.000000	98.724679
1406.000000	98.725478
1405.000000	98.725931
1404.000000	98.726510
1403.000000	98.728126
1402.000000	98.731085
1401.000000	98.734775
1400.000000	98.738164
1399.000000	98.740421
1398.000000	98.741265
1397.000000	98.741019
1396.000000	98.740459
1395.000000	98.740593
1394.000000	98.742047
1393.000000	98.744521
1392.000000	98.747202
1391.000000	98.749359
1390.000000	98.750669
1389.000000	98.751405
1388.000000	98.752301
1387.000000	98.753876
1386.000000	98.755813
1385.000000	98.757451
1384.000000	98.758572
1383.000000	98.759387
1382.000000	98.760235
1381.000000	98.761358
1380.000000	98.762756
1379.000000	98.764198
1378.000000	98.765449
1377.000000	98.766553
1376.000000	98.767786
1375.000000	98.769203
1374.000000	98.770371
1373.000000	98.770901
1372.000000	98.771164
1371.000000	98.771864
1370.000000	98.773080
1369.000000	98.774280
1368.000000	98.775129
1367.000000	98.775826
1366.000000	98.776540
1365.000000	98.776966
1364.000000	98.776782
1363.000000	98.776364
1362.000000	98.776627
1361.000000	98.778037
1360.000000	98.780233
1359.000000	98.782328
1358.000000	98.783327
1357.000000	98.782681
1356.000000	98.780873
1355.000000	98.779308
1354.000000	98.779128
1353.000000	98.780373
1352.000000	98.782391
1351.000000	98.784538
1350.000000	98.786217
1349.000000	98.786796
1348.000000	98.786178
1347.000000	98.785132
1346.000000	98.784467
1345.000000	98.784072
1344.000000	98.783270
1343.000000	98.781673
1342.000000	98.779256
1341.000000	98.776196
1340.000000	98.773472
1339.000000	98.772866
1338.000000	98.775149
1337.000000	98.778886
1336.000000	98.782032
1335.000000	98.784141
1334.000000	98.785870
1333.000000	98.786868
1332.000000	98.785780
1331.000000	98.782685
1330.000000	98.780025
1329.000000	98.779972
1328.000000	98.781898
1327.000000	98.783551
1326.000000	98.783946
1325.000000	98.783949
1324.000000	98.784588
1323.000000	98.785933
1322.000000	98.787453
1321.000000	98.788484
1320.000000	98.788284
1319.000000	98.786377
1318.000000	98.783054
1317.000000	98.779179
1316.000000	98.775652
1315.000000	98.773379
1314.000000	98.773217
1313.000000	98.775175
1312.000000	98.777869
1311.000000	98.779563
1310.000000	98.779865
1309.000000	98.779902
1308.000000	98.780868
1307.000000	98.782737
1306.000000	98.784509
1305.000000	98.785424
1304.000000	98.785704
1303.000000	98.786099
1302.000000	98.786735
1301.000000	98.786602
1300.000000	98.784507
1299.000000	98.780656
1298.000000	98.776922
1297.000000	98.775082
1296.000000	98.774912
1295.000000	98.774462
1294.000000	98.772244
1293.000000	98.768786
1292.000000	98.765816
1291.000000	98.764119
1290.000000	98.762641
1289.000000	98.759839
1288.000000	98.755506
1287.000000	98.750916
1286.000000	98.747441
1285.000000	98.745631
1284.000000	98.745522
1283.000000	98.746769
1282.000000	98.748239
1281.000000	98.748334
1280.000000	98.746295
1279.000000	98.742789
1278.000000	98.738818
1277.000000	98.734677
1276.000000	98.730577
1275.000000	98.727658
1274.000000	98.727276
1273.000000	98.729294
1272.000000	98.731777
1271.000000	98.732518
1270.000000	98.730714
1269.000000	98.727331
1268.000000	98.724124
1267.000000	98.721992
1266.000000	98.720019
1265.000000	98.716462
1264.000000	98.710760
1263.000000	98.703928
1262.000000	98.697182
1261.000000	98.691494
1260.000000	98.688444
1259.000000	98.689228
1258.000000	98.691793
1257.000000	98.691374
1256.000000	98.685894
1255.000000	98.679111
1254.000000	98.675899
1253.000000	98.675400
1252.000000	98.671911
1251.000000	98.662449
1250.000000	98.650622
1249.000000	98.642422
1248.000000	98.640345
1247.000000	98.642100
1246.000000	98.642657
1245.000000	98.636763
1244.000000	98.621999
1243.000000	98.601593
1242.000000	98.583169
1241.000000	98.572654
1240.000000	98.569495
1239.000000	98.568283
1238.000000	98.564101
1237.000000	98.555696
1236.000000	98.544723
1235.000000	98.533545
1234.000000	98.523506
1233.000000	98.514053
1232.000000	98.503071
1231.000000	98.488441
1230.000000	98.469546
1229.000000	98.447505
1228.000000	98.424387
1227.000000	98.402193
1226.000000	98.381818
1225.000000	98.362391
1224.000000	98.341655
1223.000000	98.317032
1222.000000	98.286434
1221.000000	98.248980
1220.000000	98.206125
1219.000000	98.161940
1218.000000	98.120704
1217.000000	98.083251
1216.000000	98.046112
1215.000000	98.004816
1214.000000	97.958088
1213.000000	97.908900
1212.000000	97.861518
1211.000000	97.817389
1210.000000	97.774009
1209.000000	97.728052
1208.000000	97.679111
1207.000000	97.629633
1206.000000	97.581570
1205.000000	97.534328
1204.000000	97.486007
1203.000000	97.435502
1202.000000	97.383574
1201.000000	97.333055
1200.000000	97.287321
1199.000000	97.246591
1198.000000	97.206086
1197.000000	97.160187
1196.000000	97.108345
1195.000000	97.054812
1194.000000	97.002898
1193.000000	96.952198
1192.000000	96.901537
1191.000000	96.851211
1190.000000	96.801217
1189.000000	96.750207
1188.000000	96.697760
1187.000000	96.645473
1186.000000	96.594700
1185.000000	96.545163
1184.000000	96.496201
1183.000000	96.446540
1182.000000	96.392403
1181.000000	96.329544
1180.000000	96.258718
1179.000000	96.186086
1178.000000	96.116493
1177.000000	96.049158
1176.000000	95.981280
1175.000000	95.912258
1174.000000	95.842403
1173.000000	95.771100
1172.000000	95.698903
1171.000000	95.628511
1170.000000	95.561194
1169.000000	95.495081
1168.000000	95.429230
1167.000000	95.366683
1166.000000	95.311672
1165.000000	95.267196
1164.000000	95.237464
1163.000000	95.228612
1162.000000	95.243325
1161.000000	95.276571
1160.000000	95.318292
1159.000000	95.357868
1158.000000	95.385030
1157.000000	95.390839
1156.000000	95.371721
1155.000000	95.331790
1154.000000	95.279259
1153.000000	95.220946
1152.000000	95.160589
1151.000000	95.099930
1150.000000	95.039354
1149.000000	94.979053
1148.000000	94.920689
1147.000000	94.865855
1146.000000	94.812434
1145.000000	94.755782
1144.000000	94.694839
1143.000000	94.633939
1142.000000	94.577129
1141.000000	94.523838
1140.000000	94.471499
1139.000000	94.418818
1138.000000	94.364617
1137.000000	94.306911
1136.000000	94.245322
1135.000000	94.181820
1134.000000	94.117581
1133.000000	94.051843
1132.000000	93.984911
1131.000000	93.919167
1130.000000	93.856133
1129.000000	93.795755
1128.000000	93.738931
1127.000000	93.686591
1126.000000	93.635720
1125.000000	93.580902
1124.000000	93.520658
1123.000000	93.457852
1122.000000	93.393768
1121.000000	93.327528
1120.000000	93.261964
1119.000000	93.202962
1118.000000	93.150619
1117.000000	93.097747
1116.000000	93.039942
1115.000000	92.981099
1114.000000	92.926031
1113.000000	92.873908
1112.000000	92.822275
1111.000000	92.771217
1110.000000	92.720008
1109.000000	92.665793
1108.000000	92.609204
1107.000000	92.555599
1106.000000	92.507173
1105.000000	92.459279
1104.000000	92.408097
1103.000000	92.356775
1102.000000	92.310465
1101.000000	92.269826
1100.000000	92.232329
1099.000000	92.195670
1098.000000	92.157797
1097.000000	92.117743
1096.000000	92.077493
1095.000000	92.039009
1094.000000	91.999909
1093.000000	91.957806
1092.000000	91.917695
1091.000000	91.887255
1090.000000	91.864963
1089.000000	91.841320
1088.000000	91.812272
1087.000000	91.782442
1086.000000	91.754381
1085.000000	91.724586
1084.000000	91.692149
1083.000000	91.661506
1082.000000	91.634066
1081.000000	91.606839
1080.000000	91.582115
1079.000000	91.567840
1078.000000	91.564044
1077.000000	91.559023
1076.000000	91.544129
1075.000000	91.522664
1074.000000	91.498803
1073.000000	91.466872
1072.000000	91.418121
1071.000000	91.350426
1070.000000	91.265364
1069.000000	91.162959
1068.000000	91.045917
1067.000000	90.923405
1066.000000	90.804381
1065.000000	90.691193
1064.000000	90.583423
1063.000000	90.481786
1062.000000	90.384432
1061.000000	90.286607
1060.000000	90.188471
1059.000000	90.096715
1058.000000	90.014700
1057.000000	89.937826
1056.000000	89.861643
1055.000000	89.786288
1054.000000	89.709215
1053.000000	89.622533
1052.000000	89.523202
1051.000000	89.418125
1050.000000	89.313539
1049.000000	89.207778
1048.000000	89.099778
1047.000000	88.994505
1046.000000	88.894213
1045.000000	88.793942
1044.000000	88.690516
1043.000000	88.587432
1042.000000	88.486935
1041.000000	88.386233
1040.000000	88.285939
1039.000000	88.193239
1038.000000	88.111484
1037.000000	88.035100
1036.000000	87.959729
1035.000000	87.889404
1034.000000	87.829037
1033.000000	87.777696
1032.000000	87.732836
1031.000000	87.692776
1030.000000	87.652144
1029.000000	87.605059
1028.000000	87.556860
1027.000000	87.522405
1026.000000	87.507744
1025.000000	87.502508
1024.000000	87.494459
1023.000000	87.482070
1022.000000	87.468272
1021.000000	87.452494
1020.000000	87.435154
1019.000000	87.420596
1018.000000	87.408952
1017.000000	87.393177
1016.000000	87.370137
1015.000000	87.346917
1014.000000	87.330216
1013.000000	87.316900
1012.000000	87.300718
1011.000000	87.281787
1010.000000	87.264252
1009.000000	87.250533
1008.000000	87.242163
1007.000000	87.240359
1006.000000	87.242308
1005.000000	87.243147
1004.000000	87.244187
1003.000000	87.252052
1002.000000	87.267213
1001.000000	87.281330
1000.000000	87.289135
999.000000	87.295179
998.000000	87.305442
997.000000	87.320290
996.000000	87.339406
995.000000	87.365483
994.000000	87.398067
993.000000	87.430535
992.000000	87.458111
991.000000	87.483739
990.000000	87.512737
989.000000	87.547356
988.000000	87.589300
987.000000	87.641144
986.000000	87.701661
985.000000	87.765162
984.000000	87.828544
983.000000	87.894569
982.000000	87.966816
981.000000	88.046504
980.000000	88.134625
979.000000	88.231221
978.000000	88.332274
977.000000	88.434177
976.000000	88.541638
975.000000	88.663404
974.000000	88.799084
973.000000	88.937831
972.000000	89.071626
971.000000	89.202198
970.000000	89.332807
969.000000	89.461767
968.000000	89.587949
967.000000	89.715353
966.000000	89.846981
965.000000	89.979262
964.000000	90.107283
963.000000	90.231818
962.000000	90.356973
961.000000	90.483394
960.000000	90.607243
959.000000	90.724592
958.000000	90.834794
957.000000	90.940446
956.000000	91.044787
955.000000	91.148084
954.000000	91.246816
953.000000	91.337610
952.000000	91.420611
951.000000	91.497218
950.000000	91.567123
949.000000	91.630998
948.000000	91.693749
947.000000	91.760215
946.000000	91.828525
945.000000	91.892391
944.000000	91.949411
943.000000	92.002599
942.000000	92.054273
941.000000	92.103460
940.000000	92.149811
939.000000	92.195409
938.000000	92.241532
937.000000	92.287257
936.000000	92.331742
935.000000	92.374411
934.000000	92.413137
933.000000	92.446847
932.000000	92.480688
931.000000	92.524159
930.000000	92.581886
929.000000	92.648707
928.000000	92.714651
927.000000	92.772402
926.000000	92.820239
925.000000	92.861250
924.000000	92.900839
923.000000	92.942692
922.000000	92.986188
921.000000	93.028900
920.000000	93.070814
919.000000	93.113813
918.000000	93.157799
917.000000	93.200149
916.000000	93.238733
915.000000	93.273303
914.000000	93.304928
913.000000	93.337162
912.000000	93.377393
911.000000	93.433334
910.000000	93.506272
909.000000	93.588777
908.000000	93.669988
907.000000	93.743912
906.000000	93.813999
905.000000	93.889769
904.000000	93.977775
903.000000	94.076416
902.000000	94.181274
901.000000	94.293110
900.000000	94.414968
899.000000	94.542167
898.000000	94.663045
897.000000	94.771756
896.000000	94.872913
895.000000	94.970894
894.000000	95.062829
893.000000	95.147099
892.000000	95.231147
891.000000	95.323341
890.000000	95.421194
889.000000	95.513982
888.000000	95.593760
887.000000	95.659644
886.000000	95.716726
885.000000	95.776014
884.000000	95.849579
883.000000	95.937836
882.000000	96.025571
881.000000	96.098294
880.000000	96.158505
879.000000	96.218108
878.000000	96.279505
877.000000	96.335405
876.000000	96.385335
875.000000	96.439605
874.000000	96.504541
873.000000	96.573719
872.000000	96.637818
871.000000	96.696258
870.000000	96.755615
869.000000	96.821331
868.000000	96.893583
867.000000	96.967973
866.000000	97.038776
865.000000	97.103793
864.000000	97.165924
863.000000	97.228051
862.000000	97.288298
861.000000	97.343572
860.000000	97.395756
859.000000	97.450111
858.000000	97.508430
857.000000	97.567515
856.000000	97.623301
855.000000	97.672546
854.000000	97.711937
853.000000	97.739980
852.000000	97.759332
851.000000	97.774335
850.000000	97.788101
849.000000	97.805380
848.000000	97.834338
847.000000	97.877816
846.000000	97.923539
845.000000	97.951362
844.000000	97.952770
843.000000	97.938181
842.000000	97.923268
841.000000	97.912744
840.000000	97.900118
839.000000	97.878393
838.000000	97.846507
837.000000	97.807927
836.000000	97.767200
835.000000	97.727790
834.000000	97.691119
833.000000	97.657736
832.000000	97.630129
831.000000	97.613498
830.000000	97.612604
829.000000	97.627057
828.000000	97.647838
827.000000	97.658328
826.000000	97.644456
825.000000	97.609627
824.000000	97.576673
823.000000	97.568305
822.000000	97.586594
821.000000	97.616282
820.000000	97.642457
819.000000	97.656194
818.000000	97.648498
817.000000	97.611926
816.000000	97.550455
815.000000	97.478650
814.000000	97.405306
813.000000	97.322406
812.000000	97.214225
811.000000	97.071986
810.000000	96.894117
809.000000	96.676669
808.000000	96.412402
807.000000	96.100949
806.000000	95.755208
805.000000	95.396376
804.000000	95.045201
803.000000	94.717164
802.000000	94.422297
801.000000	94.169367
800.000000	93.970587
799.000000	93.838353
798.000000	93.774950
797.000000	93.768991
796.000000	93.803973
795.000000	93.867162
794.000000	93.949640
793.000000	94.042244
792.000000	94.134055
791.000000	94.214090
790.000000	94.274797
789.000000	94.313650
788.000000	94.327996
787.000000	94.308274
786.000000	94.243426
785.000000	94.137491
784.000000	94.014524
783.000000	93.899925
782.000000	93.800977
781.000000	93.712776
780.000000	93.637900
779.000000	93.589372
778.000000	93.576975
777.000000	93.602329
776.000000	93.666247
775.000000	93.768302
774.000000	93.898242
773.000000	94.040158
772.000000	94.187375
771.000000	94.341511
770.000000	94.494363
769.000000	94.624027
768.000000	94.716191
767.000000	94.780102
766.000000	94.835707
765.000000	94.891282
764.000000	94.940982
763.000000	94.979496
762.000000	95.011140
761.000000	95.046335
760.000000	95.094665
759.000000	95.159810
758.000000	95.236451
757.000000	95.312660
756.000000	95.378192
755.000000	95.430252
754.000000	95.471204
753.000000	95.504273
752.000000	95.533726
751.000000	95.565815
750.000000	95.605455
749.000000	95.652792
748.000000	95.705390
747.000000	95.763204
746.000000	95.829857
745.000000	95.909184
744.000000	96.000458
743.000000	96.095894
742.000000	96.184187
741.000000	96.259622
740.000000	96.327859
739.000000	96.400136
738.000000	96.480599
737.000000	96.561402
736.000000	96.631328
735.000000	96.686953
734.000000	96.733766
733.000000	96.777822
732.000000	96.818708
731.000000	96.851445
730.000000	96.873996
729.000000	96.890809
728.000000	96.908011
727.000000	96.927494
726.000000	96.949159
725.000000	96.977275
724.000000	97.018266
723.000000	97.070216
722.000000	97.120468
721.000000	97.158364
720.000000	97.187305
719.000000	97.219714
718.000000	97.262663
717.000000	97.313616
716.000000	97.366873
715.000000	97.416852
714.000000	97.456448
713.000000	97.479449
712.000000	97.486699
711.000000	97.486501
710.000000	97.487611
709.000000	97.493246
708.000000	97.500493
707.000000	97.502357
706.000000	97.491835
705.000000	97.467185
704.000000	97.431174
703.000000	97.381471
702.000000	97.304280
701.000000	97.183383
700.000000	97.016139
699.000000	96.818198
698.000000	96.615274
697.000000	96.434820
696.000000	96.301793
695.000000	96.232338
694.000000	96.227860
693.000000	96.278186
692.000000	96.369633
691.000000	96.486904
690.000000	96.611453
689.000000	96.726444
688.000000	96.825034
687.000000	96.909331
686.000000	96.981352
685.000000	97.040534
684.000000	97.088860
683.000000	97.131440
682.000000	97.172345
681.000000	97.215265
680.000000	97.265823
679.000000	97.325217
678.000000	97.383151
677.000000	97.426617
676.000000	97.455854
675.000000	97.483465
674.000000	97.517178
673.000000	97.551846
672.000000	97.579709
671.000000	97.599718
670.000000	97.615798
669.000000	97.632679
668.000000	97.656517
667.000000	97.696399
666.000000	97.749731
665.000000	97.800084
664.000000	97.834392
663.000000	97.851184
662.000000	97.859121
661.000000	97.870150
660.000000	97.892262
659.000000	97.924595
658.000000	97.955015
657.000000	97.967485
656.000000	97.956436
655.000000	97.933290
654.000000	97.917042
653.000000	97.917588
652.000000	97.930340
651.000000	97.944745
650.000000	97.954814
