4000.000000	100.303220
3999.000000	100.302805
3998.000000	100.302289
3997.000000	100.301435
3996.000000	100.300065
3995.000000	100.298293
3994.000000	100.296627
3993.000000	100.295504
3992.000000	100.295006
3991.000000	100.294865
3990.000000	100.294758
3989.000000	100.294560
3988.000000	100.294236
3987.000000	100.293711
3986.000000	100.292881
3985.000000	100.291719
3984.000000	100.290396
3983.000000	100.289280
3982.000000	100.288701
3981.000000	100.288755
3980.000000	100.289215
3979.000000	100.289603
3978.000000	100.289420
3977.000000	100.288329
3976.000000	100.286365
3975.000000	100.284115
3974.000000	100.282430
3973.000000	100.281826
3972.000000	100.282180
3971.000000	100.282958
3970.000000	100.283808
3969.000000	100.284732
3968.000000	100.285669
3967.000000	100.286133
3966.000000	100.285475
3965.000000	100.283520
3964.000000	100.280905
3963.000000	100.278731
3962.000000	100.277753
3961.000000	100.277891
3960.000000	100.278498
3959.000000	100.279076
3958.000000	100.279640
3957.000000	100.280342
3956.000000	100.280940
3955.000000	100.280877
3954.000000	100.279933
3953.000000	100.278606
3952.000000	100.277723
3951.000000	100.277621
3950.000000	100.277655
3949.000000	100.276570
3948.000000	100.273528
3947.000000	100.268920
3946.000000	100.264192
3945.000000	100.260813
3944.000000	100.259336
3943.000000	100.259252
3942.000000	100.259580
3941.000000	100.259644
3940.000000	100.259523
3939.000000	100.259888
3938.000000	100.261257
3937.000000	100.263443
3936.000000	100.265879
3935.000000	100.268242
3934.000000	100.270509
3933.000000	100.272433
3932.000000	100.273410
3931.000000	100.273245
3930.000000	100.272637
3929.000000	100.272330
3928.000000	100.272022
3927.000000	100.270722
3926.000000	100.268223
3925.000000	100.265861
3924.000000	100.265313
3923.000000	100.266865
3922.000000	100.269447
3921.000000	100.271906
3920.000000	100.273775
3919.000000	100.275008
3918.000000	100.275739
3917.000000	100.276333
3916.000000	100.277220
3915.000000	100.278373
3914.000000	100.279183
3913.000000	100.279085
3912.000000	100.278245
3911.000000	100.277536
3910.000000	100.277803
3909.000000	100.279050
3908.000000	100.280435
3907.000000	100.281003
3906.000000	100.280524
3905.000000	100.279626
3904.000000	100.279116
3903.000000	100.279104
3902.000000	100.279100
3901.000000	100.278898
3900.000000	100.278909
3899.000000	100.279560
3898.000000	100.280739
3897.000000	100.281900
3896.000000	100.282596
3895.000000	100.282774
3894.000000	100.282733
3893.000000	100.283004
3892.000000	100.284075
3891.000000	100.285971
3890.000000	100.287994
3889.000000	100.289206
3888.000000	100.289258
3887.000000	100.288569
3886.000000	100.288009
3885.000000	100.288160
3884.000000	100.288678
3883.000000	100.288654
3882.000000	100.287666
3881.000000	100.286269
3880.000000	100.285539
3879.000000	100.286023
3878.000000	100.287237
3877.000000	100.288334
3876.000000	100.289047
3875.000000	100.289776
3874.000000	100.291047
3873.000000	100.292782
3872.000000	100.294197
3871.000000	100.294698
3870.000000	100.294696
3869.000000	100.295128
3868.000000	100.296171
3867.000000	100.297196
3866.000000	100.297789
3865.000000	100.297988
3864.000000	100.297986
3863.000000	100.297987
3862.000000	100.298106
3861.000000	100.298459
3860.000000	100.299201
3859.000000	100.300354
3858.000000	100.301779
3857.000000	100.303146
3856.000000	100.303918
3855.000000	100.303660
3854.000000	100.302856
3853.000000	100.302820
3852.000000	100.303428
3851.000000	100.303094
3850.000000	100.301481
3849.000000	100.299711
3848.000000	100.298792
3847.000000	100.298897
3846.000000	100.299609
3845.000000	100.300257
3844.000000	100.300413
3843.000000	100.300154
3842.000000	100.299876
3841.000000	100.299916
3840.000000	100.300373
3839.000000	100.301170
3838.000000	100.302100
3837.000000	100.302813
3836.000000	100.302987
3835.000000	100.302584
3834.000000	100.301883
3833.000000	100.301261
3832.000000	100.300887
3831.000000	100.300655
3830.000000	100.300354
3829.000000	100.299889
3828.000000	100.299419
3827.000000	100.299217
3826.000000	100.299369
3825.000000	100.299696
3824.000000	100.299927
3823.000000	100.299943
3822.000000	100.299825
3821.000000	100.299729
3820.000000	100.299704
3819.000000	100.299660
3818.000000	100.299527
3817.000000	100.299324
3816.000000	100.299091
3815.000000	100.298845
3814.000000	100.298590
3813.000000	100.298332
3812.000000	100.298084
3811.000000	100.297855
3810.000000	100.297648
3809.000000	100.297456
3808.000000	100.297272
3807.000000	100.297088
3806.000000	100.296891
3805.000000	100.296669
3804.000000	100.296414
3803.000000	100.296135
3802.000000	100.295844
3801.000000	100.295544
3800.000000	100.295220
3799.000000	100.294854
3798.000000	100.294446
3797.000000	100.294017
3796.000000	100.293599
3795.000000	100.293209
3794.000000	100.292853
3793.000000	100.292528
3792.000000	100.292233
3791.000000	100.291972
3790.000000	100.291749
3789.000000	100.291563
3788.000000	100.291403
3787.000000	100.291238
3786.000000	100.291042
3785.000000	100.290846
3784.000000	100.290726
3783.000000	100.290719
3782.000000	100.290725
3781.000000	100.290575
3780.000000	100.290199
3779.000000	100.289704
3778.000000	100.289167
3777.000000	100.288456
3776.000000	100.287473
3775.000000	100.286428
3774.000000	100.285611
3773.000000	100.285041
3772.000000	100.284585
3771.000000	100.284371
3770.000000	100.284800
3769.000000	100.285895
3768.000000	100.286958
3767.000000	100.287350
3766.000000	100.287328
3765.000000	100.287571
3764.000000	100.288211
3763.000000	100.288716
3762.000000	100.288654
3761.000000	100.288193
3760.000000	100.287762
3759.000000	100.287596
3758.000000	100.287715
3757.000000	100.288139
3756.000000	100.289018
3755.000000	100.290331
3754.000000	100.291635
3753.000000	100.292155
3752.000000	100.291514
3751.000000	100.290888
3750.000000	100.292233
3749.000000	100.295587
3748.000000	100.298695
3747.000000	100.299246
3746.000000	100.296241
3745.000000	100.290727
3744.000000	100.286019
3743.000000	100.283718
3742.000000	100.281945
3741.000000	100.279753
3740.000000	100.278635
3739.000000	100.279678
3738.000000	100.282265
3737.000000	100.284551
3736.000000	100.285030
3735.000000	100.283617
3734.000000	100.281205
3733.000000	100.278749
3732.000000	100.276837
3731.000000	100.275541
3730.000000	100.274274
3729.000000	100.272443
3728.000000	100.270173
3727.000000	100.268028
3726.000000	100.266309
3725.000000	100.264653
3724.000000	100.262314
3723.000000	100.258908
3722.000000	100.254661
3721.000000	100.250124
3720.000000	100.245959
3719.000000	100.242939
3718.000000	100.241750
3717.000000	100.242480
3716.000000	100.244450
3715.000000	100.246457
3714.000000	100.247248
3713.000000	100.245766
3712.000000	100.241662
3711.000000	100.236056
3710.000000	100.230641
3709.000000	100.226277
3708.000000	100.223145
3707.000000	100.220983
3706.000000	100.218586
3705.000000	100.214157
3704.000000	100.206813
3703.000000	100.197955
3702.000000	100.190733
3701.000000	100.187360
3700.000000	100.186818
3699.000000	100.186215
3698.000000	100.184219
3697.000000	100.181851
3696.000000	100.180458
3695.000000	100.179769
3694.000000	100.178396
3693.000000	100.175865
3692.000000	100.173228
3691.000000	100.171402
3690.000000	100.169601
3689.000000	100.165814
3688.000000	100.158383
3687.000000	100.146509
3686.000000	100.131177
3685.000000	100.116160
3684.000000	100.105901
3683.000000	100.102280
3682.000000	100.103683
3681.000000	100.106759
3680.000000	100.108992
3679.000000	100.108983
3678.000000	100.104982
3677.000000	100.095652
3676.000000	100.083788
3675.000000	100.075698
3674.000000	100.071398
3673.000000	100.063621
3672.000000	100.049588
3671.000000	100.033103
3670.000000	100.019038
3669.000000	100.009261
3668.000000	99.999732
3667.000000	99.985604
3666.000000	99.967355
3665.000000	99.947937
3664.000000	99.929422
3663.000000	99.913862
3662.000000	99.903891
3661.000000	99.900988
3660.000000	99.903423
3659.000000	99.906315
3658.000000	99.904516
3657.000000	99.896588
3656.000000	99.885795
3655.000000	99.875882
3654.000000	99.867189
3653.000000	99.859099
3652.000000	99.852348
3651.000000	99.846790
3650.000000	99.839732
3649.000000	99.828354
3648.000000	99.812712
3647.000000	99.795564
3646.000000	99.780308
3645.000000	99.768549
3644.000000	99.758843
3643.000000	99.748489
3642.000000	99.736479
3641.000000	99.724389
3640.000000	99.714731
3639.000000	99.708596
3638.000000	99.704721
3637.000000	99.699930
3636.000000	99.691622
3635.000000	99.681143
3634.000000	99.673532
3633.000000	99.672547
3632.000000	99.676106
3631.000000	99.677542
3630.000000	99.671839
3629.000000	99.662445
3628.000000	99.657258
3627.000000	99.655698
3626.000000	99.652112
3625.000000	99.647147
3624.000000	99.644539
3623.000000	99.644778
3622.000000	99.645807
3621.000000	99.646648
3620.000000	99.649417
3619.000000	99.656146
3618.000000	99.663814
3617.000000	99.666020
3616.000000	99.660351
3615.000000	99.651380
3614.000000	99.646589
3613.000000	99.650424
3612.000000	99.661554
3611.000000	99.675337
3610.000000	99.688221
3609.000000	99.698813
3608.000000	99.706287
3607.000000	99.709974
3606.000000	99.710585
3605.000000	99.710858
3604.000000	99.713797
3603.000000	99.719846
3602.000000	99.726625
3601.000000	99.731762
3600.000000	99.735598
3599.000000	99.740680
3598.000000	99.748805
3597.000000	99.758602
3596.000000	99.765633
3595.000000	99.765665
3594.000000	99.758581
3593.000000	99.748532
3592.000000	99.739822
3591.000000	99.733435
3590.000000	99.727262
3589.000000	99.719511
3588.000000	99.712255
3587.000000	99.710155
3586.000000	99.714549
3585.000000	99.721710
3584.000000	99.727235
3583.000000	99.729330
3582.000000	99.728562
3581.000000	99.726662
3580.000000	99.725282
3579.000000	99.725130
3578.000000	99.726051
3577.000000	99.727516
3576.000000	99.728738
3575.000000	99.728679
3574.000000	99.726495
3573.000000	99.722274
3572.000000	99.717181
3571.000000	99.712860
3570.000000	99.710543
3569.000000	99.710127
3568.000000	99.709897
3567.000000	99.707769
3566.000000	99.703334
3565.000000	99.698206
3564.000000	99.694487
3563.000000	99.693122
3562.000000	99.693352
3561.000000	99.693603
3560.000000	99.692693
3559.000000	99.690247
3558.000000	99.686545
3557.000000	99.682307
3556.000000	99.678378
3555.000000	99.675322
3554.000000	99.673299
3553.000000	99.672242
3552.000000	99.671932
3551.000000	99.671920
3550.000000	99.671656
3549.000000	99.670773
3548.000000	99.669191
3547.000000	99.666975
3546.000000	99.664276
3545.000000	99.661440
3544.000000	99.658989
3543.000000	99.657274
3542.000000	99.656183
3541.000000	99.655289
3540.000000	99.654141
3539.000000	99.652552
3538.000000	99.650798
3537.000000	99.649500
3536.000000	99.649096
3535.000000	99.649399
3534.000000	99.649711
3533.000000	99.649390
3532.000000	99.648301
3531.000000	99.646689
3530.000000	99.644918
3529.000000	99.643310
3528.000000	99.642048
3527.000000	99.641164
3526.000000	99.640550
3525.000000	99.640025
3524.000000	99.639450
3523.000000	99.638786
3522.000000	99.638075
3521.000000	99.637369
3520.000000	99.636678
3519.000000	99.635966
3518.000000	99.635216
3517.000000	99.634466
3516.000000	99.633776
3515.000000	99.633165
3514.000000	99.632599
3513.000000	99.632036
3512.000000	99.631459
3511.000000	99.630864
3510.000000	99.630259
3509.000000	99.629653
3508.000000	99.629056
3507.000000	99.628468
3506.000000	99.627883
3505.000000	99.627290
3504.000000	99.626681
3503.000000	99.626056
3502.000000	99.625425
3501.000000	99.624793
3500.000000	99.624158
3499.000000	99.623510
3498.000000	99.622843
3497.000000	99.622159
3496.000000	99.621469
3495.000000	99.620780
3494.000000	99.620092
3493.000000	99.619396
3492.000000	99.618691
3491.000000	99.617982
3490.000000	99.617276
3489.000000	99.616559
3488.000000	99.615786
3487.000000	99.614922
3486.000000	99.613971
3485.000000	99.612980
3484.000000	99.611997
3483.000000	99.611036
3482.000000	99.610077
3481.000000	99.609088
3480.000000	99.608061
3479.000000	99.607024
3478.000000	99.606013
3477.000000	99.605030
3476.000000	99.604034
3475.000000	99.602969
3474.000000	99.601835
3473.000000	99.600685
3472.000000	99.599547
3471.000000	99.598326
3470.000000	99.596875
3469.000000	99.595203
3468.000000	99.593592
3467.000000	99.592360
3466.000000	99.591446
3465.000000	99.590331
3464.000000	99.588544
3463.000000	99.586188
3462.000000	99.583934
3461.000000	99.582375
3460.000000	99.581465
3459.000000	99.580618
3458.000000	99.579329
3457.000000	99.577656
3456.000000	99.576077
3455.000000	99.574962
3454.000000	99.574206
3453.000000	99.573356
3452.000000	99.572044
3451.000000	99.570200
3450.000000	99.567851
3449.000000	99.564974
3448.000000	99.561718
3447.000000	99.558653
3446.000000	99.556462
3445.000000	99.555289
3444.000000	99.554513
3443.000000	99.553271
3442.000000	99.551238
3441.000000	99.548777
3440.000000	99.546352
3439.000000	99.543995
3438.000000	99.541487
3437.000000	99.538965
3436.000000	99.537061
3435.000000	99.536240
3434.000000	99.536217
3433.000000	99.536151
3432.000000	99.535404
3431.000000	99.534036
3430.000000	99.532640
3429.000000	99.531785
3428.000000	99.531546
3427.000000	99.531448
3426.000000	99.530840
3425.000000	99.529417
3424.000000	99.527411
3423.000000	99.525408
3422.000000	99.523954
3421.000000	99.523260
3420.000000	99.523067
3419.000000	99.522768
3418.000000	99.521818
3417.000000	99.520190
3416.000000	99.518437
3415.000000	99.517234
3414.000000	99.516807
3413.000000	99.516882
3412.000000	99.517085
3411.000000	99.517290
3410.000000	99.517544
3409.000000	99.517774
3408.000000	99.517730
3407.000000	99.517238
3406.000000	99.516435
3405.000000	99.515735
3404.000000	99.515477
3403.000000	99.515642
3402.000000	99.515913
3401.000000	99.515979
3400.000000	99.515772
3399.000000	99.515457
3398.000000	99.515334
3397.000000	99.515649
3396.000000	99.516409
3395.000000	99.517359
3394.000000	99.518151
3393.000000	99.518629
3392.000000	99.518864
3391.000000	99.519011
3390.000000	99.519185
3389.000000	99.519459
3388.000000	99.519910
3387.000000	99.520580
3386.000000	99.521398
3385.000000	99.522212
3384.000000	99.522930
3383.000000	99.523585
3382.000000	99.524250
3381.000000	99.524953
3380.000000	99.525676
3379.000000	99.526397
3378.000000	99.527118
3377.000000	99.527835
3376.000000	99.528545
3375.000000	99.529269
3374.000000	99.530050
3373.000000	99.530921
3372.000000	99.531856
3371.000000	99.532771
3370.000000	99.533570
3369.000000	99.534219
3368.000000	99.534840
3367.000000	99.535663
3366.000000	99.536818
3365.000000	99.538160
3364.000000	99.539348
3363.000000	99.540193
3362.000000	99.540863
3361.000000	99.541745
3360.000000	99.543063
3359.000000	99.544676
3358.000000	99.546234
3357.000000	99.547553
3356.000000	99.548776
3355.000000	99.550135
3354.000000	99.551580
3353.000000	99.552762
3352.000000	99.553474
3351.000000	99.554021
3350.000000	99.554990
3349.000000	99.556555
3348.000000	99.558174
3347.000000	99.559106
3346.000000	99.559197
3345.000000	99.559094
3344.000000	99.559614
3343.000000	99.560884
3342.000000	99.562225
3341.000000	99.562966
3340.000000	99.563384
3339.000000	99.564542
3338.000000	99.567125
3337.000000	99.570734
3336.000000	99.574324
3335.000000	99.577322
3334.000000	99.579946
3333.000000	99.582466
3332.000000	99.584624
3331.000000	99.586001
3330.000000	99.586685
3329.000000	99.587173
3328.000000	99.587688
3327.000000	99.588016
3326.000000	99.588153
3325.000000	99.588693
3324.000000	99.590248
3323.000000	99.592663
3322.000000	99.595095
3321.000000	99.596934
3320.000000	99.598400
3319.000000	99.600097
3318.000000	99.602178
3317.000000	99.604166
3316.000000	99.605574
3315.000000	99.606471
3314.000000	99.607385
3313.000000	99.608734
3312.000000	99.610458
3311.000000	99.612197
3310.000000	99.613714
3309.000000	99.615084
3308.000000	99.616497
3307.000000	99.617987
3306.000000	99.619455
3305.000000	99.620875
3304.000000	99.622353
3303.000000	99.623966
3302.000000	99.625650
3301.000000	99.627291
3300.000000	99.628863
3299.000000	99.630408
3298.000000	99.631952
3297.000000	99.633491
3296.000000	99.635025
3295.000000	99.636550
3294.000000	99.638060
3293.000000	99.639560
3292.000000	99.641056
3291.000000	99.642557
3290.000000	99.644066
3289.000000	99.645583
3288.000000	99.647110
3287.000000	99.648649
3286.000000	99.650199
3285.000000	99.651754
3284.000000	99.653307
3283.000000	99.654851
3282.000000	99.656386
3281.000000	99.657915
3280.000000	99.659444
3279.000000	99.660975
3278.000000	99.662505
3277.000000	99.664027
3276.000000	99.665533
3275.000000	99.667023
3274.000000	99.668500
3273.000000	99.669967
3272.000000	99.671418
3271.000000	99.672845
3270.000000	99.674244
3269.000000	99.675615
3268.000000	99.676965
3267.000000	99.678302
3266.000000	99.679632
3265.000000	99.680961
3264.000000	99.682290
3263.000000	99.683619
3262.000000	99.684943
3261.000000	99.686254
3260.000000	99.687538
3259.000000	99.688797
3258.000000	99.690068
3257.000000	99.691434
3256.000000	99.692957
3255.000000	99.694575
3254.000000	99.696110
3253.000000	99.697391
3252.000000	99.698397
3251.000000	99.699357
3250.000000	99.700600
3249.000000	99.702213
3248.000000	99.703874
3247.000000	99.705180
3246.000000	99.706113
3245.000000	99.707033
3244.000000	99.708194
3243.000000	99.709466
3242.000000	99.710636
3241.000000	99.711779
3240.000000	99.713173
3239.000000	99.714958
3238.000000	99.716985
3237.000000	99.718832
3236.000000	99.720021
3235.000000	99.720437
3234.000000	99.720570
3233.000000	99.721083
3232.000000	99.722090
3231.000000	99.723099
3230.000000	99.723679
3229.000000	99.723901
3228.000000	99.724187
3227.000000	99.725107
3226.000000	99.727314
3225.000000	99.731113
3224.000000	99.735831
3223.000000	99.740089
3222.000000	99.743146
3221.000000	99.745659
3220.000000	99.748769
3219.000000	99.752691
3218.000000	99.756564
3217.000000	99.759496
3216.000000	99.761221
3215.000000	99.761819
3214.000000	99.761399
3213.000000	99.760247
3212.000000	99.759023
3211.000000	99.758622
3210.000000	99.759608
3209.000000	99.761564
3208.000000	99.763058
3207.000000	99.762700
3206.000000	99.760641
3205.000000	99.758821
3204.000000	99.759210
3203.000000	99.761975
3202.000000	99.765733
3201.000000	99.769243
3200.000000	99.772462
3199.000000	99.775958
3198.000000	99.779978
3197.000000	99.784333
3196.000000	99.788589
3195.000000	99.792005
3194.000000	99.793825
3193.000000	99.794074
3192.000000	99.793911
3191.000000	99.794776
3190.000000	99.797087
3189.000000	99.800060
3188.000000	99.802643
3187.000000	99.804421
3186.000000	99.805637
3185.000000	99.806708
3184.000000	99.807915
3183.000000	99.809434
3182.000000	99.811367
3181.000000	99.813653
3180.000000	99.816013
3179.000000	99.818116
3178.000000	99.819840
3177.000000	99.821312
3176.000000	99.822703
3175.000000	99.824066
3174.000000	99.825427
3173.000000	99.826926
3172.000000	99.828736
3171.000000	99.830858
3170.000000	99.833056
3169.000000	99.835041
3168.000000	99.836737
3167.000000	99.838298
3166.000000	99.839918
3165.000000	99.841646
3164.000000	99.843394
3163.000000	99.845043
3162.000000	99.846548
3161.000000	99.847959
3160.000000	99.849391
3159.000000	99.850951
3158.000000	99.852665
3157.000000	99.854422
3156.000000	99.856037
3155.000000	99.857449
3154.000000	99.858806
3153.000000	99.860347
3152.000000	99.862177
3151.000000	99.864185
3150.000000	99.866178
3149.000000	99.868086
3148.000000	99.869939
3147.000000	99.871717
3146.000000	99.873303
3145.000000	99.874635
3144.000000	99.875828
3143.000000	99.877090
3142.000000	99.878504
3141.000000	99.879975
3140.000000	99.881411
3139.000000	99.882918
3138.000000	99.884709
3137.000000	99.886848
3136.000000	99.889171
3135.000000	99.891497
3134.000000	99.893823
3133.000000	99.896179
3132.000000	99.898330
3131.000000	99.899858
3130.000000	99.900617
3129.000000	99.901018
3128.000000	99.901696
3127.000000	99.902896
3126.000000	99.904365
3125.000000	99.905798
3124.000000	99.907240
3123.000000	99.908942
3122.000000	99.910941
3121.000000	99.912895
3120.000000	99.914354
3119.000000	99.915176
3118.000000	99.915745
3117.000000	99.916795
3116.000000	99.918856
3115.000000	99.921830
3114.000000	99.925129
3113.000000	99.928204
3112.000000	99.930890
3111.000000	99.933167
3110.000000	99.934771
3109.000000	99.935394
3108.000000	99.935184
3107.000000	99.934859
3106.000000	99.935171
3105.000000	99.936294
3104.000000	99.937898
3103.000000	99.939630
3102.000000	99.941409
3101.000000	99.943268
3100.000000	99.945084
3099.000000	99.946663
3098.000000	99.948020
3097.000000	99.949397
3096.000000	99.950981
3095.000000	99.952702
3094.000000	99.954378
3093.000000	99.955963
3092.000000	99.957568
3091.000000	99.959285
3090.000000	99.961043
3089.000000	99.962657
3088.000000	99.963960
3087.000000	99.964934
3086.000000	99.965725
3085.000000	99.966560
3084.000000	99.967570
3083.000000	99.968753
3082.000000	99.970093
3081.000000	99.971640
3080.000000	99.973384
3079.000000	99.975093
3078.000000	99.976428
3077.000000	99.977292
3076.000000	99.977938
3075.000000	99.978733
3074.000000	99.979800
3073.000000	99.980996
3072.000000	99.982116
3071.000000	99.983070
3070.000000	99.983879
3069.000000	99.984599
3068.000000	99.985285
3067.000000	99.986021
3066.000000	99.986901
3065.000000	99.987987
3064.000000	99.989256
3063.000000	99.990612
3062.000000	99.991905
3061.000000	99.993007
3060.000000	99.993893
3059.000000	99.994648
3058.000000	99.995431
3057.000000	99.996343
3056.000000	99.997360
3055.000000	99.998375
3054.000000	99.999308
3053.000000	100.000172
3052.000000	100.001038
3051.000000	100.001953
3050.000000	100.002912
3049.000000	100.003867
3048.000000	100.004757
3047.000000	100.005543
3046.000000	100.006219
3045.000000	100.006823
3044.000000	100.007439
3043.000000	100.008149
3042.000000	100.008969
3041.000000	100.009856
3040.000000	100.010772
3039.000000	100.011718
3038.000000	100.012685
3037.000000	100.013595
3036.000000	100.014375
3035.000000	100.015062
3034.000000	100.015793
3033.000000	100.016646
3032.000000	100.017541
3031.000000	100.018384
3030.000000	100.019284
3029.000000	100.020484
3028.000000	100.022039
3027.000000	100.023701
3026.000000	100.025140
3025.000000	100.026223
3024.000000	100.027024
3023.000000	100.027672
3022.000000	100.028283
3021.000000	100.029006
3020.000000	100.029996
3019.000000	100.031323
3018.000000	100.032940
3017.000000	100.034687
3016.000000	100.036288
3015.000000	100.037420
3014.000000	100.037961
3013.000000	100.038216
3012.000000	100.038708
3011.000000	100.039663
3010.000000	100.040841
3009.000000	100.041863
3008.000000	100.042536
3007.000000	100.042810
3006.000000	100.042667
3005.000000	100.042305
3004.000000	100.042301
3003.000000	100.043294
3002.000000	100.045538
3001.000000	100.048771
3000.000000	100.052327
2999.000000	100.055314
2998.000000	100.056978
2997.000000	100.057219
2996.000000	100.056853
2995.000000	100.057111
2994.000000	100.058611
2993.000000	100.060983
2992.000000	100.063276
2991.000000	100.064614
2990.000000	100.064629
2989.000000	100.063673
2988.000000	100.062773
2987.000000	100.062971
2986.000000	100.064454
2985.000000	100.066387
2984.000000	100.067692
2983.000000	100.067959
2982.000000	100.067488
2981.000000	100.066713
2980.000000	100.065796
2979.000000	100.064757
2978.000000	100.063738
2977.000000	100.063090
2976.000000	100.063278
2975.000000	100.064572
2974.000000	100.066721
2973.000000	100.068990
2972.000000	100.070798
2971.000000	100.072344
2970.000000	100.074334
2969.000000	100.077034
2968.000000	100.079875
2967.000000	100.082192
2966.000000	100.084060
2965.000000	100.085982
2964.000000	100.087847
2963.000000	100.088734
2962.000000	100.088014
2961.000000	100.086314
2960.000000	100.085106
2959.000000	100.085396
2958.000000	100.087138
2957.000000	100.089780
2956.000000	100.092774
2955.000000	100.095383
2954.000000	100.096676
2953.000000	100.096253
2952.000000	100.094802
2951.000000	100.093579
2950.000000	100.093276
2949.000000	100.093784
2948.000000	100.094895
2947.000000	100.096571
2946.000000	100.098335
2945.000000	100.099055
2944.000000	100.098013
2943.000000	100.096098
2942.000000	100.095260
2941.000000	100.096562
2940.000000	100.099244
2939.000000	100.102018
2938.000000	100.104941
2937.000000	100.109317
2936.000000	100.115732
2935.000000	100.122738
2934.000000	100.127841
2933.000000	100.129690
2932.000000	100.129038
2931.000000	100.127952
2930.000000	100.128111
2929.000000	100.129631
2928.000000	100.131322
2927.000000	100.132057
2926.000000	100.131919
2925.000000	100.131943
2924.000000	100.132786
2923.000000	100.134101
2922.000000	100.135309
2921.000000	100.136335
2920.000000	100.137118
2919.000000	100.137098
2918.000000	100.136081
2917.000000	100.135299
2916.000000	100.136534
2915.000000	100.139951
2914.000000	100.143532
2913.000000	100.145016
2912.000000	100.143805
2911.000000	100.140737
2910.000000	100.136893
2909.000000	100.133190
2908.000000	100.130595
2907.000000	100.129838
2906.000000	100.130783
2905.000000	100.132591
2904.000000	100.134636
2903.000000	100.136920
2902.000000	100.139471
2901.000000	100.141727
2900.000000	100.142806
2899.000000	100.142311
2898.000000	100.140734
2897.000000	100.139121
2896.000000	100.138255
2895.000000	100.138146
2894.000000	100.138328
2893.000000	100.138557
2892.000000	100.139043
2891.000000	100.139929
2890.000000	100.140865
2889.000000	100.141303
2888.000000	100.141047
2887.000000	100.140331
2886.000000	100.139593
2885.000000	100.139383
2884.000000	100.140213
2883.000000	100.142105
2882.000000	100.144284
2881.000000	100.145691
2880.000000	100.145995
2879.000000	100.145902
2878.000000	100.146415
2877.000000	100.147899
2876.000000	100.149916
2875.000000	100.151766
2874.000000	100.153095
2873.000000	100.154008
2872.000000	100.154754
2871.000000	100.155423
2870.000000	100.155994
2869.000000	100.156602
2868.000000	100.157549
2867.000000	100.158937
2866.000000	100.160389
2865.000000	100.161334
2864.000000	100.161579
2863.000000	100.161467
2862.000000	100.161498
2861.000000	100.161884
2860.000000	100.162533
2859.000000	100.163325
2858.000000	100.164288
2857.000000	100.165467
2856.000000	100.166722
2855.000000	100.167791
2854.000000	100.168599
2853.000000	100.169399
2852.000000	100.170522
2851.000000	100.171930
2850.000000	100.173148
2849.000000	100.173709
2848.000000	100.173627
2847.000000	100.173354
2846.000000	100.173317
2845.000000	100.173615
2844.000000	100.174191
2843.000000	100.175091
2842.000000	100.176416
2841.000000	100.178036
2840.000000	100.179461
2839.000000	100.180177
2838.000000	100.180059
2837.000000	100.179474
2836.000000	100.178933
2835.000000	100.178704
2834.000000	100.178789
2833.000000	100.179093
2832.000000	100.179562
2831.000000	100.180204
2830.000000	100.181034
2829.000000	100.181985
2828.000000	100.182866
2827.000000	100.183452
2826.000000	100.183677
2825.000000	100.183706
2824.000000	100.183796
2823.000000	100.184110
2822.000000	100.184670
2821.000000	100.185384
2820.000000	100.186073
2819.000000	100.186583
2818.000000	100.186960
2817.000000	100.187445
2816.000000	100.188155
2815.000000	100.188868
2814.000000	100.189282
2813.000000	100.189435
2812.000000	100.189626
2811.000000	100.189909
2810.000000	100.189956
2809.000000	100.189565
2808.000000	100.189131
2807.000000	100.189381
2806.000000	100.190684
2805.000000	100.192833
2804.000000	100.195261
2803.000000	100.197363
2802.000000	100.198762
2801.000000	100.199396
2800.000000	100.199469
2799.000000	100.199255
2798.000000	100.198973
2797.000000	100.198849
2796.000000	100.199149
2795.000000	100.199984
2794.000000	100.201136
2793.000000	100.202162
2792.000000	100.202762
2791.000000	100.203007
2790.000000	100.203223
2789.000000	100.203697
2788.000000	100.204450
2787.000000	100.205294
2786.000000	100.206050
2785.000000	100.206706
2784.000000	100.207344
2783.000000	100.207988
2782.000000	100.208590
2781.000000	100.209169
2780.000000	100.209848
2779.000000	100.210717
2778.000000	100.211707
2777.000000	100.212641
2776.000000	100.213409
2775.000000	100.214053
2774.000000	100.214692
2773.000000	100.215404
2772.000000	100.216140
2771.000000	100.216765
2770.000000	100.217231
2769.000000	100.217724
2768.000000	100.218548
2767.000000	100.219799
2766.000000	100.221186
2765.000000	100.222257
2764.000000	100.222816
2763.000000	100.223038
2762.000000	100.223284
2761.000000	100.223753
2760.000000	100.224359
2759.000000	100.224862
2758.000000	100.225115
2757.000000	100.225265
2756.000000	100.225704
2755.000000	100.226733
2754.000000	100.228317
2753.000000	100.230174
2752.000000	100.231996
2751.000000	100.233467
2750.000000	100.234226
2749.000000	100.234196
2748.000000	100.233908
2747.000000	100.234063
2746.000000	100.234685
2745.000000	100.235066
2744.000000	100.234616
2743.000000	100.233518
2742.000000	100.232520
2741.000000	100.232236
2740.000000	100.232752
2739.000000	100.233777
2738.000000	100.234999
2737.000000	100.236327
2736.000000	100.237843
2735.000000	100.239579
2734.000000	100.241344
2733.000000	100.242771
2732.000000	100.243565
2731.000000	100.243688
2730.000000	100.243422
2729.000000	100.243236
2728.000000	100.243414
2727.000000	100.243831
2726.000000	100.244163
2725.000000	100.244321
2724.000000	100.244537
2723.000000	100.245030
2722.000000	100.245748
2721.000000	100.246464
2720.000000	100.247010
2719.000000	100.247370
2718.000000	100.247651
2717.000000	100.247982
2716.000000	100.248394
2715.000000	100.248779
2714.000000	100.249037
2713.000000	100.249220
2712.000000	100.249495
2711.000000	100.249950
2710.000000	100.250519
2709.000000	100.251094
2708.000000	100.251615
2707.000000	100.252064
2706.000000	100.252423
2705.000000	100.252703
2704.000000	100.252955
2703.000000	100.253248
2702.000000	100.253604
2701.000000	100.254001
2700.000000	100.254402
2699.000000	100.254780
2698.000000	100.255130
2697.000000	100.255454
2696.000000	100.255757
2695.000000	100.256037
2694.000000	100.256286
2693.000000	100.256508
2692.000000	100.256720
2691.000000	100.256952
2690.000000	100.257218
2689.000000	100.257493
2688.000000	100.257720
2687.000000	100.257851
2686.000000	100.257877
2685.000000	100.257849
2684.000000	100.257867
2683.000000	100.258038
2682.000000	100.258394
2681.000000	100.258780
2680.000000	100.258979
2679.000000	100.258934
2678.000000	100.258776
2677.000000	100.258597
2676.000000	100.258336
2675.000000	100.257940
2674.000000	100.257495
2673.000000	100.257152
2672.000000	100.257006
2671.000000	100.257086
2670.000000	100.257334
2669.000000	100.257556
2668.000000	100.257533
2667.000000	100.257265
2666.000000	100.257034
2665.000000	100.257110
2664.000000	100.257447
2663.000000	100.257762
2662.000000	100.257895
2661.000000	100.257956
2660.000000	100.258090
2659.000000	100.258248
2658.000000	100.258266
2657.000000	100.258029
2656.000000	100.257464
2655.000000	100.256469
2654.000000	100.255080
2653.000000	100.253732
2652.000000	100.253105
2651.000000	100.253463
2650.000000	100.254268
2649.000000	100.254640
2648.000000	100.254276
2647.000000	100.253671
2646.000000	100.253431
2645.000000	100.253616
2644.000000	100.253901
2643.000000	100.254157
2642.000000	100.254590
2641.000000	100.255345
2640.000000	100.256253
2639.000000	100.257086
2638.000000	100.257901
2637.000000	100.258945
2636.000000	100.260219
2635.000000	100.261296
2634.000000	100.261656
2633.000000	100.261140
2632.000000	100.260035
2631.000000	100.258788
2630.000000	100.257764
2629.000000	100.257258
2628.000000	100.257519
2627.000000	100.258617
2626.000000	100.260322
2625.000000	100.262141
2624.000000	100.263507
2623.000000	100.263977
2622.000000	100.263401
2621.000000	100.262031
2620.000000	100.260453
2619.000000	100.259298
2618.000000	100.258890
2617.000000	100.259178
2616.000000	100.259841
2615.000000	100.260510
2614.000000	100.261003
2613.000000	100.261379
2612.000000	100.261741
2611.000000	100.262028
2610.000000	100.262108
2609.000000	100.262009
2608.000000	100.261919
2607.000000	100.261933
2606.000000	100.261960
2605.000000	100.261956
2604.000000	100.262064
2603.000000	100.262420
2602.000000	100.262917
2601.000000	100.263299
2600.000000	100.263433
2599.000000	100.263393
2598.000000	100.263330
2597.000000	100.263356
2596.000000	100.263512
2595.000000	100.263751
2594.000000	100.263922
2593.000000	100.263888
2592.000000	100.263684
2591.000000	100.263511
2590.000000	100.263538
2589.000000	100.263724
2588.000000	100.263889
2587.000000	100.263948
2586.000000	100.264002
2585.000000	100.264193
2584.000000	100.264570
2583.000000	100.265077
2582.000000	100.265603
2581.000000	100.266026
2580.000000	100.266284
2579.000000	100.266404
2578.000000	100.266479
2577.000000	100.266576
2576.000000	100.266711
2575.000000	100.266909
2574.000000	100.267223
2573.000000	100.267629
2572.000000	100.267961
2571.000000	100.268090
2570.000000	100.268108
2569.000000	100.268247
2568.000000	100.268566
2567.000000	100.268889
2566.000000	100.269089
2565.000000	100.269278
2564.000000	100.269569
2563.000000	100.269743
2562.000000	100.269421
2561.000000	100.268572
2560.000000	100.267692
2559.000000	100.267311
2558.000000	100.267484
2557.000000	100.267905
2556.000000	100.268363
2555.000000	100.268889
2554.000000	100.269429
2553.000000	100.269740
2552.000000	100.269725
2551.000000	100.269642
2550.000000	100.269815
2549.000000	100.270269
2548.000000	100.270802
2547.000000	100.271268
2546.000000	100.271624
2545.000000	100.271758
2544.000000	100.271541
2543.000000	100.271041
2542.000000	100.270530
2541.000000	100.270227
2540.000000	100.270078
2539.000000	100.269803
2538.000000	100.269177
2537.000000	100.268291
2536.000000	100.267547
2535.000000	100.267337
2534.000000	100.267751
2533.000000	100.268607
2532.000000	100.269659
2531.000000	100.270691
2530.000000	100.271519
2529.000000	100.272031
2528.000000	100.272232
2527.000000	100.272124
2526.000000	100.271659
2525.000000	100.270947
2524.000000	100.270397
2523.000000	100.270416
2522.000000	100.271003
2521.000000	100.271739
2520.000000	100.272202
2519.000000	100.272306
2518.000000	100.272201
2517.000000	100.272026
2516.000000	100.271866
2515.000000	100.271813
2514.000000	100.271946
2513.000000	100.272263
2512.000000	100.272713
2511.000000	100.273223
2510.000000	100.273640
2509.000000	100.273747
2508.000000	100.273480
2507.000000	100.273058
2506.000000	100.272826
2505.000000	100.272937
2504.000000	100.273248
2503.000000	100.273483
2502.000000	100.273435
2501.000000	100.273053
2500.000000	100.272432
2499.000000	100.271786
2498.000000	100.271359
2497.000000	100.271312
2496.000000	100.271658
2495.000000	100.272275
2494.000000	100.272946
2493.000000	100.273465
2492.000000	100.273727
2491.000000	100.273753
2490.000000	100.273630
2489.000000	100.273448
2488.000000	100.273320
2487.000000	100.273394
2486.000000	100.273747
2485.000000	100.274265
2484.000000	100.274674
2483.000000	100.274775
2482.000000	100.274603
2481.000000	100.274404
2480.000000	100.274442
2479.000000	100.274823
2478.000000	100.275461
2477.000000	100.276143
2476.000000	100.276647
2475.000000	100.276856
2474.000000	100.276795
2473.000000	100.276653
2472.000000	100.276721
2471.000000	100.277232
2470.000000	100.278198
2469.000000	100.279378
2468.000000	100.280422
2467.000000	100.281127
2466.000000	100.281529
2465.000000	100.281826
2464.000000	100.282181
2463.000000	100.282577
2462.000000	100.282890
2461.000000	100.283112
2460.000000	100.283413
2459.000000	100.283935
2458.000000	100.284577
2457.000000	100.285120
2456.000000	100.285558
2455.000000	100.286129
2454.000000	100.286918
2453.000000	100.287595
2452.000000	100.287767
2451.000000	100.287519
2450.000000	100.287436
2449.000000	100.288037
2448.000000	100.289272
2447.000000	100.290554
2446.000000	100.291228
2445.000000	100.291015
2444.000000	100.290118
2443.000000	100.289081
2442.000000	100.288402
2441.000000	100.288258
2440.000000	100.288525
2439.000000	100.288953
2438.000000	100.289355
2437.000000	100.289738
2436.000000	100.290313
2435.000000	100.291271
2434.000000	100.292408
2433.000000	100.293114
2432.000000	100.292991
2431.000000	100.292343
2430.000000	100.291816
2429.000000	100.291576
2428.000000	100.291174
2427.000000	100.290235
2426.000000	100.288982
2425.000000	100.288011
2424.000000	100.287788
2423.000000	100.288439
2422.000000	100.289765
2421.000000	100.291250
2420.000000	100.292301
2419.000000	100.292745
2418.000000	100.292901
2417.000000	100.293076
2416.000000	100.293301
2415.000000	100.293659
2414.000000	100.294464
2413.000000	100.295779
2412.000000	100.297102
2411.000000	100.297924
2410.000000	100.298346
2409.000000	100.298804
2408.000000	100.299470
2407.000000	100.300285
2406.000000	100.301326
2405.000000	100.302601
2404.000000	100.303646
2403.000000	100.303915
2402.000000	100.303523
2401.000000	100.303060
2400.000000	100.302686
2399.000000	100.301998
2398.000000	100.300918
2397.000000	100.300143
2396.000000	100.300369
2395.000000	100.301468
2394.000000	100.302721
2393.000000	100.303593
2392.000000	100.303962
2391.000000	100.303847
2390.000000	100.303365
2389.000000	100.302849
2388.000000	100.302650
2387.000000	100.302821
2386.000000	100.303235
2385.000000	100.303947
2384.000000	100.305186
2383.000000	100.307012
2382.000000	100.309302
2381.000000	100.312010
2380.000000	100.314987
2379.000000	100.317424
2378.000000	100.318125
2377.000000	100.316740
2376.000000	100.314330
2375.000000	100.312261
2374.000000	100.310685
2373.000000	100.308889
2372.000000	100.306960
2371.000000	100.306086
2370.000000	100.307036
2369.000000	100.309194
2368.000000	100.311334
2367.000000	100.312877
2366.000000	100.313990
2365.000000	100.314930
2364.000000	100.315612
2363.000000	100.315590
2362.000000	100.314425
2361.000000	100.311981
2360.000000	100.309034
2359.000000	100.307167
2358.000000	100.307126
2357.000000	100.308376
2356.000000	100.309853
2355.000000	100.311044
2354.000000	100.312137
2353.000000	100.312952
2352.000000	100.313049
2351.000000	100.312192
2350.000000	100.311089
2349.000000	100.311051
2348.000000	100.312617
2347.000000	100.315395
2346.000000	100.317971
2345.000000	100.319065
2344.000000	100.318287
2343.000000	100.316001
2342.000000	100.313213
2341.000000	100.310603
2340.000000	100.308985
2339.000000	100.308678
2338.000000	100.309204
2337.000000	100.309602
2336.000000	100.309237
2335.000000	100.308134
2334.000000	100.306571
2333.000000	100.304742
2332.000000	100.302807
2331.000000	100.301052
2330.000000	100.299798
2329.000000	100.299475
2328.000000	100.299835
2327.000000	100.300498
2326.000000	100.300664
2325.000000	100.300206
2324.000000	100.299558
2323.000000	100.299195
2322.000000	100.298941
2321.000000	100.297884
2320.000000	100.295685
2319.000000	100.293007
2318.000000	100.291104
2317.000000	100.290563
2316.000000	100.290997
2315.000000	100.291641
2314.000000	100.291881
2313.000000	100.291744
2312.000000	100.291480
2311.000000	100.291427
2310.000000	100.291454
2309.000000	100.291266
2308.000000	100.290628
2307.000000	100.289849
2306.000000	100.289363
2305.000000	100.289342
2304.000000	100.289452
2303.000000	100.289313
2302.000000	100.288801
2301.000000	100.288132
2300.000000	100.287609
2299.000000	100.287460
2298.000000	100.287619
2297.000000	100.287775
2296.000000	100.287589
2295.000000	100.287067
2294.000000	100.286444
2293.000000	100.285950
2292.000000	100.285614
2291.000000	100.285360
2290.000000	100.285131
2289.000000	100.284920
2288.000000	100.284737
2287.000000	100.284573
2286.000000	100.284413
2285.000000	100.284245
2284.000000	100.284074
2283.000000	100.283926
2282.000000	100.283813
2281.000000	100.283716
2280.000000	100.283622
2279.000000	100.283530
2278.000000	100.283417
2277.000000	100.283229
2276.000000	100.282955
2275.000000	100.282630
2274.000000	100.282284
2273.000000	100.281929
2272.000000	100.281568
2271.000000	100.281211
2270.000000	100.280859
2269.000000	100.280511
2268.000000	100.280174
2267.000000	100.279871
2266.000000	100.279603
2265.000000	100.279319
2264.000000	100.278940
2263.000000	100.278437
2262.000000	100.277869
2261.000000	100.277329
2260.000000	100.276880
2259.000000	100.276534
2258.000000	100.276245
2257.000000	100.275897
2256.000000	100.275384
2255.000000	100.274745
2254.000000	100.274177
2253.000000	100.273842
2252.000000	100.273669
2251.000000	100.273411
2250.000000	100.272951
2249.000000	100.272477
2248.000000	100.272242
2247.000000	100.272194
2246.000000	100.271961
2245.000000	100.271282
2244.000000	100.270366
2243.000000	100.269749
2242.000000	100.269723
2241.000000	100.270030
2240.000000	100.270132
2239.000000	100.269793
2238.000000	100.269149
2237.000000	100.268276
2236.000000	100.266994
2235.000000	100.265319
2234.000000	100.263837
2233.000000	100.263191
2232.000000	100.263356
2231.000000	100.263807
2230.000000	100.264348
2229.000000	100.265221
2228.000000	100.266383
2227.000000	100.267275
2226.000000	100.267498
2225.000000	100.267329
2224.000000	100.267300
2223.000000	100.267553
2222.000000	100.267879
2221.000000	100.268164
2220.000000	100.268441
2219.000000	100.268608
2218.000000	100.268475
2217.000000	100.268092
2216.000000	100.267803
2215.000000	100.267939
2214.000000	100.268617
2213.000000	100.269762
2212.000000	100.271080
2211.000000	100.272042
2210.000000	100.272188
2209.000000	100.271529
2208.000000	100.270486
2207.000000	100.269439
2206.000000	100.268433
2205.000000	100.267370
2204.000000	100.266350
2203.000000	100.265708
2202.000000	100.265709
2201.000000	100.266193
2200.000000	100.266624
2199.000000	100.266574
2198.000000	100.266216
2197.000000	100.266174
2196.000000	100.266777
2195.000000	100.267651
2194.000000	100.268130
2193.000000	100.267989
2192.000000	100.267625
2191.000000	100.267619
2190.000000	100.268231
2189.000000	100.269275
2188.000000	100.270314
2187.000000	100.270971
2186.000000	100.271181
2185.000000	100.271183
2184.000000	100.271263
2183.000000	100.271507
2182.000000	100.271787
2181.000000	100.271929
2180.000000	100.271839
2179.000000	100.271548
2178.000000	100.271224
2177.000000	100.271090
2176.000000	100.271237
2175.000000	100.271557
2174.000000	100.271881
2173.000000	100.272177
2172.000000	100.272530
2171.000000	100.272952
2170.000000	100.273314
2169.000000	100.273497
2168.000000	100.273527
2167.000000	100.273527
2166.000000	100.273612
2165.000000	100.273802
2164.000000	100.274045
2163.000000	100.274264
2162.000000	100.274431
2161.000000	100.274593
2160.000000	100.274825
2159.000000	100.275156
2158.000000	100.275548
2157.000000	100.275929
2156.000000	100.276235
2155.000000	100.276435
2154.000000	100.276539
2153.000000	100.276622
2152.000000	100.276802
2151.000000	100.277156
2150.000000	100.277646
2149.000000	100.278133
2148.000000	100.278483
2147.000000	100.278634
2146.000000	100.278593
2145.000000	100.278441
2144.000000	100.278350
2143.000000	100.278462
2142.000000	100.278744
2141.000000	100.279030
2140.000000	100.279240
2139.000000	100.279439
2138.000000	100.279644
2137.000000	100.279747
2136.000000	100.279739
2135.000000	100.279870
2134.000000	100.280371
2133.000000	100.281104
2132.000000	100.281675
2131.000000	100.281899
2130.000000	100.281991
2129.000000	100.282323
2128.000000	100.283116
2127.000000	100.284345
2126.000000	100.285722
2125.000000	100.286752
2124.000000	100.287057
2123.000000	100.286727
2122.000000	100.286362
2121.000000	100.286553
2120.000000	100.287376
2119.000000	100.288485
2118.000000	100.289559
2117.000000	100.290511
2116.000000	100.291311
2115.000000	100.291844
2114.000000	100.292028
2113.000000	100.291882
2112.000000	100.291462
2111.000000	100.290869
2110.000000	100.290336
2109.000000	100.290088
2108.000000	100.290088
2107.000000	100.290130
2106.000000	100.290285
2105.000000	100.290944
2104.000000	100.292210
2103.000000	100.293576
2102.000000	100.294426
2101.000000	100.294694
2100.000000	100.294791
2099.000000	100.295058
2098.000000	100.295482
2097.000000	100.295911
2096.000000	100.296293
2095.000000	100.296638
2094.000000	100.296901
2093.000000	100.297069
2092.000000	100.297288
2091.000000	100.297789
2090.000000	100.298633
2089.000000	100.299536
2088.000000	100.300041
2087.000000	100.299939
2086.000000	100.299573
2085.000000	100.299573
2084.000000	100.300081
2083.000000	100.300436
2082.000000	100.299951
2081.000000	100.298874
2080.000000	100.298156
2079.000000	100.298282
2078.000000	100.298909
2077.000000	100.299560
2076.000000	100.300184
2075.000000	100.300810
2074.000000	100.301254
2073.000000	100.301503
2072.000000	100.301851
2071.000000	100.302372
2070.000000	100.302715
2069.000000	100.302814
2068.000000	100.303239
2067.000000	100.304182
2066.000000	100.304619
2065.000000	100.303399
2064.000000	100.300893
2063.000000	100.298827
2062.000000	100.298380
2061.000000	100.299185
2060.000000	100.300233
2059.000000	100.301065
2058.000000	100.301781
2057.000000	100.302419
2056.000000	100.302851
2055.000000	100.303119
2054.000000	100.303423
2053.000000	100.303700
2052.000000	100.303366
2051.000000	100.301725
2050.000000	100.298715
2049.000000	100.295293
2048.000000	100.292861
2047.000000	100.291972
2046.000000	100.291801
2045.000000	100.291090
2044.000000	100.289542
2043.000000	100.287991
2042.000000	100.287250
2041.000000	100.287169
2040.000000	100.286911
2039.000000	100.285844
2038.000000	100.284029
2037.000000	100.282073
2036.000000	100.280621
2035.000000	100.279882
2034.000000	100.279547
2033.000000	100.279207
2032.000000	100.278748
2031.000000	100.278212
2030.000000	100.277476
2029.000000	100.276390
2028.000000	100.275158
2027.000000	100.274276
2026.000000	100.273980
2025.000000	100.273982
2024.000000	100.273743
2023.000000	100.272964
2022.000000	100.271715
2021.000000	100.270329
2020.000000	100.269199
2019.000000	100.268528
2018.000000	100.268175
2017.000000	100.267809
2016.000000	100.267249
2015.000000	100.266581
2014.000000	100.265909
2013.000000	100.265147
2012.000000	100.264160
2011.000000	100.263006
2010.000000	100.261936
2009.000000	100.261166
2008.000000	100.260695
2007.000000	100.260315
2006.000000	100.259775
2005.000000	100.258994
2004.000000	100.258121
2003.000000	100.257400
2002.000000	100.256942
2001.000000	100.256614
2000.000000	100.256098
1999.000000	100.255094
1998.000000	100.253601
1997.000000	100.252090
1996.000000	100.251225
1995.000000	100.251290
1994.000000	100.251977
1993.000000	100.252627
1992.000000	100.252825
1991.000000	100.252640
1990.000000	100.252334
1989.000000	100.252088
1988.000000	100.251977
1987.000000	100.252009
1986.000000	100.252063
1985.000000	100.251927
1984.000000	100.251535
1983.000000	100.251097
1982.000000	100.250829
1981.000000	100.250630
1980.000000	100.250203
1979.000000	100.249471
1978.000000	100.248756
1977.000000	100.248410
1976.000000	100.248452
1975.000000	100.248622
1974.000000	100.248739
1973.000000	100.248867
1972.000000	100.249133
1971.000000	100.249501
1970.000000	100.249790
1969.000000	100.249875
1968.000000	100.249828
1967.000000	100.249795
1966.000000	100.249747
1965.000000	100.249491
1964.000000	100.248928
1963.000000	100.248187
1962.000000	100.247532
1961.000000	100.247222
1960.000000	100.247437
1959.000000	100.248173
1958.000000	100.249118
1957.000000	100.249773
1956.000000	100.249863
1955.000000	100.249487
1954.000000	100.248793
1953.000000	100.247759
1952.000000	100.246532
1951.000000	100.245688
1950.000000	100.245689
1949.000000	100.246308
1948.000000	100.246838
1947.000000	100.246877
1946.000000	100.246573
1945.000000	100.246124
1944.000000	100.245410
1943.000000	100.244281
1942.000000	100.242945
1941.000000	100.241844
1940.000000	100.241353
1939.000000	100.241663
1938.000000	100.242555
1937.000000	100.243310
1936.000000	100.243225
1935.000000	100.242320
1934.000000	100.241347
1933.000000	100.240935
1932.000000	100.240897
1931.000000	100.240553
1930.000000	100.239365
1929.000000	100.237517
1928.000000	100.235611
1927.000000	100.233918
1926.000000	100.232360
1925.000000	100.230981
1924.000000	100.230620
1923.000000	100.231831
1922.000000	100.233469
1921.000000	100.233465
1920.000000	100.231300
1919.000000	100.228550
1918.000000	100.226987
1917.000000	100.226115
1916.000000	100.223929
1915.000000	100.219867
1914.000000	100.215420
1913.000000	100.212044
1912.000000	100.209693
1911.000000	100.207541
1910.000000	100.205356
1909.000000	100.203623
1908.000000	100.202381
1907.000000	100.201103
1906.000000	100.199692
1905.000000	100.198268
1904.000000	100.196836
1903.000000	100.194922
1902.000000	100.192381
1901.000000	100.190082
1900.000000	100.188944
1899.000000	100.188744
1898.000000	100.188459
1897.000000	100.187273
1896.000000	100.185495
1895.000000	100.183868
1894.000000	100.182437
1893.000000	100.180528
1892.000000	100.177712
1891.000000	100.174372
1890.000000	100.171455
1889.000000	100.169737
1888.000000	100.169162
1887.000000	100.169247
1886.000000	100.169518
1885.000000	100.169272
1884.000000	100.168062
1883.000000	100.166492
1882.000000	100.165752
1881.000000	100.166219
1880.000000	100.166591
1879.000000	100.165288
1878.000000	100.162521
1877.000000	100.159887
1876.000000	100.158587
1875.000000	100.158511
1874.000000	100.158489
1873.000000	100.157438
1872.000000	100.155573
1871.000000	100.154620
1870.000000	100.156679
1869.000000	100.161970
1868.000000	100.167505
1867.000000	100.169748
1866.000000	100.168629
1865.000000	100.166693
1864.000000	100.165860
1863.000000	100.166534
1862.000000	100.168529
1861.000000	100.171561
1860.000000	100.175127
1859.000000	100.178861
1858.000000	100.183034
1857.000000	100.187755
1856.000000	100.191865
1855.000000	100.193804
1854.000000	100.193615
1853.000000	100.193137
1852.000000	100.193693
1851.000000	100.194667
1850.000000	100.195753
1849.000000	100.197624
1848.000000	100.200564
1847.000000	100.203343
1846.000000	100.204643
1845.000000	100.204811
1844.000000	100.205629
1843.000000	100.207922
1842.000000	100.210960
1841.000000	100.214732
1840.000000	100.219053
1839.000000	100.222145
1838.000000	100.222101
1837.000000	100.219074
1836.000000	100.215747
1835.000000	100.214481
1834.000000	100.215086
1833.000000	100.215687
1832.000000	100.214721
1831.000000	100.212160
1830.000000	100.209680
1829.000000	100.208479
1828.000000	100.208117
1827.000000	100.208314
1826.000000	100.209391
1825.000000	100.211248
1824.000000	100.213210
1823.000000	100.214461
1822.000000	100.214771
1821.000000	100.214481
1820.000000	100.214027
1819.000000	100.213698
1818.000000	100.213255
1817.000000	100.212266
1816.000000	100.211263
1815.000000	100.211272
1814.000000	100.212603
1813.000000	100.214377
1812.000000	100.215229
1811.000000	100.214824
1810.000000	100.213705
1809.000000	100.212610
1808.000000	100.212037
1807.000000	100.211952
1806.000000	100.212178
1805.000000	100.212891
1804.000000	100.214494
1803.000000	100.217014
1802.000000	100.219954
1801.000000	100.222579
1800.000000	100.223949
1799.000000	100.223741
1798.000000	100.222339
1797.000000	100.220793
1796.000000	100.220044
1795.000000	100.220245
1794.000000	100.220895
1793.000000	100.221390
1792.000000	100.221454
1791.000000	100.221270
1790.000000	100.221075
1789.000000	100.221507
1788.000000	100.222819
1787.000000	100.224615
1786.000000	100.226697
1785.000000	100.229441
1784.000000	100.232902
1783.000000	100.236136
1782.000000	100.238409
1781.000000	100.239917
1780.000000	100.240443
1779.000000	100.239750
1778.000000	100.238124
1777.000000	100.236916
1776.000000	100.237009
1775.000000	100.237834
1774.000000	100.238479
1773.000000	100.238834
1772.000000	100.239615
1771.000000	100.240656
1770.000000	100.241346
1769.000000	100.242797
1768.000000	100.246458
1767.000000	100.251833
1766.000000	100.256639
1765.000000	100.259450
1764.000000	100.260955
1763.000000	100.262874
1762.000000	100.266042
1761.000000	100.269105
1760.000000	100.270070
1759.000000	100.269608
1758.000000	100.269667
1757.000000	100.271426
1756.000000	100.273688
1755.000000	100.274509
1754.000000	100.274126
1753.000000	100.274247
1752.000000	100.275739
1751.000000	100.277989
1750.000000	100.279573
1749.000000	100.280013
1748.000000	100.281249
1747.000000	100.284746
1746.000000	100.290038
1745.000000	100.295205
1744.000000	100.298238
1743.000000	100.298566
1742.000000	100.296474
1741.000000	100.292766
1740.000000	100.289071
1739.000000	100.286895
1738.000000	100.285393
1737.000000	100.283435
1736.000000	100.281158
1735.000000	100.278615
1734.000000	100.276887
1733.000000	100.276680
1732.000000	100.276478
1731.000000	100.277955
1730.000000	100.282072
1729.000000	100.286536
1728.000000	100.288692
1727.000000	100.288111
1726.000000	100.286300
1725.000000	100.284313
1724.000000	100.282710
1723.000000	100.282453
1722.000000	100.283119
1721.000000	100.283440
1720.000000	100.282816
1719.000000	100.281592
1718.000000	100.280375
1717.000000	100.279140
1716.000000	100.277338
1715.000000	100.275726
1714.000000	100.275078
1713.000000	100.274380
1712.000000	100.272813
1711.000000	100.270704
1710.000000	100.268838
1709.000000	100.267425
1708.000000	100.265538
1707.000000	100.262390
1706.000000	100.258421
1705.000000	100.254198
1704.000000	100.249346
1703.000000	100.243654
1702.000000	100.238010
1701.000000	100.233262
1700.000000	100.231419
1699.000000	100.231548
1698.000000	100.230504
1697.000000	100.229192
1696.000000	100.228048
1695.000000	100.226092
1694.000000	100.222611
1693.000000	100.219247
1692.000000	100.217517
1691.000000	100.216596
1690.000000	100.214942
1689.000000	100.212206
1688.000000	100.208685
1687.000000	100.204699
1686.000000	100.200411
1685.000000	100.195931
1684.000000	100.193198
1683.000000	100.191642
1682.000000	100.188853
1681.000000	100.186313
1680.000000	100.184479
1679.000000	100.182303
1678.000000	100.179271
1677.000000	100.175730
1676.000000	100.172378
1675.000000	100.170032
1674.000000	100.168787
1673.000000	100.167835
1672.000000	100.166621
1671.000000	100.164932
1670.000000	100.162661
1669.000000	100.160368
1668.000000	100.158376
1667.000000	100.156708
1666.000000	100.155227
1665.000000	100.153228
1664.000000	100.150105
1663.000000	100.146494
1662.000000	100.144001
1661.000000	100.143257
1660.000000	100.143300
1659.000000	100.143171
1658.000000	100.142650
1657.000000	100.141950
1656.000000	100.141188
1655.000000	100.140342
1654.000000	100.139175
1653.000000	100.138925
1652.000000	100.138687
1651.000000	100.135007
1650.000000	100.129826
1649.000000	100.124604
1648.000000	100.120180
1647.000000	100.118151
1646.000000	100.118714
1645.000000	100.119239
1644.000000	100.119355
1643.000000	100.120158
1642.000000	100.121449
1641.000000	100.122493
1640.000000	100.122549
1639.000000	100.121767
1638.000000	100.120762
1637.000000	100.119733
1636.000000	100.119146
1635.000000	100.119515
1634.000000	100.119751
1633.000000	100.119320
1632.000000	100.119311
1631.000000	100.119614
1630.000000	100.119792
1629.000000	100.119689
1628.000000	100.119185
1627.000000	100.118108
1626.000000	100.117101
1625.000000	100.117615
1624.000000	100.120171
1623.000000	100.123678
1622.000000	100.125826
1621.000000	100.125635
1620.000000	100.124283
1619.000000	100.123517
1618.000000	100.124159
1617.000000	100.126317
1616.000000	100.129165
1615.000000	100.130828
1614.000000	100.131826
1613.000000	100.133628
1612.000000	100.135472
1611.000000	100.135804
1610.000000	100.134935
1609.000000	100.134542
1608.000000	100.135270
1607.000000	100.136786
1606.000000	100.139391
1605.000000	100.143601
1604.000000	100.148487
1603.000000	100.153041
1602.000000	100.157196
1601.000000	100.161038
1600.000000	100.164296
1599.000000	100.167153
1598.000000	100.170736
1597.000000	100.175811
1596.000000	100.181850
1595.000000	100.187607
1594.000000	100.192163
1593.000000	100.195202
1592.000000	100.196808
1591.000000	100.197903
1590.000000	100.200304
1589.000000	100.205131
1588.000000	100.211134
1587.000000	100.215792
1586.000000	100.218063
1585.000000	100.219484
1584.000000	100.222001
1583.000000	100.225853
1582.000000	100.230292
1581.000000	100.234308
1580.000000	100.237362
1579.000000	100.239833
1578.000000	100.242750
1577.000000	100.246128
1576.000000	100.248875
1575.000000	100.249668
1574.000000	100.249080
1573.000000	100.249832
1572.000000	100.253089
1571.000000	100.257760
1570.000000	100.262022
1569.000000	100.265052
1568.000000	100.266959
1567.000000	100.269254
1566.000000	100.273593
1565.000000	100.279470
1564.000000	100.284887
1563.000000	100.288678
1562.000000	100.291904
1561.000000	100.296022
1560.000000	100.299260
1559.000000	100.299941
1558.000000	100.298242
1557.000000	100.293765
1556.000000	100.292984
1555.000000	100.296548
1554.000000	100.300273
1553.000000	100.301090
1552.000000	100.299229
1551.000000	100.297326
1550.000000	100.296986
1549.000000	100.297550
1548.000000	100.297915
1547.000000	100.298134
1546.000000	100.299312
1545.000000	100.302067
1544.000000	100.305803
1543.000000	100.308623
1542.000000	100.308560
1541.000000	100.304598
1540.000000	100.299100
1539.000000	100.294822
1538.000000	100.291232
1537.000000	100.288501
1536.000000	100.287303
1535.000000	100.287424
1534.000000	100.288290
1533.000000	100.288785
1532.000000	100.287581
1531.000000	100.285719
1530.000000	100.285037
1529.000000	100.285648
1528.000000	100.286671
1527.000000	100.287223
1526.000000	100.287013
1525.000000	100.286044
1524.000000	100.284362
1523.000000	100.282483
1522.000000	100.281511
1521.000000	100.282258
1520.000000	100.283408
1519.000000	100.283620
1518.000000	100.283302
1517.000000	100.282755
1516.000000	100.281901
1515.000000	100.280642
1514.000000	100.279395
1513.000000	100.278667
1512.000000	100.278519
1511.000000	100.278788
1510.000000	100.279112
1509.000000	100.279214
1508.000000	100.278849
1507.000000	100.278360
1506.000000	100.278175
1505.000000	100.278020
1504.000000	100.278096
1503.000000	100.278377
1502.000000	100.278541
1501.000000	100.278572
1500.000000	100.278629
1499.000000	100.278664
1498.000000	100.278343
1497.000000	100.277652
1496.000000	100.277482
1495.000000	100.278254
1494.000000	100.279086
1493.000000	100.279173
1492.000000	100.278500
1491.000000	100.277606
1490.000000	100.276972
1489.000000	100.276624
1488.000000	100.276731
1487.000000	100.277724
1486.000000	100.279068
1485.000000	100.279868
1484.000000	100.279782
1483.000000	100.279235
1482.000000	100.278995
1481.000000	100.279003
1480.000000	100.278547
1479.000000	100.277034
1478.000000	100.274666
1477.000000	100.272349
1476.000000	100.271514
1475.000000	100.273020
1474.000000	100.276622
1473.000000	100.281029
1472.000000	100.284186
1471.000000	100.285195
1470.000000	100.284947
1469.000000	100.284540
1468.000000	100.284070
1467.000000	100.283254
1466.000000	100.281839
1465.000000	100.279759
1464.000000	100.276935
1463.000000	100.273836
1462.000000	100.271138
1461.000000	100.268829
1460.000000	100.266622
1459.000000	100.264733
1458.000000	100.263945
1457.000000	100.264103
1456.000000	100.263398
1455.000000	100.261493
1454.000000	100.260737
1453.000000	100.261990
1452.000000	100.264220
1451.000000	100.265932
1450.000000	100.266063
1449.000000	100.264125
1448.000000	100.260417
1447.000000	100.256093
1446.000000	100.252566
1445.000000	100.250526
1444.000000	100.249480
1443.000000	100.249166
1442.000000	100.249581
1441.000000	100.250476
1440.000000	100.251198
1439.000000	100.251488
1438.000000	100.251469
1437.000000	100.250996
1436.000000	100.249625
1435.000000	100.247249
1434.000000	100.245028
1433.000000	100.244007
1432.000000	100.243807
1431.000000	100.242993
1430.000000	100.240559
1429.000000	100.236972
1428.000000	100.233926
1427.000000	100.232613
1426.000000	100.233396
1425.000000	100.236280
1424.000000	100.240440
1423.000000	100.244331
1422.000000	100.246484
1421.000000	100.246373
1420.000000	100.244310
1419.000000	100.242126
1418.000000	100.241576
1417.000000	100.242156
1416.000000	100.243043
1415.000000	100.243906
1414.000000	100.244731
1413.000000	100.246056
1412.000000	100.248611
1411.000000	100.252394
1410.000000	100.256040
1409.000000	100.257881
1408.000000	100.257867
1407.000000	100.257615
1406.000000	100.258915
1405.000000	100.262133
1404.000000	100.265777
1403.000000	100.268316
1402.000000	100.269482
1401.000000	100.269710
1400.000000	100.269411
1399.000000	100.269114
1398.000000	100.269500
1397.000000	100.271110
1396.000000	100.274290
1395.000000	100.278728
1394.000000	100.283209
1393.000000	100.286370
1392.000000	100.287800
1391.000000	100.288048
1390.000000	100.287858
1389.000000	100.287786
1388.000000	100.288171
1387.000000	100.289207
1386.000000	100.290762
1385.000000	100.292364
1384.000000	100.293439
1383.000000	100.293757
1382.000000	100.293707
1381.000000	100.294010
1380.000000	100.295006
1379.000000	100.296317
1378.000000	100.297374
1377.000000	100.298012
1376.000000	100.298431
1375.000000	100.298833
1374.000000	100.299340
1373.000000	100.299993
1372.000000	100.300776
1371.000000	100.301609
1370.000000	100.302286
1369.000000	100.302575
1368.000000	100.302356
1367.000000	100.301917
1366.000000	100.301894
1365.000000	100.302713
1364.000000	100.303960
1363.000000	100.304476
1362.000000	100.303606
1361.000000	100.302176
1360.000000	100.301633
1359.000000	100.302365
1358.000000	100.303525
1357.000000	100.304071
1356.000000	100.303635
1355.000000	100.302437
1354.000000	100.300857
1353.000000	100.299341
1352.000000	100.298575
1351.000000	100.299082
1350.000000	100.300657
1349.000000	100.302442
1348.000000	100.303607
1347.000000	100.304055
1346.000000	100.304084
1345.000000	100.303803
1344.000000	100.303057
1343.000000	100.301968
1342.000000	100.301107
1341.000000	100.300949
1340.000000	100.301218
1339.000000	100.301197
1338.000000	100.300915
1337.000000	100.301365
1336.000000	100.303024
1335.000000	100.304852
1334.000000	100.305443
1333.000000	100.304778
1332.000000	100.304201
1331.000000	100.304658
1330.000000	100.305652
1329.000000	100.306017
1328.000000	100.305044
1327.000000	100.302585
1326.000000	100.298879
1325.000000	100.294719
1324.000000	100.291231
1323.000000	100.289276
1322.000000	100.289077
1321.000000	100.290700
1320.000000	100.294206
1319.000000	100.298747
1318.000000	100.302301
1317.000000	100.303601
1316.000000	100.303852
1315.000000	100.305231
1314.000000	100.307888
1313.000000	100.309543
1312.000000	100.308235
1311.000000	100.304349
1310.000000	100.299759
1309.000000	100.296134
1308.000000	100.294600
1307.000000	100.295710
1306.000000	100.298797
1305.000000	100.301983
1304.000000	100.303590
1303.000000	100.303566
1302.000000	100.303083
1301.000000	100.303211
1300.000000	100.304232
1299.000000	100.305873
1298.000000	100.307601
1297.000000	100.308862
1296.000000	100.309087
1295.000000	100.307231
1294.000000	100.301777
1293.000000	100.292250
1292.000000	100.280914
1291.000000	100.271644
1290.000000	100.266325
1289.000000	100.263543
1288.000000	100.261508
1287.000000	100.260771
1286.000000	100.262572
1285.000000	100.265701
1284.000000	100.267019
1283.000000	100.264779
1282.000000	100.259898
1281.000000	100.254312
1280.000000	100.249684
1279.000000	100.247654
1278.000000	100.249247
1277.000000	100.253162
1276.000000	100.256075
1275.000000	100.255877
1274.000000	100.254133
1273.000000	100.254479
1272.000000	100.258756
1271.000000	100.264988
1270.000000	100.269084
1269.000000	100.268566
1268.000000	100.264885
1267.000000	100.262247
1266.000000	100.263929
1265.000000	100.269647
1264.000000	100.276518
1263.000000	100.281750
1262.000000	100.283701
1261.000000	100.281325
1260.000000	100.274454
1259.000000	100.265050
1258.000000	100.256748
1257.000000	100.251929
1256.000000	100.249553
1255.000000	100.246300
1254.000000	100.239799
1253.000000	100.230758
1252.000000	100.222073
1251.000000	100.215821
1250.000000	100.210985
1249.000000	100.204431
1248.000000	100.194256
1247.000000	100.181724
1246.000000	100.169528
1245.000000	100.158767
1244.000000	100.148593
1243.000000	100.138483
1242.000000	100.129625
1241.000000	100.123476
1240.000000	100.119270
1239.000000	100.113365
1238.000000	100.101550
1237.000000	100.082760
1236.000000	100.060852
1235.000000	100.042150
1234.000000	100.030264
1233.000000	100.023044
1232.000000	100.014660
1231.000000	100.000250
1230.000000	99.978652
1229.000000	99.951724
1228.000000	99.921976
1227.000000	99.890774
1226.000000	99.858132
1225.000000	99.823697
1224.000000	99.787360
1223.000000	99.748471
1222.000000	99.705336
1221.000000	99.656968
1220.000000	99.605323
1219.000000	99.554205
1218.000000	99.505184
1217.000000	99.455790
1216.000000	99.402387
1215.000000	99.343439
1214.000000	99.279456
1213.000000	99.211518
1212.000000	99.141138
1211.000000	99.070491
1210.000000	99.001551
1209.000000	98.935489
1208.000000	98.872918
1207.000000	98.813293
1206.000000	98.753985
1205.000000	98.691977
1204.000000	98.626917
1203.000000	98.560701
1202.000000	98.494179
1201.000000	98.426622
1200.000000	98.358600
1199.000000	98.292760
1198.000000	98.230951
1197.000000	98.172586
1196.000000	98.115934
1195.000000	98.058688
1194.000000	97.997677
1193.000000	97.931300
1192.000000	97.862437
1191.000000	97.795895
1190.000000	97.732674
1189.000000	97.669627
1188.000000	97.604276
1187.000000	97.535914
1186.000000	97.462429
1185.000000	97.381535
1184.000000	97.296307
1183.000000	97.214248
1182.000000	97.138441
1181.000000	97.063772
1180.000000	96.983861
1179.000000	96.897146
1178.000000	96.803995
1177.000000	96.703187
1176.000000	96.595507
1175.000000	96.487102
1174.000000	96.384464
1173.000000	96.287491
1172.000000	96.190455
1171.000000	96.088417
1170.000000	95.981396
1169.000000	95.874910
1168.000000	95.777683
1167.000000	95.696021
1166.000000	95.629526
1165.000000	95.575673
1164.000000	95.538785
1163.000000	95.529215
1162.000000	95.551833
1161.000000	95.598882
1160.000000	95.654354
1159.000000	95.701340
1158.000000	95.726024
1157.000000	95.721266
1156.000000	95.689249
1155.000000	95.637658
1154.000000	95.572107
1153.000000	95.495186
1152.000000	95.412246
1151.000000	95.331783
1150.000000	95.257647
1149.000000	95.185899
1148.000000	95.112021
1147.000000	95.036953
1146.000000	94.964012
1145.000000	94.894179
1144.000000	94.826582
1143.000000	94.759734
1142.000000	94.690811
1141.000000	94.617661
1140.000000	94.542646
1139.000000	94.470394
1138.000000	94.401035
1137.000000	94.329917
1136.000000	94.254056
1135.000000	94.174072
1134.000000	94.090592
1133.000000	94.005061
1132.000000	93.923488
1131.000000	93.851394
1130.000000	93.783979
1129.000000	93.709364
1128.000000	93.623581
1127.000000	93.534955
1126.000000	93.451700
1125.000000	93.372858
1124.000000	93.294138
1123.000000	93.214803
1122.000000	93.135093
1121.000000	93.053697
1120.000000	92.971540
1119.000000	92.892377
1118.000000	92.817126
1117.000000	92.743532
1116.000000	92.672465
1115.000000	92.606859
1114.000000	92.543113
1113.000000	92.472523
1112.000000	92.393500
1111.000000	92.313425
1110.000000	92.236326
1109.000000	92.158065
1108.000000	92.076264
1107.000000	91.995442
1106.000000	91.919092
1105.000000	91.845766
1104.000000	91.775909
1103.000000	91.713386
1102.000000	91.657053
1101.000000	91.599565
1100.000000	91.537428
1099.000000	91.474008
1098.000000	91.411310
1097.000000	91.348316
1096.000000	91.288421
1095.000000	91.237702
1094.000000	91.193861
1093.000000	91.147852
1092.000000	91.098452
1091.000000	91.053673
1090.000000	91.015603
1089.000000	90.976555
1088.000000	90.933672
1087.000000	90.894794
1086.000000	90.865215
1085.000000	90.840219
1084.000000	90.815483
1083.000000	90.793648
1082.000000	90.775454
1081.000000	90.754773
1080.000000	90.727621
1079.000000	90.697242
1078.000000	90.666626
1077.000000	90.634873
1076.000000	90.603342
1075.000000	90.574949
1074.000000	90.544396
1073.000000	90.499495
1072.000000	90.434746
1071.000000	90.353568
1070.000000	90.255961
1069.000000	90.135729
1068.000000	89.992804
1067.000000	89.836560
1066.000000	89.673237
1065.000000	89.501728
1064.000000	89.325734
1063.000000	89.157047
1062.000000	89.001063
1061.000000	88.851280
1060.000000	88.703994
1059.000000	88.566289
1058.000000	88.443221
1057.000000	88.328260
1056.000000	88.212598
1055.000000	88.093866
1054.000000	87.971130
1053.000000	87.842123
1052.000000	87.710328
1051.000000	87.583416
1050.000000	87.459332
1049.000000	87.326039
1048.000000	87.179005
1047.000000	87.025401
1046.000000	86.869031
1045.000000	86.706543
1044.000000	86.540849
1043.000000	86.382795
1042.000000	86.235359
1041.000000	86.089959
1040.000000	85.942652
1039.000000	85.800774
1038.000000	85.669586
1037.000000	85.546153
1036.000000	85.430163
1035.000000	85.326568
1034.000000	85.233690
1033.000000	85.143371
1032.000000	85.056823
1031.000000	84.985168
1030.000000	84.930091
1029.000000	84.879203
1028.000000	84.825231
1027.000000	84.774784
1026.000000	84.733082
1025.000000	84.695429
1024.000000	84.659199
1023.000000	84.629250
1022.000000	84.605582
1021.000000	84.579795
1020.000000	84.549455
1019.000000	84.522513
1018.000000	84.502320
1017.000000	84.481194
1016.000000	84.452909
1015.000000	84.418666
1014.000000	84.377705
1013.000000	84.326521
1012.000000	84.271449
1011.000000	84.227750
1010.000000	84.201316
1009.000000	84.183851
1008.000000	84.168839
1007.000000	84.158288
1006.000000	84.150842
1005.000000	84.138739
1004.000000	84.121574
1003.000000	84.109278
1002.000000	84.106879
1001.000000	84.109396
1000.000000	84.115111
999.000000	84.129763
998.000000	84.153502
997.000000	84.177688
996.000000	84.199335
995.000000	84.225984
994.000000	84.262076
993.000000	84.302870
992.000000	84.345071
991.000000	84.390920
990.000000	84.438896
989.000000	84.483512
988.000000	84.527757
987.000000	84.583205
986.000000	84.654665
985.000000	84.736401
984.000000	84.825106
983.000000	84.924160
982.000000	85.033616
981.000000	85.149367
980.000000	85.273867
979.000000	85.414075
978.000000	85.566883
977.000000	85.720056
976.000000	85.869866
975.000000	86.024816
974.000000	86.190241
973.000000	86.362627
972.000000	86.540645
971.000000	86.727860
970.000000	86.921903
969.000000	87.114212
968.000000	87.303264
967.000000	87.495584
966.000000	87.691280
965.000000	87.880937
964.000000	88.059349
963.000000	88.230608
962.000000	88.397614
961.000000	88.558234
960.000000	88.713842
959.000000	88.869699
958.000000	89.024058
957.000000	89.168184
956.000000	89.299952
955.000000	89.427171
954.000000	89.555565
953.000000	89.683583
952.000000	89.810250
951.000000	89.936652
950.000000	90.057909
949.000000	90.165261
948.000000	90.258553
947.000000	90.346230
946.000000	90.431361
945.000000	90.508845
944.000000	90.578400
943.000000	90.648210
942.000000	90.722179
941.000000	90.794485
940.000000	90.860356
939.000000	90.921900
938.000000	90.980590
937.000000	91.035019
936.000000	91.089756
935.000000	91.155398
934.000000	91.234698
933.000000	91.317594
932.000000	91.393956
931.000000	91.463093
930.000000	91.528364
929.000000	91.591454
928.000000	91.654734
927.000000	91.720792
926.000000	91.787510
925.000000	91.851675
924.000000	91.917481
923.000000	91.991108
922.000000	92.066466
921.000000	92.128389
920.000000	92.172316
919.000000	92.209612
918.000000	92.251181
917.000000	92.297774
916.000000	92.349186
915.000000	92.409711
914.000000	92.479134
913.000000	92.550017
912.000000	92.620055
911.000000	92.697326
910.000000	92.788212
909.000000	92.890154
908.000000	93.000530
907.000000	93.121747
906.000000	93.252417
905.000000	93.384531
904.000000	93.515676
903.000000	93.654293
902.000000	93.806671
901.000000	93.967607
900.000000	94.129029
899.000000	94.288761
898.000000	94.445328
897.000000	94.593701
896.000000	94.733251
895.000000	94.872054
894.000000	95.015894
893.000000	95.158934
892.000000	95.291638
891.000000	95.412595
890.000000	95.527029
889.000000	95.638976
888.000000	95.750651
887.000000	95.864876
886.000000	95.981957
885.000000	96.096972
884.000000	96.204537
883.000000	96.303753
882.000000	96.396013
881.000000	96.481782
880.000000	96.562619
879.000000	96.642871
878.000000	96.726466
877.000000	96.814724
876.000000	96.908037
875.000000	97.005469
874.000000	97.102695
873.000000	97.196032
872.000000	97.288828
871.000000	97.387903
870.000000	97.493602
869.000000	97.599931
868.000000	97.704186
867.000000	97.808650
866.000000	97.912650
865.000000	98.011010
864.000000	98.101742
863.000000	98.188161
862.000000	98.272086
861.000000	98.352211
860.000000	98.430600
859.000000	98.512341
858.000000	98.595769
857.000000	98.671066
856.000000	98.732339
855.000000	98.784083
854.000000	98.832626
853.000000	98.879148
852.000000	98.925618
851.000000	98.978703
850.000000	99.040093
849.000000	99.099017
848.000000	99.142013
847.000000	99.166585
846.000000	99.180273
845.000000	99.190610
844.000000	99.201398
843.000000	99.214235
842.000000	99.226652
841.000000	99.230711
840.000000	99.218666
839.000000	99.189216
838.000000	99.146489
837.000000	99.096581
836.000000	99.047472
835.000000	99.006983
834.000000	98.976149
833.000000	98.948363
832.000000	98.918513
831.000000	98.888518
830.000000	98.861857
829.000000	98.840890
828.000000	98.834910
827.000000	98.860302
826.000000	98.920281
825.000000	98.990115
824.000000	99.035887
823.000000	99.046337
822.000000	99.036320
821.000000	99.022884
820.000000	99.010009
819.000000	98.993778
818.000000	98.969108
817.000000	98.929498
816.000000	98.868504
815.000000	98.784819
814.000000	98.681869
813.000000	98.559922
812.000000	98.409984
811.000000	98.215679
810.000000	97.960666
809.000000	97.637660
808.000000	97.254315
807.000000	96.829073
806.000000	96.378380
805.000000	95.910850
804.000000	95.436899
803.000000	94.978157
802.000000	94.561223
801.000000	94.206522
800.000000	93.927517
799.000000	93.732818
798.000000	93.621726
797.000000	93.583518
796.000000	93.606401
795.000000	93.681105
794.000000	93.792555
793.000000	93.916867
792.000000	94.032653
791.000000	94.130064
790.000000	94.205146
789.000000	94.251087
788.000000	94.259138
787.000000	94.223849
786.000000	94.144446
785.000000	94.025120
784.000000	93.876321
783.000000	93.711783
782.000000	93.542873
781.000000	93.380819
780.000000	93.244755
779.000000	93.159510
778.000000	93.141883
777.000000	93.193480
776.000000	93.305664
775.000000	93.463109
774.000000	93.644118
773.000000	93.829138
772.000000	94.010868
771.000000	94.187717
770.000000	94.349259
769.000000	94.480356
768.000000	94.579767
767.000000	94.661354
766.000000	94.734407
765.000000	94.796075
764.000000	94.847199
763.000000	94.900859
762.000000	94.966723
761.000000	95.038591
760.000000	95.106843
759.000000	95.173579
758.000000	95.245784
757.000000	95.321997
756.000000	95.396253
755.000000	95.469268
754.000000	95.546146
753.000000	95.627442
752.000000	95.710600
751.000000	95.795600
750.000000	95.881070
749.000000	95.959003
748.000000	96.022242
747.000000	96.075934
746.000000	96.135015
745.000000	96.211242
744.000000	96.306915
743.000000	96.417910
742.000000	96.537169
741.000000	96.657667
740.000000	96.777183
739.000000	96.898471
738.000000	97.021083
737.000000	97.136401
736.000000	97.235516
735.000000	97.318926
734.000000	97.393572
733.000000	97.462892
732.000000	97.524694
731.000000	97.576661
730.000000	97.618759
729.000000	97.651767
728.000000	97.678913
727.000000	97.708210
726.000000	97.747535
725.000000	97.796403
724.000000	97.846482
723.000000	97.891275
722.000000	97.932924
721.000000	97.979341
720.000000	98.036806
719.000000	98.105753
718.000000	98.182009
717.000000	98.260183
716.000000	98.334840
715.000000	98.399330
714.000000	98.446944
713.000000	98.476494
712.000000	98.496006
711.000000	98.517276
710.000000	98.545164
709.000000	98.573914
708.000000	98.594463
707.000000	98.603043
706.000000	98.602003
705.000000	98.594049
704.000000	98.575535
703.000000	98.533151
702.000000	98.447928
701.000000	98.305739
700.000000	98.105075
699.000000	97.855983
698.000000	97.577578
697.000000	97.302114
696.000000	97.074562
695.000000	96.934005
694.000000	96.892236
693.000000	96.934788
692.000000	97.039480
691.000000	97.186419
690.000000	97.352507
689.000000	97.510439
688.000000	97.642147
687.000000	97.748399
686.000000	97.839726
685.000000	97.923275
684.000000	98.002009
683.000000	98.078844
682.000000	98.155297
681.000000	98.229733
680.000000	98.299854
679.000000	98.363091
678.000000	98.414117
677.000000	98.449692
676.000000	98.478268
675.000000	98.515889
674.000000	98.567702
673.000000	98.620584
672.000000	98.657901
671.000000	98.677156
670.000000	98.691346
669.000000	98.722723
668.000000	98.781785
667.000000	98.848255
666.000000	98.903049
665.000000	98.945149
664.000000	98.981538
663.000000	99.024752
662.000000	99.076541
661.000000	99.118482
660.000000	99.131195
659.000000	99.117297
658.000000	99.099956
657.000000	99.099487
656.000000	99.114692
655.000000	99.124827
654.000000	99.108166
653.000000	99.065754
652.000000	99.027675
651.000000	99.026332
650.000000	99.062241
