4000.000000	100.225279
3999.000000	100.225670
3998.000000	100.226125
3997.000000	100.226430
3996.000000	100.226539
3995.000000	100.226562
3994.000000	100.226610
3993.000000	100.226633
3992.000000	100.226517
3991.000000	100.226260
3990.000000	100.226012
3989.000000	100.225951
3988.000000	100.226125
3987.000000	100.226404
3986.000000	100.226562
3985.000000	100.226459
3984.000000	100.226173
3983.000000	100.225978
3982.000000	100.226125
3981.000000	100.226606
3980.000000	100.227084
3979.000000	100.227157
3978.000000	100.226723
3977.000000	100.226022
3976.000000	100.225385
3975.000000	100.224980
3974.000000	100.224804
3973.000000	100.224834
3972.000000	100.225088
3971.000000	100.225526
3970.000000	100.225967
3969.000000	100.226158
3968.000000	100.225949
3967.000000	100.225364
3966.000000	100.224553
3965.000000	100.223716
3964.000000	100.223057
3963.000000	100.222716
3962.000000	100.222688
3961.000000	100.222771
3960.000000	100.222671
3959.000000	100.222230
3958.000000	100.221502
3957.000000	100.220682
3956.000000	100.219963
3955.000000	100.219433
3954.000000	100.219078
3953.000000	100.218825
3952.000000	100.218596
3951.000000	100.218343
3950.000000	100.218052
3949.000000	100.217738
3948.000000	100.217437
3947.000000	100.217172
3946.000000	100.216948
3945.000000	100.216763
3944.000000	100.216625
3943.000000	100.216546
3942.000000	100.216492
3941.000000	100.216371
3940.000000	100.216102
3939.000000	100.215713
3938.000000	100.215355
3937.000000	100.215232
3936.000000	100.215517
3935.000000	100.216231
3934.000000	100.217079
3933.000000	100.217467
3932.000000	100.216923
3931.000000	100.215555
3930.000000	100.214071
3929.000000	100.213170
3928.000000	100.213035
3927.000000	100.213404
3926.000000	100.213880
3925.000000	100.214249
3924.000000	100.214514
3923.000000	100.214700
3922.000000	100.214654
3921.000000	100.214005
3920.000000	100.212439
3919.000000	100.210192
3918.000000	100.208191
3917.000000	100.207304
3916.000000	100.207418
3915.000000	100.207562
3914.000000	100.206990
3913.000000	100.205843
3912.000000	100.204836
3911.000000	100.204671
3910.000000	100.205581
3909.000000	100.207319
3908.000000	100.209460
3907.000000	100.211794
3906.000000	100.214293
3905.000000	100.216537
3904.000000	100.217377
3903.000000	100.215722
3902.000000	100.211861
3901.000000	100.207574
3900.000000	100.204528
3899.000000	100.202756
3898.000000	100.201147
3897.000000	100.199003
3896.000000	100.196658
3895.000000	100.194865
3894.000000	100.194174
3893.000000	100.195021
3892.000000	100.197458
3891.000000	100.200364
3890.000000	100.201554
3889.000000	100.199765
3888.000000	100.195937
3887.000000	100.192090
3886.000000	100.189360
3885.000000	100.187166
3884.000000	100.184623
3883.000000	100.182834
3882.000000	100.184117
3881.000000	100.189106
3880.000000	100.195792
3879.000000	100.201339
3878.000000	100.204583
3877.000000	100.206151
3876.000000	100.206633
3875.000000	100.205769
3874.000000	100.203397
3873.000000	100.200492
3872.000000	100.199119
3871.000000	100.200843
3870.000000	100.204877
3869.000000	100.208325
3868.000000	100.209060
3867.000000	100.207793
3866.000000	100.206567
3865.000000	100.206266
3864.000000	100.206494
3863.000000	100.207061
3862.000000	100.208367
3861.000000	100.210478
3860.000000	100.212504
3859.000000	100.213419
3858.000000	100.212829
3857.000000	100.211175
3856.000000	100.209545
3855.000000	100.209142
3854.000000	100.209839
3853.000000	100.209163
3852.000000	100.204842
3851.000000	100.198480
3850.000000	100.194186
3849.000000	100.194008
3848.000000	100.196997
3847.000000	100.200911
3846.000000	100.203838
3845.000000	100.204965
3844.000000	100.204392
3843.000000	100.202522
3842.000000	100.199428
3841.000000	100.194960
3840.000000	100.189246
3839.000000	100.183133
3838.000000	100.178113
3837.000000	100.175565
3836.000000	100.175874
3835.000000	100.178480
3834.000000	100.182450
3833.000000	100.186919
3832.000000	100.191194
3831.000000	100.194660
3830.000000	100.196844
3829.000000	100.197592
3828.000000	100.196985
3827.000000	100.195146
3826.000000	100.192032
3825.000000	100.187639
3824.000000	100.182568
3823.000000	100.178225
3822.000000	100.176149
3821.000000	100.176871
3820.000000	100.178990
3819.000000	100.180820
3818.000000	100.182423
3817.000000	100.184171
3816.000000	100.185378
3815.000000	100.185026
3814.000000	100.183186
3813.000000	100.181463
3812.000000	100.181163
3811.000000	100.181599
3810.000000	100.181139
3809.000000	100.179249
3808.000000	100.177311
3807.000000	100.177200
3806.000000	100.178782
3805.000000	100.180101
3804.000000	100.180117
3803.000000	100.179522
3802.000000	100.179810
3801.000000	100.181851
3800.000000	100.184537
3799.000000	100.186421
3798.000000	100.187362
3797.000000	100.187543
3796.000000	100.187191
3795.000000	100.186863
3794.000000	100.187235
3793.000000	100.188621
3792.000000	100.190638
3791.000000	100.192457
3790.000000	100.193470
3789.000000	100.193430
3788.000000	100.192138
3787.000000	100.189490
3786.000000	100.186023
3785.000000	100.182934
3784.000000	100.181177
3783.000000	100.180850
3782.000000	100.181548
3781.000000	100.182838
3780.000000	100.184157
3779.000000	100.184817
3778.000000	100.184499
3777.000000	100.183774
3776.000000	100.183688
3775.000000	100.184566
3774.000000	100.185475
3773.000000	100.185223
3772.000000	100.183688
3771.000000	100.181985
3770.000000	100.181344
3769.000000	100.182145
3768.000000	100.184204
3767.000000	100.187316
3766.000000	100.190657
3765.000000	100.192535
3764.000000	100.191885
3763.000000	100.189721
3762.000000	100.188225
3761.000000	100.187892
3760.000000	100.186405
3759.000000	100.181779
3758.000000	100.175514
3757.000000	100.170950
3756.000000	100.169189
3755.000000	100.168384
3754.000000	100.165934
3753.000000	100.160589
3752.000000	100.153447
3751.000000	100.147644
3750.000000	100.145869
3749.000000	100.147646
3748.000000	100.150101
3747.000000	100.150960
3746.000000	100.149756
3745.000000	100.148143
3744.000000	100.148841
3743.000000	100.151349
3742.000000	100.154098
3741.000000	100.158291
3740.000000	100.163926
3739.000000	100.168320
3738.000000	100.168716
3737.000000	100.163889
3736.000000	100.154936
3735.000000	100.145767
3734.000000	100.140927
3733.000000	100.141486
3732.000000	100.143959
3731.000000	100.143866
3730.000000	100.140177
3729.000000	100.135606
3728.000000	100.132974
3727.000000	100.131761
3726.000000	100.128657
3725.000000	100.121454
3724.000000	100.111927
3723.000000	100.104031
3722.000000	100.099667
3721.000000	100.097163
3720.000000	100.093516
3719.000000	100.087677
3718.000000	100.081233
3717.000000	100.076363
3716.000000	100.073500
3715.000000	100.071202
3714.000000	100.067411
3713.000000	100.060931
3712.000000	100.052788
3711.000000	100.045223
3710.000000	100.038672
3709.000000	100.031405
3708.000000	100.022186
3707.000000	100.011920
3706.000000	100.002633
3705.000000	99.995624
3704.000000	99.990552
3703.000000	99.986044
3702.000000	99.981016
3701.000000	99.975125
3700.000000	99.968080
3699.000000	99.959920
3698.000000	99.951889
3697.000000	99.945743
3696.000000	99.942080
3695.000000	99.939999
3694.000000	99.938312
3693.000000	99.936162
3692.000000	99.932863
3691.000000	99.928100
3690.000000	99.922369
3689.000000	99.916263
3688.000000	99.909081
3687.000000	99.899608
3686.000000	99.888655
3685.000000	99.878871
3684.000000	99.871636
3683.000000	99.866141
3682.000000	99.861331
3681.000000	99.857134
3680.000000	99.852677
3679.000000	99.844204
3678.000000	99.827332
3677.000000	99.802332
3676.000000	99.777297
3675.000000	99.760584
3674.000000	99.750036
3673.000000	99.739200
3672.000000	99.726991
3671.000000	99.715549
3670.000000	99.705531
3669.000000	99.694768
3668.000000	99.681555
3667.000000	99.668113
3666.000000	99.657554
3665.000000	99.649495
3664.000000	99.640303
3663.000000	99.626835
3662.000000	99.609311
3661.000000	99.590434
3660.000000	99.572588
3659.000000	99.556807
3658.000000	99.543849
3657.000000	99.533954
3656.000000	99.524801
3655.000000	99.511253
3654.000000	99.489940
3653.000000	99.462793
3652.000000	99.435373
3651.000000	99.413800
3650.000000	99.401698
3649.000000	99.396771
3648.000000	99.392858
3647.000000	99.386196
3646.000000	99.376860
3645.000000	99.366471
3644.000000	99.356457
3643.000000	99.347006
3642.000000	99.336350
3641.000000	99.321684
3640.000000	99.301713
3639.000000	99.278596
3638.000000	99.256570
3637.000000	99.238725
3636.000000	99.225751
3635.000000	99.216539
3634.000000	99.208710
3633.000000	99.198984
3632.000000	99.185096
3631.000000	99.167960
3630.000000	99.152122
3629.000000	99.142835
3628.000000	99.139286
3627.000000	99.135019
3626.000000	99.127734
3625.000000	99.120359
3624.000000	99.115322
3623.000000	99.113664
3622.000000	99.116343
3621.000000	99.123923
3620.000000	99.135205
3619.000000	99.147398
3618.000000	99.158098
3617.000000	99.166683
3616.000000	99.174143
3615.000000	99.182086
3614.000000	99.191902
3613.000000	99.203948
3612.000000	99.216849
3611.000000	99.228251
3610.000000	99.236931
3609.000000	99.244043
3608.000000	99.252201
3607.000000	99.262897
3606.000000	99.275144
3605.000000	99.286814
3604.000000	99.296620
3603.000000	99.305020
3602.000000	99.313245
3601.000000	99.321166
3600.000000	99.326672
3599.000000	99.328108
3598.000000	99.326912
3597.000000	99.326237
3596.000000	99.327514
3595.000000	99.329042
3594.000000	99.328444
3593.000000	99.325286
3592.000000	99.320966
3591.000000	99.316834
3590.000000	99.313913
3589.000000	99.314245
3588.000000	99.320695
3587.000000	99.333119
3586.000000	99.345995
3585.000000	99.352610
3584.000000	99.350278
3583.000000	99.340785
3582.000000	99.328284
3581.000000	99.317015
3580.000000	99.309807
3579.000000	99.307482
3578.000000	99.309136
3577.000000	99.312680
3576.000000	99.315718
3575.000000	99.316496
3574.000000	99.314470
3573.000000	99.310188
3572.000000	99.304901
3571.000000	99.300199
3570.000000	99.297517
3569.000000	99.297152
3568.000000	99.297199
3567.000000	99.294442
3566.000000	99.287514
3565.000000	99.278633
3564.000000	99.271666
3563.000000	99.268977
3562.000000	99.270051
3561.000000	99.272291
3560.000000	99.273052
3559.000000	99.271396
3558.000000	99.268154
3557.000000	99.264569
3556.000000	99.261039
3555.000000	99.257145
3554.000000	99.252620
3553.000000	99.247977
3552.000000	99.243968
3551.000000	99.240717
3550.000000	99.237802
3549.000000	99.235023
3548.000000	99.232687
3547.000000	99.231178
3546.000000	99.230500
3545.000000	99.230262
3544.000000	99.229961
3543.000000	99.229328
3542.000000	99.228492
3541.000000	99.227817
3540.000000	99.227530
3539.000000	99.227481
3538.000000	99.227316
3537.000000	99.226866
3536.000000	99.226187
3535.000000	99.225167
3534.000000	99.223454
3533.000000	99.220877
3532.000000	99.217698
3531.000000	99.214308
3530.000000	99.210934
3529.000000	99.207883
3528.000000	99.205791
3527.000000	99.205138
3526.000000	99.205578
3525.000000	99.206108
3524.000000	99.205984
3523.000000	99.205236
3522.000000	99.204161
3521.000000	99.202698
3520.000000	99.200650
3519.000000	99.198354
3518.000000	99.196679
3517.000000	99.196217
3516.000000	99.196670
3515.000000	99.197011
3514.000000	99.196336
3513.000000	99.194560
3512.000000	99.192403
3511.000000	99.190781
3510.000000	99.190001
3509.000000	99.189557
3508.000000	99.188644
3507.000000	99.186835
3506.000000	99.184290
3505.000000	99.181540
3504.000000	99.179159
3503.000000	99.177473
3502.000000	99.176465
3501.000000	99.175909
3500.000000	99.175695
3499.000000	99.175863
3498.000000	99.176186
3497.000000	99.175847
3496.000000	99.173930
3495.000000	99.170326
3494.000000	99.165935
3493.000000	99.161801
3492.000000	99.158265
3491.000000	99.155225
3490.000000	99.152917
3489.000000	99.151960
3488.000000	99.152638
3487.000000	99.154399
3486.000000	99.156150
3485.000000	99.156973
3484.000000	99.156402
3483.000000	99.154369
3482.000000	99.151088
3481.000000	99.146911
3480.000000	99.142279
3479.000000	99.137806
3478.000000	99.134341
3477.000000	99.132651
3476.000000	99.132763
3475.000000	99.133622
3474.000000	99.133656
3473.000000	99.131877
3472.000000	99.128403
3471.000000	99.124101
3470.000000	99.119755
3469.000000	99.115521
3468.000000	99.111152
3467.000000	99.106571
3466.000000	99.102116
3465.000000	99.098124
3464.000000	99.094388
3463.000000	99.090254
3462.000000	99.085398
3461.000000	99.080405
3460.000000	99.076316
3459.000000	99.073588
3458.000000	99.071669
3457.000000	99.069641
3456.000000	99.067145
3455.000000	99.064555
3454.000000	99.062326
3453.000000	99.060330
3452.000000	99.057877
3451.000000	99.054361
3450.000000	99.049938
3449.000000	99.045663
3448.000000	99.042804
3447.000000	99.041779
3446.000000	99.041680
3445.000000	99.040894
3444.000000	99.038507
3443.000000	99.034997
3442.000000	99.031689
3441.000000	99.029490
3440.000000	99.028160
3439.000000	99.026723
3438.000000	99.024452
3437.000000	99.021426
3436.000000	99.018246
3435.000000	99.015455
3434.000000	99.013313
3433.000000	99.011926
3432.000000	99.011227
3431.000000	99.010713
3430.000000	99.009554
3429.000000	99.007347
3428.000000	99.004726
3427.000000	99.002942
3426.000000	99.002599
3425.000000	99.003008
3424.000000	99.002916
3423.000000	99.001847
3422.000000	99.000357
3421.000000	98.999016
3420.000000	98.997560
3419.000000	98.995352
3418.000000	98.992348
3417.000000	98.989276
3416.000000	98.986961
3415.000000	98.985796
3414.000000	98.985790
3413.000000	98.986728
3412.000000	98.988041
3411.000000	98.988741
3410.000000	98.987890
3409.000000	98.985350
3408.000000	98.982131
3407.000000	98.979752
3406.000000	98.979070
3405.000000	98.979767
3404.000000	98.980902
3403.000000	98.981950
3402.000000	98.983179
3401.000000	98.984990
3400.000000	98.987151
3399.000000	98.988825
3398.000000	98.989235
3397.000000	98.988235
3396.000000	98.986390
3395.000000	98.984610
3394.000000	98.983604
3393.000000	98.983576
3392.000000	98.984392
3391.000000	98.985859
3390.000000	98.987776
3389.000000	98.989797
3388.000000	98.991522
3387.000000	98.992866
3386.000000	98.994178
3385.000000	98.995867
3384.000000	98.997968
3383.000000	99.000134
3382.000000	99.001938
3381.000000	99.003083
3380.000000	99.003478
3379.000000	99.003335
3378.000000	99.003197
3377.000000	99.003751
3376.000000	99.005463
3375.000000	99.008247
3374.000000	99.011413
3373.000000	99.014069
3372.000000	99.015861
3371.000000	99.017342
3370.000000	99.019385
3369.000000	99.022058
3368.000000	99.024295
3367.000000	99.024966
3366.000000	99.024101
3365.000000	99.022913
3364.000000	99.022666
3363.000000	99.023788
3362.000000	99.026119
3361.000000	99.029478
3360.000000	99.033622
3359.000000	99.037814
3358.000000	99.040998
3357.000000	99.042704
3356.000000	99.043634
3355.000000	99.045116
3354.000000	99.047785
3353.000000	99.051044
3352.000000	99.053936
3351.000000	99.056362
3350.000000	99.059125
3349.000000	99.062803
3348.000000	99.066901
3347.000000	99.070231
3346.000000	99.071900
3345.000000	99.071759
3344.000000	99.070411
3343.000000	99.069128
3342.000000	99.069243
3341.000000	99.071049
3340.000000	99.073371
3339.000000	99.074756
3338.000000	99.075289
3337.000000	99.076519
3336.000000	99.079487
3335.000000	99.083655
3334.000000	99.087973
3333.000000	99.092214
3332.000000	99.096591
3331.000000	99.100684
3330.000000	99.103620
3329.000000	99.105212
3328.000000	99.106242
3327.000000	99.107571
3326.000000	99.109485
3325.000000	99.111964
3324.000000	99.115002
3323.000000	99.118439
3322.000000	99.121887
3321.000000	99.125018
3320.000000	99.127737
3319.000000	99.130076
3318.000000	99.132229
3317.000000	99.134718
3316.000000	99.138047
3315.000000	99.141905
3314.000000	99.145148
3313.000000	99.146986
3312.000000	99.147824
3311.000000	99.148679
3310.000000	99.149974
3309.000000	99.151300
3308.000000	99.152282
3307.000000	99.153158
3306.000000	99.154449
3305.000000	99.156401
3304.000000	99.158921
3303.000000	99.161792
3302.000000	99.164732
3301.000000	99.167417
3300.000000	99.169677
3299.000000	99.171680
3298.000000	99.173782
3297.000000	99.176155
3296.000000	99.178681
3295.000000	99.181185
3294.000000	99.183647
3293.000000	99.186121
3292.000000	99.188537
3291.000000	99.190702
3290.000000	99.192512
3289.000000	99.194098
3288.000000	99.195764
3287.000000	99.197750
3286.000000	99.200075
3285.000000	99.202603
3284.000000	99.205146
3283.000000	99.207531
3282.000000	99.209672
3281.000000	99.211608
3280.000000	99.213477
3279.000000	99.215414
3278.000000	99.217467
3277.000000	99.219600
3276.000000	99.221737
3275.000000	99.223801
3274.000000	99.225764
3273.000000	99.227662
3272.000000	99.229578
3271.000000	99.231579
3270.000000	99.233668
3269.000000	99.235757
3268.000000	99.237744
3267.000000	99.239631
3266.000000	99.241496
3265.000000	99.243391
3264.000000	99.245327
3263.000000	99.247344
3262.000000	99.249512
3261.000000	99.251851
3260.000000	99.254288
3259.000000	99.256682
3258.000000	99.258878
3257.000000	99.260768
3256.000000	99.262371
3255.000000	99.263859
3254.000000	99.265443
3253.000000	99.267196
3252.000000	99.269054
3251.000000	99.270961
3250.000000	99.272941
3249.000000	99.275055
3248.000000	99.277358
3247.000000	99.279890
3246.000000	99.282594
3245.000000	99.285222
3244.000000	99.287444
3243.000000	99.289166
3242.000000	99.290690
3241.000000	99.292487
3240.000000	99.294811
3239.000000	99.297576
3238.000000	99.300509
3237.000000	99.303348
3236.000000	99.305879
3235.000000	99.307912
3234.000000	99.309321
3233.000000	99.310179
3232.000000	99.310864
3231.000000	99.311978
3230.000000	99.314015
3229.000000	99.317065
3228.000000	99.320725
3227.000000	99.324291
3226.000000	99.327241
3225.000000	99.329529
3224.000000	99.331530
3223.000000	99.333700
3222.000000	99.336167
3221.000000	99.338683
3220.000000	99.341010
3219.000000	99.343259
3218.000000	99.345732
3217.000000	99.348474
3216.000000	99.351172
3215.000000	99.353548
3214.000000	99.355769
3213.000000	99.358328
3212.000000	99.361544
3211.000000	99.365214
3210.000000	99.368718
3209.000000	99.371494
3208.000000	99.373432
3207.000000	99.374881
3206.000000	99.376339
3205.000000	99.378119
3204.000000	99.380257
3203.000000	99.382679
3202.000000	99.385361
3201.000000	99.388329
3200.000000	99.391524
3199.000000	99.394672
3198.000000	99.397330
3197.000000	99.399196
3196.000000	99.400433
3195.000000	99.401640
3194.000000	99.403385
3193.000000	99.405721
3192.000000	99.408236
3191.000000	99.410486
3190.000000	99.412410
3189.000000	99.414293
3188.000000	99.416422
3187.000000	99.418852
3186.000000	99.421461
3185.000000	99.424105
3184.000000	99.426731
3183.000000	99.429375
3182.000000	99.432062
3181.000000	99.434700
3180.000000	99.437117
3179.000000	99.439233
3178.000000	99.441184
3177.000000	99.443259
3176.000000	99.445651
3175.000000	99.448311
3174.000000	99.451030
3173.000000	99.453619
3172.000000	99.456043
3171.000000	99.458401
3170.000000	99.460843
3169.000000	99.463438
3168.000000	99.466099
3167.000000	99.468661
3166.000000	99.471042
3165.000000	99.473327
3164.000000	99.475731
3163.000000	99.478403
3162.000000	99.481308
3161.000000	99.484238
3160.000000	99.487002
3159.000000	99.489578
3158.000000	99.492078
3157.000000	99.494622
3156.000000	99.497208
3155.000000	99.499782
3154.000000	99.502370
3153.000000	99.505104
3152.000000	99.508066
3151.000000	99.511136
3150.000000	99.514061
3149.000000	99.516723
3148.000000	99.519283
3147.000000	99.522061
3146.000000	99.525197
3145.000000	99.528419
3144.000000	99.531222
3143.000000	99.533318
3142.000000	99.534854
3141.000000	99.536261
3140.000000	99.537879
3139.000000	99.539805
3138.000000	99.542038
3137.000000	99.544578
3136.000000	99.547350
3135.000000	99.550123
3134.000000	99.552635
3133.000000	99.554808
3132.000000	99.556836
3131.000000	99.559042
3130.000000	99.561592
3129.000000	99.564303
3128.000000	99.566758
3127.000000	99.568698
3126.000000	99.570308
3125.000000	99.572086
3124.000000	99.574413
3123.000000	99.577326
3122.000000	99.580649
3121.000000	99.584185
3120.000000	99.587709
3119.000000	99.590981
3118.000000	99.593884
3117.000000	99.596402
3116.000000	99.598426
3115.000000	99.599740
3114.000000	99.600394
3113.000000	99.601013
3112.000000	99.602406
3111.000000	99.604802
3110.000000	99.607656
3109.000000	99.610164
3108.000000	99.612052
3107.000000	99.613752
3106.000000	99.615852
3105.000000	99.618458
3104.000000	99.621090
3103.000000	99.623168
3102.000000	99.624583
3101.000000	99.625807
3100.000000	99.627486
3099.000000	99.629911
3098.000000	99.632921
3097.000000	99.636161
3096.000000	99.639362
3095.000000	99.642380
3094.000000	99.645076
3093.000000	99.647274
3092.000000	99.648890
3091.000000	99.650101
3090.000000	99.651331
3089.000000	99.652996
3088.000000	99.655234
3087.000000	99.657870
3086.000000	99.660613
3085.000000	99.663208
3084.000000	99.665390
3083.000000	99.666932
3082.000000	99.667893
3081.000000	99.668692
3080.000000	99.669775
3079.000000	99.671167
3078.000000	99.672546
3077.000000	99.673767
3076.000000	99.675109
3075.000000	99.676937
3074.000000	99.679278
3073.000000	99.681821
3072.000000	99.684195
3071.000000	99.686185
3070.000000	99.687723
3069.000000	99.688835
3068.000000	99.689704
3067.000000	99.690646
3066.000000	99.691912
3065.000000	99.693496
3064.000000	99.695210
3063.000000	99.696906
3062.000000	99.698585
3061.000000	99.700297
3060.000000	99.702004
3059.000000	99.703581
3058.000000	99.704941
3057.000000	99.706130
3056.000000	99.707302
3055.000000	99.708594
3054.000000	99.710037
3053.000000	99.711582
3052.000000	99.713166
3051.000000	99.714731
3050.000000	99.716183
3049.000000	99.717396
3048.000000	99.718336
3047.000000	99.719213
3046.000000	99.720436
3045.000000	99.722312
3044.000000	99.724820
3043.000000	99.727578
3042.000000	99.730006
3041.000000	99.731626
3040.000000	99.732283
3039.000000	99.732283
3038.000000	99.732292
3037.000000	99.732878
3036.000000	99.734196
3035.000000	99.736084
3034.000000	99.738380
3033.000000	99.740997
3032.000000	99.743702
3031.000000	99.746052
3030.000000	99.747695
3029.000000	99.748600
3028.000000	99.748846
3027.000000	99.748433
3026.000000	99.747628
3025.000000	99.747336
3024.000000	99.748673
3023.000000	99.751888
3022.000000	99.755859
3021.000000	99.758943
3020.000000	99.760359
3019.000000	99.760575
3018.000000	99.760394
3017.000000	99.760085
3016.000000	99.759653
3015.000000	99.759568
3014.000000	99.760616
3013.000000	99.763029
3012.000000	99.766135
3011.000000	99.768988
3010.000000	99.771119
3009.000000	99.772534
3008.000000	99.773104
3007.000000	99.772295
3006.000000	99.769710
3005.000000	99.765883
3004.000000	99.762229
3003.000000	99.759879
3002.000000	99.758674
3001.000000	99.757547
3000.000000	99.755890
2999.000000	99.754201
2998.000000	99.753339
2997.000000	99.753506
2996.000000	99.754145
2995.000000	99.754474
2994.000000	99.753822
2993.000000	99.752000
2992.000000	99.750033
2991.000000	99.750158
2990.000000	99.753917
2989.000000	99.759741
2988.000000	99.763318
2987.000000	99.761503
2986.000000	99.755740
2985.000000	99.750667
2984.000000	99.749071
2983.000000	99.748958
2982.000000	99.746120
2981.000000	99.739178
2980.000000	99.731438
2979.000000	99.727735
2978.000000	99.730385
2977.000000	99.738387
2976.000000	99.749504
2975.000000	99.762154
2974.000000	99.775241
2973.000000	99.787294
2972.000000	99.796934
2971.000000	99.804206
2970.000000	99.810740
2969.000000	99.818155
2968.000000	99.826730
2967.000000	99.836051
2966.000000	99.846568
2965.000000	99.859330
2964.000000	99.873765
2963.000000	99.886762
2962.000000	99.895221
2961.000000	99.899432
2960.000000	99.902871
2959.000000	99.908418
2958.000000	99.915691
2957.000000	99.922509
2956.000000	99.927892
2955.000000	99.932612
2954.000000	99.937472
2953.000000	99.942212
2952.000000	99.946064
2951.000000	99.948466
2950.000000	99.949305
2949.000000	99.949356
2948.000000	99.950591
2947.000000	99.955159
2946.000000	99.963707
2945.000000	99.975182
2944.000000	99.988176
2943.000000	100.001578
2942.000000	100.013907
2941.000000	100.023488
2940.000000	100.030242
2939.000000	100.036497
2938.000000	100.045088
2937.000000	100.057216
2936.000000	100.072877
2935.000000	100.092322
2934.000000	100.115515
2933.000000	100.140458
2932.000000	100.163715
2931.000000	100.183012
2930.000000	100.198397
2929.000000	100.210841
2928.000000	100.220892
2927.000000	100.229022
2926.000000	100.235963
2925.000000	100.241547
2924.000000	100.243685
2923.000000	100.239457
2922.000000	100.227403
2921.000000	100.208783
2920.000000	100.187157
2919.000000	100.166830
2918.000000	100.150501
2917.000000	100.137366
2916.000000	100.123760
2915.000000	100.106640
2914.000000	100.086775
2913.000000	100.068133
2912.000000	100.054078
2911.000000	100.044544
2910.000000	100.036889
2909.000000	100.028722
2908.000000	100.019518
2907.000000	100.010108
2906.000000	100.001495
2905.000000	99.994229
2904.000000	99.988150
2903.000000	99.982198
2902.000000	99.974919
2901.000000	99.966033
2900.000000	99.957547
2899.000000	99.952399
2898.000000	99.951263
2897.000000	99.950989
2896.000000	99.947206
2895.000000	99.938956
2894.000000	99.930148
2893.000000	99.925786
2892.000000	99.926999
2891.000000	99.930230
2890.000000	99.931286
2889.000000	99.929707
2888.000000	99.928715
2887.000000	99.931188
2886.000000	99.936366
2885.000000	99.940567
2884.000000	99.940681
2883.000000	99.936753
2882.000000	99.931590
2881.000000	99.928421
2880.000000	99.928687
2879.000000	99.931150
2878.000000	99.932811
2877.000000	99.931523
2876.000000	99.928441
2875.000000	99.927648
2874.000000	99.932656
2873.000000	99.943098
2872.000000	99.954970
2871.000000	99.964132
2870.000000	99.969431
2869.000000	99.972704
2868.000000	99.976401
2867.000000	99.981431
2866.000000	99.986957
2865.000000	99.992042
2864.000000	99.997514
2863.000000	100.005993
2862.000000	100.019629
2861.000000	100.037685
2860.000000	100.056636
2859.000000	100.072825
2858.000000	100.085026
2857.000000	100.094605
2856.000000	100.103667
2855.000000	100.112915
2854.000000	100.120711
2853.000000	100.124076
2852.000000	100.120963
2851.000000	100.111861
2850.000000	100.099284
2849.000000	100.085771
2848.000000	100.072395
2847.000000	100.058907
2846.000000	100.044792
2845.000000	100.030200
2844.000000	100.016520
2843.000000	100.006132
2842.000000	100.000666
2841.000000	99.998769
2840.000000	99.996189
2839.000000	99.989373
2838.000000	99.979280
2837.000000	99.970917
2836.000000	99.968489
2835.000000	99.971381
2834.000000	99.975124
2833.000000	99.975834
2832.000000	99.973204
2831.000000	99.969497
2830.000000	99.966924
2829.000000	99.966572
2828.000000	99.968767
2827.000000	99.972939
2826.000000	99.977044
2825.000000	99.978452
2824.000000	99.976200
2823.000000	99.971926
2822.000000	99.968137
2821.000000	99.965967
2820.000000	99.964939
2819.000000	99.964064
2818.000000	99.962424
2817.000000	99.959357
2816.000000	99.955349
2815.000000	99.952623
2814.000000	99.953576
2813.000000	99.958322
2812.000000	99.964411
2811.000000	99.969233
2810.000000	99.972118
2809.000000	99.973813
2808.000000	99.974773
2807.000000	99.974691
2806.000000	99.973451
2805.000000	99.971947
2804.000000	99.971636
2803.000000	99.973177
2802.000000	99.975522
2801.000000	99.976648
2800.000000	99.975569
2799.000000	99.973533
2798.000000	99.972859
2797.000000	99.974571
2796.000000	99.977601
2795.000000	99.980130
2794.000000	99.981352
2793.000000	99.981726
2792.000000	99.982095
2791.000000	99.982996
2790.000000	99.984526
2789.000000	99.986393
2788.000000	99.988072
2787.000000	99.989149
2786.000000	99.989621
2785.000000	99.989821
2784.000000	99.990153
2783.000000	99.990883
2782.000000	99.992030
2781.000000	99.993370
2780.000000	99.994593
2779.000000	99.995562
2778.000000	99.996405
2777.000000	99.997354
2776.000000	99.998530
2775.000000	99.999878
2774.000000	100.001259
2773.000000	100.002569
2772.000000	100.003785
2771.000000	100.004932
2770.000000	100.006035
2769.000000	100.007114
2768.000000	100.008187
2767.000000	100.009259
2766.000000	100.010326
2765.000000	100.011395
2764.000000	100.012478
2763.000000	100.013579
2762.000000	100.014689
2761.000000	100.015774
2760.000000	100.016804
2759.000000	100.017773
2758.000000	100.018711
2757.000000	100.019648
2756.000000	100.020586
2755.000000	100.021507
2754.000000	100.022398
2753.000000	100.023264
2752.000000	100.024118
2751.000000	100.024972
2750.000000	100.025836
2749.000000	100.026722
2748.000000	100.027635
2747.000000	100.028575
2746.000000	100.029518
2745.000000	100.030428
2744.000000	100.031280
2743.000000	100.032070
2742.000000	100.032828
2741.000000	100.033590
2740.000000	100.034378
2739.000000	100.035171
2738.000000	100.035918
2737.000000	100.036577
2736.000000	100.037161
2735.000000	100.037740
2734.000000	100.038379
2733.000000	100.039105
2732.000000	100.039899
2731.000000	100.040693
2730.000000	100.041358
2729.000000	100.041760
2728.000000	100.041856
2727.000000	100.041776
2726.000000	100.041778
2725.000000	100.042106
2724.000000	100.042827
2723.000000	100.043723
2722.000000	100.044358
2721.000000	100.044377
2720.000000	100.043787
2719.000000	100.043040
2718.000000	100.042756
2717.000000	100.043299
2716.000000	100.044589
2715.000000	100.046159
2714.000000	100.047465
2713.000000	100.048258
2712.000000	100.048767
2711.000000	100.049526
2710.000000	100.050890
2709.000000	100.052637
2708.000000	100.054059
2707.000000	100.054468
2706.000000	100.053646
2705.000000	100.051920
2704.000000	100.049901
2703.000000	100.048124
2702.000000	100.046949
2701.000000	100.046585
2700.000000	100.046950
2699.000000	100.047467
2698.000000	100.047302
2697.000000	100.046219
2696.000000	100.045117
2695.000000	100.045242
2694.000000	100.046721
2693.000000	100.048270
2692.000000	100.048641
2691.000000	100.048032
2690.000000	100.047644
2689.000000	100.048195
2688.000000	100.049424
2687.000000	100.050844
2686.000000	100.052248
2685.000000	100.053394
2684.000000	100.053934
2683.000000	100.054082
2682.000000	100.054776
2681.000000	100.056567
2680.000000	100.058686
2679.000000	100.059841
2678.000000	100.059870
2677.000000	100.059983
2676.000000	100.061232
2675.000000	100.063288
2674.000000	100.065025
2673.000000	100.065853
2672.000000	100.065959
2671.000000	100.065622
2670.000000	100.064925
2669.000000	100.064103
2668.000000	100.063641
2667.000000	100.063728
2666.000000	100.063970
2665.000000	100.063929
2664.000000	100.063714
2663.000000	100.063828
2662.000000	100.064540
2661.000000	100.065649
2660.000000	100.066811
2659.000000	100.067888
2658.000000	100.068886
2657.000000	100.069721
2656.000000	100.070234
2655.000000	100.070394
2654.000000	100.070380
2653.000000	100.070455
2652.000000	100.070778
2651.000000	100.071340
2650.000000	100.072023
2649.000000	100.072681
2648.000000	100.073202
2647.000000	100.073534
2646.000000	100.073673
2645.000000	100.073665
2644.000000	100.073610
2643.000000	100.073627
2642.000000	100.073773
2641.000000	100.074016
2640.000000	100.074275
2639.000000	100.074507
2638.000000	100.074728
2637.000000	100.074956
2636.000000	100.075174
2635.000000	100.075337
2634.000000	100.075411
2633.000000	100.075399
2632.000000	100.075338
2631.000000	100.075287
2630.000000	100.075304
2629.000000	100.075409
2628.000000	100.075592
2627.000000	100.075793
2626.000000	100.075925
2625.000000	100.075946
2624.000000	100.075889
2623.000000	100.075829
2622.000000	100.075788
2621.000000	100.075719
2620.000000	100.075575
2619.000000	100.075388
2618.000000	100.075260
2617.000000	100.075267
2616.000000	100.075404
2615.000000	100.075589
2614.000000	100.075655
2613.000000	100.075389
2612.000000	100.074711
2611.000000	100.073825
2610.000000	100.073024
2609.000000	100.072374
2608.000000	100.071765
2607.000000	100.071257
2606.000000	100.071072
2605.000000	100.071207
2604.000000	100.071368
2603.000000	100.071420
2602.000000	100.071564
2601.000000	100.071893
2600.000000	100.072164
2599.000000	100.072262
2598.000000	100.072537
2597.000000	100.073293
2596.000000	100.074213
2595.000000	100.074655
2594.000000	100.074340
2593.000000	100.073504
2592.000000	100.072612
2591.000000	100.072214
2590.000000	100.072740
2589.000000	100.073990
2588.000000	100.075020
2587.000000	100.074953
2586.000000	100.073808
2585.000000	100.072216
2584.000000	100.070488
2583.000000	100.068482
2582.000000	100.066111
2581.000000	100.063630
2580.000000	100.061701
2579.000000	100.061204
2578.000000	100.062585
2577.000000	100.065171
2576.000000	100.067380
2575.000000	100.068203
2574.000000	100.068174
2573.000000	100.068464
2572.000000	100.069518
2571.000000	100.070969
2570.000000	100.072435
2569.000000	100.073804
2568.000000	100.074947
2567.000000	100.075711
2566.000000	100.076176
2565.000000	100.076527
2564.000000	100.076755
2563.000000	100.076763
2562.000000	100.076625
2561.000000	100.076392
2560.000000	100.075822
2559.000000	100.074691
2558.000000	100.073336
2557.000000	100.072495
2556.000000	100.072592
2555.000000	100.073480
2554.000000	100.074812
2553.000000	100.076323
2552.000000	100.077721
2551.000000	100.078706
2550.000000	100.079271
2549.000000	100.079681
2548.000000	100.079966
2547.000000	100.079753
2546.000000	100.078878
2545.000000	100.077921
2544.000000	100.077739
2543.000000	100.078495
2542.000000	100.079453
2541.000000	100.079732
2540.000000	100.079164
2539.000000	100.078351
2538.000000	100.078086
2537.000000	100.078782
2536.000000	100.080357
2535.000000	100.082291
2534.000000	100.083815
2533.000000	100.084382
2532.000000	100.084045
2531.000000	100.083480
2530.000000	100.083393
2529.000000	100.083914
2528.000000	100.084677
2527.000000	100.085311
2526.000000	100.085743
2525.000000	100.086049
2524.000000	100.086308
2523.000000	100.086695
2522.000000	100.087498
2521.000000	100.088820
2520.000000	100.090367
2519.000000	100.091742
2518.000000	100.092828
2517.000000	100.093772
2516.000000	100.094695
2515.000000	100.095537
2514.000000	100.096193
2513.000000	100.096676
2512.000000	100.097104
2511.000000	100.097556
2510.000000	100.098010
2509.000000	100.098406
2508.000000	100.098732
2507.000000	100.099062
2506.000000	100.099477
2505.000000	100.099995
2504.000000	100.100575
2503.000000	100.101176
2502.000000	100.101785
2501.000000	100.102399
2500.000000	100.103010
2499.000000	100.103614
2498.000000	100.104212
2497.000000	100.104798
2496.000000	100.105364
2495.000000	100.105906
2494.000000	100.106427
2493.000000	100.106928
2492.000000	100.107414
2491.000000	100.107895
2490.000000	100.108381
2489.000000	100.108878
2488.000000	100.109381
2487.000000	100.109879
2486.000000	100.110359
2485.000000	100.110816
2484.000000	100.111260
2483.000000	100.111703
2482.000000	100.112153
2481.000000	100.112614
2480.000000	100.113075
2479.000000	100.113529
2478.000000	100.113969
2477.000000	100.114403
2476.000000	100.114844
2475.000000	100.115304
2474.000000	100.115789
2473.000000	100.116295
2472.000000	100.116816
2471.000000	100.117341
2470.000000	100.117868
2469.000000	100.118399
2468.000000	100.118935
2467.000000	100.119476
2466.000000	100.120013
2465.000000	100.120540
2464.000000	100.121051
2463.000000	100.121548
2462.000000	100.122039
2461.000000	100.122531
2460.000000	100.123026
2459.000000	100.123523
2458.000000	100.124016
2457.000000	100.124506
2456.000000	100.124996
2455.000000	100.125498
2454.000000	100.126017
2453.000000	100.126552
2452.000000	100.127095
2451.000000	100.127635
2450.000000	100.128166
2449.000000	100.128686
2448.000000	100.129193
2447.000000	100.129686
2446.000000	100.130168
2445.000000	100.130646
2444.000000	100.131126
2443.000000	100.131613
2442.000000	100.132104
2441.000000	100.132595
2440.000000	100.133082
2439.000000	100.133561
2438.000000	100.134031
2437.000000	100.134492
2436.000000	100.134943
2435.000000	100.135385
2434.000000	100.135814
2433.000000	100.136227
2432.000000	100.136621
2431.000000	100.136982
2430.000000	100.137290
2429.000000	100.137537
2428.000000	100.137764
2427.000000	100.138024
2426.000000	100.138345
2425.000000	100.138706
2424.000000	100.139063
2423.000000	100.139395
2422.000000	100.139695
2421.000000	100.139970
2420.000000	100.140245
2419.000000	100.140547
2418.000000	100.140851
2417.000000	100.141086
2416.000000	100.141214
2415.000000	100.141292
2414.000000	100.141440
2413.000000	100.141703
2412.000000	100.141996
2411.000000	100.142174
2410.000000	100.142183
2409.000000	100.142082
2408.000000	100.141938
2407.000000	100.141788
2406.000000	100.141654
2405.000000	100.141573
2404.000000	100.141573
2403.000000	100.141633
2402.000000	100.141682
2401.000000	100.141644
2400.000000	100.141490
2399.000000	100.141260
2398.000000	100.141011
2397.000000	100.140753
2396.000000	100.140470
2395.000000	100.140160
2394.000000	100.139826
2393.000000	100.139475
2392.000000	100.139111
2391.000000	100.138729
2390.000000	100.138324
2389.000000	100.137897
2388.000000	100.137451
2387.000000	100.136991
2386.000000	100.136519
2385.000000	100.136033
2384.000000	100.135527
2383.000000	100.134999
2382.000000	100.134451
2381.000000	100.133890
2380.000000	100.133324
2379.000000	100.132755
2378.000000	100.132184
2377.000000	100.131610
2376.000000	100.131034
2375.000000	100.130457
2374.000000	100.129877
2373.000000	100.129284
2372.000000	100.128670
2371.000000	100.128039
2370.000000	100.127406
2369.000000	100.126791
2368.000000	100.126205
2367.000000	100.125645
2366.000000	100.125096
2365.000000	100.124547
2364.000000	100.123990
2363.000000	100.123429
2362.000000	100.122869
2361.000000	100.122320
2360.000000	100.121792
2359.000000	100.121283
2358.000000	100.120787
2357.000000	100.120297
2356.000000	100.119815
2355.000000	100.119350
2354.000000	100.118916
2353.000000	100.118521
2352.000000	100.118165
2351.000000	100.117837
2350.000000	100.117533
2349.000000	100.117253
2348.000000	100.117004
2347.000000	100.116791
2346.000000	100.116615
2345.000000	100.116469
2344.000000	100.116350
2343.000000	100.116256
2342.000000	100.116189
2341.000000	100.116151
2340.000000	100.116144
2339.000000	100.116169
2338.000000	100.116221
2337.000000	100.116294
2336.000000	100.116383
2335.000000	100.116481
2334.000000	100.116585
2333.000000	100.116701
2332.000000	100.116838
2331.000000	100.117009
2330.000000	100.117225
2329.000000	100.117490
2328.000000	100.117793
2327.000000	100.118121
2326.000000	100.118459
2325.000000	100.118803
2324.000000	100.119159
2323.000000	100.119531
2322.000000	100.119918
2321.000000	100.120321
2320.000000	100.120739
2319.000000	100.121169
2318.000000	100.121609
2317.000000	100.122048
2316.000000	100.122473
2315.000000	100.122876
2314.000000	100.123261
2313.000000	100.123669
2312.000000	100.124140
2311.000000	100.124695
2310.000000	100.125302
2309.000000	100.125875
2308.000000	100.126334
2307.000000	100.126650
2306.000000	100.126884
2305.000000	100.127140
2304.000000	100.127471
2303.000000	100.127863
2302.000000	100.128264
2301.000000	100.128644
2300.000000	100.129002
2299.000000	100.129324
2298.000000	100.129553
2297.000000	100.129646
2296.000000	100.129609
2295.000000	100.129496
2294.000000	100.129380
2293.000000	100.129348
2292.000000	100.129462
2291.000000	100.129721
2290.000000	100.130027
2289.000000	100.130228
2288.000000	100.130201
2287.000000	100.129922
2286.000000	100.129503
2285.000000	100.129139
2284.000000	100.128951
2283.000000	100.128876
2282.000000	100.128741
2281.000000	100.128455
2280.000000	100.128078
2279.000000	100.127724
2278.000000	100.127460
2277.000000	100.127298
2276.000000	100.127157
2275.000000	100.126809
2274.000000	100.126007
2273.000000	100.124781
2272.000000	100.123510
2271.000000	100.122546
2270.000000	100.121850
2269.000000	100.121145
2268.000000	100.120341
2267.000000	100.119691
2266.000000	100.119440
2265.000000	100.119488
2264.000000	100.119465
2263.000000	100.119107
2262.000000	100.118404
2261.000000	100.117543
2260.000000	100.116741
2259.000000	100.116096
2258.000000	100.115600
2257.000000	100.115210
2256.000000	100.114863
2255.000000	100.114441
2254.000000	100.113818
2253.000000	100.113017
2252.000000	100.112260
2251.000000	100.111787
2250.000000	100.111604
2249.000000	100.111467
2248.000000	100.111127
2247.000000	100.110549
2246.000000	100.109892
2245.000000	100.109346
2244.000000	100.108993
2243.000000	100.108755
2242.000000	100.108431
2241.000000	100.107825
2240.000000	100.106947
2239.000000	100.106115
2238.000000	100.105753
2237.000000	100.105982
2236.000000	100.106485
2235.000000	100.106775
2234.000000	100.106692
2233.000000	100.106478
2232.000000	100.106437
2231.000000	100.106633
2230.000000	100.106935
2229.000000	100.107240
2228.000000	100.107505
2227.000000	100.107665
2226.000000	100.107664
2225.000000	100.107594
2224.000000	100.107658
2223.000000	100.107978
2222.000000	100.108509
2221.000000	100.109158
2220.000000	100.109862
2219.000000	100.110529
2218.000000	100.111028
2217.000000	100.111282
2216.000000	100.111353
2215.000000	100.111397
2214.000000	100.111546
2213.000000	100.111847
2212.000000	100.112273
2211.000000	100.112747
2210.000000	100.113205
2209.000000	100.113622
2208.000000	100.113988
2207.000000	100.114292
2206.000000	100.114551
2205.000000	100.114855
2204.000000	100.115300
2203.000000	100.115890
2202.000000	100.116533
2201.000000	100.117116
2200.000000	100.117615
2199.000000	100.118077
2198.000000	100.118554
2197.000000	100.119052
2196.000000	100.119559
2195.000000	100.120069
2194.000000	100.120569
2193.000000	100.121036
2192.000000	100.121448
2191.000000	100.121811
2190.000000	100.122155
2189.000000	100.122517
2188.000000	100.122920
2187.000000	100.123316
2186.000000	100.123595
2185.000000	100.123715
2184.000000	100.123812
2183.000000	100.124068
2182.000000	100.124457
2181.000000	100.124739
2180.000000	100.124735
2179.000000	100.124553
2178.000000	100.124457
2177.000000	100.124608
2176.000000	100.124978
2175.000000	100.125384
2174.000000	100.125514
2173.000000	100.125171
2172.000000	100.124653
2171.000000	100.124648
2170.000000	100.125509
2169.000000	100.126901
2168.000000	100.128257
2167.000000	100.129359
2166.000000	100.130253
2165.000000	100.130873
2164.000000	100.131131
2163.000000	100.131184
2162.000000	100.131277
2161.000000	100.131383
2160.000000	100.131281
2159.000000	100.130921
2158.000000	100.130501
2157.000000	100.130210
2156.000000	100.129993
2155.000000	100.129655
2154.000000	100.129144
2153.000000	100.128695
2152.000000	100.128628
2151.000000	100.128959
2150.000000	100.129304
2149.000000	100.129267
2148.000000	100.128889
2147.000000	100.128597
2146.000000	100.128708
2145.000000	100.129131
2144.000000	100.129549
2143.000000	100.129761
2142.000000	100.129816
2141.000000	100.129916
2140.000000	100.130226
2139.000000	100.130707
2138.000000	100.131128
2137.000000	100.131372
2136.000000	100.131709
2135.000000	100.132583
2134.000000	100.134054
2133.000000	100.135578
2132.000000	100.136470
2131.000000	100.136548
2130.000000	100.136266
2129.000000	100.136321
2128.000000	100.137036
2127.000000	100.138128
2126.000000	100.138990
2125.000000	100.139279
2124.000000	100.139218
2123.000000	100.139325
2122.000000	100.139834
2121.000000	100.140464
2120.000000	100.140757
2119.000000	100.140539
2118.000000	100.140000
2117.000000	100.139499
2116.000000	100.139336
2115.000000	100.139677
2114.000000	100.140527
2113.000000	100.141729
2112.000000	100.143052
2111.000000	100.144292
2110.000000	100.145273
2109.000000	100.145864
2108.000000	100.146099
2107.000000	100.146243
2106.000000	100.146550
2105.000000	100.146987
2104.000000	100.147352
2103.000000	100.147673
2102.000000	100.148267
2101.000000	100.149279
2100.000000	100.150364
2099.000000	100.151035
2098.000000	100.151221
2097.000000	100.151230
2096.000000	100.151206
2095.000000	100.150952
2094.000000	100.150413
2093.000000	100.150002
2092.000000	100.150193
2091.000000	100.150951
2090.000000	100.151767
2089.000000	100.152258
2088.000000	100.152526
2087.000000	100.152835
2086.000000	100.153201
2085.000000	100.153438
2084.000000	100.153440
2083.000000	100.153277
2082.000000	100.153120
2081.000000	100.153115
2080.000000	100.153216
2079.000000	100.153146
2078.000000	100.152700
2077.000000	100.152106
2076.000000	100.151905
2075.000000	100.152333
2074.000000	100.153054
2073.000000	100.153577
2072.000000	100.153824
2071.000000	100.154089
2070.000000	100.154556
2069.000000	100.155031
2068.000000	100.155159
2067.000000	100.154738
2066.000000	100.153809
2065.000000	100.152639
2064.000000	100.151625
2063.000000	100.151053
2062.000000	100.150940
2061.000000	100.151151
2060.000000	100.151594
2059.000000	100.152166
2058.000000	100.152565
2057.000000	100.152426
2056.000000	100.151677
2055.000000	100.150639
2054.000000	100.149682
2053.000000	100.148904
2052.000000	100.148242
2051.000000	100.147679
2050.000000	100.147201
2049.000000	100.146698
2048.000000	100.146055
2047.000000	100.145320
2046.000000	100.144659
2045.000000	100.144112
2044.000000	100.143398
2043.000000	100.142096
2042.000000	100.140148
2041.000000	100.138191
2040.000000	100.137110
2039.000000	100.137112
2038.000000	100.137445
2037.000000	100.137221
2036.000000	100.136430
2035.000000	100.135761
2034.000000	100.135512
2033.000000	100.135130
2032.000000	100.134012
2031.000000	100.132367
2030.000000	100.130981
2029.000000	100.130311
2028.000000	100.130031
2027.000000	100.129401
2026.000000	100.127927
2025.000000	100.125700
2024.000000	100.123232
2023.000000	100.120945
2022.000000	100.118839
2021.000000	100.116775
2020.000000	100.114978
2019.000000	100.113982
2018.000000	100.114015
2017.000000	100.114698
2016.000000	100.115425
2015.000000	100.115839
2014.000000	100.115738
2013.000000	100.114811
2012.000000	100.112854
2011.000000	100.110186
2010.000000	100.107571
2009.000000	100.105593
2008.000000	100.104298
2007.000000	100.103533
2006.000000	100.103357
2005.000000	100.103869
2004.000000	100.104767
2003.000000	100.105348
2002.000000	100.105091
2001.000000	100.104123
2000.000000	100.103068
1999.000000	100.102494
1998.000000	100.102510
1997.000000	100.102824
1996.000000	100.103010
1995.000000	100.102761
1994.000000	100.102059
1993.000000	100.101241
1992.000000	100.100767
1991.000000	100.100729
1990.000000	100.100680
1989.000000	100.100149
1988.000000	100.099204
1987.000000	100.098369
1986.000000	100.098020
1985.000000	100.098026
1984.000000	100.098045
1983.000000	100.097979
1982.000000	100.097984
1981.000000	100.098117
1980.000000	100.098164
1979.000000	100.097907
1978.000000	100.097416
1977.000000	100.096978
1976.000000	100.096769
1975.000000	100.096706
1974.000000	100.096608
1973.000000	100.096397
1972.000000	100.096072
1971.000000	100.095582
1970.000000	100.094862
1969.000000	100.094028
1968.000000	100.093423
1967.000000	100.093330
1966.000000	100.093703
1965.000000	100.094221
1964.000000	100.094619
1963.000000	100.094797
1962.000000	100.094658
1961.000000	100.094073
1960.000000	100.093133
1959.000000	100.092237
1958.000000	100.091672
1957.000000	100.091211
1956.000000	100.090391
1955.000000	100.089128
1954.000000	100.087822
1953.000000	100.086891
1952.000000	100.086501
1951.000000	100.086668
1950.000000	100.087221
1949.000000	100.087670
1948.000000	100.087556
1947.000000	100.087031
1946.000000	100.086720
1945.000000	100.086852
1944.000000	100.086905
1943.000000	100.086359
1942.000000	100.085436
1941.000000	100.084577
1940.000000	100.083561
1939.000000	100.081751
1938.000000	100.078994
1937.000000	100.075996
1936.000000	100.073828
1935.000000	100.073101
1934.000000	100.073553
1933.000000	100.074187
1932.000000	100.073963
1931.000000	100.072635
1930.000000	100.070932
1929.000000	100.069728
1928.000000	100.069001
1927.000000	100.067918
1926.000000	100.065966
1925.000000	100.063663
1924.000000	100.061998
1923.000000	100.061304
1922.000000	100.060901
1921.000000	100.059961
1920.000000	100.058471
1919.000000	100.057132
1918.000000	100.056427
1917.000000	100.055742
1916.000000	100.053756
1915.000000	100.049794
1914.000000	100.044420
1913.000000	100.038883
1912.000000	100.034259
1911.000000	100.031006
1910.000000	100.029077
1909.000000	100.027964
1908.000000	100.026725
1907.000000	100.024691
1906.000000	100.022247
1905.000000	100.020486
1904.000000	100.019845
1903.000000	100.019369
1902.000000	100.017622
1901.000000	100.014143
1900.000000	100.009773
1899.000000	100.005799
1898.000000	100.003013
1897.000000	100.001388
1896.000000	100.000234
1895.000000	99.998775
1894.000000	99.996844
1893.000000	99.994848
1892.000000	99.992983
1891.000000	99.990963
1890.000000	99.988766
1889.000000	99.987088
1888.000000	99.986236
1887.000000	99.985289
1886.000000	99.983216
1885.000000	99.980404
1884.000000	99.978470
1883.000000	99.978553
1882.000000	99.980227
1881.000000	99.982002
1880.000000	99.982288
1879.000000	99.980078
1878.000000	99.975700
1877.000000	99.971338
1876.000000	99.969795
1875.000000	99.971810
1874.000000	99.974930
1873.000000	99.975700
1872.000000	99.973066
1871.000000	99.969082
1870.000000	99.966717
1869.000000	99.967173
1868.000000	99.969011
1867.000000	99.970068
1866.000000	99.969693
1865.000000	99.968659
1864.000000	99.967928
1863.000000	99.967938
1862.000000	99.968728
1861.000000	99.970404
1860.000000	99.973191
1859.000000	99.977003
1858.000000	99.981197
1857.000000	99.985090
1856.000000	99.988691
1855.000000	99.992507
1854.000000	99.996524
1853.000000	99.999860
1852.000000	100.001857
1851.000000	100.003178
1850.000000	100.005219
1849.000000	100.008537
1848.000000	100.012308
1847.000000	100.015405
1846.000000	100.017539
1845.000000	100.019243
1844.000000	100.021041
1843.000000	100.022804
1842.000000	100.024127
1841.000000	100.024896
1840.000000	100.025369
1839.000000	100.026210
1838.000000	100.028065
1837.000000	100.030792
1836.000000	100.033406
1835.000000	100.034908
1834.000000	100.034956
1833.000000	100.033790
1832.000000	100.031980
1831.000000	100.030418
1830.000000	100.030151
1829.000000	100.031563
1828.000000	100.034087
1827.000000	100.037126
1826.000000	100.040149
1825.000000	100.041855
1824.000000	100.040811
1823.000000	100.037311
1822.000000	100.033647
1821.000000	100.032141
1820.000000	100.033317
1819.000000	100.035953
1818.000000	100.038461
1817.000000	100.039922
1816.000000	100.039915
1815.000000	100.038347
1814.000000	100.035917
1813.000000	100.034122
1812.000000	100.034098
1811.000000	100.035413
1810.000000	100.036536
1809.000000	100.036519
1808.000000	100.035494
1807.000000	100.033881
1806.000000	100.032052
1805.000000	100.030615
1804.000000	100.030108
1803.000000	100.030205
1802.000000	100.029806
1801.000000	100.028337
1800.000000	100.026660
1799.000000	100.026248
1798.000000	100.027805
1797.000000	100.030805
1796.000000	100.033799
1795.000000	100.035339
1794.000000	100.035104
1793.000000	100.034359
1792.000000	100.034905
1791.000000	100.037096
1790.000000	100.039899
1789.000000	100.042704
1788.000000	100.045627
1787.000000	100.048673
1786.000000	100.051534
1785.000000	100.053836
1784.000000	100.054997
1783.000000	100.054254
1782.000000	100.051799
1781.000000	100.049880
1780.000000	100.051352
1779.000000	100.056348
1778.000000	100.061943
1777.000000	100.065397
1776.000000	100.066368
1775.000000	100.066260
1774.000000	100.066615
1773.000000	100.068432
1772.000000	100.072182
1771.000000	100.077573
1770.000000	100.083570
1769.000000	100.089109
1768.000000	100.093362
1767.000000	100.095712
1766.000000	100.096446
1765.000000	100.097103
1764.000000	100.099570
1763.000000	100.104893
1762.000000	100.112414
1761.000000	100.120136
1760.000000	100.126464
1759.000000	100.130843
1758.000000	100.133133
1757.000000	100.134054
1756.000000	100.135536
1755.000000	100.138974
1754.000000	100.143929
1753.000000	100.149106
1752.000000	100.153598
1751.000000	100.157085
1750.000000	100.159496
1749.000000	100.161081
1748.000000	100.162579
1747.000000	100.164949
1746.000000	100.169046
1745.000000	100.175257
1744.000000	100.182730
1743.000000	100.188823
1742.000000	100.190495
1741.000000	100.186775
1740.000000	100.180296
1739.000000	100.175694
1738.000000	100.175198
1737.000000	100.176978
1736.000000	100.177543
1735.000000	100.173198
1734.000000	100.162979
1733.000000	100.152439
1732.000000	100.147648
1731.000000	100.148384
1730.000000	100.150638
1729.000000	100.151060
1728.000000	100.149334
1727.000000	100.147120
1726.000000	100.145382
1725.000000	100.143563
1724.000000	100.140849
1723.000000	100.137410
1722.000000	100.134038
1721.000000	100.131064
1720.000000	100.127902
1719.000000	100.123374
1718.000000	100.116788
1717.000000	100.109962
1716.000000	100.106272
1715.000000	100.106720
1714.000000	100.109287
1713.000000	100.111174
1712.000000	100.110824
1711.000000	100.108197
1710.000000	100.103978
1709.000000	100.099371
1708.000000	100.095755
1707.000000	100.093573
1706.000000	100.091843
1705.000000	100.089508
1704.000000	100.086860
1703.000000	100.084561
1702.000000	100.082292
1701.000000	100.078916
1700.000000	100.074297
1699.000000	100.070202
1698.000000	100.067721
1697.000000	100.065924
1696.000000	100.063591
1695.000000	100.060856
1694.000000	100.058632
1693.000000	100.057049
1692.000000	100.055225
1691.000000	100.052570
1690.000000	100.049885
1689.000000	100.048328
1688.000000	100.047677
1687.000000	100.046815
1686.000000	100.045337
1685.000000	100.043884
1684.000000	100.042988
1683.000000	100.042028
1682.000000	100.039978
1681.000000	100.037047
1680.000000	100.034423
1679.000000	100.033092
1678.000000	100.033109
1677.000000	100.033689
1676.000000	100.034026
1675.000000	100.033678
1674.000000	100.032669
1673.000000	100.031394
1672.000000	100.030030
1671.000000	100.028135
1670.000000	100.025363
1669.000000	100.022489
1668.000000	100.020742
1667.000000	100.020242
1666.000000	100.019974
1665.000000	100.018869
1664.000000	100.016945
1663.000000	100.015712
1662.000000	100.016587
1661.000000	100.018957
1660.000000	100.021055
1659.000000	100.021966
1658.000000	100.021921
1657.000000	100.021956
1656.000000	100.023117
1655.000000	100.026127
1654.000000	100.029474
1653.000000	100.027456
1652.000000	100.018784
1651.000000	100.009827
1650.000000	100.003895
1649.000000	99.998952
1648.000000	99.994028
1647.000000	99.991724
1646.000000	99.993354
1645.000000	99.995445
1644.000000	99.995548
1643.000000	99.994611
1642.000000	99.993739
1641.000000	99.993007
1640.000000	99.991855
1639.000000	99.989661
1638.000000	99.986078
1637.000000	99.981560
1636.000000	99.978409
1635.000000	99.979034
1634.000000	99.982027
1633.000000	99.984492
1632.000000	99.985128
1631.000000	99.983240
1630.000000	99.978698
1629.000000	99.972539
1628.000000	99.967286
1627.000000	99.965321
1626.000000	99.966384
1625.000000	99.968102
1624.000000	99.968802
1623.000000	99.969168
1622.000000	99.970551
1621.000000	99.972692
1620.000000	99.974558
1619.000000	99.975571
1618.000000	99.975567
1617.000000	99.974773
1616.000000	99.974585
1615.000000	99.976937
1614.000000	99.981637
1613.000000	99.986491
1612.000000	99.990318
1611.000000	99.994323
1610.000000	99.999995
1609.000000	100.006657
1608.000000	100.012751
1607.000000	100.018173
1606.000000	100.023494
1605.000000	100.028243
1604.000000	100.031598
1603.000000	100.034076
1602.000000	100.036875
1601.000000	100.039870
1600.000000	100.042048
1599.000000	100.043825
1598.000000	100.047195
1597.000000	100.053342
1596.000000	100.061221
1595.000000	100.068738
1594.000000	100.074654
1593.000000	100.079075
1592.000000	100.082641
1591.000000	100.085757
1590.000000	100.088424
1589.000000	100.090640
1588.000000	100.093008
1587.000000	100.096660
1586.000000	100.102116
1585.000000	100.108343
1584.000000	100.113476
1583.000000	100.116500
1582.000000	100.117873
1581.000000	100.118613
1580.000000	100.119086
1579.000000	100.118981
1578.000000	100.118415
1577.000000	100.119046
1576.000000	100.123133
1575.000000	100.130502
1574.000000	100.138495
1573.000000	100.144729
1572.000000	100.148044
1571.000000	100.148965
1570.000000	100.150162
1569.000000	100.154244
1568.000000	100.160466
1567.000000	100.166007
1566.000000	100.169239
1565.000000	100.170216
1564.000000	100.170298
1563.000000	100.170569
1562.000000	100.171539
1561.000000	100.174322
1560.000000	100.182294
1559.000000	100.195509
1558.000000	100.205758
1557.000000	100.207527
1556.000000	100.205409
1555.000000	100.205034
1554.000000	100.207914
1553.000000	100.212497
1552.000000	100.216485
1551.000000	100.219384
1550.000000	100.221756
1549.000000	100.223845
1548.000000	100.225114
1547.000000	100.225506
1546.000000	100.225797
1545.000000	100.226882
1544.000000	100.229388
1543.000000	100.232868
1542.000000	100.235038
1541.000000	100.231973
1540.000000	100.222573
1539.000000	100.212750
1538.000000	100.207662
1537.000000	100.206704
1536.000000	100.206717
1535.000000	100.204574
1534.000000	100.199555
1533.000000	100.193448
1532.000000	100.188097
1531.000000	100.183759
1530.000000	100.180382
1529.000000	100.178069
1528.000000	100.176407
1527.000000	100.174986
1526.000000	100.174060
1525.000000	100.174036
1524.000000	100.174543
1523.000000	100.174297
1522.000000	100.171651
1521.000000	100.166465
1520.000000	100.160806
1519.000000	100.156553
1518.000000	100.153864
1517.000000	100.152479
1516.000000	100.152980
1515.000000	100.155539
1514.000000	100.158870
1513.000000	100.160720
1512.000000	100.159258
1511.000000	100.155046
1510.000000	100.150527
1509.000000	100.147287
1508.000000	100.144936
1507.000000	100.142959
1506.000000	100.142238
1505.000000	100.142000
1504.000000	100.141802
1503.000000	100.141889
1502.000000	100.140917
1501.000000	100.137987
1500.000000	100.133580
1499.000000	100.129495
1498.000000	100.128165
1497.000000	100.130480
1496.000000	100.134096
1495.000000	100.136432
1494.000000	100.138275
1493.000000	100.141098
1492.000000	100.143607
1491.000000	100.142536
1490.000000	100.137050
1489.000000	100.131258
1488.000000	100.128766
1487.000000	100.128533
1486.000000	100.128294
1485.000000	100.127648
1484.000000	100.127528
1483.000000	100.128852
1482.000000	100.131904
1481.000000	100.136065
1480.000000	100.139910
1479.000000	100.142277
1478.000000	100.143159
1477.000000	100.143344
1476.000000	100.143689
1475.000000	100.145230
1474.000000	100.150064
1473.000000	100.160015
1472.000000	100.172337
1471.000000	100.181176
1470.000000	100.185073
1469.000000	100.187080
1468.000000	100.189690
1467.000000	100.192850
1466.000000	100.194974
1465.000000	100.195468
1464.000000	100.195537
1463.000000	100.196091
1462.000000	100.196759
1461.000000	100.197051
1460.000000	100.196977
1459.000000	100.196985
1458.000000	100.196785
1457.000000	100.193578
1456.000000	100.184604
1455.000000	100.172290
1454.000000	100.161841
1453.000000	100.156049
1452.000000	100.155449
1451.000000	100.158277
1450.000000	100.160414
1449.000000	100.158419
1448.000000	100.152467
1447.000000	100.145527
1446.000000	100.139727
1445.000000	100.135173
1444.000000	100.131572
1443.000000	100.128860
1442.000000	100.126695
1441.000000	100.124435
1440.000000	100.121659
1439.000000	100.118501
1438.000000	100.115633
1437.000000	100.114185
1436.000000	100.114219
1435.000000	100.113982
1434.000000	100.112615
1433.000000	100.111375
1432.000000	100.111949
1431.000000	100.114313
1430.000000	100.115798
1429.000000	100.114054
1428.000000	100.110108
1427.000000	100.106543
1426.000000	100.104428
1425.000000	100.103464
1424.000000	100.103849
1423.000000	100.105752
1422.000000	100.107535
1421.000000	100.106963
1420.000000	100.104105
1419.000000	100.102430
1418.000000	100.104863
1417.000000	100.110097
1416.000000	100.115847
1415.000000	100.121697
1414.000000	100.127668
1413.000000	100.132802
1412.000000	100.135905
1411.000000	100.137067
1410.000000	100.137314
1409.000000	100.137164
1408.000000	100.136678
1407.000000	100.136663
1406.000000	100.138762
1405.000000	100.143668
1404.000000	100.149657
1403.000000	100.154075
1402.000000	100.156267
1401.000000	100.157919
1400.000000	100.161275
1399.000000	100.167328
1398.000000	100.174922
1397.000000	100.181990
1396.000000	100.187176
1395.000000	100.190137
1394.000000	100.191422
1393.000000	100.191834
1392.000000	100.191692
1391.000000	100.190863
1390.000000	100.189563
1389.000000	100.189123
1388.000000	100.191343
1387.000000	100.196448
1386.000000	100.202393
1385.000000	100.207134
1384.000000	100.210353
1383.000000	100.212716
1382.000000	100.215055
1381.000000	100.218282
1380.000000	100.222757
1379.000000	100.227208
1378.000000	100.229251
1377.000000	100.227780
1376.000000	100.224300
1375.000000	100.221698
1374.000000	100.221611
1373.000000	100.223174
1372.000000	100.224747
1371.000000	100.225786
1370.000000	100.226489
1369.000000	100.227038
1368.000000	100.227711
1367.000000	100.228653
1366.000000	100.229097
1365.000000	100.227701
1364.000000	100.224148
1363.000000	100.220297
1362.000000	100.218635
1361.000000	100.219424
1360.000000	100.221163
1359.000000	100.223101
1358.000000	100.225559
1357.000000	100.228462
1356.000000	100.230724
1355.000000	100.231220
1354.000000	100.229894
1353.000000	100.227685
1352.000000	100.225642
1351.000000	100.224276
1350.000000	100.223703
1349.000000	100.223988
1348.000000	100.225106
1347.000000	100.226568
1346.000000	100.227374
1345.000000	100.226857
1344.000000	100.225543
1343.000000	100.224663
1342.000000	100.224733
1341.000000	100.225198
1340.000000	100.225590
1339.000000	100.226291
1338.000000	100.227453
1337.000000	100.228127
1336.000000	100.227474
1335.000000	100.226033
1334.000000	100.225077
1333.000000	100.225119
1332.000000	100.225802
1331.000000	100.226913
1330.000000	100.228462
1329.000000	100.229757
1328.000000	100.229516
1327.000000	100.227283
1326.000000	100.224098
1325.000000	100.221547
1324.000000	100.220702
1323.000000	100.222012
1322.000000	100.225262
1321.000000	100.229227
1320.000000	100.232053
1319.000000	100.232464
1318.000000	100.230532
1317.000000	100.227331
1316.000000	100.224348
1315.000000	100.223082
1314.000000	100.224170
1313.000000	100.226530
1312.000000	100.228147
1311.000000	100.228065
1310.000000	100.227022
1309.000000	100.226129
1308.000000	100.225762
1307.000000	100.225831
1306.000000	100.226156
1305.000000	100.226178
1304.000000	100.225188
1303.000000	100.223472
1302.000000	100.222641
1301.000000	100.224088
1300.000000	100.227345
1299.000000	100.230494
1298.000000	100.232032
1297.000000	100.231949
1296.000000	100.231126
1295.000000	100.230064
1294.000000	100.228376
1293.000000	100.225576
1292.000000	100.222287
1291.000000	100.220103
1290.000000	100.219875
1289.000000	100.220472
1288.000000	100.219843
1287.000000	100.217134
1286.000000	100.213186
1285.000000	100.209301
1284.000000	100.206422
1283.000000	100.205328
1282.000000	100.206342
1281.000000	100.208407
1280.000000	100.209333
1279.000000	100.207652
1278.000000	100.203942
1277.000000	100.199956
1276.000000	100.196738
1275.000000	100.194002
1274.000000	100.191276
1273.000000	100.189215
1272.000000	100.189405
1271.000000	100.192585
1270.000000	100.197385
1269.000000	100.201421
1268.000000	100.203501
1267.000000	100.204111
1266.000000	100.204095
1265.000000	100.203945
1264.000000	100.204353
1263.000000	100.205968
1262.000000	100.208031
1261.000000	100.208560
1260.000000	100.206673
1259.000000	100.203653
1258.000000	100.200991
1257.000000	100.198502
1256.000000	100.194998
1255.000000	100.189352
1254.000000	100.180229
1253.000000	100.166803
1252.000000	100.151202
1251.000000	100.138436
1250.000000	100.131660
1249.000000	100.128671
1248.000000	100.125017
1247.000000	100.119056
1246.000000	100.111642
1245.000000	100.102415
1244.000000	100.089850
1243.000000	100.074737
1242.000000	100.060354
1241.000000	100.048514
1240.000000	100.037840
1239.000000	100.026597
1238.000000	100.015074
1237.000000	100.004341
1236.000000	99.994173
1235.000000	99.982943
1234.000000	99.968645
1233.000000	99.950155
1232.000000	99.928590
1231.000000	99.907005
1230.000000	99.887109
1229.000000	99.866649
1228.000000	99.841921
1227.000000	99.812387
1226.000000	99.780768
1225.000000	99.748915
1224.000000	99.715944
1223.000000	99.680595
1222.000000	99.642910
1221.000000	99.602861
1220.000000	99.559345
1219.000000	99.511241
1218.000000	99.457903
1217.000000	99.398425
1216.000000	99.332349
1215.000000	99.261638
1214.000000	99.190189
1213.000000	99.120741
1212.000000	99.053524
1211.000000	98.987734
1210.000000	98.922550
1209.000000	98.857068
1208.000000	98.791232
1207.000000	98.726755
1206.000000	98.665345
1205.000000	98.606194
1204.000000	98.546966
1203.000000	98.486862
1202.000000	98.426871
1201.000000	98.367298
1200.000000	98.306921
1199.000000	98.244667
1198.000000	98.180657
1197.000000	98.115540
1196.000000	98.050013
1195.000000	97.985028
1194.000000	97.921398
1193.000000	97.858962
1192.000000	97.796611
1191.000000	97.733231
1190.000000	97.668579
1189.000000	97.603470
1188.000000	97.538684
1187.000000	97.473148
1186.000000	97.404128
1185.000000	97.330659
1184.000000	97.255839
1183.000000	97.183522
1182.000000	97.113138
1181.000000	97.040156
1180.000000	96.961443
1179.000000	96.877779
1178.000000	96.791515
1177.000000	96.704840
1176.000000	96.620187
1175.000000	96.538637
1174.000000	96.457253
1173.000000	96.371334
1172.000000	96.279766
1171.000000	96.184878
1170.000000	96.087481
1169.000000	95.987026
1168.000000	95.887379
1167.000000	95.797038
1166.000000	95.721799
1165.000000	95.662281
1164.000000	95.620767
1163.000000	95.604895
1162.000000	95.620392
1161.000000	95.662444
1160.000000	95.715610
1159.000000	95.760179
1158.000000	95.779917
1157.000000	95.768966
1156.000000	95.733365
1155.000000	95.683407
1154.000000	95.623664
1153.000000	95.553207
1152.000000	95.474506
1151.000000	95.395512
1150.000000	95.320997
1149.000000	95.247767
1148.000000	95.171697
1147.000000	95.094424
1146.000000	95.019557
1145.000000	94.946678
1144.000000	94.872985
1143.000000	94.797651
1142.000000	94.721431
1141.000000	94.644709
1140.000000	94.568240
1139.000000	94.492988
1138.000000	94.417601
1137.000000	94.339119
1136.000000	94.257208
1135.000000	94.174195
1134.000000	94.090572
1133.000000	94.004956
1132.000000	93.918782
1131.000000	93.835367
1130.000000	93.753296
1129.000000	93.666808
1128.000000	93.574489
1127.000000	93.481759
1126.000000	93.392815
1125.000000	93.305809
1124.000000	93.217817
1123.000000	93.128405
1122.000000	93.036287
1121.000000	92.938899
1120.000000	92.837971
1119.000000	92.739557
1118.000000	92.646078
1117.000000	92.554241
1116.000000	92.462156
1115.000000	92.371527
1114.000000	92.281716
1113.000000	92.190126
1112.000000	92.100172
1111.000000	92.019490
1110.000000	91.947601
1109.000000	91.874370
1108.000000	91.793639
1107.000000	91.709345
1106.000000	91.625285
1105.000000	91.539162
1104.000000	91.451207
1103.000000	91.368696
1102.000000	91.295796
1101.000000	91.226934
1100.000000	91.155464
1099.000000	91.081420
1098.000000	91.006122
1097.000000	90.926984
1096.000000	90.843105
1095.000000	90.759561
1094.000000	90.681543
1093.000000	90.609858
1092.000000	90.544888
1091.000000	90.487903
1090.000000	90.435700
1089.000000	90.381459
1088.000000	90.323929
1087.000000	90.268792
1086.000000	90.218927
1085.000000	90.170988
1084.000000	90.123540
1083.000000	90.080335
1082.000000	90.043046
1081.000000	90.008395
1080.000000	89.974266
1079.000000	89.941049
1078.000000	89.905804
1077.000000	89.863131
1076.000000	89.812596
1075.000000	89.756975
1074.000000	89.693104
1073.000000	89.613521
1072.000000	89.517062
1071.000000	89.408418
1070.000000	89.287254
1069.000000	89.147919
1068.000000	88.990501
1067.000000	88.822032
1066.000000	88.646198
1065.000000	88.462568
1064.000000	88.276664
1063.000000	88.098881
1062.000000	87.931873
1061.000000	87.770580
1060.000000	87.615190
1059.000000	87.470875
1058.000000	87.333731
1057.000000	87.191448
1056.000000	87.040341
1055.000000	86.887976
1054.000000	86.736385
1053.000000	86.576855
1052.000000	86.405272
1051.000000	86.228299
1050.000000	86.049723
1049.000000	85.865708
1048.000000	85.677415
1047.000000	85.491689
1046.000000	85.306333
1045.000000	85.111605
1044.000000	84.908559
1043.000000	84.709966
1042.000000	84.521140
1041.000000	84.336029
1040.000000	84.154191
1039.000000	83.983501
1038.000000	83.822481
1037.000000	83.659303
1036.000000	83.494503
1035.000000	83.346090
1034.000000	83.224581
1033.000000	83.119956
1032.000000	83.020074
1031.000000	82.925731
1030.000000	82.840048
1029.000000	82.759163
1028.000000	82.681907
1027.000000	82.614557
1026.000000	82.558317
1025.000000	82.504999
1024.000000	82.451063
1023.000000	82.403053
1022.000000	82.363934
1021.000000	82.326832
1020.000000	82.286585
1019.000000	82.244922
1018.000000	82.201225
1017.000000	82.151633
1016.000000	82.099676
1015.000000	82.053533
1014.000000	82.010487
1013.000000	81.958837
1012.000000	81.897579
1011.000000	81.839254
1010.000000	81.791350
1009.000000	81.750684
1008.000000	81.717862
1007.000000	81.699749
1006.000000	81.693951
1005.000000	81.687856
1004.000000	81.677906
1003.000000	81.674190
1002.000000	81.681516
1001.000000	81.691470
1000.000000	81.697971
999.000000	81.706101
998.000000	81.720819
997.000000	81.740726
996.000000	81.766842
995.000000	81.803957
994.000000	81.849664
993.000000	81.895022
992.000000	81.938659
991.000000	81.987204
990.000000	82.040594
989.000000	82.091732
988.000000	82.142784
987.000000	82.206972
986.000000	82.290936
985.000000	82.388374
984.000000	82.492948
983.000000	82.604537
982.000000	82.721963
981.000000	82.843577
980.000000	82.976066
979.000000	83.128789
978.000000	83.298444
977.000000	83.472746
976.000000	83.649073
975.000000	83.834960
974.000000	84.030808
973.000000	84.228303
972.000000	84.426843
971.000000	84.635295
970.000000	84.854757
969.000000	85.074188
968.000000	85.286025
967.000000	85.493032
966.000000	85.697744
965.000000	85.898040
964.000000	86.095144
963.000000	86.293723
962.000000	86.492164
961.000000	86.683753
960.000000	86.867647
959.000000	87.047295
958.000000	87.219238
957.000000	87.376764
956.000000	87.524226
955.000000	87.673536
954.000000	87.825348
953.000000	87.967569
952.000000	88.094027
951.000000	88.210818
950.000000	88.322500
949.000000	88.426095
948.000000	88.522064
947.000000	88.617737
946.000000	88.715185
945.000000	88.807145
944.000000	88.888874
943.000000	88.963198
942.000000	89.031259
941.000000	89.090079
940.000000	89.143055
939.000000	89.201334
938.000000	89.269946
937.000000	89.342417
936.000000	89.412607
935.000000	89.481382
934.000000	89.548356
933.000000	89.608485
932.000000	89.661846
931.000000	89.716897
930.000000	89.778960
929.000000	89.843947
928.000000	89.907465
927.000000	89.971205
926.000000	90.036171
925.000000	90.098233
924.000000	90.155089
923.000000	90.210563
922.000000	90.268257
921.000000	90.327101
920.000000	90.385272
919.000000	90.441696
918.000000	90.492268
917.000000	90.532531
916.000000	90.566415
915.000000	90.605236
914.000000	90.655995
913.000000	90.716960
912.000000	90.785314
911.000000	90.862061
910.000000	90.949404
909.000000	91.050685
908.000000	91.172123
907.000000	91.316452
906.000000	91.475777
905.000000	91.639400
904.000000	91.807386
903.000000	91.986861
902.000000	92.177257
901.000000	92.370283
900.000000	92.562942
899.000000	92.758500
898.000000	92.954411
897.000000	93.141173
896.000000	93.314686
895.000000	93.479425
894.000000	93.637929
893.000000	93.786979
892.000000	93.926160
891.000000	94.061081
890.000000	94.195587
889.000000	94.328284
888.000000	94.458377
887.000000	94.587535
886.000000	94.714811
885.000000	94.837106
884.000000	94.955677
883.000000	95.075110
882.000000	95.195613
881.000000	95.314013
880.000000	95.432043
879.000000	95.554460
878.000000	95.678153
877.000000	95.792935
876.000000	95.895663
875.000000	95.995501
874.000000	96.103369
873.000000	96.223246
872.000000	96.354030
871.000000	96.490837
870.000000	96.623142
869.000000	96.740926
868.000000	96.845879
867.000000	96.950254
866.000000	97.062759
865.000000	97.180977
864.000000	97.298057
863.000000	97.410271
862.000000	97.516186
861.000000	97.614258
860.000000	97.705104
859.000000	97.792891
858.000000	97.881687
857.000000	97.971803
856.000000	98.059638
855.000000	98.139097
854.000000	98.204938
853.000000	98.258311
852.000000	98.307570
851.000000	98.359569
850.000000	98.411150
849.000000	98.453302
848.000000	98.482730
847.000000	98.505348
846.000000	98.529137
845.000000	98.556582
844.000000	98.582485
843.000000	98.596061
842.000000	98.588093
841.000000	98.560330
840.000000	98.524883
839.000000	98.489791
838.000000	98.449036
837.000000	98.392868
836.000000	98.324216
835.000000	98.256986
834.000000	98.199976
833.000000	98.151141
832.000000	98.107984
831.000000	98.075089
830.000000	98.058711
829.000000	98.058736
828.000000	98.066273
827.000000	98.066021
826.000000	98.047295
825.000000	98.021844
824.000000	98.022806
823.000000	98.069211
822.000000	98.135228
821.000000	98.173208
820.000000	98.164685
819.000000	98.131951
818.000000	98.103056
817.000000	98.082639
816.000000	98.058468
815.000000	98.018925
814.000000	97.954257
813.000000	97.851176
812.000000	97.698175
811.000000	97.493530
810.000000	97.240928
809.000000	96.939561
808.000000	96.584817
807.000000	96.177852
806.000000	95.731091
805.000000	95.266445
804.000000	94.809706
803.000000	94.381335
802.000000	93.989931
801.000000	93.641086
800.000000	93.353706
799.000000	93.156295
798.000000	93.062097
797.000000	93.056730
796.000000	93.113038
795.000000	93.207959
794.000000	93.323310
793.000000	93.443835
792.000000	93.561200
791.000000	93.671397
790.000000	93.764133
789.000000	93.822875
788.000000	93.839069
787.000000	93.818904
786.000000	93.772106
785.000000	93.699836
784.000000	93.596564
783.000000	93.458974
782.000000	93.292890
781.000000	93.118929
780.000000	92.972202
779.000000	92.886722
778.000000	92.874837
777.000000	92.925511
776.000000	93.021200
775.000000	93.148775
774.000000	93.296913
773.000000	93.455337
772.000000	93.617881
771.000000	93.776922
770.000000	93.916005
769.000000	94.019550
768.000000	94.090632
767.000000	94.148549
766.000000	94.207153
765.000000	94.264665
764.000000	94.315170
763.000000	94.359047
762.000000	94.399702
761.000000	94.440011
760.000000	94.484813
759.000000	94.538489
758.000000	94.598724
757.000000	94.661207
756.000000	94.729991
755.000000	94.812281
754.000000	94.902876
753.000000	94.986354
752.000000	95.056447
751.000000	95.121293
750.000000	95.187521
749.000000	95.252251
748.000000	95.315309
747.000000	95.386602
746.000000	95.474294
745.000000	95.576023
744.000000	95.688529
743.000000	95.815619
742.000000	95.958236
741.000000	96.104985
740.000000	96.241331
739.000000	96.363325
738.000000	96.476804
737.000000	96.588798
736.000000	96.704429
735.000000	96.825267
734.000000	96.944056
733.000000	97.045898
732.000000	97.120720
731.000000	97.171646
730.000000	97.207775
729.000000	97.233912
728.000000	97.252878
727.000000	97.272725
726.000000	97.303359
725.000000	97.346982
724.000000	97.397527
723.000000	97.449429
722.000000	97.503018
721.000000	97.561236
720.000000	97.624084
719.000000	97.687510
718.000000	97.747259
717.000000	97.803323
716.000000	97.859549
715.000000	97.918032
714.000000	97.975315
713.000000	98.025835
712.000000	98.067383
711.000000	98.100545
710.000000	98.124416
709.000000	98.136053
708.000000	98.133040
707.000000	98.114271
706.000000	98.080005
705.000000	98.033589
704.000000	97.979633
703.000000	97.915201
702.000000	97.824730
701.000000	97.688699
700.000000	97.497113
699.000000	97.255064
698.000000	96.984069
697.000000	96.725062
696.000000	96.530805
695.000000	96.439141
694.000000	96.450831
693.000000	96.537801
692.000000	96.668603
691.000000	96.819098
690.000000	96.966795
689.000000	97.093736
688.000000	97.199487
687.000000	97.298494
686.000000	97.399148
685.000000	97.494697
684.000000	97.576068
683.000000	97.642970
682.000000	97.700521
681.000000	97.754200
680.000000	97.810117
679.000000	97.872408
678.000000	97.938500
677.000000	98.003304
676.000000	98.066568
675.000000	98.129972
674.000000	98.188477
673.000000	98.233863
672.000000	98.266173
671.000000	98.292576
670.000000	98.317811
669.000000	98.347619
668.000000	98.398491
667.000000	98.478473
666.000000	98.562740
665.000000	98.619924
664.000000	98.645078
663.000000	98.658124
662.000000	98.682254
661.000000	98.722738
660.000000	98.769052
659.000000	98.810222
658.000000	98.839749
657.000000	98.855303
656.000000	98.860927
655.000000	98.863702
654.000000	98.863067
653.000000	98.851664
652.000000	98.831424
651.000000	98.817263
650.000000	98.818086
