4000.000000	98.146492
3999.000000	98.145906
3998.000000	98.145765
3997.000000	98.146046
3996.000000	98.146280
3995.000000	98.145925
3994.000000	98.144807
3993.000000	98.143286
3992.000000	98.142098
3991.000000	98.141763
3990.000000	98.142256
3989.000000	98.143013
3988.000000	98.143312
3987.000000	98.142986
3986.000000	98.142582
3985.000000	98.142665
3984.000000	98.142995
3983.000000	98.142739
3982.000000	98.141443
3981.000000	98.139444
3980.000000	98.137244
3979.000000	98.134951
3978.000000	98.132625
3977.000000	98.130793
3976.000000	98.130175
3975.000000	98.130913
3974.000000	98.132319
3973.000000	98.133391
3972.000000	98.133545
3971.000000	98.132962
3970.000000	98.132425
3969.000000	98.132621
3968.000000	98.133500
3967.000000	98.134294
3966.000000	98.134260
3965.000000	98.133284
3964.000000	98.131857
3963.000000	98.130726
3962.000000	98.130489
3961.000000	98.131362
3960.000000	98.132947
3959.000000	98.134302
3958.000000	98.134684
3957.000000	98.134050
3956.000000	98.132815
3955.000000	98.131322
3954.000000	98.129827
3953.000000	98.128606
3952.000000	98.127863
3951.000000	98.127557
3950.000000	98.127311
3949.000000	98.126644
3948.000000	98.125441
3947.000000	98.124235
3946.000000	98.123673
3945.000000	98.123797
3944.000000	98.124112
3943.000000	98.124305
3942.000000	98.124501
3941.000000	98.124817
3940.000000	98.124917
3939.000000	98.124478
3938.000000	98.123724
3937.000000	98.123168
3936.000000	98.123021
3935.000000	98.123038
3934.000000	98.122917
3933.000000	98.122592
3932.000000	98.122124
3931.000000	98.121580
3930.000000	98.121019
3929.000000	98.120574
3928.000000	98.120271
3927.000000	98.120014
3926.000000	98.119708
3925.000000	98.119362
3924.000000	98.119015
3923.000000	98.118667
3922.000000	98.118291
3921.000000	98.117876
3920.000000	98.117429
3919.000000	98.116966
3918.000000	98.116494
3917.000000	98.116015
3916.000000	98.115541
3915.000000	98.115093
3914.000000	98.114686
3913.000000	98.114311
3912.000000	98.113943
3911.000000	98.113566
3910.000000	98.113183
3909.000000	98.112809
3908.000000	98.112446
3907.000000	98.112082
3906.000000	98.111710
3905.000000	98.111337
3904.000000	98.110977
3903.000000	98.110633
3902.000000	98.110297
3901.000000	98.109945
3900.000000	98.109561
3899.000000	98.109150
3898.000000	98.108731
3897.000000	98.108317
3896.000000	98.107903
3895.000000	98.107474
3894.000000	98.107037
3893.000000	98.106620
3892.000000	98.106252
3891.000000	98.105959
3890.000000	98.105765
3889.000000	98.105673
3888.000000	98.105648
3887.000000	98.105652
3886.000000	98.105666
3885.000000	98.105704
3884.000000	98.105776
3883.000000	98.105865
3882.000000	98.105945
3881.000000	98.106015
3880.000000	98.106092
3879.000000	98.106197
3878.000000	98.106323
3877.000000	98.106446
3876.000000	98.106552
3875.000000	98.106652
3874.000000	98.106770
3873.000000	98.106918
3872.000000	98.107077
3871.000000	98.107220
3870.000000	98.107354
3869.000000	98.107516
3868.000000	98.107721
3867.000000	98.107936
3866.000000	98.108133
3865.000000	98.108325
3864.000000	98.108533
3863.000000	98.108741
3862.000000	98.108917
3861.000000	98.109061
3860.000000	98.109204
3859.000000	98.109370
3858.000000	98.109571
3857.000000	98.109818
3856.000000	98.110122
3855.000000	98.110479
3854.000000	98.110862
3853.000000	98.111259
3852.000000	98.111689
3851.000000	98.112129
3850.000000	98.112518
3849.000000	98.112816
3848.000000	98.113017
3847.000000	98.113138
3846.000000	98.113202
3845.000000	98.113229
3844.000000	98.113224
3843.000000	98.113185
3842.000000	98.113122
3841.000000	98.113063
3840.000000	98.113033
3839.000000	98.113036
3838.000000	98.113059
3837.000000	98.113097
3836.000000	98.113158
3835.000000	98.113254
3834.000000	98.113392
3833.000000	98.113567
3832.000000	98.113770
3831.000000	98.113988
3830.000000	98.114216
3829.000000	98.114456
3828.000000	98.114706
3827.000000	98.114957
3826.000000	98.115205
3825.000000	98.115464
3824.000000	98.115747
3823.000000	98.116041
3822.000000	98.116322
3821.000000	98.116596
3820.000000	98.116913
3819.000000	98.117306
3818.000000	98.117742
3817.000000	98.118179
3816.000000	98.118611
3815.000000	98.119057
3814.000000	98.119516
3813.000000	98.119951
3812.000000	98.120345
3811.000000	98.120723
3810.000000	98.121111
3809.000000	98.121508
3808.000000	98.121908
3807.000000	98.122327
3806.000000	98.122798
3805.000000	98.123333
3804.000000	98.123906
3803.000000	98.124483
3802.000000	98.125057
3801.000000	98.125653
3800.000000	98.126285
3799.000000	98.126919
3798.000000	98.127502
3797.000000	98.128021
3796.000000	98.128505
3795.000000	98.128980
3794.000000	98.129445
3793.000000	98.129883
3792.000000	98.130277
3791.000000	98.130614
3790.000000	98.130892
3789.000000	98.131119
3788.000000	98.131308
3787.000000	98.131458
3786.000000	98.131555
3785.000000	98.131604
3784.000000	98.131632
3783.000000	98.131657
3782.000000	98.131665
3781.000000	98.131645
3780.000000	98.131603
3779.000000	98.131545
3778.000000	98.131454
3777.000000	98.131293
3776.000000	98.131045
3775.000000	98.130716
3774.000000	98.130316
3773.000000	98.129839
3772.000000	98.129281
3771.000000	98.128656
3770.000000	98.127998
3769.000000	98.127330
3768.000000	98.126646
3767.000000	98.125930
3766.000000	98.125184
3765.000000	98.124423
3764.000000	98.123654
3763.000000	98.122856
3762.000000	98.122015
3761.000000	98.121140
3760.000000	98.120253
3759.000000	98.119354
3758.000000	98.118425
3757.000000	98.117465
3756.000000	98.116498
3755.000000	98.115544
3754.000000	98.114594
3753.000000	98.113624
3752.000000	98.112620
3751.000000	98.111571
3750.000000	98.110477
3749.000000	98.109361
3748.000000	98.108249
3747.000000	98.107134
3746.000000	98.105982
3745.000000	98.104771
3744.000000	98.103519
3743.000000	98.102266
3742.000000	98.100993
3741.000000	98.099647
3740.000000	98.098220
3739.000000	98.096744
3738.000000	98.095237
3737.000000	98.093692
3736.000000	98.092106
3735.000000	98.090492
3734.000000	98.088854
3733.000000	98.087187
3732.000000	98.085488
3731.000000	98.083761
3730.000000	98.081994
3729.000000	98.080163
3728.000000	98.078249
3727.000000	98.076251
3726.000000	98.074174
3725.000000	98.072016
3724.000000	98.069765
3723.000000	98.067417
3722.000000	98.065016
3721.000000	98.062513
3720.000000	98.059969
3719.000000	98.057410
3718.000000	98.054693
3717.000000	98.051705
3716.000000	98.048531
3715.000000	98.045067
3714.000000	98.041034
3713.000000	98.036410
3712.000000	98.031300
3711.000000	98.025952
3710.000000	98.021055
3709.000000	98.017004
3708.000000	98.013336
3707.000000	98.009382
3706.000000	98.005030
3705.000000	98.000427
3704.000000	97.995514
3703.000000	97.989886
3702.000000	97.983169
3701.000000	97.976183
3700.000000	97.970720
3699.000000	97.966722
3698.000000	97.961876
3697.000000	97.955055
3696.000000	97.947621
3695.000000	97.940733
3694.000000	97.933657
3693.000000	97.925875
3692.000000	97.918377
3691.000000	97.911642
3690.000000	97.904047
3689.000000	97.894277
3688.000000	97.884683
3687.000000	97.878168
3686.000000	97.873190
3685.000000	97.866158
3684.000000	97.856727
3683.000000	97.847022
3682.000000	97.837660
3681.000000	97.826895
3680.000000	97.814252
3679.000000	97.802069
3678.000000	97.792090
3677.000000	97.783139
3676.000000	97.772445
3675.000000	97.760258
3674.000000	97.750070
3673.000000	97.741688
3672.000000	97.732009
3671.000000	97.720876
3670.000000	97.710002
3669.000000	97.700758
3668.000000	97.693346
3667.000000	97.685704
3666.000000	97.676491
3665.000000	97.666446
3664.000000	97.656049
3663.000000	97.644191
3662.000000	97.629664
3661.000000	97.613246
3660.000000	97.597999
3659.000000	97.586412
3658.000000	97.577260
3657.000000	97.566168
3656.000000	97.551294
3655.000000	97.538074
3654.000000	97.528875
3653.000000	97.518366
3652.000000	97.504913
3651.000000	97.494041
3650.000000	97.486746
3649.000000	97.476546
3648.000000	97.461878
3647.000000	97.449109
3646.000000	97.442401
3645.000000	97.438698
3644.000000	97.432850
3643.000000	97.423922
3642.000000	97.415956
3641.000000	97.411867
3640.000000	97.409054
3639.000000	97.401939
3638.000000	97.390383
3637.000000	97.379372
3636.000000	97.369582
3635.000000	97.356033
3634.000000	97.338115
3633.000000	97.323732
3632.000000	97.316960
3631.000000	97.312820
3630.000000	97.303248
3629.000000	97.283841
3628.000000	97.268333
3627.000000	97.271699
3626.000000	97.277878
3625.000000	97.271542
3624.000000	97.262417
3623.000000	97.262408
3622.000000	97.270144
3621.000000	97.277111
3620.000000	97.278519
3619.000000	97.274576
3618.000000	97.269702
3617.000000	97.268083
3616.000000	97.268960
3615.000000	97.270752
3614.000000	97.274892
3613.000000	97.284234
3612.000000	97.299332
3611.000000	97.315470
3610.000000	97.325960
3609.000000	97.329832
3608.000000	97.331930
3607.000000	97.336733
3606.000000	97.343004
3605.000000	97.346544
3604.000000	97.347420
3603.000000	97.348526
3602.000000	97.349621
3601.000000	97.347855
3600.000000	97.343294
3599.000000	97.338421
3598.000000	97.334366
3597.000000	97.332831
3596.000000	97.334668
3595.000000	97.337684
3594.000000	97.338371
3593.000000	97.336753
3592.000000	97.334540
3591.000000	97.333694
3590.000000	97.335306
3589.000000	97.339207
3588.000000	97.342087
3587.000000	97.341340
3586.000000	97.338772
3585.000000	97.335576
3584.000000	97.331820
3583.000000	97.330903
3582.000000	97.335656
3581.000000	97.343320
3580.000000	97.347403
3579.000000	97.344373
3578.000000	97.335843
3577.000000	97.326725
3576.000000	97.320468
3575.000000	97.316508
3574.000000	97.311488
3573.000000	97.302741
3572.000000	97.290543
3571.000000	97.277976
3570.000000	97.269017
3569.000000	97.265721
3568.000000	97.266295
3567.000000	97.265967
3566.000000	97.262667
3565.000000	97.258462
3564.000000	97.255387
3563.000000	97.254596
3562.000000	97.255846
3561.000000	97.256592
3560.000000	97.254196
3559.000000	97.249187
3558.000000	97.244534
3557.000000	97.242060
3556.000000	97.240824
3555.000000	97.238171
3554.000000	97.232421
3553.000000	97.224661
3552.000000	97.218123
3551.000000	97.214867
3550.000000	97.213728
3549.000000	97.212264
3548.000000	97.210257
3547.000000	97.209249
3546.000000	97.209392
3545.000000	97.209146
3544.000000	97.207540
3543.000000	97.204924
3542.000000	97.201928
3541.000000	97.198753
3540.000000	97.195612
3539.000000	97.192897
3538.000000	97.190900
3537.000000	97.189561
3536.000000	97.188615
3535.000000	97.187692
3534.000000	97.186236
3533.000000	97.183814
3532.000000	97.180537
3531.000000	97.177104
3530.000000	97.173990
3529.000000	97.171138
3528.000000	97.168354
3527.000000	97.165887
3526.000000	97.164087
3525.000000	97.162946
3524.000000	97.162154
3523.000000	97.161247
3522.000000	97.159757
3521.000000	97.157378
3520.000000	97.154159
3519.000000	97.150519
3518.000000	97.147125
3517.000000	97.144628
3516.000000	97.143355
3515.000000	97.143271
3514.000000	97.143945
3513.000000	97.144457
3512.000000	97.143593
3511.000000	97.140801
3510.000000	97.136695
3509.000000	97.132474
3508.000000	97.128774
3507.000000	97.125372
3506.000000	97.121849
3505.000000	97.118415
3504.000000	97.115582
3503.000000	97.113409
3502.000000	97.111575
3501.000000	97.110014
3500.000000	97.108847
3499.000000	97.107817
3498.000000	97.106317
3497.000000	97.104029
3496.000000	97.101249
3495.000000	97.098557
3494.000000	97.096462
3493.000000	97.095249
3492.000000	97.094723
3491.000000	97.094164
3490.000000	97.092887
3489.000000	97.090931
3488.000000	97.088948
3487.000000	97.087352
3486.000000	97.085837
3485.000000	97.083917
3484.000000	97.081663
3483.000000	97.079613
3482.000000	97.078071
3481.000000	97.076854
3480.000000	97.075657
3479.000000	97.074413
3478.000000	97.073219
3477.000000	97.072075
3476.000000	97.070825
3475.000000	97.069279
3474.000000	97.067394
3473.000000	97.065320
3472.000000	97.063300
3471.000000	97.061486
3470.000000	97.059858
3469.000000	97.058257
3468.000000	97.056515
3467.000000	97.054605
3466.000000	97.052678
3465.000000	97.050932
3464.000000	97.049441
3463.000000	97.048090
3462.000000	97.046618
3461.000000	97.044776
3460.000000	97.042469
3459.000000	97.039865
3458.000000	97.037344
3457.000000	97.035276
3456.000000	97.033815
3455.000000	97.032763
3454.000000	97.031635
3453.000000	97.029994
3452.000000	97.027711
3451.000000	97.025009
3450.000000	97.022242
3449.000000	97.019655
3448.000000	97.017264
3447.000000	97.014942
3446.000000	97.012591
3445.000000	97.010256
3444.000000	97.008107
3443.000000	97.006385
3442.000000	97.005228
3441.000000	97.004459
3440.000000	97.003617
3439.000000	97.002256
3438.000000	97.000355
3437.000000	96.998373
3436.000000	96.996873
3435.000000	96.996025
3434.000000	96.995364
3433.000000	96.994126
3432.000000	96.991777
3431.000000	96.988207
3430.000000	96.983594
3429.000000	96.978581
3428.000000	96.974325
3427.000000	96.971762
3426.000000	96.970714
3425.000000	96.969966
3424.000000	96.968410
3423.000000	96.966020
3422.000000	96.963774
3421.000000	96.962762
3420.000000	96.963198
3419.000000	96.963989
3418.000000	96.963348
3417.000000	96.960413
3416.000000	96.956347
3415.000000	96.953625
3414.000000	96.953909
3413.000000	96.956770
3412.000000	96.960269
3411.000000	96.962530
3410.000000	96.962897
3409.000000	96.961860
3408.000000	96.960262
3407.000000	96.958603
3406.000000	96.957129
3405.000000	96.956219
3404.000000	96.956116
3403.000000	96.956315
3402.000000	96.955928
3401.000000	96.954917
3400.000000	96.954322
3399.000000	96.954999
3398.000000	96.956679
3397.000000	96.958491
3396.000000	96.959855
3395.000000	96.960513
3394.000000	96.960254
3393.000000	96.959274
3392.000000	96.958573
3391.000000	96.959359
3390.000000	96.962012
3389.000000	96.965863
3388.000000	96.969797
3387.000000	96.972927
3386.000000	96.974912
3385.000000	96.976002
3384.000000	96.976778
3383.000000	96.977605
3382.000000	96.978378
3381.000000	96.978924
3380.000000	96.979431
3379.000000	96.980353
3378.000000	96.981893
3377.000000	96.983651
3376.000000	96.984770
3375.000000	96.984659
3374.000000	96.983828
3373.000000	96.983869
3372.000000	96.986116
3371.000000	96.990446
3370.000000	96.995388
3369.000000	96.999553
3368.000000	97.002729
3367.000000	97.005456
3366.000000	97.008157
3365.000000	97.010880
3364.000000	97.013491
3363.000000	97.015659
3362.000000	97.016896
3361.000000	97.017080
3360.000000	97.016945
3359.000000	97.017697
3358.000000	97.019952
3357.000000	97.023287
3356.000000	97.026685
3355.000000	97.029404
3354.000000	97.031427
3353.000000	97.033204
3352.000000	97.035142
3351.000000	97.037274
3350.000000	97.039364
3349.000000	97.041245
3348.000000	97.043012
3347.000000	97.044828
3346.000000	97.046674
3345.000000	97.048467
3344.000000	97.050444
3343.000000	97.053136
3342.000000	97.056801
3341.000000	97.060960
3340.000000	97.064648
3339.000000	97.067320
3338.000000	97.069366
3337.000000	97.071633
3336.000000	97.074411
3335.000000	97.077069
3334.000000	97.078839
3333.000000	97.079736
3332.000000	97.080609
3331.000000	97.082277
3330.000000	97.084749
3329.000000	97.087389
3328.000000	97.089603
3327.000000	97.091314
3326.000000	97.092822
3325.000000	97.094423
3324.000000	97.096212
3323.000000	97.098201
3322.000000	97.100524
3321.000000	97.103368
3320.000000	97.106669
3319.000000	97.110035
3318.000000	97.113120
3317.000000	97.115952
3316.000000	97.118606
3315.000000	97.120696
3314.000000	97.121632
3313.000000	97.121402
3312.000000	97.120820
3311.000000	97.120923
3310.000000	97.122237
3309.000000	97.124669
3308.000000	97.127742
3307.000000	97.130774
3306.000000	97.133205
3305.000000	97.135057
3304.000000	97.136900
3303.000000	97.139220
3302.000000	97.141991
3301.000000	97.144974
3300.000000	97.148076
3299.000000	97.151147
3298.000000	97.153647
3297.000000	97.154963
3296.000000	97.155057
3295.000000	97.154657
3294.000000	97.154860
3293.000000	97.156567
3292.000000	97.160016
3291.000000	97.164541
3290.000000	97.168765
3289.000000	97.171627
3288.000000	97.173310
3287.000000	97.174987
3286.000000	97.177630
3285.000000	97.181225
3284.000000	97.185062
3283.000000	97.188506
3282.000000	97.191444
3281.000000	97.194177
3280.000000	97.197073
3279.000000	97.200306
3278.000000	97.203768
3277.000000	97.207087
3276.000000	97.209778
3275.000000	97.211563
3274.000000	97.212709
3273.000000	97.214025
3272.000000	97.216331
3271.000000	97.219775
3270.000000	97.223636
3269.000000	97.226852
3268.000000	97.228797
3267.000000	97.229609
3266.000000	97.229985
3265.000000	97.230713
3264.000000	97.232198
3263.000000	97.234352
3262.000000	97.236876
3261.000000	97.239563
3260.000000	97.242293
3259.000000	97.244856
3258.000000	97.247005
3257.000000	97.248745
3256.000000	97.250489
3255.000000	97.252768
3254.000000	97.255740
3253.000000	97.258991
3252.000000	97.261828
3251.000000	97.263833
3250.000000	97.265188
3249.000000	97.266558
3248.000000	97.268561
3247.000000	97.271332
3246.000000	97.274596
3245.000000	97.277992
3244.000000	97.281247
3243.000000	97.284131
3242.000000	97.286548
3241.000000	97.288730
3240.000000	97.291080
3239.000000	97.293700
3238.000000	97.296218
3237.000000	97.298203
3236.000000	97.299694
3235.000000	97.301259
3234.000000	97.303558
3233.000000	97.306913
3232.000000	97.311211
3231.000000	97.315981
3230.000000	97.320567
3229.000000	97.324394
3228.000000	97.327175
3227.000000	97.328966
3226.000000	97.330094
3225.000000	97.331074
3224.000000	97.332486
3223.000000	97.334719
3222.000000	97.337798
3221.000000	97.341393
3220.000000	97.345036
3219.000000	97.348457
3218.000000	97.351723
3217.000000	97.355055
3216.000000	97.358577
3215.000000	97.362275
3214.000000	97.366074
3213.000000	97.369802
3212.000000	97.373168
3211.000000	97.376022
3210.000000	97.378666
3209.000000	97.381634
3208.000000	97.385014
3207.000000	97.388229
3206.000000	97.390736
3205.000000	97.392719
3204.000000	97.394862
3203.000000	97.397488
3202.000000	97.400301
3201.000000	97.402995
3200.000000	97.405788
3199.000000	97.409095
3198.000000	97.412931
3197.000000	97.416827
3196.000000	97.420303
3195.000000	97.423285
3194.000000	97.426014
3193.000000	97.428782
3192.000000	97.431734
3191.000000	97.434859
3190.000000	97.438053
3189.000000	97.441168
3188.000000	97.444069
3187.000000	97.446748
3186.000000	97.449382
3185.000000	97.452202
3184.000000	97.455255
3183.000000	97.458340
3182.000000	97.461218
3181.000000	97.463865
3180.000000	97.466490
3179.000000	97.469312
3178.000000	97.472373
3177.000000	97.475573
3176.000000	97.478791
3175.000000	97.481953
3174.000000	97.485006
3173.000000	97.487928
3172.000000	97.490785
3171.000000	97.493707
3170.000000	97.496770
3169.000000	97.499934
3168.000000	97.503101
3167.000000	97.506222
3166.000000	97.509304
3165.000000	97.512341
3164.000000	97.515282
3163.000000	97.518089
3162.000000	97.520785
3161.000000	97.523434
3160.000000	97.526122
3159.000000	97.528932
3158.000000	97.531918
3157.000000	97.535057
3156.000000	97.538242
3155.000000	97.541326
3154.000000	97.544240
3153.000000	97.547016
3152.000000	97.549760
3151.000000	97.552552
3150.000000	97.555386
3149.000000	97.558212
3148.000000	97.561014
3147.000000	97.563855
3146.000000	97.566829
3145.000000	97.569956
3144.000000	97.573119
3143.000000	97.576144
3142.000000	97.578962
3141.000000	97.581689
3140.000000	97.584487
3139.000000	97.587380
3138.000000	97.590278
3137.000000	97.593165
3136.000000	97.596120
3135.000000	97.599126
3134.000000	97.601995
3133.000000	97.604582
3132.000000	97.607032
3131.000000	97.609691
3130.000000	97.612699
3129.000000	97.615780
3128.000000	97.618490
3127.000000	97.620646
3126.000000	97.622468
3125.000000	97.624327
3124.000000	97.626437
3123.000000	97.628799
3122.000000	97.631358
3121.000000	97.634134
3120.000000	97.637154
3119.000000	97.640326
3118.000000	97.643503
3117.000000	97.646649
3116.000000	97.649802
3115.000000	97.652906
3114.000000	97.655838
3113.000000	97.658641
3112.000000	97.661559
3111.000000	97.664713
3110.000000	97.667816
3109.000000	97.670434
3108.000000	97.672486
3107.000000	97.674335
3106.000000	97.676361
3105.000000	97.678552
3104.000000	97.680689
3103.000000	97.682711
3102.000000	97.684761
3101.000000	97.686972
3100.000000	97.689319
3099.000000	97.691675
3098.000000	97.693935
3097.000000	97.696052
3096.000000	97.698000
3095.000000	97.699836
3094.000000	97.701794
3093.000000	97.704148
3092.000000	97.706911
3091.000000	97.709737
3090.000000	97.712221
3089.000000	97.714340
3088.000000	97.716442
3087.000000	97.718839
3086.000000	97.721478
3085.000000	97.724028
3084.000000	97.726242
3083.000000	97.728136
3082.000000	97.729881
3081.000000	97.731648
3080.000000	97.733594
3079.000000	97.735857
3078.000000	97.738413
3077.000000	97.740956
3076.000000	97.743126
3075.000000	97.744872
3074.000000	97.746496
3073.000000	97.748273
3072.000000	97.750080
3071.000000	97.751479
3070.000000	97.752194
3069.000000	97.752577
3068.000000	97.753501
3067.000000	97.755567
3066.000000	97.758457
3065.000000	97.761131
3064.000000	97.762931
3063.000000	97.764302
3062.000000	97.766260
3061.000000	97.769202
3060.000000	97.772443
3059.000000	97.774946
3058.000000	97.776348
3057.000000	97.777071
3056.000000	97.777533
3055.000000	97.777631
3054.000000	97.777274
3053.000000	97.777132
3052.000000	97.778204
3051.000000	97.780460
3050.000000	97.782548
3049.000000	97.783437
3048.000000	97.783885
3047.000000	97.785518
3046.000000	97.788581
3045.000000	97.791441
3044.000000	97.792477
3043.000000	97.791812
3042.000000	97.790825
3041.000000	97.790368
3040.000000	97.789963
3039.000000	97.788653
3038.000000	97.786179
3037.000000	97.783230
3036.000000	97.780881
3035.000000	97.779885
3034.000000	97.780417
3033.000000	97.782150
3032.000000	97.784407
3031.000000	97.786420
3030.000000	97.787522
3029.000000	97.787195
3028.000000	97.785282
3027.000000	97.782470
3026.000000	97.780249
3025.000000	97.779639
3024.000000	97.779825
3023.000000	97.778729
3022.000000	97.775384
3021.000000	97.771308
3020.000000	97.768961
3019.000000	97.768864
3018.000000	97.768960
3017.000000	97.766853
3016.000000	97.762036
3015.000000	97.755916
3014.000000	97.750450
3013.000000	97.746995
3012.000000	97.745857
3011.000000	97.746059
3010.000000	97.745525
3009.000000	97.742213
3008.000000	97.735583
3007.000000	97.727223
3006.000000	97.719978
3005.000000	97.715973
3004.000000	97.715110
3003.000000	97.715300
3002.000000	97.714225
3001.000000	97.710966
3000.000000	97.706060
2999.000000	97.700703
2998.000000	97.696348
2997.000000	97.694242
2996.000000	97.694159
2995.000000	97.693612
2994.000000	97.689531
2993.000000	97.681161
2992.000000	97.670844
2991.000000	97.661799
2990.000000	97.655442
2989.000000	97.650963
2988.000000	97.646608
2987.000000	97.641011
2986.000000	97.633966
2985.000000	97.626481
2984.000000	97.619842
2983.000000	97.614510
2982.000000	97.610122
2981.000000	97.606238
2980.000000	97.602381
2979.000000	97.597537
2978.000000	97.590775
2977.000000	97.582542
2976.000000	97.574369
2975.000000	97.567157
2974.000000	97.560970
2973.000000	97.556573
2972.000000	97.555548
2971.000000	97.558015
2970.000000	97.561420
2969.000000	97.562834
2968.000000	97.561768
2967.000000	97.559761
2966.000000	97.558015
2965.000000	97.556506
2964.000000	97.554639
2963.000000	97.551809
2962.000000	97.548183
2961.000000	97.545959
2960.000000	97.548635
2959.000000	97.557167
2958.000000	97.567202
2957.000000	97.571923
2956.000000	97.568006
2955.000000	97.558085
2954.000000	97.548060
2953.000000	97.542780
2952.000000	97.543756
2951.000000	97.549382
2950.000000	97.556700
2949.000000	97.563306
2948.000000	97.567715
2947.000000	97.568475
2946.000000	97.564396
2945.000000	97.556276
2944.000000	97.547052
2943.000000	97.538951
2942.000000	97.531363
2941.000000	97.522659
2940.000000	97.512911
2939.000000	97.503212
2938.000000	97.493152
2937.000000	97.480962
2936.000000	97.466002
2935.000000	97.449517
2934.000000	97.432893
2933.000000	97.416401
2932.000000	97.399570
2931.000000	97.381887
2930.000000	97.363716
2929.000000	97.347566
2928.000000	97.337530
2927.000000	97.335746
2926.000000	97.339869
2925.000000	97.345487
2924.000000	97.350915
2923.000000	97.358143
2922.000000	97.369517
2921.000000	97.385356
2920.000000	97.404600
2919.000000	97.425892
2918.000000	97.447692
2917.000000	97.468644
2916.000000	97.488120
2915.000000	97.505688
2914.000000	97.520631
2913.000000	97.533169
2912.000000	97.545421
2911.000000	97.559328
2910.000000	97.573950
2909.000000	97.586605
2908.000000	97.596296
2907.000000	97.604134
2906.000000	97.610761
2905.000000	97.615589
2904.000000	97.618983
2903.000000	97.622870
2902.000000	97.628360
2901.000000	97.634403
2900.000000	97.639932
2899.000000	97.645963
2898.000000	97.654283
2897.000000	97.665555
2896.000000	97.679118
2895.000000	97.693431
2894.000000	97.705849
2893.000000	97.713560
2892.000000	97.716193
2891.000000	97.716895
2890.000000	97.719706
2889.000000	97.726043
2888.000000	97.734184
2887.000000	97.741406
2886.000000	97.745953
2885.000000	97.747785
2884.000000	97.748287
2883.000000	97.748860
2882.000000	97.749383
2881.000000	97.748736
2880.000000	97.747072
2879.000000	97.746321
2878.000000	97.747553
2877.000000	97.748926
2876.000000	97.747856
2875.000000	97.744837
2874.000000	97.743615
2873.000000	97.747189
2872.000000	97.754646
2871.000000	97.762279
2870.000000	97.767049
2869.000000	97.768456
2868.000000	97.767677
2867.000000	97.766054
2866.000000	97.764528
2865.000000	97.763506
2864.000000	97.762062
2863.000000	97.757581
2862.000000	97.747883
2861.000000	97.734549
2860.000000	97.722846
2859.000000	97.716925
2858.000000	97.715973
2857.000000	97.716504
2856.000000	97.717530
2855.000000	97.721193
2854.000000	97.728555
2853.000000	97.737695
2852.000000	97.747008
2851.000000	97.757923
2850.000000	97.772436
2849.000000	97.789875
2848.000000	97.808350
2847.000000	97.828073
2846.000000	97.850440
2845.000000	97.874059
2844.000000	97.894375
2843.000000	97.908142
2842.000000	97.916518
2841.000000	97.922821
2840.000000	97.928573
2839.000000	97.933090
2838.000000	97.936249
2837.000000	97.940005
2836.000000	97.946686
2835.000000	97.956437
2834.000000	97.966837
2833.000000	97.974946
2832.000000	97.979591
2831.000000	97.981734
2830.000000	97.982980
2829.000000	97.984203
2828.000000	97.985802
2827.000000	97.988671
2826.000000	97.993897
2825.000000	98.001289
2824.000000	98.009050
2823.000000	98.015482
2822.000000	98.020581
2821.000000	98.025352
2820.000000	98.029860
2819.000000	98.032830
2818.000000	98.033343
2817.000000	98.032366
2816.000000	98.032334
2815.000000	98.035317
2814.000000	98.041345
2813.000000	98.048003
2812.000000	98.051733
2811.000000	98.050383
2810.000000	98.045091
2809.000000	98.039552
2808.000000	98.036974
2807.000000	98.037893
2806.000000	98.041020
2805.000000	98.045269
2804.000000	98.050186
2803.000000	98.055010
2802.000000	98.058565
2801.000000	98.060271
2800.000000	98.060481
2799.000000	98.059733
2798.000000	98.058448
2797.000000	98.057527
2796.000000	98.058312
2795.000000	98.061426
2794.000000	98.066075
2793.000000	98.070819
2792.000000	98.074716
2791.000000	98.077587
2790.000000	98.079716
2789.000000	98.081627
2788.000000	98.083644
2787.000000	98.085260
2786.000000	98.085437
2785.000000	98.083892
2784.000000	98.081742
2783.000000	98.080580
2782.000000	98.080995
2781.000000	98.082366
2780.000000	98.083725
2779.000000	98.084524
2778.000000	98.084848
2777.000000	98.085231
2776.000000	98.086161
2775.000000	98.087559
2774.000000	98.088868
2773.000000	98.089743
2772.000000	98.090513
2771.000000	98.091745
2770.000000	98.093574
2769.000000	98.095672
2768.000000	98.097599
2767.000000	98.099064
2766.000000	98.099958
2765.000000	98.100365
2764.000000	98.100620
2763.000000	98.101111
2762.000000	98.101934
2761.000000	98.102894
2760.000000	98.103758
2759.000000	98.104455
2758.000000	98.105068
2757.000000	98.105733
2756.000000	98.106536
2755.000000	98.107464
2754.000000	98.108414
2753.000000	98.109282
2752.000000	98.110037
2751.000000	98.110716
2750.000000	98.111373
2749.000000	98.112037
2748.000000	98.112703
2747.000000	98.113355
2746.000000	98.113998
2745.000000	98.114672
2744.000000	98.115412
2743.000000	98.116212
2742.000000	98.117011
2741.000000	98.117744
2740.000000	98.118401
2739.000000	98.119041
2738.000000	98.119730
2737.000000	98.120477
2736.000000	98.121244
2735.000000	98.121976
2734.000000	98.122634
2733.000000	98.123204
2732.000000	98.123711
2731.000000	98.124200
2730.000000	98.124690
2729.000000	98.125150
2728.000000	98.125559
2727.000000	98.125967
2726.000000	98.126476
2725.000000	98.127136
2724.000000	98.127923
2723.000000	98.128738
2722.000000	98.129451
2721.000000	98.129981
2720.000000	98.130356
2719.000000	98.130706
2718.000000	98.131113
2717.000000	98.131529
2716.000000	98.131885
2715.000000	98.132199
2714.000000	98.132553
2713.000000	98.132975
2712.000000	98.133413
2711.000000	98.133793
2710.000000	98.134091
2709.000000	98.134318
2708.000000	98.134484
2707.000000	98.134601
2706.000000	98.134710
2705.000000	98.134854
2704.000000	98.135044
2703.000000	98.135259
2702.000000	98.135461
2701.000000	98.135615
2700.000000	98.135704
2699.000000	98.135731
2698.000000	98.135721
2697.000000	98.135707
2696.000000	98.135707
2695.000000	98.135717
2694.000000	98.135721
2693.000000	98.135707
2692.000000	98.135666
2691.000000	98.135589
2690.000000	98.135472
2689.000000	98.135325
2688.000000	98.135179
2687.000000	98.135064
2686.000000	98.134985
2685.000000	98.134929
2684.000000	98.134877
2683.000000	98.134808
2682.000000	98.134688
2681.000000	98.134492
2680.000000	98.134258
2679.000000	98.134086
2678.000000	98.134053
2677.000000	98.134103
2676.000000	98.134050
2675.000000	98.133738
2674.000000	98.133184
2673.000000	98.132586
2672.000000	98.132161
2671.000000	98.131993
2670.000000	98.132044
2669.000000	98.132295
2668.000000	98.132775
2667.000000	98.133393
2666.000000	98.133824
2665.000000	98.133698
2664.000000	98.132961
2663.000000	98.132060
2662.000000	98.131597
2661.000000	98.131716
2660.000000	98.131910
2659.000000	98.131599
2658.000000	98.130917
2657.000000	98.130632
2656.000000	98.131112
2655.000000	98.131695
2654.000000	98.131401
2653.000000	98.130179
2652.000000	98.129001
2651.000000	98.128701
2650.000000	98.129276
2649.000000	98.130417
2648.000000	98.132070
2647.000000	98.134107
2646.000000	98.135939
2645.000000	98.137008
2644.000000	98.137441
2643.000000	98.137798
2642.000000	98.138246
2641.000000	98.138401
2640.000000	98.138012
2639.000000	98.137402
2638.000000	98.137134
2637.000000	98.137461
2636.000000	98.138231
2635.000000	98.139135
2634.000000	98.139924
2633.000000	98.140458
2632.000000	98.140660
2631.000000	98.140573
2630.000000	98.140478
2629.000000	98.140833
2628.000000	98.141805
2627.000000	98.142806
2626.000000	98.142865
2625.000000	98.141634
2624.000000	98.139815
2623.000000	98.138534
2622.000000	98.138248
2621.000000	98.138532
2620.000000	98.138758
2619.000000	98.138709
2618.000000	98.138562
2617.000000	98.138511
2616.000000	98.138575
2615.000000	98.138707
2614.000000	98.138952
2613.000000	98.139395
2612.000000	98.139977
2611.000000	98.140427
2610.000000	98.140496
2609.000000	98.140206
2608.000000	98.139770
2607.000000	98.139380
2606.000000	98.139097
2605.000000	98.138921
2604.000000	98.138860
2603.000000	98.138886
2602.000000	98.138906
2601.000000	98.138839
2600.000000	98.138687
2599.000000	98.138504
2598.000000	98.138344
2597.000000	98.138242
2596.000000	98.138218
2595.000000	98.138264
2594.000000	98.138321
2593.000000	98.138310
2592.000000	98.138196
2591.000000	98.138001
2590.000000	98.137788
2589.000000	98.137619
2588.000000	98.137528
2587.000000	98.137523
2586.000000	98.137568
2585.000000	98.137593
2584.000000	98.137564
2583.000000	98.137502
2582.000000	98.137465
2581.000000	98.137465
2580.000000	98.137464
2579.000000	98.137453
2578.000000	98.137490
2577.000000	98.137598
2576.000000	98.137689
2575.000000	98.137644
2574.000000	98.137501
2573.000000	98.137481
2572.000000	98.137743
2571.000000	98.138116
2570.000000	98.138224
2569.000000	98.137937
2568.000000	98.137525
2567.000000	98.137246
2566.000000	98.136999
2565.000000	98.136594
2564.000000	98.136132
2563.000000	98.135791
2562.000000	98.135426
2561.000000	98.134843
2560.000000	98.134294
2559.000000	98.134249
2558.000000	98.134781
2557.000000	98.135594
2556.000000	98.136637
2555.000000	98.138141
2554.000000	98.139994
2553.000000	98.141500
2552.000000	98.142037
2551.000000	98.141604
2550.000000	98.140666
2549.000000	98.139765
2548.000000	98.139230
2547.000000	98.139000
2546.000000	98.138627
2545.000000	98.137707
2544.000000	98.136407
2543.000000	98.135415
2542.000000	98.135293
2541.000000	98.136005
2540.000000	98.137066
2539.000000	98.137962
2538.000000	98.138476
2537.000000	98.138829
2536.000000	98.139479
2535.000000	98.140615
2534.000000	98.141841
2533.000000	98.142501
2532.000000	98.142356
2531.000000	98.141695
2530.000000	98.140947
2529.000000	98.140325
2528.000000	98.139860
2527.000000	98.139585
2526.000000	98.139567
2525.000000	98.139855
2524.000000	98.140434
2523.000000	98.141134
2522.000000	98.141622
2521.000000	98.141662
2520.000000	98.141368
2519.000000	98.141125
2518.000000	98.141185
2517.000000	98.141431
2516.000000	98.141603
2515.000000	98.141652
2514.000000	98.141754
2513.000000	98.142026
2512.000000	98.142324
2511.000000	98.142424
2510.000000	98.142300
2509.000000	98.142126
2508.000000	98.142067
2507.000000	98.142132
2506.000000	98.142238
2505.000000	98.142337
2504.000000	98.142428
2503.000000	98.142494
2502.000000	98.142493
2501.000000	98.142438
2500.000000	98.142435
2499.000000	98.142574
2498.000000	98.142825
2497.000000	98.143045
2496.000000	98.143079
2495.000000	98.142832
2494.000000	98.142291
2493.000000	98.141589
2492.000000	98.141039
2491.000000	98.140953
2490.000000	98.141391
2489.000000	98.142129
2488.000000	98.142870
2487.000000	98.143453
2486.000000	98.143808
2485.000000	98.143889
2484.000000	98.143725
2483.000000	98.143470
2482.000000	98.143327
2481.000000	98.143414
2480.000000	98.143715
2479.000000	98.144093
2478.000000	98.144356
2477.000000	98.144444
2476.000000	98.144526
2475.000000	98.144821
2474.000000	98.145247
2473.000000	98.145420
2472.000000	98.145090
2471.000000	98.144461
2470.000000	98.144008
2469.000000	98.144022
2468.000000	98.144451
2467.000000	98.145069
2466.000000	98.145631
2465.000000	98.145909
2464.000000	98.145752
2463.000000	98.145224
2462.000000	98.144648
2461.000000	98.144329
2460.000000	98.144257
2459.000000	98.144159
2458.000000	98.143821
2457.000000	98.143326
2456.000000	98.142970
2455.000000	98.142965
2454.000000	98.143265
2453.000000	98.143656
2452.000000	98.143946
2451.000000	98.144113
2450.000000	98.144289
2449.000000	98.144602
2448.000000	98.145033
2447.000000	98.145392
2446.000000	98.145485
2445.000000	98.145298
2444.000000	98.144986
2443.000000	98.144735
2442.000000	98.144631
2441.000000	98.144692
2440.000000	98.144930
2439.000000	98.145309
2438.000000	98.145694
2437.000000	98.145906
2436.000000	98.145879
2435.000000	98.145700
2434.000000	98.145535
2433.000000	98.145494
2432.000000	98.145564
2431.000000	98.145652
2430.000000	98.145663
2429.000000	98.145586
2428.000000	98.145480
2427.000000	98.145398
2426.000000	98.145336
2425.000000	98.145289
2424.000000	98.145298
2423.000000	98.145407
2422.000000	98.145582
2421.000000	98.145717
2420.000000	98.145740
2419.000000	98.145659
2418.000000	98.145562
2417.000000	98.145532
2416.000000	98.145577
2415.000000	98.145652
2414.000000	98.145717
2413.000000	98.145768
2412.000000	98.145799
2411.000000	98.145799
2410.000000	98.145763
2409.000000	98.145692
2408.000000	98.145556
2407.000000	98.145308
2406.000000	98.144981
2405.000000	98.144764
2404.000000	98.144898
2403.000000	98.145441
2402.000000	98.146116
2401.000000	98.146480
2400.000000	98.146302
2399.000000	98.145679
2398.000000	98.144902
2397.000000	98.144222
2396.000000	98.143776
2395.000000	98.143569
2394.000000	98.143468
2393.000000	98.143322
2392.000000	98.143110
2391.000000	98.142884
2390.000000	98.142582
2389.000000	98.142098
2388.000000	98.141596
2387.000000	98.141435
2386.000000	98.141637
2385.000000	98.141683
2384.000000	98.141058
2383.000000	98.139751
2382.000000	98.138136
2381.000000	98.136593
2380.000000	98.135326
2379.000000	98.134419
2378.000000	98.133852
2377.000000	98.133461
2376.000000	98.133059
2375.000000	98.132649
2374.000000	98.132328
2373.000000	98.132050
2372.000000	98.131663
2371.000000	98.131122
2370.000000	98.130511
2369.000000	98.129899
2368.000000	98.129278
2367.000000	98.128643
2366.000000	98.128029
2365.000000	98.127451
2364.000000	98.126892
2363.000000	98.126330
2362.000000	98.125763
2361.000000	98.125204
2360.000000	98.124659
2359.000000	98.124135
2358.000000	98.123634
2357.000000	98.123154
2356.000000	98.122695
2355.000000	98.122259
2354.000000	98.121841
2353.000000	98.121436
2352.000000	98.121038
2351.000000	98.120648
2350.000000	98.120276
2349.000000	98.119928
2348.000000	98.119607
2347.000000	98.119300
2346.000000	98.118998
2345.000000	98.118697
2344.000000	98.118410
2343.000000	98.118155
2342.000000	98.117943
2341.000000	98.117779
2340.000000	98.117656
2339.000000	98.117566
2338.000000	98.117502
2337.000000	98.117457
2336.000000	98.117431
2335.000000	98.117422
2334.000000	98.117428
2333.000000	98.117442
2332.000000	98.117459
2331.000000	98.117481
2330.000000	98.117514
2329.000000	98.117570
2328.000000	98.117655
2327.000000	98.117773
2326.000000	98.117920
2325.000000	98.118096
2324.000000	98.118303
2323.000000	98.118542
2322.000000	98.118811
2321.000000	98.119104
2320.000000	98.119417
2319.000000	98.119738
2318.000000	98.120050
2317.000000	98.120344
2316.000000	98.120621
2315.000000	98.120892
2314.000000	98.121177
2313.000000	98.121489
2312.000000	98.121818
2311.000000	98.122108
2310.000000	98.122325
2309.000000	98.122518
2308.000000	98.122821
2307.000000	98.123289
2306.000000	98.123827
2305.000000	98.124250
2304.000000	98.124491
2303.000000	98.124616
2302.000000	98.124762
2301.000000	98.125029
2300.000000	98.125416
2299.000000	98.125776
2298.000000	98.125965
2297.000000	98.126061
2296.000000	98.126385
2295.000000	98.127103
2294.000000	98.127983
2293.000000	98.128603
2292.000000	98.128839
2291.000000	98.128835
2290.000000	98.128707
2289.000000	98.128433
2288.000000	98.128078
2287.000000	98.127798
2286.000000	98.127685
2285.000000	98.127756
2284.000000	98.128021
2283.000000	98.128384
2282.000000	98.128534
2281.000000	98.128206
2280.000000	98.127472
2279.000000	98.126687
2278.000000	98.126131
2277.000000	98.125805
2276.000000	98.125601
2275.000000	98.125460
2274.000000	98.125329
2273.000000	98.125112
2272.000000	98.124737
2271.000000	98.124250
2270.000000	98.123771
2269.000000	98.123380
2268.000000	98.123062
2267.000000	98.122745
2266.000000	98.122368
2265.000000	98.121924
2264.000000	98.121445
2263.000000	98.120961
2262.000000	98.120492
2261.000000	98.120047
2260.000000	98.119620
2259.000000	98.119189
2258.000000	98.118746
2257.000000	98.118313
2256.000000	98.117910
2255.000000	98.117529
2254.000000	98.117157
2253.000000	98.116784
2252.000000	98.116408
2251.000000	98.116037
2250.000000	98.115682
2249.000000	98.115351
2248.000000	98.115049
2247.000000	98.114775
2246.000000	98.114524
2245.000000	98.114287
2244.000000	98.114058
2243.000000	98.113837
2242.000000	98.113626
2241.000000	98.113417
2240.000000	98.113196
2239.000000	98.112961
2238.000000	98.112727
2237.000000	98.112507
2236.000000	98.112293
2235.000000	98.112070
2234.000000	98.111851
2233.000000	98.111680
2232.000000	98.111599
2231.000000	98.111582
2230.000000	98.111526
2229.000000	98.111352
2228.000000	98.111140
2227.000000	98.111090
2226.000000	98.111280
2225.000000	98.111481
2224.000000	98.111330
2223.000000	98.110638
2222.000000	98.109559
2221.000000	98.108553
2220.000000	98.108125
2219.000000	98.108528
2218.000000	98.109579
2217.000000	98.110738
2216.000000	98.111578
2215.000000	98.112095
2214.000000	98.112503
2213.000000	98.112818
2212.000000	98.112805
2211.000000	98.112361
2210.000000	98.111794
2209.000000	98.111622
2208.000000	98.112062
2207.000000	98.112735
2206.000000	98.112986
2205.000000	98.112491
2204.000000	98.111480
2203.000000	98.110374
2202.000000	98.109370
2201.000000	98.108484
2200.000000	98.107853
2199.000000	98.107727
2198.000000	98.108210
2197.000000	98.109142
2196.000000	98.110153
2195.000000	98.110730
2194.000000	98.110415
2193.000000	98.109198
2192.000000	98.107640
2191.000000	98.106365
2190.000000	98.105518
2189.000000	98.104930
2188.000000	98.104637
2187.000000	98.104872
2186.000000	98.105671
2185.000000	98.106796
2184.000000	98.107968
2183.000000	98.108911
2182.000000	98.109452
2181.000000	98.109913
2180.000000	98.111035
2179.000000	98.112983
2178.000000	98.114683
2177.000000	98.114834
2176.000000	98.113524
2175.000000	98.112224
2174.000000	98.112146
2173.000000	98.113202
2172.000000	98.114629
2171.000000	98.115871
2170.000000	98.116591
2169.000000	98.116406
2168.000000	98.115168
2167.000000	98.113346
2166.000000	98.111777
2165.000000	98.110988
2164.000000	98.110862
2163.000000	98.110914
2162.000000	98.110897
2161.000000	98.111178
2160.000000	98.112364
2159.000000	98.114470
2158.000000	98.116742
2157.000000	98.118479
2156.000000	98.119597
2155.000000	98.120050
2154.000000	98.119375
2153.000000	98.117501
2152.000000	98.115531
2151.000000	98.114732
2150.000000	98.114908
2149.000000	98.114762
2148.000000	98.113773
2147.000000	98.112749
2146.000000	98.112406
2145.000000	98.112418
2144.000000	98.112218
2143.000000	98.111888
2142.000000	98.111833
2141.000000	98.112175
2140.000000	98.112808
2139.000000	98.113606
2138.000000	98.114400
2137.000000	98.115182
2136.000000	98.116401
2135.000000	98.118457
2134.000000	98.120847
2133.000000	98.122549
2132.000000	98.123375
2131.000000	98.124147
2130.000000	98.125379
2129.000000	98.126472
2128.000000	98.126610
2127.000000	98.125880
2126.000000	98.125123
2125.000000	98.125034
2124.000000	98.125659
2123.000000	98.126523
2122.000000	98.127000
2121.000000	98.126846
2120.000000	98.126475
2119.000000	98.126538
2118.000000	98.127222
2117.000000	98.128215
2116.000000	98.129288
2115.000000	98.130545
2114.000000	98.131969
2113.000000	98.133139
2112.000000	98.133660
2111.000000	98.133650
2110.000000	98.133640
2109.000000	98.134028
2108.000000	98.134731
2107.000000	98.135391
2106.000000	98.135818
2105.000000	98.136174
2104.000000	98.136739
2103.000000	98.137602
2102.000000	98.138650
2101.000000	98.139760
2100.000000	98.140832
2099.000000	98.141646
2098.000000	98.141969
2097.000000	98.141855
2096.000000	98.141725
2095.000000	98.141964
2094.000000	98.142485
2093.000000	98.142916
2092.000000	98.143076
2091.000000	98.143103
2090.000000	98.143171
2089.000000	98.143317
2088.000000	98.143601
2087.000000	98.144126
2086.000000	98.144781
2085.000000	98.145207
2084.000000	98.145207
2083.000000	98.144996
2082.000000	98.144921
2081.000000	98.145065
2080.000000	98.145285
2079.000000	98.145482
2078.000000	98.145661
2077.000000	98.145804
2076.000000	98.145874
2075.000000	98.145882
2074.000000	98.145863
2073.000000	98.145886
2072.000000	98.145986
2071.000000	98.146057
2070.000000	98.145918
2069.000000	98.145561
2068.000000	98.145231
2067.000000	98.145130
2066.000000	98.145179
2065.000000	98.145158
2064.000000	98.145014
2063.000000	98.144851
2062.000000	98.144708
2061.000000	98.144524
2060.000000	98.144306
2059.000000	98.144148
2058.000000	98.144077
2057.000000	98.144023
2056.000000	98.143922
2055.000000	98.143734
2054.000000	98.143414
2053.000000	98.142990
2052.000000	98.142606
2051.000000	98.142353
2050.000000	98.142088
2049.000000	98.141585
2048.000000	98.140836
2047.000000	98.140056
2046.000000	98.139431
2045.000000	98.138925
2044.000000	98.138369
2043.000000	98.137637
2042.000000	98.136714
2041.000000	98.135694
2040.000000	98.134747
2039.000000	98.133987
2038.000000	98.133340
2037.000000	98.132589
2036.000000	98.131610
2035.000000	98.130464
2034.000000	98.129300
2033.000000	98.128185
2032.000000	98.127121
2031.000000	98.126172
2030.000000	98.125454
2029.000000	98.124931
2028.000000	98.124311
2027.000000	98.123327
2026.000000	98.121976
2025.000000	98.120517
2024.000000	98.119168
2023.000000	98.117885
2022.000000	98.116539
2021.000000	98.115145
2020.000000	98.113869
2019.000000	98.112800
2018.000000	98.111796
2017.000000	98.110632
2016.000000	98.109288
2015.000000	98.107984
2014.000000	98.106870
2013.000000	98.105857
2012.000000	98.104757
2011.000000	98.103479
2010.000000	98.102007
2009.000000	98.100348
2008.000000	98.098609
2007.000000	98.097020
2006.000000	98.095697
2005.000000	98.094568
2004.000000	98.093510
2003.000000	98.092476
2002.000000	98.091462
2001.000000	98.090441
2000.000000	98.089662
1999.000000	98.089318
1998.000000	98.089060
1997.000000	98.088261
1996.000000	98.086684
1995.000000	98.084722
1994.000000	98.082985
1993.000000	98.081811
1992.000000	98.081144
1991.000000	98.080832
1990.000000	98.080806
1989.000000	98.080991
1988.000000	98.081141
1987.000000	98.080878
1986.000000	98.079974
1985.000000	98.078618
1984.000000	98.077329
1983.000000	98.076512
1982.000000	98.076174
1981.000000	98.076080
1980.000000	98.076125
1979.000000	98.076236
1978.000000	98.076229
1977.000000	98.075994
1976.000000	98.075575
1975.000000	98.075041
1974.000000	98.074369
1973.000000	98.073616
1972.000000	98.072989
1971.000000	98.072637
1970.000000	98.072505
1969.000000	98.072434
1968.000000	98.072285
1967.000000	98.071961
1966.000000	98.071446
1965.000000	98.070885
1964.000000	98.070515
1963.000000	98.070436
1962.000000	98.070538
1961.000000	98.070664
1960.000000	98.070794
1959.000000	98.070904
1958.000000	98.070781
1957.000000	98.070204
1956.000000	98.069327
1955.000000	98.068644
1954.000000	98.068405
1953.000000	98.068366
1952.000000	98.068025
1951.000000	98.067264
1950.000000	98.066415
1949.000000	98.065706
1948.000000	98.065180
1947.000000	98.064826
1946.000000	98.064611
1945.000000	98.064487
1944.000000	98.064445
1943.000000	98.064378
1942.000000	98.063936
1941.000000	98.063009
1940.000000	98.061966
1939.000000	98.061095
1938.000000	98.060281
1937.000000	98.059337
1936.000000	98.058467
1935.000000	98.057930
1934.000000	98.057617
1933.000000	98.057404
1932.000000	98.057185
1931.000000	98.057214
1930.000000	98.057209
1929.000000	98.056309
1928.000000	98.054994
1927.000000	98.054247
1926.000000	98.054328
1925.000000	98.053739
1924.000000	98.051442
1923.000000	98.049026
1922.000000	98.048153
1921.000000	98.048117
1920.000000	98.047069
1919.000000	98.044715
1918.000000	98.042178
1917.000000	98.039859
1916.000000	98.037519
1915.000000	98.035233
1914.000000	98.033362
1913.000000	98.032279
1912.000000	98.031789
1911.000000	98.031501
1910.000000	98.030335
1909.000000	98.027266
1908.000000	98.023250
1907.000000	98.019950
1906.000000	98.018196
1905.000000	98.016583
1904.000000	98.013755
1903.000000	98.011241
1902.000000	98.010169
1901.000000	98.009377
1900.000000	98.007764
1899.000000	98.005564
1898.000000	98.003495
1897.000000	98.000988
1896.000000	97.997423
1895.000000	97.994433
1894.000000	97.993618
1893.000000	97.994373
1892.000000	97.995268
1891.000000	97.995910
1890.000000	97.995704
1889.000000	97.993179
1888.000000	97.988771
1887.000000	97.985030
1886.000000	97.982997
1885.000000	97.981426
1884.000000	97.979701
1883.000000	97.979553
1882.000000	97.981509
1881.000000	97.983417
1880.000000	97.984244
1879.000000	97.984693
1878.000000	97.985087
1877.000000	97.984573
1876.000000	97.982599
1875.000000	97.981042
1874.000000	97.981639
1873.000000	97.982497
1872.000000	97.980817
1871.000000	97.976990
1870.000000	97.973320
1869.000000	97.969762
1868.000000	97.965945
1867.000000	97.965155
1866.000000	97.969362
1865.000000	97.975421
1864.000000	97.979489
1863.000000	97.981711
1862.000000	97.984430
1861.000000	97.987947
1860.000000	97.991249
1859.000000	97.994973
1858.000000	98.000027
1857.000000	98.005052
1856.000000	98.007871
1855.000000	98.008682
1854.000000	98.008671
1853.000000	98.007607
1852.000000	98.007036
1851.000000	98.008176
1850.000000	98.010564
1849.000000	98.013681
1848.000000	98.017522
1847.000000	98.022210
1846.000000	98.026084
1845.000000	98.027158
1844.000000	98.025371
1843.000000	98.023995
1842.000000	98.024779
1841.000000	98.025631
1840.000000	98.025486
1839.000000	98.025324
1838.000000	98.026472
1837.000000	98.028192
1836.000000	98.029529
1835.000000	98.031447
1834.000000	98.034113
1833.000000	98.036437
1832.000000	98.037913
1831.000000	98.038020
1830.000000	98.036404
1829.000000	98.033700
1828.000000	98.031038
1827.000000	98.029024
1826.000000	98.028128
1825.000000	98.028432
1824.000000	98.028865
1823.000000	98.029205
1822.000000	98.030110
1821.000000	98.031623
1820.000000	98.032671
1819.000000	98.032324
1818.000000	98.031399
1817.000000	98.030340
1816.000000	98.028929
1815.000000	98.028065
1814.000000	98.028849
1813.000000	98.031344
1812.000000	98.033582
1811.000000	98.034210
1810.000000	98.034189
1809.000000	98.034045
1808.000000	98.033565
1807.000000	98.033110
1806.000000	98.032924
1805.000000	98.031978
1804.000000	98.029580
1803.000000	98.027258
1802.000000	98.026653
1801.000000	98.027567
1800.000000	98.028046
1799.000000	98.027874
1798.000000	98.028852
1797.000000	98.031126
1796.000000	98.033427
1795.000000	98.034924
1794.000000	98.035709
1793.000000	98.036271
1792.000000	98.036502
1791.000000	98.036812
1790.000000	98.037716
1789.000000	98.038283
1788.000000	98.037923
1787.000000	98.037719
1786.000000	98.039157
1785.000000	98.041815
1784.000000	98.043969
1783.000000	98.044937
1782.000000	98.044696
1781.000000	98.044479
1780.000000	98.045118
1779.000000	98.046413
1778.000000	98.048014
1777.000000	98.049487
1776.000000	98.051233
1775.000000	98.053035
1774.000000	98.054250
1773.000000	98.055280
1772.000000	98.056193
1771.000000	98.056457
1770.000000	98.056828
1769.000000	98.057798
1768.000000	98.058747
1767.000000	98.059352
1766.000000	98.060119
1765.000000	98.061718
1764.000000	98.063555
1763.000000	98.064541
1762.000000	98.064242
1761.000000	98.064126
1760.000000	98.064928
1759.000000	98.065847
1758.000000	98.065863
1757.000000	98.065140
1756.000000	98.064962
1755.000000	98.064976
1754.000000	98.064362
1753.000000	98.063668
1752.000000	98.064034
1751.000000	98.064574
1750.000000	98.064410
1749.000000	98.063950
1748.000000	98.064076
1747.000000	98.064661
1746.000000	98.064780
1745.000000	98.065044
1744.000000	98.065309
1743.000000	98.064559
1742.000000	98.063118
1741.000000	98.062401
1740.000000	98.062772
1739.000000	98.063655
1738.000000	98.064441
1737.000000	98.064680
1736.000000	98.064378
1735.000000	98.064528
1734.000000	98.064527
1733.000000	98.063888
1732.000000	98.063584
1731.000000	98.063361
1730.000000	98.062782
1729.000000	98.061989
1728.000000	98.061373
1727.000000	98.060923
1726.000000	98.060340
1725.000000	98.059686
1724.000000	98.058782
1723.000000	98.057735
1722.000000	98.056861
1721.000000	98.056119
1720.000000	98.055283
1719.000000	98.054312
1718.000000	98.053266
1717.000000	98.051981
1716.000000	98.050535
1715.000000	98.049213
1714.000000	98.048024
1713.000000	98.046797
1712.000000	98.045465
1711.000000	98.044096
1710.000000	98.042730
1709.000000	98.041327
1708.000000	98.039865
1707.000000	98.038359
1706.000000	98.036836
1705.000000	98.035299
1704.000000	98.033740
1703.000000	98.032157
1702.000000	98.030551
1701.000000	98.028921
1700.000000	98.027266
1699.000000	98.025586
1698.000000	98.023889
1697.000000	98.022164
1696.000000	98.020397
1695.000000	98.018600
1694.000000	98.016836
1693.000000	98.015124
1692.000000	98.013417
1691.000000	98.011749
1690.000000	98.010176
1689.000000	98.008665
1688.000000	98.007154
1687.000000	98.005528
1686.000000	98.003779
1685.000000	98.002072
1684.000000	98.000404
1683.000000	97.998848
1682.000000	97.997332
1681.000000	97.995503
1680.000000	97.993627
1679.000000	97.992181
1678.000000	97.991086
1677.000000	97.990069
1676.000000	97.989105
1675.000000	97.987936
1674.000000	97.986143
1673.000000	97.984404
1672.000000	97.983286
1671.000000	97.983111
1670.000000	97.983290
1669.000000	97.982741
1668.000000	97.982238
1667.000000	97.982158
1666.000000	97.981682
1665.000000	97.980428
1664.000000	97.979050
1663.000000	97.978802
1662.000000	97.978912
1661.000000	97.978362
1660.000000	97.977702
1659.000000	97.977183
1658.000000	97.976801
1657.000000	97.976902
1656.000000	97.977924
1655.000000	97.979247
1654.000000	97.982689
1653.000000	97.984355
1652.000000	97.983151
1651.000000	97.984868
1650.000000	97.987666
1649.000000	97.989708
1648.000000	97.991984
1647.000000	97.992793
1646.000000	97.991464
1645.000000	97.990476
1644.000000	97.991174
1643.000000	97.992871
1642.000000	97.994044
1641.000000	97.994670
1640.000000	97.996168
1639.000000	97.998799
1638.000000	98.001998
1637.000000	98.005718
1636.000000	98.010041
1635.000000	98.012503
1634.000000	98.014262
1633.000000	98.016825
1632.000000	98.019386
1631.000000	98.022591
1630.000000	98.025761
1629.000000	98.027682
1628.000000	98.029267
1627.000000	98.032520
1626.000000	98.036302
1625.000000	98.038916
1624.000000	98.041306
1623.000000	98.044999
1622.000000	98.048838
1621.000000	98.052111
1620.000000	98.055714
1619.000000	98.058969
1618.000000	98.060831
1617.000000	98.060288
1616.000000	98.060879
1615.000000	98.066061
1614.000000	98.071797
1613.000000	98.074326
1612.000000	98.077247
1611.000000	98.084825
1610.000000	98.093799
1609.000000	98.099778
1608.000000	98.104713
1607.000000	98.111337
1606.000000	98.115780
1605.000000	98.116104
1604.000000	98.115843
1603.000000	98.116301
1602.000000	98.115818
1601.000000	98.114649
1600.000000	98.116229
1599.000000	98.121164
1598.000000	98.125653
1597.000000	98.127245
1596.000000	98.127622
1595.000000	98.129264
1594.000000	98.131190
1593.000000	98.131180
1592.000000	98.129639
1591.000000	98.128504
1590.000000	98.128135
1589.000000	98.128094
1588.000000	98.128604
1587.000000	98.129590
1586.000000	98.129592
1585.000000	98.127813
1584.000000	98.127152
1583.000000	98.127845
1582.000000	98.126821
1581.000000	98.123901
1580.000000	98.121904
1579.000000	98.120798
1578.000000	98.118659
1577.000000	98.116299
1576.000000	98.115457
1575.000000	98.116174
1574.000000	98.116024
1573.000000	98.113871
1572.000000	98.110984
1571.000000	98.109291
1570.000000	98.108448
1569.000000	98.107068
1568.000000	98.105863
1567.000000	98.104515
1566.000000	98.102504
1565.000000	98.100581
1564.000000	98.099838
1563.000000	98.099390
1562.000000	98.098125
1561.000000	98.095732
1560.000000	98.094033
1559.000000	98.092860
1558.000000	98.091124
1557.000000	98.089728
1556.000000	98.088514
1555.000000	98.087088
1554.000000	98.085385
1553.000000	98.083527
1552.000000	98.081646
1551.000000	98.079731
1550.000000	98.078024
1549.000000	98.076599
1548.000000	98.075373
1547.000000	98.074160
1546.000000	98.072860
1545.000000	98.071579
1544.000000	98.070290
1543.000000	98.068749
1542.000000	98.067044
1541.000000	98.065623
1540.000000	98.064541
1539.000000	98.063658
1538.000000	98.063004
1537.000000	98.062123
1536.000000	98.060658
1535.000000	98.059279
1534.000000	98.058492
1533.000000	98.058057
1532.000000	98.057357
1531.000000	98.056450
1530.000000	98.055863
1529.000000	98.055535
1528.000000	98.055173
1527.000000	98.055007
1526.000000	98.055404
1525.000000	98.056348
1524.000000	98.057196
1523.000000	98.057616
1522.000000	98.057939
1521.000000	98.057638
1520.000000	98.056406
1519.000000	98.054643
1518.000000	98.053094
1517.000000	98.052806
1516.000000	98.053635
1515.000000	98.054491
1514.000000	98.054446
1513.000000	98.053494
1512.000000	98.051855
1511.000000	98.050039
1510.000000	98.048973
1509.000000	98.049051
1508.000000	98.050876
1507.000000	98.054111
1506.000000	98.056912
1505.000000	98.058513
1504.000000	98.058701
1503.000000	98.057014
1502.000000	98.054510
1501.000000	98.052782
1500.000000	98.052406
1499.000000	98.052569
1498.000000	98.053334
1497.000000	98.055159
1496.000000	98.056149
1495.000000	98.056039
1494.000000	98.055962
1493.000000	98.055370
1492.000000	98.053226
1491.000000	98.050679
1490.000000	98.050278
1489.000000	98.052056
1488.000000	98.053116
1487.000000	98.053989
1486.000000	98.056034
1485.000000	98.056510
1484.000000	98.054960
1483.000000	98.052518
1482.000000	98.051046
1481.000000	98.050144
1480.000000	98.047464
1479.000000	98.042861
1478.000000	98.038827
1477.000000	98.037093
1476.000000	98.036098
1475.000000	98.035284
1474.000000	98.034846
1473.000000	98.034593
1472.000000	98.031932
1471.000000	98.026430
1470.000000	98.020559
1469.000000	98.015044
1468.000000	98.010119
1467.000000	98.007828
1466.000000	98.009311
1465.000000	98.012745
1464.000000	98.014324
1463.000000	98.011889
1462.000000	98.008143
1461.000000	98.005340
1460.000000	98.003853
1459.000000	98.002266
1458.000000	98.001865
1457.000000	98.004103
1456.000000	98.007338
1455.000000	98.009199
1454.000000	98.008373
1453.000000	98.007250
1452.000000	98.007942
1451.000000	98.010220
1450.000000	98.013752
1449.000000	98.018094
1448.000000	98.021326
1447.000000	98.022349
1446.000000	98.021454
1445.000000	98.021212
1444.000000	98.022430
1443.000000	98.023330
1442.000000	98.023286
1441.000000	98.023073
1440.000000	98.023328
1439.000000	98.023641
1438.000000	98.024806
1437.000000	98.027364
1436.000000	98.029777
1435.000000	98.030606
1434.000000	98.030695
1433.000000	98.031383
1432.000000	98.033022
1431.000000	98.034968
1430.000000	98.036679
1429.000000	98.038171
1428.000000	98.039456
1427.000000	98.040688
1426.000000	98.041987
1425.000000	98.043686
1424.000000	98.045655
1423.000000	98.047271
1422.000000	98.048397
1421.000000	98.049382
1420.000000	98.050677
1419.000000	98.052202
1418.000000	98.053716
1417.000000	98.055263
1416.000000	98.056820
1415.000000	98.058169
1414.000000	98.059180
1413.000000	98.060075
1412.000000	98.061139
1411.000000	98.062181
1410.000000	98.063159
1409.000000	98.064560
1408.000000	98.066437
1407.000000	98.068434
1406.000000	98.070093
1405.000000	98.072017
1404.000000	98.074894
1403.000000	98.077836
1402.000000	98.080167
1401.000000	98.082601
1400.000000	98.086148
1399.000000	98.089664
1398.000000	98.091297
1397.000000	98.091271
1396.000000	98.091511
1395.000000	98.093232
1394.000000	98.095475
1393.000000	98.098113
1392.000000	98.101333
1391.000000	98.104229
1390.000000	98.106310
1389.000000	98.107953
1388.000000	98.108986
1387.000000	98.108350
1386.000000	98.105828
1385.000000	98.103253
1384.000000	98.102319
1383.000000	98.102408
1382.000000	98.102343
1381.000000	98.101600
1380.000000	98.101056
1379.000000	98.101740
1378.000000	98.103437
1377.000000	98.105668
1376.000000	98.108930
1375.000000	98.113772
1374.000000	98.118867
1373.000000	98.122916
1372.000000	98.126191
1371.000000	98.129972
1370.000000	98.134324
1369.000000	98.138712
1368.000000	98.141978
1367.000000	98.142117
1366.000000	98.138498
1365.000000	98.133221
1364.000000	98.130211
1363.000000	98.132042
1362.000000	98.137613
1361.000000	98.143499
1360.000000	98.147430
1359.000000	98.149141
1358.000000	98.149076
1357.000000	98.148174
1356.000000	98.147635
1355.000000	98.147751
1354.000000	98.147772
1353.000000	98.146989
1352.000000	98.145389
1351.000000	98.144177
1350.000000	98.143248
1349.000000	98.142092
1348.000000	98.141119
1347.000000	98.141263
1346.000000	98.142948
1345.000000	98.145351
1344.000000	98.146999
1343.000000	98.146954
1342.000000	98.145784
1341.000000	98.145167
1340.000000	98.146082
1339.000000	98.147305
1338.000000	98.146956
1337.000000	98.145039
1336.000000	98.143169
1335.000000	98.142649
1334.000000	98.143578
1333.000000	98.145198
1332.000000	98.146396
1331.000000	98.146296
1330.000000	98.145182
1329.000000	98.144800
1328.000000	98.146360
1327.000000	98.148635
1326.000000	98.148879
1325.000000	98.146575
1324.000000	98.144034
1323.000000	98.143189
1322.000000	98.143918
1321.000000	98.145455
1320.000000	98.147534
1319.000000	98.149495
1318.000000	98.150108
1317.000000	98.148896
1316.000000	98.146736
1315.000000	98.144765
1314.000000	98.143681
1313.000000	98.143779
1312.000000	98.144557
1311.000000	98.144627
1310.000000	98.143248
1309.000000	98.141891
1308.000000	98.142758
1307.000000	98.145983
1306.000000	98.148955
1305.000000	98.149666
1304.000000	98.148690
1303.000000	98.147518
1302.000000	98.146535
1301.000000	98.145400
1300.000000	98.144628
1299.000000	98.145442
1298.000000	98.148133
1297.000000	98.150989
1296.000000	98.151653
1295.000000	98.149462
1294.000000	98.146319
1293.000000	98.144733
1292.000000	98.145041
1291.000000	98.145596
1290.000000	98.145475
1289.000000	98.145552
1288.000000	98.146546
1287.000000	98.147529
1286.000000	98.147339
1285.000000	98.146220
1284.000000	98.144925
1283.000000	98.143482
1282.000000	98.142138
1281.000000	98.142153
1280.000000	98.144274
1279.000000	98.146905
1278.000000	98.147570
1277.000000	98.145561
1276.000000	98.141991
1275.000000	98.138151
1274.000000	98.135371
1273.000000	98.135454
1272.000000	98.138946
1271.000000	98.143530
1270.000000	98.146325
1269.000000	98.147368
1268.000000	98.148519
1267.000000	98.149433
1266.000000	98.147820
1265.000000	98.143599
1264.000000	98.139781
1263.000000	98.138736
1262.000000	98.140052
1261.000000	98.142518
1260.000000	98.145844
1259.000000	98.149019
1258.000000	98.149544
1257.000000	98.145664
1256.000000	98.137903
1255.000000	98.127803
1254.000000	98.116684
1253.000000	98.106348
1252.000000	98.099325
1251.000000	98.096871
1250.000000	98.097323
1249.000000	98.097523
1248.000000	98.095598
1247.000000	98.091881
1246.000000	98.087899
1245.000000	98.084461
1244.000000	98.080306
1243.000000	98.073256
1242.000000	98.063413
1241.000000	98.054259
1240.000000	98.049077
1239.000000	98.046786
1238.000000	98.042902
1237.000000	98.034230
1236.000000	98.020970
1235.000000	98.004879
1234.000000	97.987812
1233.000000	97.972199
1232.000000	97.960415
1231.000000	97.952550
1230.000000	97.946375
1229.000000	97.940006
1228.000000	97.932750
1227.000000	97.922821
1226.000000	97.906688
1225.000000	97.882475
1224.000000	97.852676
1223.000000	97.821950
1222.000000	97.792860
1221.000000	97.764872
1220.000000	97.736401
1219.000000	97.705789
1218.000000	97.670900
1217.000000	97.629864
1216.000000	97.582810
1215.000000	97.531952
1214.000000	97.479797
1213.000000	97.428169
1212.000000	97.378807
1211.000000	97.333423
1210.000000	97.292040
1209.000000	97.251951
1208.000000	97.209504
1207.000000	97.163263
1206.000000	97.115341
1205.000000	97.069293
1204.000000	97.026349
1203.000000	96.983750
1202.000000	96.937374
1201.000000	96.886011
1200.000000	96.832173
1199.000000	96.778539
1198.000000	96.725186
1197.000000	96.671330
1196.000000	96.618202
1195.000000	96.568439
1194.000000	96.523228
1193.000000	96.481407
1192.000000	96.440404
1191.000000	96.396682
1190.000000	96.346778
1189.000000	96.290189
1188.000000	96.230680
1187.000000	96.173009
1186.000000	96.119014
1185.000000	96.068170
1184.000000	96.019883
1183.000000	95.972214
1182.000000	95.920108
1181.000000	95.859296
1180.000000	95.791852
1179.000000	95.724047
1178.000000	95.658460
1177.000000	95.592203
1176.000000	95.523366
1175.000000	95.454577
1174.000000	95.388182
1173.000000	95.322003
1172.000000	95.252596
1171.000000	95.179871
1170.000000	95.106092
1169.000000	95.032935
1168.000000	94.962107
1167.000000	94.896760
1166.000000	94.839769
1165.000000	94.792178
1164.000000	94.755459
1163.000000	94.733840
1162.000000	94.732081
1161.000000	94.750792
1160.000000	94.783824
1159.000000	94.819289
1158.000000	94.844373
1157.000000	94.851511
1156.000000	94.840317
1155.000000	94.813709
1154.000000	94.774001
1153.000000	94.723891
1152.000000	94.668831
1151.000000	94.614930
1150.000000	94.564556
1149.000000	94.516187
1148.000000	94.467814
1147.000000	94.417834
1146.000000	94.363826
1145.000000	94.304011
1144.000000	94.239876
1143.000000	94.174769
1142.000000	94.110627
1141.000000	94.048710
1140.000000	93.991736
1139.000000	93.941072
1138.000000	93.892835
1137.000000	93.841367
1136.000000	93.785998
1135.000000	93.730036
1134.000000	93.673995
1133.000000	93.615048
1132.000000	93.553015
1131.000000	93.491472
1130.000000	93.432112
1129.000000	93.372661
1128.000000	93.311027
1127.000000	93.247340
1126.000000	93.181999
1125.000000	93.116308
1124.000000	93.054499
1123.000000	92.999287
1122.000000	92.945184
1121.000000	92.882482
1120.000000	92.808988
1119.000000	92.732233
1118.000000	92.658877
1117.000000	92.587719
1116.000000	92.515236
1115.000000	92.442224
1114.000000	92.372236
1113.000000	92.307949
1112.000000	92.250730
1111.000000	92.198922
1110.000000	92.145402
1109.000000	92.082842
1108.000000	92.012565
1107.000000	91.943145
1106.000000	91.879242
1105.000000	91.817627
1104.000000	91.755160
1103.000000	91.693749
1102.000000	91.635309
1101.000000	91.578258
1100.000000	91.520905
1099.000000	91.463173
1098.000000	91.403233
1097.000000	91.338596
1096.000000	91.272166
1095.000000	91.210926
1094.000000	91.156838
1093.000000	91.104554
1092.000000	91.049364
1091.000000	90.991671
1090.000000	90.933318
1089.000000	90.876417
1088.000000	90.826569
1087.000000	90.789570
1086.000000	90.762881
1085.000000	90.737019
1084.000000	90.707068
1083.000000	90.676482
1082.000000	90.648628
1081.000000	90.621334
1080.000000	90.591141
1079.000000	90.556823
1078.000000	90.518104
1077.000000	90.476949
1076.000000	90.439407
1075.000000	90.408525
1074.000000	90.375801
1073.000000	90.328049
1072.000000	90.262539
1071.000000	90.187008
1070.000000	90.104483
1069.000000	90.007348
1068.000000	89.889012
1067.000000	89.753617
1066.000000	89.611900
1065.000000	89.473951
1064.000000	89.347142
1063.000000	89.232830
1062.000000	89.122353
1061.000000	89.003854
1060.000000	88.875787
1059.000000	88.747800
1058.000000	88.627745
1057.000000	88.514768
1056.000000	88.405064
1055.000000	88.295495
1054.000000	88.180555
1053.000000	88.054901
1052.000000	87.921190
1051.000000	87.787654
1050.000000	87.657008
1049.000000	87.526405
1048.000000	87.396886
1047.000000	87.271270
1046.000000	87.144565
1045.000000	87.009262
1044.000000	86.869267
1043.000000	86.736531
1042.000000	86.614044
1041.000000	86.493689
1040.000000	86.370720
1039.000000	86.247848
1038.000000	86.124636
1037.000000	85.996912
1036.000000	85.869246
1035.000000	85.754924
1034.000000	85.660023
1033.000000	85.578446
1032.000000	85.504188
1031.000000	85.436862
1030.000000	85.373856
1029.000000	85.309804
1028.000000	85.246337
1027.000000	85.190467
1026.000000	85.141436
1025.000000	85.090762
1024.000000	85.036333
1023.000000	84.984348
1022.000000	84.936651
1021.000000	84.889165
1020.000000	84.843655
1019.000000	84.807049
1018.000000	84.777140
1017.000000	84.742625
1016.000000	84.700315
1015.000000	84.659805
1014.000000	84.628538
1013.000000	84.604096
1012.000000	84.582727
1011.000000	84.563421
1010.000000	84.542416
1009.000000	84.516051
1008.000000	84.490388
1007.000000	84.475916
1006.000000	84.471719
1005.000000	84.466519
1004.000000	84.455430
1003.000000	84.443463
1002.000000	84.433459
1001.000000	84.424522
1000.000000	84.421923
999.000000	84.433187
998.000000	84.452956
997.000000	84.466519
996.000000	84.470620
995.000000	84.476800
994.000000	84.492133
993.000000	84.510920
992.000000	84.527696
991.000000	84.544531
990.000000	84.562876
989.000000	84.581803
988.000000	84.606744
987.000000	84.646243
986.000000	84.697249
985.000000	84.747028
984.000000	84.792936
983.000000	84.847361
982.000000	84.919994
981.000000	85.007882
980.000000	85.105339
979.000000	85.210880
978.000000	85.321454
977.000000	85.432433
976.000000	85.546724
975.000000	85.672463
974.000000	85.809264
973.000000	85.947983
972.000000	86.085590
971.000000	86.227990
970.000000	86.376165
969.000000	86.522530
968.000000	86.664443
967.000000	86.809341
966.000000	86.962203
965.000000	87.118000
964.000000	87.269825
963.000000	87.414881
962.000000	87.550293
961.000000	87.673586
960.000000	87.790700
959.000000	87.913956
958.000000	88.047953
957.000000	88.184883
956.000000	88.315810
955.000000	88.438409
954.000000	88.552429
953.000000	88.656943
952.000000	88.754479
951.000000	88.849458
950.000000	88.940096
949.000000	89.019645
948.000000	89.087656
947.000000	89.152544
946.000000	89.221286
945.000000	89.293550
944.000000	89.366672
943.000000	89.438007
942.000000	89.501527
941.000000	89.551520
940.000000	89.592218
939.000000	89.636126
938.000000	89.690194
937.000000	89.750130
936.000000	89.809339
935.000000	89.865393
934.000000	89.916740
933.000000	89.961934
932.000000	90.004773
931.000000	90.052603
930.000000	90.106910
929.000000	90.162312
928.000000	90.216504
927.000000	90.273833
926.000000	90.336712
925.000000	90.400034
924.000000	90.456507
923.000000	90.502657
922.000000	90.539322
921.000000	90.571949
920.000000	90.610048
919.000000	90.659466
918.000000	90.714531
917.000000	90.763789
916.000000	90.803431
915.000000	90.839232
914.000000	90.877224
913.000000	90.920366
912.000000	90.972834
911.000000	91.038362
910.000000	91.114578
909.000000	91.197209
908.000000	91.289011
907.000000	91.395433
906.000000	91.512442
905.000000	91.628959
904.000000	91.741986
903.000000	91.859477
902.000000	91.987424
901.000000	92.123710
900.000000	92.265129
899.000000	92.410407
898.000000	92.554362
897.000000	92.688810
896.000000	92.812488
895.000000	92.932785
894.000000	93.055454
893.000000	93.179120
892.000000	93.301016
891.000000	93.420522
890.000000	93.535132
889.000000	93.640288
888.000000	93.736326
887.000000	93.830154
886.000000	93.927467
885.000000	94.027461
884.000000	94.126297
883.000000	94.221124
882.000000	94.310444
881.000000	94.396127
880.000000	94.485769
879.000000	94.586976
878.000000	94.697245
877.000000	94.804315
876.000000	94.898454
875.000000	94.981572
874.000000	95.064974
873.000000	95.161181
872.000000	95.275283
871.000000	95.399015
870.000000	95.515104
869.000000	95.612955
868.000000	95.698835
867.000000	95.787003
866.000000	95.883601
865.000000	95.984020
864.000000	96.082722
863.000000	96.178549
862.000000	96.271500
861.000000	96.360375
860.000000	96.443635
859.000000	96.518843
858.000000	96.583255
857.000000	96.639091
856.000000	96.695198
855.000000	96.757781
854.000000	96.822072
853.000000	96.879693
852.000000	96.931680
851.000000	96.986409
850.000000	97.045515
849.000000	97.100042
848.000000	97.141870
847.000000	97.172377
846.000000	97.197963
845.000000	97.221853
844.000000	97.242140
843.000000	97.254421
842.000000	97.255251
841.000000	97.245199
840.000000	97.228002
839.000000	97.204879
838.000000	97.171890
837.000000	97.125680
836.000000	97.069119
835.000000	97.008176
834.000000	96.947169
833.000000	96.891683
832.000000	96.851382
831.000000	96.832118
830.000000	96.827811
829.000000	96.828019
828.000000	96.830960
827.000000	96.840568
826.000000	96.854667
825.000000	96.868274
824.000000	96.885714
823.000000	96.914564
822.000000	96.948818
821.000000	96.973144
820.000000	96.982416
819.000000	96.982457
818.000000	96.973129
817.000000	96.945470
816.000000	96.897009
815.000000	96.836637
814.000000	96.769603
813.000000	96.687747
812.000000	96.579210
811.000000	96.438182
810.000000	96.260417
809.000000	96.039632
808.000000	95.776137
807.000000	95.481537
806.000000	95.167426
805.000000	94.836263
804.000000	94.491206
803.000000	94.148625
802.000000	93.833307
801.000000	93.566463
800.000000	93.362920
799.000000	93.229942
798.000000	93.160602
797.000000	93.136317
796.000000	93.143301
795.000000	93.180136
794.000000	93.245104
793.000000	93.325587
792.000000	93.406181
791.000000	93.479489
790.000000	93.542899
789.000000	93.591075
788.000000	93.617211
787.000000	93.616734
786.000000	93.585714
785.000000	93.521159
784.000000	93.427101
783.000000	93.315465
782.000000	93.197919
781.000000	93.082911
780.000000	92.983638
779.000000	92.920148
778.000000	92.906568
777.000000	92.941362
776.000000	93.014372
775.000000	93.117226
774.000000	93.242486
773.000000	93.378919
772.000000	93.513562
771.000000	93.636416
770.000000	93.741797
769.000000	93.828914
768.000000	93.901863
767.000000	93.964258
766.000000	94.012936
765.000000	94.042369
764.000000	94.056325
763.000000	94.069107
762.000000	94.092981
761.000000	94.129302
760.000000	94.173284
759.000000	94.221006
758.000000	94.269518
757.000000	94.316713
756.000000	94.364783
755.000000	94.418876
754.000000	94.479341
753.000000	94.539709
752.000000	94.594665
751.000000	94.645757
750.000000	94.696832
749.000000	94.747675
748.000000	94.795041
747.000000	94.838007
746.000000	94.881199
745.000000	94.934078
744.000000	95.005481
743.000000	95.095445
742.000000	95.194130
741.000000	95.293026
740.000000	95.394544
739.000000	95.505008
738.000000	95.621199
737.000000	95.731460
736.000000	95.829022
735.000000	95.916391
734.000000	95.996582
733.000000	96.067591
732.000000	96.126162
731.000000	96.170112
730.000000	96.196627
729.000000	96.206149
728.000000	96.209238
727.000000	96.221646
726.000000	96.249597
725.000000	96.285814
724.000000	96.322120
723.000000	96.359521
722.000000	96.403256
721.000000	96.454227
720.000000	96.509463
719.000000	96.566827
718.000000	96.625213
717.000000	96.682400
716.000000	96.735259
715.000000	96.781124
714.000000	96.818928
713.000000	96.850877
712.000000	96.881630
711.000000	96.912835
710.000000	96.940322
709.000000	96.960584
708.000000	96.976875
707.000000	96.992300
706.000000	96.999510
705.000000	96.985363
704.000000	96.945225
703.000000	96.884750
702.000000	96.806692
701.000000	96.704284
700.000000	96.570865
699.000000	96.409168
698.000000	96.229914
697.000000	96.049776
696.000000	95.894057
695.000000	95.793067
694.000000	95.767335
693.000000	95.816414
692.000000	95.921333
691.000000	96.053979
690.000000	96.187247
689.000000	96.304154
688.000000	96.401004
687.000000	96.480791
686.000000	96.544680
685.000000	96.594257
684.000000	96.638718
683.000000	96.690422
682.000000	96.752786
681.000000	96.817972
680.000000	96.875649
679.000000	96.918555
678.000000	96.942839
677.000000	96.952776
676.000000	96.964139
675.000000	96.988936
674.000000	97.020512
673.000000	97.044252
672.000000	97.060256
671.000000	97.084917
670.000000	97.132708
669.000000	97.203273
668.000000	97.281590
667.000000	97.347036
666.000000	97.385663
665.000000	97.405487
664.000000	97.423069
663.000000	97.448639
662.000000	97.480281
661.000000	97.506960
660.000000	97.520886
659.000000	97.521910
658.000000	97.511510
657.000000	97.491579
656.000000	97.470750
655.000000	97.459963
654.000000	97.459211
653.000000	97.456259
652.000000	97.442566
651.000000	97.425616
650.000000	97.420921
