4000.000000	100.395395
3999.000000	100.395747
3998.000000	100.396676
3997.000000	100.397615
3996.000000	100.398018
3995.000000	100.397654
3994.000000	100.396790
3993.000000	100.396052
3992.000000	100.395834
3991.000000	100.395949
3990.000000	100.395813
3989.000000	100.394984
3988.000000	100.393550
3987.000000	100.392134
3986.000000	100.391427
3985.000000	100.391763
3984.000000	100.393071
3983.000000	100.394972
3982.000000	100.396920
3981.000000	100.398354
3980.000000	100.398909
3979.000000	100.398603
3978.000000	100.397857
3977.000000	100.397161
3976.000000	100.396630
3975.000000	100.395981
3974.000000	100.394974
3973.000000	100.393781
3972.000000	100.392915
3971.000000	100.392807
3970.000000	100.393539
3969.000000	100.394830
3968.000000	100.396127
3967.000000	100.396831
3966.000000	100.396626
3965.000000	100.395750
3964.000000	100.394941
3963.000000	100.394948
3962.000000	100.395963
3961.000000	100.397404
3960.000000	100.398273
3959.000000	100.397878
3958.000000	100.396394
3957.000000	100.394794
3956.000000	100.394000
3955.000000	100.394079
3954.000000	100.394435
3953.000000	100.394744
3952.000000	100.395434
3951.000000	100.397033
3950.000000	100.399154
3949.000000	100.400423
3948.000000	100.399681
3947.000000	100.397105
3946.000000	100.394023
3945.000000	100.391742
3944.000000	100.390607
3943.000000	100.390095
3942.000000	100.389595
3941.000000	100.388888
3940.000000	100.388047
3939.000000	100.387104
3938.000000	100.386029
3937.000000	100.384988
3936.000000	100.384396
3935.000000	100.384665
3934.000000	100.385988
3933.000000	100.388293
3932.000000	100.391131
3931.000000	100.393639
3930.000000	100.395001
3929.000000	100.395112
3928.000000	100.394685
3927.000000	100.394579
3926.000000	100.395024
3925.000000	100.395597
3924.000000	100.395860
3923.000000	100.395835
3922.000000	100.395820
3921.000000	100.395876
3920.000000	100.395597
3919.000000	100.394354
3918.000000	100.391898
3917.000000	100.388854
3916.000000	100.386509
3915.000000	100.385852
3914.000000	100.386857
3913.000000	100.388581
3912.000000	100.389867
3911.000000	100.390149
3910.000000	100.389762
3909.000000	100.389501
3908.000000	100.389739
3907.000000	100.389836
3906.000000	100.388516
3905.000000	100.385142
3904.000000	100.380785
3903.000000	100.377700
3902.000000	100.377311
3901.000000	100.379213
3900.000000	100.381683
3899.000000	100.383140
3898.000000	100.383180
3897.000000	100.382264
3896.000000	100.380961
3895.000000	100.379535
3894.000000	100.377933
3893.000000	100.375934
3892.000000	100.373469
3891.000000	100.370922
3890.000000	100.369042
3889.000000	100.368290
3888.000000	100.368271
3887.000000	100.368285
3886.000000	100.368530
3885.000000	100.370214
3884.000000	100.374079
3883.000000	100.379092
3882.000000	100.382995
3881.000000	100.384219
3880.000000	100.383023
3879.000000	100.381062
3878.000000	100.379792
3877.000000	100.379269
3876.000000	100.378535
3875.000000	100.376904
3874.000000	100.374654
3873.000000	100.372579
3872.000000	100.371215
3871.000000	100.370868
3870.000000	100.372041
3869.000000	100.375135
3868.000000	100.379660
3867.000000	100.383787
3866.000000	100.385199
3865.000000	100.383070
3864.000000	100.379144
3863.000000	100.376404
3862.000000	100.376378
3861.000000	100.378420
3860.000000	100.381031
3859.000000	100.383308
3858.000000	100.385627
3857.000000	100.389240
3856.000000	100.394770
3855.000000	100.400527
3854.000000	100.403222
3853.000000	100.402106
3852.000000	100.399839
3851.000000	100.397713
3850.000000	100.394529
3849.000000	100.390023
3848.000000	100.385935
3847.000000	100.384224
3846.000000	100.385388
3845.000000	100.388335
3844.000000	100.391149
3843.000000	100.392367
3842.000000	100.391888
3841.000000	100.390677
3840.000000	100.389717
3839.000000	100.389188
3838.000000	100.388466
3837.000000	100.386935
3836.000000	100.384798
3835.000000	100.382903
3834.000000	100.381902
3833.000000	100.381707
3832.000000	100.381658
3831.000000	100.381271
3830.000000	100.380712
3829.000000	100.380397
3828.000000	100.380412
3827.000000	100.380472
3826.000000	100.380343
3825.000000	100.380118
3824.000000	100.379953
3823.000000	100.379714
3822.000000	100.379096
3821.000000	100.378155
3820.000000	100.377460
3819.000000	100.377375
3818.000000	100.377640
3817.000000	100.377742
3816.000000	100.377372
3815.000000	100.376659
3814.000000	100.375901
3813.000000	100.375257
3812.000000	100.374709
3811.000000	100.374205
3810.000000	100.373719
3809.000000	100.373243
3808.000000	100.372774
3807.000000	100.372311
3806.000000	100.371864
3805.000000	100.371443
3804.000000	100.371056
3803.000000	100.370699
3802.000000	100.370356
3801.000000	100.370016
3800.000000	100.369673
3799.000000	100.369318
3798.000000	100.368945
3797.000000	100.368558
3796.000000	100.368174
3795.000000	100.367824
3794.000000	100.367529
3793.000000	100.367286
3792.000000	100.367072
3791.000000	100.366871
3790.000000	100.366678
3789.000000	100.366483
3788.000000	100.366284
3787.000000	100.366091
3786.000000	100.365936
3785.000000	100.365834
3784.000000	100.365740
3783.000000	100.365574
3782.000000	100.365308
3781.000000	100.365024
3780.000000	100.364850
3779.000000	100.364800
3778.000000	100.364721
3777.000000	100.364452
3776.000000	100.363992
3775.000000	100.363519
3774.000000	100.363255
3773.000000	100.363281
3772.000000	100.363404
3771.000000	100.363253
3770.000000	100.362606
3769.000000	100.361677
3768.000000	100.360951
3767.000000	100.360642
3766.000000	100.360537
3765.000000	100.360530
3764.000000	100.361051
3763.000000	100.362621
3762.000000	100.364958
3761.000000	100.366848
3760.000000	100.367208
3759.000000	100.366007
3758.000000	100.363999
3757.000000	100.361843
3756.000000	100.360078
3755.000000	100.359532
3754.000000	100.361087
3753.000000	100.364809
3752.000000	100.369111
3751.000000	100.371504
3750.000000	100.371056
3749.000000	100.369627
3748.000000	100.370030
3747.000000	100.372748
3746.000000	100.375252
3745.000000	100.374687
3744.000000	100.371527
3743.000000	100.369963
3742.000000	100.371591
3741.000000	100.372499
3740.000000	100.369731
3739.000000	100.364538
3738.000000	100.359237
3737.000000	100.354943
3736.000000	100.352178
3735.000000	100.351798
3734.000000	100.353922
3733.000000	100.357296
3732.000000	100.360824
3731.000000	100.364581
3730.000000	100.368913
3729.000000	100.373190
3728.000000	100.376008
3727.000000	100.376180
3726.000000	100.373349
3725.000000	100.368227
3724.000000	100.362129
3723.000000	100.356420
3722.000000	100.352133
3721.000000	100.349318
3720.000000	100.346915
3719.000000	100.343569
3718.000000	100.338862
3717.000000	100.333659
3716.000000	100.329069
3715.000000	100.324900
3714.000000	100.319604
3713.000000	100.312024
3712.000000	100.303074
3711.000000	100.294934
3710.000000	100.288463
3709.000000	100.283299
3708.000000	100.280001
3707.000000	100.279731
3706.000000	100.282272
3705.000000	100.285346
3704.000000	100.285742
3703.000000	100.281773
3702.000000	100.275284
3701.000000	100.270488
3700.000000	100.269840
3699.000000	100.271529
3698.000000	100.271296
3697.000000	100.266803
3696.000000	100.260407
3695.000000	100.257035
3694.000000	100.259311
3693.000000	100.265372
3692.000000	100.270872
3691.000000	100.272410
3690.000000	100.269591
3689.000000	100.264542
3688.000000	100.259698
3687.000000	100.256228
3686.000000	100.253357
3685.000000	100.249113
3684.000000	100.242797
3683.000000	100.235536
3682.000000	100.228330
3681.000000	100.221076
3680.000000	100.213389
3679.000000	100.205597
3678.000000	100.198093
3677.000000	100.190265
3676.000000	100.181430
3675.000000	100.172567
3674.000000	100.165475
3673.000000	100.160283
3672.000000	100.154839
3671.000000	100.147520
3670.000000	100.139535
3669.000000	100.133093
3668.000000	100.128430
3667.000000	100.124005
3666.000000	100.118388
3665.000000	100.111059
3664.000000	100.102592
3663.000000	100.094374
3662.000000	100.087589
3661.000000	100.082338
3660.000000	100.077552
3659.000000	100.071623
3658.000000	100.063141
3657.000000	100.051962
3656.000000	100.039901
3655.000000	100.029763
3654.000000	100.022746
3653.000000	100.017441
3652.000000	100.011790
3651.000000	100.004749
3650.000000	99.996534
3649.000000	99.988544
3648.000000	99.981672
3647.000000	99.975492
3646.000000	99.969689
3645.000000	99.963924
3644.000000	99.957803
3643.000000	99.952143
3642.000000	99.948689
3641.000000	99.947503
3640.000000	99.945733
3639.000000	99.940538
3638.000000	99.932712
3637.000000	99.925921
3636.000000	99.921895
3635.000000	99.917874
3634.000000	99.909796
3633.000000	99.897175
3632.000000	99.883751
3631.000000	99.874482
3630.000000	99.872506
3629.000000	99.876823
3628.000000	99.882805
3627.000000	99.886864
3626.000000	99.888751
3625.000000	99.889084
3624.000000	99.887450
3623.000000	99.882499
3622.000000	99.873677
3621.000000	99.863776
3620.000000	99.858613
3619.000000	99.862308
3618.000000	99.873354
3617.000000	99.887027
3616.000000	99.899839
3615.000000	99.910209
3614.000000	99.917522
3613.000000	99.922153
3612.000000	99.925339
3611.000000	99.928254
3610.000000	99.931225
3609.000000	99.934044
3608.000000	99.936747
3607.000000	99.939318
3606.000000	99.940983
3605.000000	99.940822
3604.000000	99.938667
3603.000000	99.935440
3602.000000	99.933098
3601.000000	99.933782
3600.000000	99.938257
3599.000000	99.945191
3598.000000	99.952254
3597.000000	99.958096
3596.000000	99.963038
3595.000000	99.967982
3594.000000	99.973017
3593.000000	99.977236
3592.000000	99.979707
3591.000000	99.980449
3590.000000	99.980868
3589.000000	99.983369
3588.000000	99.989322
3587.000000	99.996454
3586.000000	100.000181
3585.000000	99.998875
3584.000000	99.995060
3583.000000	99.991315
3582.000000	99.987652
3581.000000	99.983056
3580.000000	99.977754
3579.000000	99.973046
3578.000000	99.969477
3577.000000	99.966290
3576.000000	99.962795
3575.000000	99.959384
3574.000000	99.957038
3573.000000	99.956519
3572.000000	99.958293
3571.000000	99.962563
3570.000000	99.968792
3569.000000	99.975439
3568.000000	99.980921
3567.000000	99.984680
3566.000000	99.986315
3565.000000	99.984713
3564.000000	99.979478
3563.000000	99.971942
3562.000000	99.964530
3561.000000	99.959307
3560.000000	99.956555
3559.000000	99.954887
3558.000000	99.952943
3557.000000	99.950772
3556.000000	99.949514
3555.000000	99.950084
3554.000000	99.952244
3553.000000	99.954570
3552.000000	99.955222
3551.000000	99.953260
3550.000000	99.949584
3549.000000	99.946582
3548.000000	99.946466
3547.000000	99.949600
3546.000000	99.954072
3545.000000	99.957107
3544.000000	99.957413
3543.000000	99.955771
3542.000000	99.953684
3541.000000	99.951865
3540.000000	99.949968
3539.000000	99.947544
3538.000000	99.944850
3537.000000	99.942654
3536.000000	99.941400
3535.000000	99.940768
3534.000000	99.940084
3533.000000	99.938886
3532.000000	99.937052
3531.000000	99.934772
3530.000000	99.932656
3529.000000	99.931576
3528.000000	99.931997
3527.000000	99.933535
3526.000000	99.935428
3525.000000	99.937299
3524.000000	99.939119
3523.000000	99.940564
3522.000000	99.940973
3521.000000	99.940121
3520.000000	99.938647
3519.000000	99.937472
3518.000000	99.937019
3517.000000	99.937146
3516.000000	99.937641
3515.000000	99.938440
3514.000000	99.939392
3513.000000	99.940109
3512.000000	99.940245
3511.000000	99.939893
3510.000000	99.939610
3509.000000	99.939956
3508.000000	99.940929
3507.000000	99.941862
3506.000000	99.941908
3505.000000	99.940769
3504.000000	99.939114
3503.000000	99.938058
3502.000000	99.938023
3501.000000	99.938326
3500.000000	99.937956
3499.000000	99.936641
3498.000000	99.935090
3497.000000	99.934307
3496.000000	99.934558
3495.000000	99.935126
3494.000000	99.935041
3493.000000	99.934059
3492.000000	99.932739
3491.000000	99.931783
3490.000000	99.931392
3489.000000	99.931332
3488.000000	99.931347
3487.000000	99.931350
3486.000000	99.931276
3485.000000	99.930992
3484.000000	99.930438
3483.000000	99.929775
3482.000000	99.929271
3481.000000	99.928980
3480.000000	99.928581
3479.000000	99.927606
3478.000000	99.925835
3477.000000	99.923541
3476.000000	99.921444
3475.000000	99.920284
3474.000000	99.920337
3473.000000	99.921363
3472.000000	99.922795
3471.000000	99.924026
3470.000000	99.924671
3469.000000	99.924681
3468.000000	99.924243
3467.000000	99.923547
3466.000000	99.922629
3465.000000	99.921488
3464.000000	99.920278
3463.000000	99.919274
3462.000000	99.918664
3461.000000	99.918408
3460.000000	99.918246
3459.000000	99.917796
3458.000000	99.916780
3457.000000	99.915278
3456.000000	99.913747
3455.000000	99.912653
3454.000000	99.912103
3453.000000	99.911942
3452.000000	99.912076
3451.000000	99.912483
3450.000000	99.912907
3449.000000	99.912924
3448.000000	99.912446
3447.000000	99.911866
3446.000000	99.911538
3445.000000	99.911253
3444.000000	99.910484
3443.000000	99.909037
3442.000000	99.907289
3441.000000	99.905864
3440.000000	99.905098
3439.000000	99.904815
3438.000000	99.904449
3437.000000	99.903477
3436.000000	99.901828
3435.000000	99.899929
3434.000000	99.898430
3433.000000	99.897682
3432.000000	99.897598
3431.000000	99.897789
3430.000000	99.897844
3429.000000	99.897587
3428.000000	99.897064
3427.000000	99.896405
3426.000000	99.895686
3425.000000	99.894888
3424.000000	99.893978
3423.000000	99.892992
3422.000000	99.892036
3421.000000	99.891228
3420.000000	99.890652
3419.000000	99.890310
3418.000000	99.890081
3417.000000	99.889799
3416.000000	99.889410
3415.000000	99.888993
3414.000000	99.888537
3413.000000	99.887884
3412.000000	99.887070
3411.000000	99.886597
3410.000000	99.886971
3409.000000	99.887960
3408.000000	99.888596
3407.000000	99.888125
3406.000000	99.886732
3405.000000	99.885331
3404.000000	99.884722
3403.000000	99.885075
3402.000000	99.886023
3401.000000	99.886941
3400.000000	99.887298
3399.000000	99.887063
3398.000000	99.886855
3397.000000	99.887467
3396.000000	99.889156
3395.000000	99.891478
3394.000000	99.893669
3393.000000	99.895044
3392.000000	99.895217
3391.000000	99.894280
3390.000000	99.892896
3389.000000	99.891864
3388.000000	99.891420
3387.000000	99.891226
3386.000000	99.890993
3385.000000	99.890806
3384.000000	99.890711
3383.000000	99.890345
3382.000000	99.889345
3381.000000	99.888017
3380.000000	99.887254
3379.000000	99.887648
3378.000000	99.888909
3377.000000	99.890325
3376.000000	99.891728
3375.000000	99.893768
3374.000000	99.897052
3373.000000	99.901120
3372.000000	99.904367
3371.000000	99.905421
3370.000000	99.904437
3369.000000	99.903004
3368.000000	99.902711
3367.000000	99.903655
3366.000000	99.904706
3365.000000	99.904909
3364.000000	99.904414
3363.000000	99.904064
3362.000000	99.904454
3361.000000	99.905536
3360.000000	99.906902
3359.000000	99.908186
3358.000000	99.909211
3357.000000	99.909912
3356.000000	99.910286
3355.000000	99.910434
3354.000000	99.910618
3353.000000	99.911153
3352.000000	99.912131
3351.000000	99.913257
3350.000000	99.914064
3349.000000	99.914382
3348.000000	99.914557
3347.000000	99.915173
3346.000000	99.916500
3345.000000	99.918274
3344.000000	99.919923
3343.000000	99.921052
3342.000000	99.921651
3341.000000	99.921921
3340.000000	99.922012
3339.000000	99.921963
3338.000000	99.921818
3337.000000	99.921675
3336.000000	99.921614
3335.000000	99.921667
3334.000000	99.921920
3333.000000	99.922585
3332.000000	99.923817
3331.000000	99.925406
3330.000000	99.926767
3329.000000	99.927452
3328.000000	99.927595
3327.000000	99.927849
3326.000000	99.928743
3325.000000	99.930163
3324.000000	99.931441
3323.000000	99.932018
3322.000000	99.931847
3321.000000	99.931333
3320.000000	99.931018
3319.000000	99.931243
3318.000000	99.932044
3317.000000	99.933177
3316.000000	99.934284
3315.000000	99.935174
3314.000000	99.935965
3313.000000	99.936958
3312.000000	99.938332
3311.000000	99.939929
3310.000000	99.941377
3309.000000	99.942485
3308.000000	99.943419
3307.000000	99.944373
3306.000000	99.945162
3305.000000	99.945383
3304.000000	99.944973
3303.000000	99.944389
3302.000000	99.944091
3301.000000	99.944109
3300.000000	99.944279
3299.000000	99.944673
3298.000000	99.945526
3297.000000	99.946884
3296.000000	99.948560
3295.000000	99.950366
3294.000000	99.952052
3293.000000	99.953185
3292.000000	99.953507
3291.000000	99.953428
3290.000000	99.953728
3289.000000	99.954555
3288.000000	99.955253
3287.000000	99.955467
3286.000000	99.955956
3285.000000	99.957715
3284.000000	99.960601
3283.000000	99.963261
3282.000000	99.964583
3281.000000	99.964772
3280.000000	99.964812
3279.000000	99.965269
3278.000000	99.965877
3277.000000	99.966279
3276.000000	99.966811
3275.000000	99.968295
3274.000000	99.971070
3273.000000	99.974366
3272.000000	99.976783
3271.000000	99.977455
3270.000000	99.976600
3269.000000	99.975143
3268.000000	99.973890
3267.000000	99.973144
3266.000000	99.972915
3265.000000	99.973133
3264.000000	99.973638
3263.000000	99.974153
3262.000000	99.974432
3261.000000	99.974476
3260.000000	99.974546
3259.000000	99.974934
3258.000000	99.975664
3257.000000	99.976434
3256.000000	99.976875
3255.000000	99.976855
3254.000000	99.976578
3253.000000	99.976439
3252.000000	99.976761
3251.000000	99.977620
3250.000000	99.978766
3249.000000	99.979757
3248.000000	99.980268
3247.000000	99.980332
3246.000000	99.980316
3245.000000	99.980654
3244.000000	99.981493
3243.000000	99.982642
3242.000000	99.983749
3241.000000	99.984597
3240.000000	99.985228
3239.000000	99.985822
3238.000000	99.986508
3237.000000	99.987247
3236.000000	99.987910
3235.000000	99.988433
3234.000000	99.988873
3233.000000	99.989358
3232.000000	99.989979
3231.000000	99.990744
3230.000000	99.991598
3229.000000	99.992455
3228.000000	99.993245
3227.000000	99.993934
3226.000000	99.994545
3225.000000	99.995161
3224.000000	99.995868
3223.000000	99.996687
3222.000000	99.997575
3221.000000	99.998494
3220.000000	99.999469
3219.000000	100.000540
3218.000000	100.001699
3217.000000	100.002892
3216.000000	100.004080
3215.000000	100.005273
3214.000000	100.006478
3213.000000	100.007631
3212.000000	100.008633
3211.000000	100.009462
3210.000000	100.010232
3209.000000	100.011130
3208.000000	100.012250
3207.000000	100.013552
3206.000000	100.014880
3205.000000	100.016097
3204.000000	100.017219
3203.000000	100.018375
3202.000000	100.019596
3201.000000	100.020680
3200.000000	100.021392
3199.000000	100.021736
3198.000000	100.022044
3197.000000	100.022663
3196.000000	100.023656
3195.000000	100.024851
3194.000000	100.026098
3193.000000	100.027379
3192.000000	100.028707
3191.000000	100.030063
3190.000000	100.031439
3189.000000	100.032818
3188.000000	100.034091
3187.000000	100.035104
3186.000000	100.035827
3185.000000	100.036444
3184.000000	100.037288
3183.000000	100.038616
3182.000000	100.040364
3181.000000	100.042069
3180.000000	100.043239
3179.000000	100.043866
3178.000000	100.044428
3177.000000	100.045252
3176.000000	100.046079
3175.000000	100.046559
3174.000000	100.046956
3173.000000	100.047931
3172.000000	100.049669
3171.000000	100.051601
3170.000000	100.053037
3169.000000	100.053658
3168.000000	100.053332
3167.000000	100.052050
3166.000000	100.050398
3165.000000	100.049602
3164.000000	100.050500
3163.000000	100.052845
3162.000000	100.055723
3161.000000	100.058530
3160.000000	100.061215
3159.000000	100.063698
3158.000000	100.065575
3157.000000	100.066486
3156.000000	100.066529
3155.000000	100.066270
3154.000000	100.066329
3153.000000	100.066862
3152.000000	100.067461
3151.000000	100.067735
3150.000000	100.067994
3149.000000	100.069068
3148.000000	100.071345
3147.000000	100.074279
3146.000000	100.076933
3145.000000	100.078838
3144.000000	100.080057
3143.000000	100.080741
3142.000000	100.081016
3141.000000	100.081201
3140.000000	100.081699
3139.000000	100.082583
3138.000000	100.083577
3137.000000	100.084497
3136.000000	100.085488
3135.000000	100.086718
3134.000000	100.088021
3133.000000	100.088982
3132.000000	100.089356
3131.000000	100.089343
3130.000000	100.089480
3129.000000	100.090224
3128.000000	100.091603
3127.000000	100.093223
3126.000000	100.094564
3125.000000	100.095323
3124.000000	100.095508
3123.000000	100.095358
3122.000000	100.095269
3121.000000	100.095638
3120.000000	100.096603
3119.000000	100.097920
3118.000000	100.099123
3117.000000	100.099943
3116.000000	100.100479
3115.000000	100.101004
3114.000000	100.101741
3113.000000	100.102795
3112.000000	100.104144
3111.000000	100.105588
3110.000000	100.106817
3109.000000	100.107628
3108.000000	100.108057
3107.000000	100.108342
3106.000000	100.108838
3105.000000	100.109869
3104.000000	100.111489
3103.000000	100.113310
3102.000000	100.114746
3101.000000	100.115599
3100.000000	100.116278
3099.000000	100.117323
3098.000000	100.118768
3097.000000	100.120109
3096.000000	100.120880
3095.000000	100.121076
3094.000000	100.120986
3093.000000	100.120789
3092.000000	100.120489
3091.000000	100.120201
3090.000000	100.120322
3089.000000	100.121277
3088.000000	100.123091
3087.000000	100.125345
3086.000000	100.127613
3085.000000	100.129822
3084.000000	100.132004
3083.000000	100.133847
3082.000000	100.134886
3081.000000	100.135156
3080.000000	100.135184
3079.000000	100.135123
3078.000000	100.134350
3077.000000	100.132337
3076.000000	100.129722
3075.000000	100.128099
3074.000000	100.128594
3073.000000	100.130916
3072.000000	100.133761
3071.000000	100.136023
3070.000000	100.137543
3069.000000	100.138864
3068.000000	100.140568
3067.000000	100.142822
3066.000000	100.145209
3065.000000	100.146853
3064.000000	100.146919
3063.000000	100.145285
3062.000000	100.142813
3061.000000	100.140766
3060.000000	100.139775
3059.000000	100.139511
3058.000000	100.139290
3057.000000	100.138776
3056.000000	100.138087
3055.000000	100.137609
3054.000000	100.137977
3053.000000	100.139896
3052.000000	100.143498
3051.000000	100.147935
3050.000000	100.151917
3049.000000	100.154706
3048.000000	100.156277
3047.000000	100.156724
3046.000000	100.156078
3045.000000	100.154793
3044.000000	100.153863
3043.000000	100.154077
3042.000000	100.155369
3041.000000	100.157015
3040.000000	100.158232
3039.000000	100.158557
3038.000000	100.158058
3037.000000	100.157431
3036.000000	100.157515
3035.000000	100.158379
3034.000000	100.159219
3033.000000	100.159490
3032.000000	100.159816
3031.000000	100.161232
3030.000000	100.163811
3029.000000	100.166593
3028.000000	100.168653
3027.000000	100.169720
3026.000000	100.169830
3025.000000	100.169128
3024.000000	100.168201
3023.000000	100.167986
3022.000000	100.168943
3021.000000	100.170628
3020.000000	100.172328
3019.000000	100.173923
3018.000000	100.175765
3017.000000	100.177991
3016.000000	100.180370
3015.000000	100.182610
3014.000000	100.184419
3013.000000	100.185563
3012.000000	100.186393
3011.000000	100.187970
3010.000000	100.190963
3009.000000	100.194589
3008.000000	100.197399
3007.000000	100.199077
3006.000000	100.200715
3005.000000	100.203124
3004.000000	100.205645
3003.000000	100.207062
3002.000000	100.207101
3001.000000	100.206568
3000.000000	100.206433
2999.000000	100.207262
2998.000000	100.209288
2997.000000	100.212399
2996.000000	100.215985
2995.000000	100.219114
2994.000000	100.221043
2993.000000	100.221609
2992.000000	100.221372
2991.000000	100.221430
2990.000000	100.222728
2989.000000	100.225258
2988.000000	100.228162
2987.000000	100.230867
2986.000000	100.233838
2985.000000	100.237845
2984.000000	100.242792
2983.000000	100.247795
2982.000000	100.252259
2981.000000	100.256272
2980.000000	100.259867
2979.000000	100.262516
2978.000000	100.263622
2977.000000	100.263123
2976.000000	100.261388
2975.000000	100.258792
2974.000000	100.255794
2973.000000	100.253379
2972.000000	100.253009
2971.000000	100.255583
2970.000000	100.260138
2969.000000	100.263881
2968.000000	100.264305
2967.000000	100.261617
2966.000000	100.258776
2965.000000	100.258841
2964.000000	100.262632
2963.000000	100.268906
2962.000000	100.275813
2961.000000	100.281611
2960.000000	100.284749
2959.000000	100.284539
2958.000000	100.281842
2957.000000	100.278448
2956.000000	100.275856
2955.000000	100.274896
2954.000000	100.275746
2953.000000	100.277497
2952.000000	100.278409
2951.000000	100.277774
2950.000000	100.277121
2949.000000	100.278361
2948.000000	100.281167
2947.000000	100.283416
2946.000000	100.284002
2945.000000	100.283938
2944.000000	100.284810
2943.000000	100.287545
2942.000000	100.292649
2941.000000	100.300131
2940.000000	100.308864
2939.000000	100.317212
2938.000000	100.324566
2937.000000	100.331212
2936.000000	100.336844
2935.000000	100.340865
2934.000000	100.344502
2933.000000	100.350781
2932.000000	100.361304
2931.000000	100.374021
2930.000000	100.384937
2929.000000	100.391270
2928.000000	100.392821
2927.000000	100.391723
2926.000000	100.391396
2925.000000	100.394283
2924.000000	100.399651
2923.000000	100.404334
2922.000000	100.405779
2921.000000	100.403335
2920.000000	100.397040
2919.000000	100.387594
2918.000000	100.377962
2917.000000	100.372091
2916.000000	100.370348
2915.000000	100.368456
2914.000000	100.362828
2913.000000	100.354957
2912.000000	100.348487
2911.000000	100.343597
2910.000000	100.337343
2909.000000	100.328930
2908.000000	100.321586
2907.000000	100.318582
2906.000000	100.319496
2905.000000	100.321071
2904.000000	100.320161
2903.000000	100.315327
2902.000000	100.307110
2901.000000	100.298028
2900.000000	100.291444
2899.000000	100.289324
2898.000000	100.291318
2897.000000	100.295609
2896.000000	100.299991
2895.000000	100.302243
2894.000000	100.300958
2893.000000	100.296993
2892.000000	100.293204
2891.000000	100.291648
2890.000000	100.291370
2889.000000	100.289749
2888.000000	100.285853
2887.000000	100.281614
2886.000000	100.279596
2885.000000	100.280339
2884.000000	100.282307
2883.000000	100.283917
2882.000000	100.284965
2881.000000	100.286006
2880.000000	100.286989
2879.000000	100.287099
2878.000000	100.285977
2877.000000	100.284537
2876.000000	100.283957
2875.000000	100.284078
2874.000000	100.283563
2873.000000	100.281991
2872.000000	100.281169
2871.000000	100.283336
2870.000000	100.287932
2869.000000	100.291292
2868.000000	100.290726
2867.000000	100.288372
2866.000000	100.289276
2865.000000	100.295359
2864.000000	100.303012
2863.000000	100.307878
2862.000000	100.310514
2861.000000	100.314942
2860.000000	100.322366
2859.000000	100.329256
2858.000000	100.332228
2857.000000	100.332241
2856.000000	100.332797
2855.000000	100.335757
2854.000000	100.340311
2853.000000	100.344599
2852.000000	100.346542
2851.000000	100.344114
2850.000000	100.336746
2849.000000	100.326519
2848.000000	100.316905
2847.000000	100.309832
2846.000000	100.304695
2845.000000	100.300317
2844.000000	100.296905
2843.000000	100.295698
2842.000000	100.296979
2841.000000	100.298691
2840.000000	100.297625
2839.000000	100.292724
2838.000000	100.286967
2837.000000	100.284726
2836.000000	100.286836
2835.000000	100.289402
2834.000000	100.288142
2833.000000	100.282950
2832.000000	100.277279
2831.000000	100.273937
2830.000000	100.272775
2829.000000	100.272110
2828.000000	100.270974
2827.000000	100.269738
2826.000000	100.269282
2825.000000	100.269880
2824.000000	100.270730
2823.000000	100.270672
2822.000000	100.269535
2821.000000	100.268306
2820.000000	100.267674
2819.000000	100.267089
2818.000000	100.265807
2817.000000	100.264222
2816.000000	100.263291
2815.000000	100.263047
2814.000000	100.262546
2813.000000	100.261150
2812.000000	100.259268
2811.000000	100.257930
2810.000000	100.258037
2809.000000	100.259872
2808.000000	100.262895
2807.000000	100.265798
2806.000000	100.267299
2805.000000	100.267138
2804.000000	100.266113
2803.000000	100.265349
2802.000000	100.265318
2801.000000	100.265725
2800.000000	100.266112
2799.000000	100.266360
2798.000000	100.266716
2797.000000	100.267446
2796.000000	100.268480
2795.000000	100.269396
2794.000000	100.269833
2793.000000	100.269922
2792.000000	100.270196
2791.000000	100.271061
2790.000000	100.272465
2789.000000	100.274036
2788.000000	100.275358
2787.000000	100.276171
2786.000000	100.276473
2785.000000	100.276517
2784.000000	100.276605
2783.000000	100.276860
2782.000000	100.277237
2781.000000	100.277700
2780.000000	100.278254
2779.000000	100.278842
2778.000000	100.279375
2777.000000	100.279860
2776.000000	100.280402
2775.000000	100.281060
2774.000000	100.281773
2773.000000	100.282443
2772.000000	100.283009
2771.000000	100.283482
2770.000000	100.283902
2769.000000	100.284310
2768.000000	100.284719
2767.000000	100.285123
2766.000000	100.285517
2765.000000	100.285896
2764.000000	100.286272
2763.000000	100.286677
2762.000000	100.287114
2761.000000	100.287549
2760.000000	100.287954
2759.000000	100.288315
2758.000000	100.288610
2757.000000	100.288808
2756.000000	100.288926
2755.000000	100.289046
2754.000000	100.289237
2753.000000	100.289496
2752.000000	100.289782
2751.000000	100.290083
2750.000000	100.290403
2749.000000	100.290732
2748.000000	100.291059
2747.000000	100.291393
2746.000000	100.291707
2745.000000	100.291911
2744.000000	100.291937
2743.000000	100.291816
2742.000000	100.291698
2741.000000	100.291773
2740.000000	100.292148
2739.000000	100.292765
2738.000000	100.293378
2737.000000	100.293755
2736.000000	100.293849
2735.000000	100.293783
2734.000000	100.293638
2733.000000	100.293360
2732.000000	100.292990
2731.000000	100.292817
2730.000000	100.293118
2729.000000	100.293897
2728.000000	100.294930
2727.000000	100.296028
2726.000000	100.297095
2725.000000	100.297956
2724.000000	100.298416
2723.000000	100.298419
2722.000000	100.298018
2721.000000	100.297378
2720.000000	100.296738
2719.000000	100.296339
2718.000000	100.296346
2717.000000	100.296751
2716.000000	100.297420
2715.000000	100.298164
2714.000000	100.298791
2713.000000	100.299223
2712.000000	100.299526
2711.000000	100.299806
2710.000000	100.300094
2709.000000	100.300368
2708.000000	100.300632
2707.000000	100.300895
2706.000000	100.301128
2705.000000	100.301296
2704.000000	100.301396
2703.000000	100.301460
2702.000000	100.301567
2701.000000	100.301792
2700.000000	100.302128
2699.000000	100.302513
2698.000000	100.302890
2697.000000	100.303210
2696.000000	100.303432
2695.000000	100.303563
2694.000000	100.303690
2693.000000	100.303890
2692.000000	100.304167
2691.000000	100.304485
2690.000000	100.304800
2689.000000	100.305076
2688.000000	100.305308
2687.000000	100.305557
2686.000000	100.305927
2685.000000	100.306456
2684.000000	100.306999
2683.000000	100.307318
2682.000000	100.307284
2681.000000	100.306935
2680.000000	100.306513
2679.000000	100.306406
2678.000000	100.306873
2677.000000	100.307609
2676.000000	100.307899
2675.000000	100.307399
2674.000000	100.306492
2673.000000	100.305863
2672.000000	100.305916
2671.000000	100.306654
2670.000000	100.307918
2669.000000	100.309479
2668.000000	100.310883
2667.000000	100.311484
2666.000000	100.310725
2665.000000	100.308325
2664.000000	100.304368
2663.000000	100.299508
2662.000000	100.295196
2661.000000	100.293463
2660.000000	100.296131
2659.000000	100.303729
2658.000000	100.314437
2657.000000	100.324130
2656.000000	100.328702
2655.000000	100.326985
2654.000000	100.321638
2653.000000	100.316985
2652.000000	100.315583
2651.000000	100.316949
2650.000000	100.319022
2649.000000	100.320539
2648.000000	100.322277
2647.000000	100.326098
2646.000000	100.332281
2645.000000	100.337687
2644.000000	100.337552
2643.000000	100.329722
2642.000000	100.316676
2641.000000	100.303065
2640.000000	100.291929
2639.000000	100.284293
2638.000000	100.281378
2637.000000	100.285067
2636.000000	100.295794
2635.000000	100.311432
2634.000000	100.329024
2633.000000	100.346578
2632.000000	100.362507
2631.000000	100.374378
2630.000000	100.379486
2629.000000	100.376591
2628.000000	100.366358
2627.000000	100.350299
2626.000000	100.330174
2625.000000	100.308808
2624.000000	100.290839
2623.000000	100.281505
2622.000000	100.283768
2621.000000	100.296169
2620.000000	100.313455
2619.000000	100.330044
2618.000000	100.343088
2617.000000	100.351865
2616.000000	100.355289
2615.000000	100.351748
2614.000000	100.341621
2613.000000	100.328580
2612.000000	100.317049
2611.000000	100.308646
2610.000000	100.302191
2609.000000	100.296592
2608.000000	100.292520
2607.000000	100.291411
2606.000000	100.293946
2605.000000	100.299798
2604.000000	100.307972
2603.000000	100.316801
2602.000000	100.324134
2601.000000	100.328208
2600.000000	100.328586
2599.000000	100.326287
2598.000000	100.323132
2597.000000	100.320787
2596.000000	100.319819
2595.000000	100.319421
2594.000000	100.318392
2593.000000	100.316553
2592.000000	100.314871
2591.000000	100.314060
2590.000000	100.313584
2589.000000	100.312424
2588.000000	100.310392
2587.000000	100.308203
2586.000000	100.306592
2585.000000	100.305989
2584.000000	100.306853
2583.000000	100.309472
2582.000000	100.313123
2581.000000	100.316068
2580.000000	100.316956
2579.000000	100.316045
2578.000000	100.314568
2577.000000	100.313158
2576.000000	100.311678
2575.000000	100.310281
2574.000000	100.309704
2573.000000	100.310368
2572.000000	100.311794
2571.000000	100.313136
2570.000000	100.313995
2569.000000	100.314528
2568.000000	100.315068
2567.000000	100.315813
2566.000000	100.316687
2565.000000	100.317392
2564.000000	100.317673
2563.000000	100.317566
2562.000000	100.317369
2561.000000	100.317384
2560.000000	100.317633
2559.000000	100.317869
2558.000000	100.317913
2557.000000	100.317856
2556.000000	100.317911
2555.000000	100.318195
2554.000000	100.318672
2553.000000	100.319192
2552.000000	100.319621
2551.000000	100.319965
2550.000000	100.320364
2549.000000	100.320912
2548.000000	100.321518
2547.000000	100.321989
2546.000000	100.322255
2545.000000	100.322469
2544.000000	100.322852
2543.000000	100.323465
2542.000000	100.324196
2541.000000	100.324880
2540.000000	100.325466
2539.000000	100.325989
2538.000000	100.326435
2537.000000	100.326734
2536.000000	100.326896
2535.000000	100.327021
2534.000000	100.327185
2533.000000	100.327398
2532.000000	100.327658
2531.000000	100.327976
2530.000000	100.328340
2529.000000	100.328710
2528.000000	100.329054
2527.000000	100.329375
2526.000000	100.329693
2525.000000	100.330020
2524.000000	100.330353
2523.000000	100.330696
2522.000000	100.331054
2521.000000	100.331425
2520.000000	100.331802
2519.000000	100.332168
2518.000000	100.332513
2517.000000	100.332838
2516.000000	100.333159
2515.000000	100.333489
2514.000000	100.333832
2513.000000	100.334180
2512.000000	100.334523
2511.000000	100.334856
2510.000000	100.335179
2509.000000	100.335494
2508.000000	100.335800
2507.000000	100.336092
2506.000000	100.336370
2505.000000	100.336652
2504.000000	100.336954
2503.000000	100.337274
2502.000000	100.337603
2501.000000	100.337947
2500.000000	100.338308
2499.000000	100.338669
2498.000000	100.339015
2497.000000	100.339361
2496.000000	100.339742
2495.000000	100.340175
2494.000000	100.340635
2493.000000	100.341077
2492.000000	100.341489
2491.000000	100.341888
2490.000000	100.342291
2489.000000	100.342717
2488.000000	100.343209
2487.000000	100.343789
2486.000000	100.344365
2485.000000	100.344760
2484.000000	100.344873
2483.000000	100.344785
2482.000000	100.344693
2481.000000	100.344732
2480.000000	100.344891
2479.000000	100.345100
2478.000000	100.345394
2477.000000	100.345909
2476.000000	100.346694
2475.000000	100.347568
2474.000000	100.348240
2473.000000	100.348619
2472.000000	100.348857
2471.000000	100.349189
2470.000000	100.349685
2469.000000	100.350231
2468.000000	100.350725
2467.000000	100.351203
2466.000000	100.351752
2465.000000	100.352369
2464.000000	100.352966
2463.000000	100.353464
2462.000000	100.353858
2461.000000	100.354192
2460.000000	100.354523
2459.000000	100.354893
2458.000000	100.355321
2457.000000	100.355794
2456.000000	100.356250
2455.000000	100.356616
2454.000000	100.356885
2453.000000	100.357107
2452.000000	100.357354
2451.000000	100.357640
2450.000000	100.357935
2449.000000	100.358211
2448.000000	100.358463
2447.000000	100.358706
2446.000000	100.358952
2445.000000	100.359192
2444.000000	100.359410
2443.000000	100.359606
2442.000000	100.359807
2441.000000	100.360038
2440.000000	100.360294
2439.000000	100.360524
2438.000000	100.360702
2437.000000	100.360869
2436.000000	100.361095
2435.000000	100.361403
2434.000000	100.361743
2433.000000	100.362041
2432.000000	100.362236
2431.000000	100.362256
2430.000000	100.362081
2429.000000	100.361835
2428.000000	100.361709
2427.000000	100.361769
2426.000000	100.361875
2425.000000	100.361830
2424.000000	100.361606
2423.000000	100.361373
2422.000000	100.361325
2421.000000	100.361535
2420.000000	100.361972
2419.000000	100.362559
2418.000000	100.363179
2417.000000	100.363655
2416.000000	100.363816
2415.000000	100.363679
2414.000000	100.363558
2413.000000	100.363823
2412.000000	100.364469
2411.000000	100.364961
2410.000000	100.364733
2409.000000	100.363780
2408.000000	100.362733
2407.000000	100.362271
2406.000000	100.362552
2405.000000	100.363339
2404.000000	100.364299
2403.000000	100.365083
2402.000000	100.365398
2401.000000	100.365260
2400.000000	100.365128
2399.000000	100.365557
2398.000000	100.366654
2397.000000	100.367998
2396.000000	100.369080
2395.000000	100.369736
2394.000000	100.370111
2393.000000	100.370410
2392.000000	100.370749
2391.000000	100.371162
2390.000000	100.371642
2389.000000	100.372133
2388.000000	100.372554
2387.000000	100.372866
2386.000000	100.373097
2385.000000	100.373304
2384.000000	100.373541
2383.000000	100.373850
2382.000000	100.374249
2381.000000	100.374718
2380.000000	100.375182
2379.000000	100.375557
2378.000000	100.375802
2377.000000	100.375933
2376.000000	100.375993
2375.000000	100.376031
2374.000000	100.376094
2373.000000	100.376212
2372.000000	100.376384
2371.000000	100.376568
2370.000000	100.376699
2369.000000	100.376745
2368.000000	100.376730
2367.000000	100.376715
2366.000000	100.376746
2365.000000	100.376821
2364.000000	100.376910
2363.000000	100.376980
2362.000000	100.377008
2361.000000	100.376995
2360.000000	100.376944
2359.000000	100.376867
2358.000000	100.376767
2357.000000	100.376640
2356.000000	100.376483
2355.000000	100.376298
2354.000000	100.376100
2353.000000	100.375909
2352.000000	100.375743
2351.000000	100.375609
2350.000000	100.375497
2349.000000	100.375392
2348.000000	100.375279
2347.000000	100.375157
2346.000000	100.375032
2345.000000	100.374910
2344.000000	100.374784
2343.000000	100.374641
2342.000000	100.374467
2341.000000	100.374259
2340.000000	100.374026
2339.000000	100.373783
2338.000000	100.373545
2337.000000	100.373320
2336.000000	100.373111
2335.000000	100.372917
2334.000000	100.372729
2333.000000	100.372542
2332.000000	100.372350
2331.000000	100.372154
2330.000000	100.371960
2329.000000	100.371776
2328.000000	100.371604
2327.000000	100.371440
2326.000000	100.371272
2325.000000	100.371089
2324.000000	100.370888
2323.000000	100.370672
2322.000000	100.370451
2321.000000	100.370232
2320.000000	100.370023
2319.000000	100.369826
2318.000000	100.369637
2317.000000	100.369453
2316.000000	100.369271
2315.000000	100.369096
2314.000000	100.368934
2313.000000	100.368789
2312.000000	100.368661
2311.000000	100.368539
2310.000000	100.368409
2309.000000	100.368257
2308.000000	100.368077
2307.000000	100.367875
2306.000000	100.367667
2305.000000	100.367464
2304.000000	100.367268
2303.000000	100.367076
2302.000000	100.366883
2301.000000	100.366690
2300.000000	100.366500
2299.000000	100.366317
2298.000000	100.366137
2297.000000	100.365955
2296.000000	100.365770
2295.000000	100.365579
2294.000000	100.365383
2293.000000	100.365183
2292.000000	100.364980
2291.000000	100.364775
2290.000000	100.364569
2289.000000	100.364363
2288.000000	100.364155
2287.000000	100.363937
2286.000000	100.363694
2285.000000	100.363442
2284.000000	100.363220
2283.000000	100.363060
2282.000000	100.362962
2281.000000	100.362880
2280.000000	100.362758
2279.000000	100.362555
2278.000000	100.362263
2277.000000	100.361940
2276.000000	100.361668
2275.000000	100.361496
2274.000000	100.361421
2273.000000	100.361420
2272.000000	100.361449
2271.000000	100.361383
2270.000000	100.361055
2269.000000	100.360414
2268.000000	100.359632
2267.000000	100.358977
2266.000000	100.358565
2265.000000	100.358317
2264.000000	100.358118
2263.000000	100.357977
2262.000000	100.357959
2261.000000	100.357963
2260.000000	100.357749
2259.000000	100.357165
2258.000000	100.356325
2257.000000	100.355527
2256.000000	100.354973
2255.000000	100.354668
2254.000000	100.354531
2253.000000	100.354542
2252.000000	100.354693
2251.000000	100.354861
2250.000000	100.354845
2249.000000	100.354578
2248.000000	100.354235
2247.000000	100.354085
2246.000000	100.354223
2245.000000	100.354446
2244.000000	100.354395
2243.000000	100.353841
2242.000000	100.352859
2241.000000	100.351802
2240.000000	100.351061
2239.000000	100.350801
2238.000000	100.350946
2237.000000	100.351331
2236.000000	100.351827
2235.000000	100.352302
2234.000000	100.352608
2233.000000	100.352679
2232.000000	100.352642
2231.000000	100.352747
2230.000000	100.353107
2229.000000	100.353537
2228.000000	100.353713
2227.000000	100.353516
2226.000000	100.353177
2225.000000	100.353028
2224.000000	100.353168
2223.000000	100.353492
2222.000000	100.353985
2221.000000	100.354770
2220.000000	100.355779
2219.000000	100.356609
2218.000000	100.356903
2217.000000	100.356713
2216.000000	100.356346
2215.000000	100.355963
2214.000000	100.355547
2213.000000	100.355229
2212.000000	100.355300
2211.000000	100.355860
2210.000000	100.356667
2209.000000	100.357477
2208.000000	100.358347
2207.000000	100.359389
2206.000000	100.360384
2205.000000	100.360878
2204.000000	100.360645
2203.000000	100.359928
2202.000000	100.359265
2201.000000	100.359104
2200.000000	100.359582
2199.000000	100.360540
2198.000000	100.361649
2197.000000	100.362558
2196.000000	100.363044
2195.000000	100.363137
2194.000000	100.363146
2193.000000	100.363473
2192.000000	100.364233
2191.000000	100.365072
2190.000000	100.365438
2189.000000	100.365083
2188.000000	100.364273
2187.000000	100.363550
2186.000000	100.363280
2185.000000	100.363433
2184.000000	100.363638
2183.000000	100.363517
2182.000000	100.363064
2181.000000	100.362686
2180.000000	100.362728
2179.000000	100.363025
2178.000000	100.363053
2177.000000	100.362502
2176.000000	100.361540
2175.000000	100.360559
2174.000000	100.359820
2173.000000	100.359425
2172.000000	100.359467
2171.000000	100.359991
2170.000000	100.360819
2169.000000	100.361576
2168.000000	100.361941
2167.000000	100.361868
2166.000000	100.361543
2165.000000	100.361208
2164.000000	100.360993
2163.000000	100.360887
2162.000000	100.360831
2161.000000	100.360793
2160.000000	100.360782
2159.000000	100.360811
2158.000000	100.360873
2157.000000	100.360939
2156.000000	100.360987
2155.000000	100.361019
2154.000000	100.361057
2153.000000	100.361117
2152.000000	100.361204
2151.000000	100.361322
2150.000000	100.361480
2149.000000	100.361671
2148.000000	100.361870
2147.000000	100.362061
2146.000000	100.362248
2145.000000	100.362441
2144.000000	100.362650
2143.000000	100.362883
2142.000000	100.363141
2141.000000	100.363418
2140.000000	100.363709
2139.000000	100.364009
2138.000000	100.364322
2137.000000	100.364657
2136.000000	100.365020
2135.000000	100.365409
2134.000000	100.365814
2133.000000	100.366222
2132.000000	100.366628
2131.000000	100.367030
2130.000000	100.367429
2129.000000	100.367823
2128.000000	100.368219
2127.000000	100.368625
2126.000000	100.369051
2125.000000	100.369503
2124.000000	100.369978
2123.000000	100.370463
2122.000000	100.370941
2121.000000	100.371402
2120.000000	100.371843
2119.000000	100.372267
2118.000000	100.372674
2117.000000	100.373067
2116.000000	100.373458
2115.000000	100.373859
2114.000000	100.374281
2113.000000	100.374725
2112.000000	100.375184
2111.000000	100.375646
2110.000000	100.376101
2109.000000	100.376545
2108.000000	100.376985
2107.000000	100.377427
2106.000000	100.377880
2105.000000	100.378343
2104.000000	100.378818
2103.000000	100.379299
2102.000000	100.379781
2101.000000	100.380260
2100.000000	100.380736
2099.000000	100.381210
2098.000000	100.381686
2097.000000	100.382162
2096.000000	100.382632
2095.000000	100.383085
2094.000000	100.383515
2093.000000	100.383925
2092.000000	100.384328
2091.000000	100.384735
2090.000000	100.385151
2089.000000	100.385570
2088.000000	100.385988
2087.000000	100.386395
2086.000000	100.386783
2085.000000	100.387148
2084.000000	100.387491
2083.000000	100.387822
2082.000000	100.388156
2081.000000	100.388499
2080.000000	100.388848
2079.000000	100.389196
2078.000000	100.389534
2077.000000	100.389855
2076.000000	100.390158
2075.000000	100.390440
2074.000000	100.390702
2073.000000	100.390941
2072.000000	100.391154
2071.000000	100.391335
2070.000000	100.391482
2069.000000	100.391606
2068.000000	100.391720
2067.000000	100.391836
2066.000000	100.391951
2065.000000	100.392056
2064.000000	100.392140
2063.000000	100.392186
2062.000000	100.392180
2061.000000	100.392124
2060.000000	100.392033
2059.000000	100.391927
2058.000000	100.391816
2057.000000	100.391702
2056.000000	100.391568
2055.000000	100.391405
2054.000000	100.391222
2053.000000	100.391050
2052.000000	100.390920
2051.000000	100.390813
2050.000000	100.390640
2049.000000	100.390321
2048.000000	100.389895
2047.000000	100.389496
2046.000000	100.389173
2045.000000	100.388838
2044.000000	100.388446
2043.000000	100.388135
2042.000000	100.388062
2041.000000	100.388075
2040.000000	100.387733
2039.000000	100.386773
2038.000000	100.385437
2037.000000	100.384224
2036.000000	100.383314
2035.000000	100.382489
2034.000000	100.381549
2033.000000	100.380601
2032.000000	100.379814
2031.000000	100.379101
2030.000000	100.378287
2029.000000	100.377580
2028.000000	100.377555
2027.000000	100.378479
2026.000000	100.379725
2025.000000	100.380153
2024.000000	100.379169
2023.000000	100.377286
2022.000000	100.375541
2021.000000	100.374445
2020.000000	100.373674
2019.000000	100.372670
2018.000000	100.371371
2017.000000	100.370329
2016.000000	100.370213
2015.000000	100.371186
2014.000000	100.372716
2013.000000	100.373914
2012.000000	100.374232
2011.000000	100.373840
2010.000000	100.373216
2009.000000	100.372435
2008.000000	100.371053
2007.000000	100.368845
2006.000000	100.366302
2005.000000	100.364056
2004.000000	100.362087
2003.000000	100.359954
2002.000000	100.357776
2001.000000	100.356410
2000.000000	100.356439
1999.000000	100.357365
1998.000000	100.358078
1997.000000	100.358056
1996.000000	100.357809
1995.000000	100.358194
1994.000000	100.359532
1993.000000	100.361254
1992.000000	100.362299
1991.000000	100.362034
1990.000000	100.360826
1989.000000	100.359663
1988.000000	100.359261
1987.000000	100.359631
1986.000000	100.360415
1985.000000	100.361333
1984.000000	100.362222
1983.000000	100.362888
1982.000000	100.363171
1981.000000	100.363080
1980.000000	100.362697
1979.000000	100.362085
1978.000000	100.361429
1977.000000	100.361103
1976.000000	100.361313
1975.000000	100.361734
1974.000000	100.361751
1973.000000	100.361139
1972.000000	100.360355
1971.000000	100.360086
1970.000000	100.360534
1969.000000	100.361201
1968.000000	100.361339
1967.000000	100.360685
1966.000000	100.359652
1965.000000	100.358908
1964.000000	100.358651
1963.000000	100.358526
1962.000000	100.358153
1961.000000	100.357579
1960.000000	100.357148
1959.000000	100.357031
1958.000000	100.357078
1957.000000	100.357053
1956.000000	100.356862
1955.000000	100.356574
1954.000000	100.356306
1953.000000	100.356119
1952.000000	100.355975
1951.000000	100.355764
1950.000000	100.355460
1949.000000	100.355211
1948.000000	100.355146
1947.000000	100.355103
1946.000000	100.354737
1945.000000	100.353968
1944.000000	100.353180
1943.000000	100.352838
1942.000000	100.352947
1941.000000	100.353048
1940.000000	100.352770
1939.000000	100.352124
1938.000000	100.351304
1937.000000	100.350479
1936.000000	100.349690
1935.000000	100.348874
1934.000000	100.347957
1933.000000	100.346959
1932.000000	100.345964
1931.000000	100.345020
1930.000000	100.344138
1929.000000	100.343357
1928.000000	100.342707
1927.000000	100.342095
1926.000000	100.341348
1925.000000	100.340413
1924.000000	100.339418
1923.000000	100.338469
1922.000000	100.337441
1921.000000	100.336139
1920.000000	100.334585
1919.000000	100.333067
1918.000000	100.331955
1917.000000	100.331365
1916.000000	100.330976
1915.000000	100.330226
1914.000000	100.328783
1913.000000	100.326889
1912.000000	100.325124
1911.000000	100.323773
1910.000000	100.322588
1909.000000	100.321280
1908.000000	100.319902
1907.000000	100.318598
1906.000000	100.317304
1905.000000	100.315885
1904.000000	100.314346
1903.000000	100.312713
1902.000000	100.310858
1901.000000	100.308718
1900.000000	100.306658
1899.000000	100.305311
1898.000000	100.304933
1897.000000	100.304997
1896.000000	100.304466
1895.000000	100.302642
1894.000000	100.299802
1893.000000	100.297027
1892.000000	100.295224
1891.000000	100.294378
1890.000000	100.293700
1889.000000	100.292437
1888.000000	100.290540
1887.000000	100.288490
1886.000000	100.286832
1885.000000	100.285992
1884.000000	100.286075
1883.000000	100.286662
1882.000000	100.287127
1881.000000	100.287300
1880.000000	100.287532
1879.000000	100.287971
1878.000000	100.288113
1877.000000	100.287290
1876.000000	100.285346
1875.000000	100.282726
1874.000000	100.280285
1873.000000	100.279122
1872.000000	100.280109
1871.000000	100.283129
1870.000000	100.286608
1869.000000	100.288327
1868.000000	100.287458
1867.000000	100.285216
1866.000000	100.283324
1865.000000	100.282607
1864.000000	100.282980
1863.000000	100.283848
1862.000000	100.284584
1861.000000	100.285193
1860.000000	100.286488
1859.000000	100.289159
1858.000000	100.292721
1857.000000	100.295697
1856.000000	100.297049
1855.000000	100.297140
1854.000000	100.297305
1853.000000	100.298674
1852.000000	100.301329
1851.000000	100.304279
1850.000000	100.306302
1849.000000	100.307082
1848.000000	100.307466
1847.000000	100.308336
1846.000000	100.309509
1845.000000	100.310221
1844.000000	100.310438
1843.000000	100.310884
1842.000000	100.311632
1841.000000	100.311842
1840.000000	100.311076
1839.000000	100.310072
1838.000000	100.309968
1837.000000	100.311018
1836.000000	100.312460
1835.000000	100.313456
1834.000000	100.313803
1833.000000	100.313939
1832.000000	100.314586
1831.000000	100.316175
1830.000000	100.318227
1829.000000	100.319733
1828.000000	100.320429
1827.000000	100.320784
1826.000000	100.320876
1825.000000	100.320348
1824.000000	100.319440
1823.000000	100.319024
1822.000000	100.319358
1821.000000	100.319612
1820.000000	100.319013
1819.000000	100.317993
1818.000000	100.317763
1817.000000	100.318735
1816.000000	100.319881
1815.000000	100.319976
1814.000000	100.319020
1813.000000	100.318058
1812.000000	100.317788
1811.000000	100.317793
1810.000000	100.317398
1809.000000	100.316807
1808.000000	100.316762
1807.000000	100.317379
1806.000000	100.317955
1805.000000	100.317911
1804.000000	100.317488
1803.000000	100.317333
1802.000000	100.317678
1801.000000	100.318292
1800.000000	100.318990
1799.000000	100.319746
1798.000000	100.320421
1797.000000	100.320825
1796.000000	100.321072
1795.000000	100.321538
1794.000000	100.322396
1793.000000	100.323370
1792.000000	100.324016
1791.000000	100.324289
1790.000000	100.324538
1789.000000	100.325111
1788.000000	100.326256
1787.000000	100.328025
1786.000000	100.329900
1785.000000	100.330854
1784.000000	100.330340
1783.000000	100.329036
1782.000000	100.328213
1781.000000	100.328657
1780.000000	100.330240
1779.000000	100.332160
1778.000000	100.333804
1777.000000	100.335227
1776.000000	100.336777
1775.000000	100.338372
1774.000000	100.339349
1773.000000	100.339355
1772.000000	100.339449
1771.000000	100.341317
1770.000000	100.345043
1769.000000	100.349073
1768.000000	100.352143
1767.000000	100.354167
1766.000000	100.355526
1765.000000	100.356248
1764.000000	100.356176
1763.000000	100.355722
1762.000000	100.355865
1761.000000	100.357435
1760.000000	100.360654
1759.000000	100.364911
1758.000000	100.368605
1757.000000	100.370003
1756.000000	100.369257
1755.000000	100.368666
1754.000000	100.370073
1753.000000	100.373381
1752.000000	100.377643
1751.000000	100.382086
1750.000000	100.386308
1749.000000	100.389922
1748.000000	100.392408
1747.000000	100.393665
1746.000000	100.394108
1745.000000	100.394234
1744.000000	100.394474
1743.000000	100.395362
1742.000000	100.397150
1741.000000	100.399066
1740.000000	100.399597
1739.000000	100.398255
1738.000000	100.396486
1737.000000	100.395792
1736.000000	100.396284
1735.000000	100.397139
1734.000000	100.395899
1733.000000	100.391349
1732.000000	100.386363
1731.000000	100.383080
1730.000000	100.380670
1729.000000	100.378126
1728.000000	100.375707
1727.000000	100.374611
1726.000000	100.375582
1725.000000	100.377902
1724.000000	100.379482
1723.000000	100.378613
1722.000000	100.375610
1721.000000	100.372097
1720.000000	100.369275
1719.000000	100.367401
1718.000000	100.366139
1717.000000	100.365309
1716.000000	100.365347
1715.000000	100.365981
1714.000000	100.365565
1713.000000	100.362899
1712.000000	100.358697
1711.000000	100.354817
1710.000000	100.352446
1709.000000	100.351315
1708.000000	100.350405
1707.000000	100.349017
1706.000000	100.347273
1705.000000	100.345739
1704.000000	100.344599
1703.000000	100.343349
1702.000000	100.341307
1701.000000	100.338301
1700.000000	100.334853
1699.000000	100.332034
1698.000000	100.330373
1697.000000	100.329246
1696.000000	100.327953
1695.000000	100.326331
1694.000000	100.324603
1693.000000	100.322998
1692.000000	100.321480
1691.000000	100.320211
1690.000000	100.319340
1689.000000	100.318241
1688.000000	100.316021
1687.000000	100.312416
1686.000000	100.307984
1685.000000	100.303810
1684.000000	100.300750
1683.000000	100.299037
1682.000000	100.298230
1681.000000	100.297501
1680.000000	100.296310
1679.000000	100.294651
1678.000000	100.292756
1677.000000	100.290966
1676.000000	100.289938
1675.000000	100.289994
1674.000000	100.290217
1673.000000	100.289442
1672.000000	100.287408
1671.000000	100.284900
1670.000000	100.283434
1669.000000	100.283635
1668.000000	100.284546
1667.000000	100.285094
1666.000000	100.284951
1665.000000	100.284109
1664.000000	100.282714
1663.000000	100.281245
1662.000000	100.280292
1661.000000	100.279982
1660.000000	100.279943
1659.000000	100.279823
1658.000000	100.279647
1657.000000	100.279618
1656.000000	100.279602
1655.000000	100.279147
1654.000000	100.277690
1653.000000	100.274411
1652.000000	100.270459
1651.000000	100.268619
1650.000000	100.268822
1649.000000	100.268776
1648.000000	100.267809
1647.000000	100.267488
1646.000000	100.268581
1645.000000	100.269593
1644.000000	100.269498
1643.000000	100.268764
1642.000000	100.268145
1641.000000	100.268159
1640.000000	100.268761
1639.000000	100.269312
1638.000000	100.269037
1637.000000	100.267508
1636.000000	100.264900
1635.000000	100.262232
1634.000000	100.260943
1633.000000	100.261688
1632.000000	100.263789
1631.000000	100.265991
1630.000000	100.267349
1629.000000	100.267538
1628.000000	100.267215
1627.000000	100.267773
1626.000000	100.269904
1625.000000	100.272856
1624.000000	100.275154
1623.000000	100.275884
1622.000000	100.275551
1621.000000	100.275257
1620.000000	100.275356
1619.000000	100.275586
1618.000000	100.276102
1617.000000	100.277195
1616.000000	100.278735
1615.000000	100.281079
1614.000000	100.284696
1613.000000	100.288969
1612.000000	100.292778
1611.000000	100.295414
1610.000000	100.296857
1609.000000	100.297684
1608.000000	100.298529
1607.000000	100.299655
1606.000000	100.301115
1605.000000	100.303246
1604.000000	100.306552
1603.000000	100.310960
1602.000000	100.315533
1601.000000	100.319287
1600.000000	100.322110
1599.000000	100.324741
1598.000000	100.327825
1597.000000	100.331052
1596.000000	100.333288
1595.000000	100.333799
1594.000000	100.333450
1593.000000	100.334253
1592.000000	100.337400
1591.000000	100.342096
1590.000000	100.346378
1589.000000	100.349097
1588.000000	100.350792
1587.000000	100.352640
1586.000000	100.355023
1585.000000	100.357383
1584.000000	100.359203
1583.000000	100.360516
1582.000000	100.361621
1581.000000	100.362689
1580.000000	100.363426
1579.000000	100.363053
1578.000000	100.361054
1577.000000	100.358541
1576.000000	100.358135
1575.000000	100.360925
1574.000000	100.365116
1573.000000	100.368432
1572.000000	100.370080
1571.000000	100.370847
1570.000000	100.371849
1569.000000	100.373028
1568.000000	100.373810
1567.000000	100.374214
1566.000000	100.374547
1565.000000	100.374847
1564.000000	100.375060
1563.000000	100.374921
1562.000000	100.374602
1561.000000	100.375321
1560.000000	100.379940
1559.000000	100.386810
1558.000000	100.389096
1557.000000	100.386678
1556.000000	100.384346
1555.000000	100.383749
1554.000000	100.383781
1553.000000	100.382877
1552.000000	100.381007
1551.000000	100.379498
1550.000000	100.379237
1549.000000	100.379423
1548.000000	100.378712
1547.000000	100.377315
1546.000000	100.376683
1545.000000	100.377558
1544.000000	100.378615
1543.000000	100.377573
1542.000000	100.373406
1541.000000	100.366913
1540.000000	100.359959
1539.000000	100.354161
1538.000000	100.350169
1537.000000	100.347943
1536.000000	100.346543
1535.000000	100.345214
1534.000000	100.343924
1533.000000	100.341889
1532.000000	100.338103
1531.000000	100.333028
1530.000000	100.328206
1529.000000	100.324944
1528.000000	100.323469
1527.000000	100.322938
1526.000000	100.322303
1525.000000	100.321270
1524.000000	100.320225
1523.000000	100.319437
1522.000000	100.318582
1521.000000	100.316874
1520.000000	100.314499
1519.000000	100.312779
1518.000000	100.312206
1517.000000	100.311802
1516.000000	100.310029
1515.000000	100.306351
1514.000000	100.301893
1513.000000	100.298220
1512.000000	100.296134
1511.000000	100.295122
1510.000000	100.293765
1509.000000	100.291018
1508.000000	100.287227
1507.000000	100.284394
1506.000000	100.283702
1505.000000	100.283851
1504.000000	100.283950
1503.000000	100.283918
1502.000000	100.283416
1501.000000	100.282388
1500.000000	100.280966
1499.000000	100.279313
1498.000000	100.277615
1497.000000	100.276039
1496.000000	100.274661
1495.000000	100.273730
1494.000000	100.273549
1493.000000	100.273868
1492.000000	100.273891
1491.000000	100.272872
1490.000000	100.270775
1489.000000	100.268408
1488.000000	100.266528
1487.000000	100.265313
1486.000000	100.264742
1485.000000	100.264636
1484.000000	100.264689
1483.000000	100.264798
1482.000000	100.265234
1481.000000	100.266178
1480.000000	100.267184
1479.000000	100.267576
1478.000000	100.267175
1477.000000	100.266297
1476.000000	100.265076
1475.000000	100.263292
1474.000000	100.261247
1473.000000	100.260507
1472.000000	100.262293
1471.000000	100.265523
1470.000000	100.268077
1469.000000	100.269105
1468.000000	100.268969
1467.000000	100.268539
1466.000000	100.268624
1465.000000	100.269445
1464.000000	100.270366
1463.000000	100.270442
1462.000000	100.269321
1461.000000	100.267188
1460.000000	100.264430
1459.000000	100.261552
1458.000000	100.259371
1457.000000	100.258811
1456.000000	100.259829
1455.000000	100.261530
1454.000000	100.263024
1453.000000	100.263418
1452.000000	100.262388
1451.000000	100.260585
1450.000000	100.258966
1449.000000	100.258056
1448.000000	100.257706
1447.000000	100.257502
1446.000000	100.257382
1445.000000	100.257786
1444.000000	100.258822
1443.000000	100.259553
1442.000000	100.258792
1441.000000	100.256606
1440.000000	100.254429
1439.000000	100.253539
1438.000000	100.254001
1437.000000	100.254644
1436.000000	100.254196
1435.000000	100.252992
1434.000000	100.252238
1433.000000	100.252214
1432.000000	100.252445
1431.000000	100.252338
1430.000000	100.251659
1429.000000	100.251179
1428.000000	100.252205
1427.000000	100.255130
1426.000000	100.258604
1425.000000	100.260432
1424.000000	100.259537
1423.000000	100.257067
1422.000000	100.255249
1421.000000	100.255599
1420.000000	100.258343
1419.000000	100.261750
1418.000000	100.263680
1417.000000	100.264374
1416.000000	100.265189
1415.000000	100.266705
1414.000000	100.269123
1413.000000	100.272759
1412.000000	100.277558
1411.000000	100.282437
1410.000000	100.286066
1409.000000	100.288509
1408.000000	100.291186
1407.000000	100.295186
1406.000000	100.300183
1405.000000	100.305251
1404.000000	100.310146
1403.000000	100.315107
1402.000000	100.319901
1401.000000	100.323570
1400.000000	100.324955
1399.000000	100.323822
1398.000000	100.321807
1397.000000	100.321575
1396.000000	100.324996
1395.000000	100.331731
1394.000000	100.338824
1393.000000	100.343357
1392.000000	100.345294
1391.000000	100.346569
1390.000000	100.348961
1389.000000	100.353073
1388.000000	100.358156
1387.000000	100.362780
1386.000000	100.366271
1385.000000	100.369206
1384.000000	100.372279
1383.000000	100.375460
1382.000000	100.378344
1381.000000	100.380753
1380.000000	100.382763
1379.000000	100.384449
1378.000000	100.385897
1377.000000	100.387150
1376.000000	100.387898
1375.000000	100.387693
1374.000000	100.386976
1373.000000	100.387174
1372.000000	100.388927
1371.000000	100.391042
1370.000000	100.391713
1369.000000	100.390350
1368.000000	100.388031
1367.000000	100.386135
1366.000000	100.385147
1365.000000	100.385022
1364.000000	100.385754
1363.000000	100.387200
1362.000000	100.388993
1361.000000	100.391002
1360.000000	100.393275
1359.000000	100.395274
1358.000000	100.396024
1357.000000	100.395446
1356.000000	100.394900
1355.000000	100.395716
1354.000000	100.397613
1353.000000	100.399259
1352.000000	100.399871
1351.000000	100.399480
1350.000000	100.398211
1349.000000	100.396314
1348.000000	100.394652
1347.000000	100.394271
1346.000000	100.395295
1345.000000	100.396729
1344.000000	100.397542
1343.000000	100.397602
1342.000000	100.397412
1341.000000	100.397246
1340.000000	100.396853
1339.000000	100.395982
1338.000000	100.394928
1337.000000	100.394314
1336.000000	100.394476
1335.000000	100.395244
1334.000000	100.396233
1333.000000	100.397201
1332.000000	100.398037
1331.000000	100.398530
1330.000000	100.398375
1329.000000	100.397494
1328.000000	100.396251
1327.000000	100.395380
1326.000000	100.395620
1325.000000	100.397179
1324.000000	100.399283
1323.000000	100.400432
1322.000000	100.399552
1321.000000	100.396928
1320.000000	100.393939
1319.000000	100.391940
1318.000000	100.391572
1317.000000	100.392876
1316.000000	100.395207
1315.000000	100.396899
1314.000000	100.396118
1313.000000	100.392802
1312.000000	100.389268
1311.000000	100.388015
1310.000000	100.389250
1309.000000	100.391303
1308.000000	100.392830
1307.000000	100.393821
1306.000000	100.394812
1305.000000	100.396196
1304.000000	100.398240
1303.000000	100.400767
1302.000000	100.402641
1301.000000	100.402546
1300.000000	100.400551
1299.000000	100.398183
1298.000000	100.396746
1297.000000	100.396244
1296.000000	100.396264
1295.000000	100.396870
1294.000000	100.397977
1293.000000	100.398709
1292.000000	100.398236
1291.000000	100.396758
1290.000000	100.394847
1289.000000	100.392165
1288.000000	100.387832
1287.000000	100.382211
1286.000000	100.377515
1285.000000	100.376112
1284.000000	100.378415
1283.000000	100.382536
1282.000000	100.385870
1281.000000	100.387130
1280.000000	100.386892
1279.000000	100.386447
1278.000000	100.386530
1277.000000	100.387194
1276.000000	100.388342
1275.000000	100.389837
1274.000000	100.391185
1273.000000	100.391462
1272.000000	100.389670
1271.000000	100.385573
1270.000000	100.380765
1269.000000	100.378469
1268.000000	100.380909
1267.000000	100.386568
1266.000000	100.391508
1265.000000	100.394103
1264.000000	100.396513
1263.000000	100.400278
1262.000000	100.402900
1261.000000	100.401429
1260.000000	100.397625
1259.000000	100.395872
1258.000000	100.396455
1257.000000	100.394875
1256.000000	100.388368
1255.000000	100.379667
1254.000000	100.373173
1253.000000	100.370031
1252.000000	100.368508
1251.000000	100.366746
1250.000000	100.363278
1249.000000	100.356902
1248.000000	100.348130
1247.000000	100.339375
1246.000000	100.332058
1245.000000	100.325059
1244.000000	100.317589
1243.000000	100.311454
1242.000000	100.307847
1241.000000	100.303434
1240.000000	100.293132
1239.000000	100.276859
1238.000000	100.261000
1237.000000	100.252257
1236.000000	100.251374
1235.000000	100.253220
1234.000000	100.251572
1233.000000	100.243328
1232.000000	100.229285
1231.000000	100.212105
1230.000000	100.193841
1229.000000	100.175392
1228.000000	100.157804
1227.000000	100.142407
1226.000000	100.128590
1225.000000	100.112670
1224.000000	100.090603
1223.000000	100.061483
1222.000000	100.027461
1221.000000	99.990935
1220.000000	99.953146
1219.000000	99.914833
1218.000000	99.876304
1217.000000	99.836938
1216.000000	99.796105
1215.000000	99.754535
1214.000000	99.713250
1213.000000	99.671154
1212.000000	99.625547
1211.000000	99.575707
1210.000000	99.524800
1209.000000	99.477181
1208.000000	99.434118
1207.000000	99.392813
1206.000000	99.349629
1205.000000	99.303931
1204.000000	99.258278
1203.000000	99.215024
1202.000000	99.173782
1201.000000	99.132710
1200.000000	99.091054
1199.000000	99.048970
1198.000000	99.005792
1197.000000	98.960551
1196.000000	98.914018
1195.000000	98.868184
1194.000000	98.823523
1193.000000	98.778582
1192.000000	98.732479
1191.000000	98.686016
1190.000000	98.639963
1189.000000	98.593976
1188.000000	98.547682
1187.000000	98.501250
1186.000000	98.454378
1185.000000	98.405965
1184.000000	98.355181
1183.000000	98.302048
1182.000000	98.247324
1181.000000	98.192625
1180.000000	98.139306
1179.000000	98.085586
1178.000000	98.026596
1177.000000	97.960024
1176.000000	97.890094
1175.000000	97.822342
1174.000000	97.755832
1173.000000	97.685323
1172.000000	97.610859
1171.000000	97.539617
1170.000000	97.476766
1169.000000	97.419334
1168.000000	97.361302
1167.000000	97.301374
1166.000000	97.244212
1165.000000	97.197564
1164.000000	97.169791
1163.000000	97.166290
1162.000000	97.185125
1161.000000	97.217279
1160.000000	97.251779
1159.000000	97.279133
1158.000000	97.291498
1157.000000	97.284268
1156.000000	97.258490
1155.000000	97.218971
1154.000000	97.169817
1153.000000	97.114331
1152.000000	97.057999
1151.000000	97.006254
1150.000000	96.958299
1149.000000	96.907906
1148.000000	96.851823
1147.000000	96.793342
1146.000000	96.736724
1145.000000	96.682763
1144.000000	96.631457
1143.000000	96.584174
1142.000000	96.540551
1141.000000	96.497073
1140.000000	96.451157
1139.000000	96.403534
1138.000000	96.354861
1137.000000	96.303044
1136.000000	96.245564
1135.000000	96.182111
1134.000000	96.114680
1133.000000	96.047914
1132.000000	95.988527
1131.000000	95.939465
1130.000000	95.894324
1129.000000	95.842731
1128.000000	95.782083
1127.000000	95.719354
1126.000000	95.661153
1125.000000	95.607513
1124.000000	95.555961
1123.000000	95.505128
1122.000000	95.452514
1121.000000	95.394808
1120.000000	95.332758
1119.000000	95.270516
1118.000000	95.208798
1117.000000	95.144799
1116.000000	95.080203
1115.000000	95.022050
1114.000000	94.973146
1113.000000	94.928591
1112.000000	94.884277
1111.000000	94.841402
1110.000000	94.799599
1109.000000	94.753687
1108.000000	94.701702
1107.000000	94.649172
1106.000000	94.600770
1105.000000	94.553840
1104.000000	94.504348
1103.000000	94.453419
1102.000000	94.404109
1101.000000	94.357426
1100.000000	94.314997
1099.000000	94.279628
1098.000000	94.249625
1097.000000	94.218023
1096.000000	94.180610
1095.000000	94.139759
1094.000000	94.098750
1093.000000	94.058650
1092.000000	94.022398
1091.000000	93.994233
1090.000000	93.972154
1089.000000	93.948143
1088.000000	93.918781
1087.000000	93.888741
1086.000000	93.861676
1085.000000	93.835726
1084.000000	93.810783
1083.000000	93.791189
1082.000000	93.776770
1081.000000	93.759227
1080.000000	93.732587
1079.000000	93.700573
1078.000000	93.669312
1077.000000	93.639151
1076.000000	93.607669
1075.000000	93.573637
1074.000000	93.533229
1073.000000	93.479381
1072.000000	93.410465
1071.000000	93.334184
1070.000000	93.257632
1069.000000	93.177779
1068.000000	93.086272
1067.000000	92.979106
1066.000000	92.857918
1065.000000	92.726798
1064.000000	92.592228
1063.000000	92.462358
1062.000000	92.342595
1061.000000	92.234565
1060.000000	92.139786
1059.000000	92.058544
1058.000000	91.984510
1057.000000	91.907924
1056.000000	91.825993
1055.000000	91.743246
1054.000000	91.660158
1053.000000	91.569450
1052.000000	91.466277
1051.000000	91.353717
1050.000000	91.234728
1049.000000	91.107646
1048.000000	90.973530
1047.000000	90.838307
1046.000000	90.703926
1045.000000	90.566575
1044.000000	90.426436
1043.000000	90.290068
1042.000000	90.160216
1041.000000	90.032265
1040.000000	89.904202
1039.000000	89.781292
1038.000000	89.667075
1037.000000	89.558313
1036.000000	89.452676
1035.000000	89.353196
1034.000000	89.261696
1033.000000	89.176401
1032.000000	89.099318
1031.000000	89.036955
1030.000000	88.989665
1029.000000	88.948220
1028.000000	88.904742
1027.000000	88.860183
1026.000000	88.818784
1025.000000	88.782888
1024.000000	88.754824
1023.000000	88.735335
1022.000000	88.718217
1021.000000	88.694926
1020.000000	88.666182
1019.000000	88.640497
1018.000000	88.620249
1017.000000	88.598488
1016.000000	88.570597
1015.000000	88.539537
1014.000000	88.508106
1013.000000	88.475776
1012.000000	88.445086
1011.000000	88.421703
1010.000000	88.406081
1009.000000	88.393526
1008.000000	88.383159
1007.000000	88.377600
1006.000000	88.373710
1005.000000	88.364592
1004.000000	88.352118
1003.000000	88.346617
1002.000000	88.352109
1001.000000	88.362243
1000.000000	88.372681
999.000000	88.386832
998.000000	88.406456
997.000000	88.427005
996.000000	88.446035
995.000000	88.467499
994.000000	88.494501
993.000000	88.525696
992.000000	88.561013
991.000000	88.602999
990.000000	88.650717
989.000000	88.699976
988.000000	88.750839
987.000000	88.807427
986.000000	88.870175
985.000000	88.936349
984.000000	89.007935
983.000000	89.090218
982.000000	89.182683
981.000000	89.280203
980.000000	89.382877
979.000000	89.495304
978.000000	89.616376
977.000000	89.739458
976.000000	89.862911
975.000000	89.991284
974.000000	90.126343
973.000000	90.266120
972.000000	90.411745
971.000000	90.564833
970.000000	90.718462
969.000000	90.861920
968.000000	90.995577
967.000000	91.130876
966.000000	91.274187
965.000000	91.419946
964.000000	91.560899
963.000000	91.695447
962.000000	91.823195
961.000000	91.942694
960.000000	92.056282
959.000000	92.169197
958.000000	92.281458
957.000000	92.387709
956.000000	92.486691
955.000000	92.583727
954.000000	92.682433
953.000000	92.780752
952.000000	92.876133
951.000000	92.967528
950.000000	93.051521
949.000000	93.123916
948.000000	93.186494
947.000000	93.245947
946.000000	93.305586
945.000000	93.364197
944.000000	93.422241
943.000000	93.481266
942.000000	93.537721
941.000000	93.586168
940.000000	93.629043
939.000000	93.674661
938.000000	93.724772
937.000000	93.773043
936.000000	93.816834
935.000000	93.860711
934.000000	93.906474
933.000000	93.949782
932.000000	93.990056
931.000000	94.034360
930.000000	94.086830
929.000000	94.142147
928.000000	94.193877
927.000000	94.242056
926.000000	94.288422
925.000000	94.331293
924.000000	94.370171
923.000000	94.409735
922.000000	94.454402
921.000000	94.502919
920.000000	94.551273
919.000000	94.596697
918.000000	94.636971
917.000000	94.671078
916.000000	94.702796
915.000000	94.738583
914.000000	94.780067
913.000000	94.823765
912.000000	94.869357
911.000000	94.921891
910.000000	94.984072
909.000000	95.053412
908.000000	95.129490
907.000000	95.216992
906.000000	95.318042
905.000000	95.427662
904.000000	95.540251
903.000000	95.655219
902.000000	95.773127
901.000000	95.891586
900.000000	96.008485
899.000000	96.124850
898.000000	96.241361
897.000000	96.355775
896.000000	96.466057
895.000000	96.572364
894.000000	96.674216
893.000000	96.769612
892.000000	96.858811
891.000000	96.945186
890.000000	97.030301
889.000000	97.111430
888.000000	97.185886
887.000000	97.254939
886.000000	97.321923
885.000000	97.388979
884.000000	97.456337
883.000000	97.521823
882.000000	97.581119
881.000000	97.632680
880.000000	97.682563
879.000000	97.739325
878.000000	97.803245
877.000000	97.866572
876.000000	97.926212
875.000000	97.989407
874.000000	98.063170
873.000000	98.143620
872.000000	98.220487
871.000000	98.288273
870.000000	98.349071
869.000000	98.407849
868.000000	98.469082
867.000000	98.535418
866.000000	98.605248
865.000000	98.673047
864.000000	98.735950
863.000000	98.798931
862.000000	98.869457
861.000000	98.946517
860.000000	99.018628
859.000000	99.074753
858.000000	99.115528
857.000000	99.152226
856.000000	99.195952
855.000000	99.249592
854.000000	99.308649
853.000000	99.365835
852.000000	99.413802
851.000000	99.447635
850.000000	99.468991
849.000000	99.486450
848.000000	99.507823
847.000000	99.532083
846.000000	99.551671
845.000000	99.562027
844.000000	99.565164
843.000000	99.564300
842.000000	99.559883
841.000000	99.551965
840.000000	99.541573
839.000000	99.527474
838.000000	99.505860
837.000000	99.476006
836.000000	99.442897
835.000000	99.411966
834.000000	99.385004
833.000000	99.363675
832.000000	99.352074
831.000000	99.351592
830.000000	99.357875
829.000000	99.368093
828.000000	99.386184
827.000000	99.413432
826.000000	99.438599
825.000000	99.448109
824.000000	99.444026
823.000000	99.441030
822.000000	99.446406
821.000000	99.453860
820.000000	99.456264
819.000000	99.453205
818.000000	99.445024
817.000000	99.428236
816.000000	99.398977
815.000000	99.355085
814.000000	99.292704
813.000000	99.204992
812.000000	99.085738
811.000000	98.931508
810.000000	98.740964
809.000000	98.516437
808.000000	98.265437
807.000000	97.994823
806.000000	97.703385
805.000000	97.387614
804.000000	97.057262
803.000000	96.738636
802.000000	96.459264
801.000000	96.234650
800.000000	96.070369
799.000000	95.966757
798.000000	95.917036
797.000000	95.909036
796.000000	95.933495
795.000000	95.985759
794.000000	96.059038
793.000000	96.143387
792.000000	96.231461
791.000000	96.316763
790.000000	96.385777
789.000000	96.421669
788.000000	96.418594
787.000000	96.384503
786.000000	96.327403
785.000000	96.247092
784.000000	96.144180
783.000000	96.029216
782.000000	95.917066
781.000000	95.817935
780.000000	95.738912
779.000000	95.688717
778.000000	95.675064
777.000000	95.700252
776.000000	95.761877
775.000000	95.853937
774.000000	95.965649
773.000000	96.083755
772.000000	96.197743
771.000000	96.300403
770.000000	96.385840
769.000000	96.453075
768.000000	96.510193
767.000000	96.567326
766.000000	96.624482
765.000000	96.672394
764.000000	96.705729
763.000000	96.729000
762.000000	96.749411
761.000000	96.771800
760.000000	96.801974
759.000000	96.846121
758.000000	96.902287
757.000000	96.958677
756.000000	97.005207
755.000000	97.043373
754.000000	97.082640
753.000000	97.130835
752.000000	97.189263
751.000000	97.252693
750.000000	97.312533
749.000000	97.363871
748.000000	97.410517
747.000000	97.460479
746.000000	97.517708
745.000000	97.582137
744.000000	97.654679
743.000000	97.734793
742.000000	97.815019
741.000000	97.887235
740.000000	97.954666
739.000000	98.028569
738.000000	98.111023
737.000000	98.189380
736.000000	98.251390
735.000000	98.298290
734.000000	98.340021
733.000000	98.384612
732.000000	98.434216
731.000000	98.484730
730.000000	98.526353
729.000000	98.550716
728.000000	98.560895
727.000000	98.569465
726.000000	98.584572
725.000000	98.604020
724.000000	98.625552
723.000000	98.655036
722.000000	98.698642
721.000000	98.752021
720.000000	98.803485
719.000000	98.845653
718.000000	98.879421
717.000000	98.908966
716.000000	98.937904
715.000000	98.969044
714.000000	99.003541
713.000000	99.039859
712.000000	99.074566
711.000000	99.103047
710.000000	99.119857
709.000000	99.122071
708.000000	99.113451
707.000000	99.101952
706.000000	99.091902
705.000000	99.080964
704.000000	99.064155
703.000000	99.036117
702.000000	98.988472
701.000000	98.910423
700.000000	98.795047
699.000000	98.642719
698.000000	98.460808
697.000000	98.268509
696.000000	98.102745
695.000000	98.006777
694.000000	98.001954
693.000000	98.071151
692.000000	98.172706
691.000000	98.272427
690.000000	98.363259
689.000000	98.456078
688.000000	98.556119
687.000000	98.651150
686.000000	98.723101
685.000000	98.768787
684.000000	98.803316
683.000000	98.841164
682.000000	98.880086
681.000000	98.909470
680.000000	98.930219
679.000000	98.956336
678.000000	98.996682
677.000000	99.045408
676.000000	99.092401
675.000000	99.132285
674.000000	99.161699
673.000000	99.178157
672.000000	99.187750
671.000000	99.206332
670.000000	99.247443
669.000000	99.310331
668.000000	99.377897
667.000000	99.426700
666.000000	99.448776
665.000000	99.459543
664.000000	99.470928
663.000000	99.481068
662.000000	99.482138
661.000000	99.470351
660.000000	99.452121
659.000000	99.439197
658.000000	99.436643
657.000000	99.439637
656.000000	99.445643
655.000000	99.460758
654.000000	99.487477
653.000000	99.512579
652.000000	99.518773
651.000000	99.507869
650.000000	99.501227
