4000.000000	99.855066
3999.000000	99.853031
3998.000000	99.849503
3997.000000	99.845484
3996.000000	99.842495
3995.000000	99.841542
3994.000000	99.842731
3993.000000	99.845303
3992.000000	99.847851
3991.000000	99.849224
3990.000000	99.849179
3989.000000	99.848287
3988.000000	99.847515
3987.000000	99.847602
3986.000000	99.848649
3985.000000	99.850077
3984.000000	99.850870
3983.000000	99.850163
3982.000000	99.847837
3981.000000	99.844753
3980.000000	99.842297
3979.000000	99.841379
3978.000000	99.841955
3977.000000	99.843237
3976.000000	99.844247
3975.000000	99.844283
3974.000000	99.843137
3973.000000	99.841130
3972.000000	99.838894
3971.000000	99.836906
3970.000000	99.835184
3969.000000	99.833553
3968.000000	99.832098
3967.000000	99.831080
3966.000000	99.830418
3965.000000	99.829598
3964.000000	99.828398
3963.000000	99.827577
3962.000000	99.828423
3961.000000	99.831433
3960.000000	99.835521
3959.000000	99.838616
3958.000000	99.839248
3957.000000	99.837388
3956.000000	99.833987
3955.000000	99.830083
3954.000000	99.826347
3953.000000	99.823276
3952.000000	99.821236
3951.000000	99.820017
3950.000000	99.818868
3949.000000	99.817389
3948.000000	99.816277
3947.000000	99.816746
3946.000000	99.819309
3945.000000	99.823397
3944.000000	99.827875
3943.000000	99.831757
3942.000000	99.834539
3941.000000	99.836359
3940.000000	99.837973
3939.000000	99.840083
3938.000000	99.842395
3937.000000	99.843545
3936.000000	99.842220
3935.000000	99.838513
3934.000000	99.833998
3933.000000	99.830505
3932.000000	99.828571
3931.000000	99.827093
3930.000000	99.824731
3929.000000	99.821419
3928.000000	99.818559
3927.000000	99.817765
3926.000000	99.819250
3925.000000	99.821320
3924.000000	99.821673
3923.000000	99.819446
3922.000000	99.815791
3921.000000	99.812444
3920.000000	99.810267
3919.000000	99.809310
3918.000000	99.809760
3917.000000	99.812095
3916.000000	99.816137
3915.000000	99.820628
3914.000000	99.824172
3913.000000	99.826346
3912.000000	99.827768
3911.000000	99.829222
3910.000000	99.830880
3909.000000	99.832215
3908.000000	99.832397
3907.000000	99.830790
3906.000000	99.827268
3905.000000	99.822555
3904.000000	99.817988
3903.000000	99.814608
3902.000000	99.812828
3901.000000	99.812762
3900.000000	99.814314
3899.000000	99.816996
3898.000000	99.820015
3897.000000	99.822814
3896.000000	99.825228
3895.000000	99.827086
3894.000000	99.828041
3893.000000	99.828019
3892.000000	99.827731
3891.000000	99.828220
3890.000000	99.829847
3889.000000	99.832190
3888.000000	99.834495
3887.000000	99.836058
3886.000000	99.836490
3885.000000	99.835836
3884.000000	99.834592
3883.000000	99.833571
3882.000000	99.833454
3881.000000	99.834308
3880.000000	99.835393
3879.000000	99.835770
3878.000000	99.835168
3877.000000	99.834009
3876.000000	99.832944
3875.000000	99.832509
3874.000000	99.832810
3873.000000	99.833469
3872.000000	99.834011
3871.000000	99.834374
3870.000000	99.834914
3869.000000	99.835821
3868.000000	99.836801
3867.000000	99.837376
3866.000000	99.837298
3865.000000	99.836702
3864.000000	99.836104
3863.000000	99.836012
3862.000000	99.836508
3861.000000	99.837269
3860.000000	99.837880
3859.000000	99.838207
3858.000000	99.838463
3857.000000	99.838967
3856.000000	99.839820
3855.000000	99.840576
3854.000000	99.840555
3853.000000	99.839628
3852.000000	99.838510
3851.000000	99.838028
3850.000000	99.838367
3849.000000	99.839036
3848.000000	99.839429
3847.000000	99.839400
3846.000000	99.839402
3845.000000	99.840062
3844.000000	99.841582
3843.000000	99.843546
3842.000000	99.845374
3841.000000	99.846782
3840.000000	99.847685
3839.000000	99.847882
3838.000000	99.847160
3837.000000	99.845887
3836.000000	99.845032
3835.000000	99.845407
3834.000000	99.847174
3833.000000	99.849900
3832.000000	99.852793
3831.000000	99.855009
3830.000000	99.855958
3829.000000	99.855375
3828.000000	99.853383
3827.000000	99.850598
3826.000000	99.848005
3825.000000	99.846397
3824.000000	99.845929
3823.000000	99.846028
3822.000000	99.846145
3821.000000	99.846247
3820.000000	99.845851
3819.000000	99.844349
3818.000000	99.842087
3817.000000	99.839997
3816.000000	99.838671
3815.000000	99.837699
3814.000000	99.836440
3813.000000	99.835165
3812.000000	99.834854
3811.000000	99.836203
3810.000000	99.838824
3809.000000	99.841439
3808.000000	99.843050
3807.000000	99.843766
3806.000000	99.844287
3805.000000	99.844781
3804.000000	99.844926
3803.000000	99.844898
3802.000000	99.846147
3801.000000	99.849652
3800.000000	99.853865
3799.000000	99.856397
3798.000000	99.856316
3797.000000	99.854386
3796.000000	99.852084
3795.000000	99.850222
3794.000000	99.848803
3793.000000	99.847832
3792.000000	99.847577
3791.000000	99.848053
3790.000000	99.848681
3789.000000	99.848752
3788.000000	99.848211
3787.000000	99.847712
3786.000000	99.847814
3785.000000	99.848279
3784.000000	99.848403
3783.000000	99.848010
3782.000000	99.847821
3781.000000	99.848688
3780.000000	99.850529
3779.000000	99.852085
3778.000000	99.852079
3777.000000	99.850412
3776.000000	99.847961
3775.000000	99.845566
3774.000000	99.843543
3773.000000	99.842025
3772.000000	99.841399
3771.000000	99.842099
3770.000000	99.843890
3769.000000	99.845659
3768.000000	99.846434
3767.000000	99.846369
3766.000000	99.846351
3765.000000	99.846885
3764.000000	99.847557
3763.000000	99.847544
3762.000000	99.846440
3761.000000	99.844644
3760.000000	99.843296
3759.000000	99.843527
3758.000000	99.845361
3757.000000	99.847518
3756.000000	99.848368
3755.000000	99.847138
3754.000000	99.844552
3753.000000	99.842394
3752.000000	99.842007
3751.000000	99.842719
3750.000000	99.842261
3749.000000	99.839673
3748.000000	99.836136
3747.000000	99.833469
3746.000000	99.833078
3745.000000	99.835359
3744.000000	99.838294
3743.000000	99.838902
3742.000000	99.836684
3741.000000	99.833123
3740.000000	99.829512
3739.000000	99.826210
3738.000000	99.822829
3737.000000	99.819167
3736.000000	99.815708
3735.000000	99.812821
3734.000000	99.810294
3733.000000	99.807935
3732.000000	99.805616
3731.000000	99.802877
3730.000000	99.799260
3729.000000	99.795047
3728.000000	99.791342
3727.000000	99.789252
3726.000000	99.788557
3725.000000	99.787449
3724.000000	99.784215
3723.000000	99.778885
3722.000000	99.773244
3721.000000	99.769229
3720.000000	99.767249
3719.000000	99.765840
3718.000000	99.762749
3717.000000	99.756616
3716.000000	99.747852
3715.000000	99.738371
3714.000000	99.730597
3713.000000	99.726185
3712.000000	99.725018
3711.000000	99.724622
3710.000000	99.722036
3709.000000	99.716819
3708.000000	99.710728
3707.000000	99.705009
3706.000000	99.698717
3705.000000	99.689816
3704.000000	99.677869
3703.000000	99.665774
3702.000000	99.657812
3701.000000	99.655137
3700.000000	99.654679
3699.000000	99.653110
3698.000000	99.650088
3697.000000	99.647450
3696.000000	99.646483
3695.000000	99.646287
3694.000000	99.644593
3693.000000	99.639633
3692.000000	99.631927
3691.000000	99.624704
3690.000000	99.621886
3689.000000	99.623802
3688.000000	99.626356
3687.000000	99.626120
3686.000000	99.623136
3685.000000	99.619292
3684.000000	99.616730
3683.000000	99.617151
3682.000000	99.621016
3681.000000	99.627025
3680.000000	99.632168
3679.000000	99.632637
3678.000000	99.625534
3677.000000	99.610926
3676.000000	99.594062
3675.000000	99.580671
3674.000000	99.570275
3673.000000	99.559528
3672.000000	99.547064
3671.000000	99.533539
3670.000000	99.521164
3669.000000	99.510732
3668.000000	99.500495
3667.000000	99.489010
3666.000000	99.476336
3665.000000	99.463248
3664.000000	99.450330
3663.000000	99.437374
3662.000000	99.423772
3661.000000	99.409866
3660.000000	99.397311
3659.000000	99.387580
3658.000000	99.379867
3657.000000	99.371424
3656.000000	99.360740
3655.000000	99.349988
3654.000000	99.343400
3653.000000	99.343139
3652.000000	99.347005
3651.000000	99.348882
3650.000000	99.342917
3649.000000	99.328756
3648.000000	99.312135
3647.000000	99.298978
3646.000000	99.289832
3645.000000	99.280984
3644.000000	99.268823
3643.000000	99.252858
3642.000000	99.236034
3641.000000	99.222605
3640.000000	99.215091
3639.000000	99.212724
3638.000000	99.212005
3637.000000	99.208774
3636.000000	99.200851
3635.000000	99.189501
3634.000000	99.178069
3633.000000	99.168599
3632.000000	99.159986
3631.000000	99.149446
3630.000000	99.135888
3629.000000	99.121992
3628.000000	99.110216
3627.000000	99.101027
3626.000000	99.095944
3625.000000	99.096910
3624.000000	99.103833
3623.000000	99.113715
3622.000000	99.121618
3621.000000	99.123025
3620.000000	99.117265
3619.000000	99.109074
3618.000000	99.105058
3617.000000	99.108833
3616.000000	99.119917
3615.000000	99.135283
3614.000000	99.151309
3613.000000	99.165002
3612.000000	99.174617
3611.000000	99.180246
3610.000000	99.183723
3609.000000	99.187391
3608.000000	99.192480
3607.000000	99.198324
3606.000000	99.203468
3605.000000	99.207208
3604.000000	99.209641
3603.000000	99.211504
3602.000000	99.214406
3601.000000	99.220232
3600.000000	99.229271
3599.000000	99.239095
3598.000000	99.245984
3597.000000	99.247842
3596.000000	99.245495
3595.000000	99.241319
3594.000000	99.236997
3593.000000	99.233038
3592.000000	99.230444
3591.000000	99.231560
3590.000000	99.238483
3589.000000	99.250600
3588.000000	99.263610
3587.000000	99.272027
3586.000000	99.273707
3585.000000	99.271240
3584.000000	99.268803
3583.000000	99.269150
3582.000000	99.272695
3581.000000	99.277995
3580.000000	99.282716
3579.000000	99.284999
3578.000000	99.284407
3577.000000	99.281496
3576.000000	99.276819
3575.000000	99.270679
3574.000000	99.264019
3573.000000	99.258629
3572.000000	99.255937
3571.000000	99.255722
3570.000000	99.256398
3569.000000	99.256501
3568.000000	99.255996
3567.000000	99.255755
3566.000000	99.255841
3565.000000	99.255419
3564.000000	99.253935
3563.000000	99.251546
3562.000000	99.248978
3561.000000	99.247270
3560.000000	99.247292
3559.000000	99.249215
3558.000000	99.252293
3557.000000	99.255067
3556.000000	99.255906
3555.000000	99.253894
3554.000000	99.249735
3553.000000	99.245783
3552.000000	99.244340
3551.000000	99.245649
3550.000000	99.247955
3549.000000	99.249230
3548.000000	99.248615
3547.000000	99.246455
3546.000000	99.243589
3545.000000	99.241010
3544.000000	99.239866
3543.000000	99.240971
3542.000000	99.244016
3541.000000	99.247626
3540.000000	99.250352
3539.000000	99.251764
3538.000000	99.252500
3537.000000	99.253411
3536.000000	99.254687
3535.000000	99.255791
3534.000000	99.256066
3533.000000	99.255324
3532.000000	99.253925
3531.000000	99.252512
3530.000000	99.251666
3529.000000	99.251653
3528.000000	99.252321
3527.000000	99.253169
3526.000000	99.253668
3525.000000	99.253604
3524.000000	99.253148
3523.000000	99.252636
3522.000000	99.252317
3521.000000	99.252334
3520.000000	99.252740
3519.000000	99.253374
3518.000000	99.253720
3517.000000	99.253217
3516.000000	99.251880
3515.000000	99.250587
3514.000000	99.250459
3513.000000	99.251844
3512.000000	99.253953
3511.000000	99.255469
3510.000000	99.255740
3509.000000	99.255193
3508.000000	99.254805
3507.000000	99.255210
3506.000000	99.256241
3505.000000	99.257105
3504.000000	99.256966
3503.000000	99.255586
3502.000000	99.253597
3501.000000	99.252181
3500.000000	99.252274
3499.000000	99.254040
3498.000000	99.256791
3497.000000	99.259358
3496.000000	99.260780
3495.000000	99.260742
3494.000000	99.259579
3493.000000	99.257949
3492.000000	99.256367
3491.000000	99.254880
3490.000000	99.253090
3489.000000	99.250597
3488.000000	99.247547
3487.000000	99.244723
3486.000000	99.242949
3485.000000	99.242365
3484.000000	99.242293
3483.000000	99.241797
3482.000000	99.240502
3481.000000	99.238927
3480.000000	99.238027
3479.000000	99.238308
3478.000000	99.239328
3477.000000	99.240097
3476.000000	99.240078
3475.000000	99.239724
3474.000000	99.239799
3473.000000	99.240178
3472.000000	99.239617
3471.000000	99.236924
3470.000000	99.232241
3469.000000	99.226979
3468.000000	99.222598
3467.000000	99.219555
3466.000000	99.217371
3465.000000	99.215568
3464.000000	99.214356
3463.000000	99.214332
3462.000000	99.215579
3461.000000	99.217118
3460.000000	99.217487
3459.000000	99.216062
3458.000000	99.213626
3457.000000	99.211652
3456.000000	99.210966
3455.000000	99.211210
3454.000000	99.211496
3453.000000	99.211288
3452.000000	99.210547
3451.000000	99.209179
3450.000000	99.206754
3449.000000	99.203002
3448.000000	99.198479
3447.000000	99.194519
3446.000000	99.192173
3445.000000	99.191314
3444.000000	99.190945
3443.000000	99.190283
3442.000000	99.189432
3441.000000	99.188878
3440.000000	99.188523
3439.000000	99.187554
3438.000000	99.185327
3437.000000	99.182190
3436.000000	99.179259
3435.000000	99.177359
3434.000000	99.176392
3433.000000	99.175746
3432.000000	99.175063
3431.000000	99.174388
3430.000000	99.173658
3429.000000	99.172461
3428.000000	99.170544
3427.000000	99.168384
3426.000000	99.166863
3425.000000	99.166334
3424.000000	99.166262
3423.000000	99.165935
3422.000000	99.165348
3421.000000	99.165090
3420.000000	99.165395
3419.000000	99.165628
3418.000000	99.164848
3417.000000	99.162673
3416.000000	99.159506
3415.000000	99.156124
3414.000000	99.153285
3413.000000	99.151660
3412.000000	99.151745
3411.000000	99.153566
3410.000000	99.156467
3409.000000	99.159354
3408.000000	99.161346
3407.000000	99.162163
3406.000000	99.161890
3405.000000	99.160531
3404.000000	99.157985
3403.000000	99.154530
3402.000000	99.151095
3401.000000	99.148745
3400.000000	99.147993
3399.000000	99.148677
3398.000000	99.150311
3397.000000	99.152349
3396.000000	99.154247
3395.000000	99.155620
3394.000000	99.156497
3393.000000	99.157174
3392.000000	99.157668
3391.000000	99.157532
3390.000000	99.156384
3389.000000	99.154533
3388.000000	99.152906
3387.000000	99.152320
3386.000000	99.152908
3385.000000	99.154170
3384.000000	99.155428
3383.000000	99.156267
3382.000000	99.156641
3381.000000	99.156686
3380.000000	99.156520
3379.000000	99.156190
3378.000000	99.155779
3377.000000	99.155469
3376.000000	99.155465
3375.000000	99.155903
3374.000000	99.156799
3373.000000	99.158023
3372.000000	99.159288
3371.000000	99.160221
3370.000000	99.160572
3369.000000	99.160358
3368.000000	99.159840
3367.000000	99.159379
3366.000000	99.159277
3365.000000	99.159682
3364.000000	99.160566
3363.000000	99.161752
3362.000000	99.162971
3361.000000	99.164000
3360.000000	99.164799
3359.000000	99.165470
3358.000000	99.166094
3357.000000	99.166670
3356.000000	99.167182
3355.000000	99.167693
3354.000000	99.168317
3353.000000	99.169101
3352.000000	99.169964
3351.000000	99.170775
3350.000000	99.171474
3349.000000	99.172109
3348.000000	99.172777
3347.000000	99.173549
3346.000000	99.174436
3345.000000	99.175399
3344.000000	99.176357
3343.000000	99.177223
3342.000000	99.177958
3341.000000	99.178605
3340.000000	99.179272
3339.000000	99.180047
3338.000000	99.180927
3337.000000	99.181824
3336.000000	99.182651
3335.000000	99.183404
3334.000000	99.184133
3333.000000	99.184840
3332.000000	99.185476
3331.000000	99.186023
3330.000000	99.186545
3329.000000	99.187131
3328.000000	99.187806
3327.000000	99.188530
3326.000000	99.189258
3325.000000	99.189998
3324.000000	99.190783
3323.000000	99.191618
3322.000000	99.192471
3321.000000	99.193299
3320.000000	99.194072
3319.000000	99.194787
3318.000000	99.195454
3317.000000	99.196109
3316.000000	99.196797
3315.000000	99.197550
3314.000000	99.198377
3313.000000	99.199252
3312.000000	99.200128
3311.000000	99.200949
3310.000000	99.201672
3309.000000	99.202291
3308.000000	99.202860
3307.000000	99.203469
3306.000000	99.204180
3305.000000	99.204993
3304.000000	99.205862
3303.000000	99.206749
3302.000000	99.207630
3301.000000	99.208464
3300.000000	99.209194
3299.000000	99.209811
3298.000000	99.210406
3297.000000	99.211099
3296.000000	99.211925
3295.000000	99.212798
3294.000000	99.213612
3293.000000	99.214369
3292.000000	99.215183
3291.000000	99.216168
3290.000000	99.217302
3289.000000	99.218387
3288.000000	99.219186
3287.000000	99.219654
3286.000000	99.220016
3285.000000	99.220578
3284.000000	99.221439
3283.000000	99.222457
3282.000000	99.223492
3281.000000	99.224613
3280.000000	99.226044
3279.000000	99.227881
3278.000000	99.229854
3277.000000	99.231328
3276.000000	99.231745
3275.000000	99.231114
3274.000000	99.230093
3273.000000	99.229568
3272.000000	99.229974
3271.000000	99.231074
3270.000000	99.232274
3269.000000	99.233086
3268.000000	99.233368
3267.000000	99.233226
3266.000000	99.232863
3265.000000	99.232513
3264.000000	99.232403
3263.000000	99.232649
3262.000000	99.233179
3261.000000	99.233798
3260.000000	99.234367
3259.000000	99.234890
3258.000000	99.235409
3257.000000	99.235846
3256.000000	99.236009
3255.000000	99.235843
3254.000000	99.235638
3253.000000	99.235895
3252.000000	99.236862
3251.000000	99.238211
3250.000000	99.239244
3249.000000	99.239514
3248.000000	99.239206
3247.000000	99.238968
3246.000000	99.239399
3245.000000	99.240698
3244.000000	99.242555
3243.000000	99.244260
3242.000000	99.245078
3241.000000	99.244792
3240.000000	99.244021
3239.000000	99.243785
3238.000000	99.244529
3237.000000	99.245676
3236.000000	99.246218
3235.000000	99.245740
3234.000000	99.244736
3233.000000	99.244042
3232.000000	99.244025
3231.000000	99.244326
3230.000000	99.244359
3229.000000	99.244118
3228.000000	99.244476
3227.000000	99.246400
3226.000000	99.249835
3225.000000	99.253566
3224.000000	99.256486
3223.000000	99.258711
3222.000000	99.260985
3221.000000	99.263283
3220.000000	99.264643
3219.000000	99.264457
3218.000000	99.263197
3217.000000	99.261700
3216.000000	99.260319
3215.000000	99.259181
3214.000000	99.258739
3213.000000	99.259417
3212.000000	99.261043
3211.000000	99.263201
3210.000000	99.265949
3209.000000	99.269597
3208.000000	99.273784
3207.000000	99.277280
3206.000000	99.278984
3205.000000	99.278873
3204.000000	99.278003
3203.000000	99.277791
3202.000000	99.279024
3201.000000	99.281397
3200.000000	99.283838
3199.000000	99.285449
3198.000000	99.286262
3197.000000	99.286971
3196.000000	99.288044
3195.000000	99.289313
3194.000000	99.290406
3193.000000	99.291215
3192.000000	99.291877
3191.000000	99.292556
3190.000000	99.293457
3189.000000	99.294836
3188.000000	99.296812
3187.000000	99.299207
3186.000000	99.301644
3185.000000	99.303822
3184.000000	99.305662
3183.000000	99.307276
3182.000000	99.308840
3181.000000	99.310419
3180.000000	99.311894
3179.000000	99.313097
3178.000000	99.314057
3177.000000	99.315050
3176.000000	99.316393
3175.000000	99.318202
3174.000000	99.320312
3173.000000	99.322330
3172.000000	99.323822
3171.000000	99.324594
3170.000000	99.324904
3169.000000	99.325363
3168.000000	99.326439
3167.000000	99.328121
3166.000000	99.330100
3165.000000	99.332222
3164.000000	99.334599
3163.000000	99.337278
3162.000000	99.340048
3161.000000	99.342572
3160.000000	99.344511
3159.000000	99.345643
3158.000000	99.346122
3157.000000	99.346564
3156.000000	99.347658
3155.000000	99.349587
3154.000000	99.351950
3153.000000	99.354233
3152.000000	99.356181
3151.000000	99.357677
3150.000000	99.358614
3149.000000	99.359158
3148.000000	99.359913
3147.000000	99.361425
3146.000000	99.363482
3145.000000	99.365191
3144.000000	99.365916
3143.000000	99.365963
3142.000000	99.366235
3141.000000	99.367242
3140.000000	99.368691
3139.000000	99.369999
3138.000000	99.370994
3137.000000	99.371991
3136.000000	99.373350
3135.000000	99.375140
3134.000000	99.377215
3133.000000	99.379437
3132.000000	99.381773
3131.000000	99.384219
3130.000000	99.386639
3129.000000	99.388722
3128.000000	99.390212
3127.000000	99.391224
3126.000000	99.392194
3125.000000	99.393447
3124.000000	99.394926
3123.000000	99.396446
3122.000000	99.398053
3121.000000	99.399897
3120.000000	99.401836
3119.000000	99.403539
3118.000000	99.405067
3117.000000	99.407009
3116.000000	99.409770
3115.000000	99.412835
3114.000000	99.415026
3113.000000	99.415566
3112.000000	99.414751
3111.000000	99.413713
3110.000000	99.413422
3109.000000	99.413953
3108.000000	99.414735
3107.000000	99.415464
3106.000000	99.416682
3105.000000	99.419197
3104.000000	99.422986
3103.000000	99.426946
3102.000000	99.429887
3101.000000	99.431470
3100.000000	99.432097
3099.000000	99.432347
3098.000000	99.432895
3097.000000	99.434515
3096.000000	99.437483
3095.000000	99.441062
3094.000000	99.444134
3093.000000	99.446339
3092.000000	99.448087
3091.000000	99.449548
3090.000000	99.450300
3089.000000	99.450161
3088.000000	99.449728
3087.000000	99.449717
3086.000000	99.450179
3085.000000	99.450692
3084.000000	99.451032
3083.000000	99.451409
3082.000000	99.452264
3081.000000	99.453970
3080.000000	99.456389
3079.000000	99.458524
3078.000000	99.459016
3077.000000	99.457379
3076.000000	99.454601
3075.000000	99.452283
3074.000000	99.451288
3073.000000	99.451495
3072.000000	99.452477
3071.000000	99.453948
3070.000000	99.455687
3069.000000	99.457600
3068.000000	99.459975
3067.000000	99.463148
3066.000000	99.466830
3065.000000	99.470186
3064.000000	99.472751
3063.000000	99.474968
3062.000000	99.477603
3061.000000	99.480757
3060.000000	99.483681
3059.000000	99.485506
3058.000000	99.485988
3057.000000	99.485632
3056.000000	99.485355
3055.000000	99.486091
3054.000000	99.488457
3053.000000	99.492393
3052.000000	99.496914
3051.000000	99.500500
3050.000000	99.502163
3049.000000	99.502127
3048.000000	99.501501
3047.000000	99.501286
3046.000000	99.501797
3045.000000	99.503087
3044.000000	99.505421
3043.000000	99.509005
3042.000000	99.513456
3041.000000	99.517995
3040.000000	99.522133
3039.000000	99.525782
3038.000000	99.528711
3037.000000	99.530468
3036.000000	99.531113
3035.000000	99.531624
3034.000000	99.533142
3033.000000	99.535950
3032.000000	99.539539
3031.000000	99.543417
3030.000000	99.547282
3029.000000	99.550430
3028.000000	99.551779
3027.000000	99.551076
3026.000000	99.549846
3025.000000	99.550287
3024.000000	99.553017
3023.000000	99.556467
3022.000000	99.558645
3021.000000	99.559309
3020.000000	99.559961
3019.000000	99.561872
3018.000000	99.564866
3017.000000	99.568287
3016.000000	99.572362
3015.000000	99.577761
3014.000000	99.584154
3013.000000	99.590189
3012.000000	99.594983
3011.000000	99.598688
3010.000000	99.601265
3009.000000	99.601746
3008.000000	99.599747
3007.000000	99.597320
3006.000000	99.598069
3005.000000	99.603941
3004.000000	99.613374
3003.000000	99.622984
3002.000000	99.630781
3001.000000	99.637194
3000.000000	99.643360
2999.000000	99.649454
2998.000000	99.655072
2997.000000	99.660458
2996.000000	99.666569
2995.000000	99.674038
2994.000000	99.682586
2993.000000	99.691381
2992.000000	99.699535
2991.000000	99.706349
2990.000000	99.711648
2989.000000	99.715953
2988.000000	99.719732
2987.000000	99.722646
2986.000000	99.724632
2985.000000	99.728124
2984.000000	99.737722
2983.000000	99.755817
2982.000000	99.778626
2981.000000	99.798176
2980.000000	99.809105
2979.000000	99.812539
2978.000000	99.813201
2977.000000	99.813786
2976.000000	99.813016
2975.000000	99.808490
2974.000000	99.800052
2973.000000	99.790316
2972.000000	99.782836
2971.000000	99.779622
2970.000000	99.779423
2969.000000	99.778050
2968.000000	99.771155
2967.000000	99.757510
2966.000000	99.739740
2965.000000	99.721978
2964.000000	99.707184
2963.000000	99.696767
2962.000000	99.691658
2961.000000	99.692443
2960.000000	99.698285
2959.000000	99.706365
2958.000000	99.712979
2957.000000	99.715382
2956.000000	99.712855
2955.000000	99.706626
2954.000000	99.699250
2953.000000	99.693714
2952.000000	99.692301
2951.000000	99.695494
2950.000000	99.701653
2949.000000	99.707829
2948.000000	99.711372
2947.000000	99.711332
2946.000000	99.708770
2945.000000	99.705861
2944.000000	99.704358
2943.000000	99.704430
2942.000000	99.704749
2941.000000	99.703914
2940.000000	99.702042
2939.000000	99.700909
2938.000000	99.702393
2937.000000	99.706822
2936.000000	99.712833
2935.000000	99.718535
2934.000000	99.722487
2933.000000	99.723871
2932.000000	99.722630
2931.000000	99.719813
2930.000000	99.717397
2929.000000	99.717066
2928.000000	99.718933
2927.000000	99.721668
2926.000000	99.723906
2925.000000	99.725400
2924.000000	99.726778
2923.000000	99.728480
2922.000000	99.730099
2921.000000	99.730683
2920.000000	99.729676
2919.000000	99.727860
2918.000000	99.727369
2917.000000	99.730249
2916.000000	99.736624
2915.000000	99.744282
2914.000000	99.750526
2913.000000	99.754576
2912.000000	99.757586
2911.000000	99.760432
2910.000000	99.762393
2909.000000	99.762385
2908.000000	99.760795
2907.000000	99.759419
2906.000000	99.759869
2905.000000	99.762621
2904.000000	99.767350
2903.000000	99.773247
2902.000000	99.778736
2901.000000	99.781991
2900.000000	99.782286
2899.000000	99.780704
2898.000000	99.779247
2897.000000	99.779085
2896.000000	99.779893
2895.000000	99.780509
2894.000000	99.779912
2893.000000	99.777958
2892.000000	99.775655
2891.000000	99.774484
2890.000000	99.774935
2889.000000	99.775891
2888.000000	99.775859
2887.000000	99.774619
2886.000000	99.773097
2885.000000	99.771828
2884.000000	99.770399
2883.000000	99.768736
2882.000000	99.768113
2881.000000	99.770060
2880.000000	99.774446
2879.000000	99.779185
2878.000000	99.781992
2877.000000	99.782106
2876.000000	99.780067
2875.000000	99.776465
2874.000000	99.771552
2873.000000	99.766069
2872.000000	99.761633
2871.000000	99.759638
2870.000000	99.759926
2869.000000	99.760884
2868.000000	99.761015
2867.000000	99.760104
2866.000000	99.758689
2865.000000	99.756849
2864.000000	99.754044
2863.000000	99.750082
2862.000000	99.745768
2861.000000	99.742424
2860.000000	99.740920
2859.000000	99.741171
2858.000000	99.742125
2857.000000	99.742272
2856.000000	99.740760
2855.000000	99.738278
2854.000000	99.736564
2853.000000	99.736697
2852.000000	99.738070
2851.000000	99.739154
2850.000000	99.739055
2849.000000	99.737998
2848.000000	99.736524
2847.000000	99.734908
2846.000000	99.733471
2845.000000	99.732804
2844.000000	99.733086
2843.000000	99.733368
2842.000000	99.732182
2841.000000	99.729113
2840.000000	99.725516
2839.000000	99.723344
2838.000000	99.723289
2837.000000	99.724417
2836.000000	99.725507
2835.000000	99.726369
2834.000000	99.727582
2833.000000	99.729396
2832.000000	99.731316
2831.000000	99.732624
2830.000000	99.732985
2829.000000	99.732513
2828.000000	99.731580
2827.000000	99.730696
2826.000000	99.730271
2825.000000	99.730284
2824.000000	99.730275
2823.000000	99.729747
2822.000000	99.728500
2821.000000	99.726613
2820.000000	99.724355
2819.000000	99.722210
2818.000000	99.720758
2817.000000	99.720314
2816.000000	99.720746
2815.000000	99.721799
2814.000000	99.723346
2813.000000	99.725132
2812.000000	99.726590
2811.000000	99.727297
2810.000000	99.727423
2809.000000	99.727505
2808.000000	99.727864
2807.000000	99.728412
2806.000000	99.728885
2805.000000	99.728983
2804.000000	99.728385
2803.000000	99.727031
2802.000000	99.725509
2801.000000	99.724898
2800.000000	99.725938
2799.000000	99.728449
2798.000000	99.731469
2797.000000	99.733990
2796.000000	99.735572
2795.000000	99.736308
2794.000000	99.736499
2793.000000	99.736435
2792.000000	99.736382
2791.000000	99.736608
2790.000000	99.737249
2789.000000	99.738158
2788.000000	99.739022
2787.000000	99.739709
2786.000000	99.740426
2785.000000	99.741423
2784.000000	99.742607
2783.000000	99.743584
2782.000000	99.744079
2781.000000	99.744179
2780.000000	99.744161
2779.000000	99.744200
2778.000000	99.744336
2777.000000	99.744611
2776.000000	99.745138
2775.000000	99.746043
2774.000000	99.747378
2773.000000	99.749010
2772.000000	99.750549
2771.000000	99.751509
2770.000000	99.751651
2769.000000	99.751178
2768.000000	99.750647
2767.000000	99.750575
2766.000000	99.751167
2765.000000	99.752397
2764.000000	99.754105
2763.000000	99.755982
2762.000000	99.757566
2761.000000	99.758478
2760.000000	99.758712
2759.000000	99.758625
2758.000000	99.758599
2757.000000	99.758727
2756.000000	99.758880
2755.000000	99.758976
2754.000000	99.759086
2753.000000	99.759295
2752.000000	99.759539
2751.000000	99.759643
2750.000000	99.759508
2749.000000	99.759229
2748.000000	99.759048
2747.000000	99.759154
2746.000000	99.759502
2745.000000	99.759861
2744.000000	99.760130
2743.000000	99.760582
2742.000000	99.761625
2741.000000	99.763286
2740.000000	99.765026
2739.000000	99.766154
2738.000000	99.766442
2737.000000	99.766202
2736.000000	99.765897
2735.000000	99.765775
2734.000000	99.765882
2733.000000	99.766240
2732.000000	99.766847
2731.000000	99.767592
2730.000000	99.768312
2729.000000	99.768905
2728.000000	99.769316
2727.000000	99.769464
2726.000000	99.769327
2725.000000	99.769050
2724.000000	99.768892
2723.000000	99.769004
2722.000000	99.769325
2721.000000	99.769703
2720.000000	99.770067
2719.000000	99.770432
2718.000000	99.770782
2717.000000	99.771021
2716.000000	99.771058
2715.000000	99.770925
2714.000000	99.770815
2713.000000	99.770966
2712.000000	99.771474
2711.000000	99.772248
2710.000000	99.773068
2709.000000	99.773729
2708.000000	99.774151
2707.000000	99.774366
2706.000000	99.774485
2705.000000	99.774617
2704.000000	99.774806
2703.000000	99.775032
2702.000000	99.775260
2701.000000	99.775488
2700.000000	99.775746
2699.000000	99.776051
2698.000000	99.776361
2697.000000	99.776591
2696.000000	99.776683
2695.000000	99.776658
2694.000000	99.776619
2693.000000	99.776701
2692.000000	99.777013
2691.000000	99.777575
2690.000000	99.778256
2689.000000	99.778790
2688.000000	99.778945
2687.000000	99.778680
2686.000000	99.778145
2685.000000	99.777555
2684.000000	99.777087
2683.000000	99.776878
2682.000000	99.777043
2681.000000	99.777606
2680.000000	99.778441
2679.000000	99.779300
2678.000000	99.779936
2677.000000	99.780199
2676.000000	99.780075
2675.000000	99.779684
2674.000000	99.779255
2673.000000	99.779018
2672.000000	99.779074
2671.000000	99.779356
2670.000000	99.779698
2669.000000	99.779960
2668.000000	99.780111
2667.000000	99.780177
2666.000000	99.780132
2665.000000	99.779873
2664.000000	99.779339
2663.000000	99.778637
2662.000000	99.778052
2661.000000	99.777862
2660.000000	99.778111
2659.000000	99.778591
2658.000000	99.779043
2657.000000	99.779374
2656.000000	99.779619
2655.000000	99.779770
2654.000000	99.779698
2653.000000	99.779290
2652.000000	99.778615
2651.000000	99.777937
2650.000000	99.777547
2649.000000	99.777598
2648.000000	99.778057
2647.000000	99.778736
2646.000000	99.779364
2645.000000	99.779702
2644.000000	99.779670
2643.000000	99.779376
2642.000000	99.779000
2641.000000	99.778652
2640.000000	99.778364
2639.000000	99.778176
2638.000000	99.778151
2637.000000	99.778312
2636.000000	99.778587
2635.000000	99.778827
2634.000000	99.778850
2633.000000	99.778500
2632.000000	99.777736
2631.000000	99.776730
2630.000000	99.775853
2629.000000	99.775454
2628.000000	99.775628
2627.000000	99.776189
2626.000000	99.776804
2625.000000	99.777187
2624.000000	99.777199
2623.000000	99.776862
2622.000000	99.776324
2621.000000	99.775790
2620.000000	99.775456
2619.000000	99.775485
2618.000000	99.775965
2617.000000	99.776824
2616.000000	99.777791
2615.000000	99.778507
2614.000000	99.778728
2613.000000	99.778419
2612.000000	99.777715
2611.000000	99.776847
2610.000000	99.776116
2609.000000	99.775774
2608.000000	99.775864
2607.000000	99.776197
2606.000000	99.776506
2605.000000	99.776667
2604.000000	99.776700
2603.000000	99.776609
2602.000000	99.776300
2601.000000	99.775728
2600.000000	99.775035
2599.000000	99.774496
2598.000000	99.774311
2597.000000	99.774440
2596.000000	99.774667
2595.000000	99.774817
2594.000000	99.774883
2593.000000	99.774942
2592.000000	99.775017
2591.000000	99.775056
2590.000000	99.774999
2589.000000	99.774863
2588.000000	99.774724
2587.000000	99.774661
2586.000000	99.774710
2585.000000	99.774856
2584.000000	99.775050
2583.000000	99.775216
2582.000000	99.775288
2581.000000	99.775252
2580.000000	99.775149
2579.000000	99.775032
2578.000000	99.774935
2577.000000	99.774866
2576.000000	99.774830
2575.000000	99.774836
2574.000000	99.774883
2573.000000	99.774951
2572.000000	99.775020
2571.000000	99.775086
2570.000000	99.775158
2569.000000	99.775248
2568.000000	99.775360
2567.000000	99.775488
2566.000000	99.775623
2565.000000	99.775765
2564.000000	99.775924
2563.000000	99.776114
2562.000000	99.776346
2561.000000	99.776614
2560.000000	99.776904
2559.000000	99.777195
2558.000000	99.777476
2557.000000	99.777746
2556.000000	99.778021
2555.000000	99.778313
2554.000000	99.778631
2553.000000	99.778965
2552.000000	99.779286
2551.000000	99.779567
2550.000000	99.779797
2549.000000	99.779980
2548.000000	99.780131
2547.000000	99.780269
2546.000000	99.780424
2545.000000	99.780636
2544.000000	99.780926
2543.000000	99.781284
2542.000000	99.781667
2541.000000	99.782029
2540.000000	99.782344
2539.000000	99.782609
2538.000000	99.782852
2537.000000	99.783134
2536.000000	99.783512
2535.000000	99.784002
2534.000000	99.784571
2533.000000	99.785161
2532.000000	99.785724
2531.000000	99.786258
2530.000000	99.786813
2529.000000	99.787433
2528.000000	99.788076
2527.000000	99.788625
2526.000000	99.789016
2525.000000	99.789339
2524.000000	99.789763
2523.000000	99.790373
2522.000000	99.791096
2521.000000	99.791792
2520.000000	99.792371
2519.000000	99.792796
2518.000000	99.793044
2517.000000	99.793126
2516.000000	99.793130
2515.000000	99.793219
2514.000000	99.793551
2513.000000	99.794229
2512.000000	99.795224
2511.000000	99.796317
2510.000000	99.797180
2509.000000	99.797541
2508.000000	99.797334
2507.000000	99.796753
2506.000000	99.796151
2505.000000	99.795895
2504.000000	99.796196
2503.000000	99.797043
2502.000000	99.798333
2501.000000	99.799945
2500.000000	99.801630
2499.000000	99.802964
2498.000000	99.803545
2497.000000	99.803314
2496.000000	99.802658
2495.000000	99.802156
2494.000000	99.802212
2493.000000	99.802878
2492.000000	99.803895
2491.000000	99.804876
2490.000000	99.805583
2489.000000	99.806010
2488.000000	99.806180
2487.000000	99.805949
2486.000000	99.805183
2485.000000	99.804052
2484.000000	99.803044
2483.000000	99.802621
2482.000000	99.802931
2481.000000	99.803822
2480.000000	99.804990
2479.000000	99.806077
2478.000000	99.806825
2477.000000	99.807208
2476.000000	99.807401
2475.000000	99.807548
2474.000000	99.807623
2473.000000	99.807552
2472.000000	99.807395
2471.000000	99.807347
2470.000000	99.807564
2469.000000	99.808040
2468.000000	99.808628
2467.000000	99.809140
2466.000000	99.809454
2465.000000	99.809574
2464.000000	99.809627
2463.000000	99.809805
2462.000000	99.810221
2461.000000	99.810837
2460.000000	99.811520
2459.000000	99.812133
2458.000000	99.812621
2457.000000	99.813010
2456.000000	99.813366
2455.000000	99.813744
2454.000000	99.814154
2453.000000	99.814571
2452.000000	99.814988
2451.000000	99.815429
2450.000000	99.815909
2449.000000	99.816416
2448.000000	99.816925
2447.000000	99.817433
2446.000000	99.817956
2445.000000	99.818499
2444.000000	99.819042
2443.000000	99.819549
2442.000000	99.820020
2441.000000	99.820511
2440.000000	99.821085
2439.000000	99.821752
2438.000000	99.822445
2437.000000	99.823051
2436.000000	99.823491
2435.000000	99.823759
2434.000000	99.823907
2433.000000	99.824022
2432.000000	99.824232
2431.000000	99.824647
2430.000000	99.825263
2429.000000	99.825953
2428.000000	99.826591
2427.000000	99.827161
2426.000000	99.827726
2425.000000	99.828335
2424.000000	99.828958
2423.000000	99.829490
2422.000000	99.829856
2421.000000	99.830102
2420.000000	99.830396
2419.000000	99.830895
2418.000000	99.831602
2417.000000	99.832336
2416.000000	99.832884
2415.000000	99.833151
2414.000000	99.833156
2413.000000	99.832961
2412.000000	99.832625
2411.000000	99.832256
2410.000000	99.832018
2409.000000	99.832060
2408.000000	99.832421
2407.000000	99.833002
2406.000000	99.833590
2405.000000	99.833983
2404.000000	99.834089
2403.000000	99.833930
2402.000000	99.833615
2401.000000	99.833268
2400.000000	99.832994
2399.000000	99.832861
2398.000000	99.832870
2397.000000	99.832952
2396.000000	99.832992
2395.000000	99.832891
2394.000000	99.832614
2393.000000	99.832200
2392.000000	99.831755
2391.000000	99.831408
2390.000000	99.831240
2389.000000	99.831243
2388.000000	99.831337
2387.000000	99.831402
2386.000000	99.831342
2385.000000	99.831109
2384.000000	99.830727
2383.000000	99.830273
2382.000000	99.829826
2381.000000	99.829427
2380.000000	99.829071
2379.000000	99.828725
2378.000000	99.828343
2377.000000	99.827899
2376.000000	99.827436
2375.000000	99.827037
2374.000000	99.826751
2373.000000	99.826521
2372.000000	99.826224
2371.000000	99.825784
2370.000000	99.825224
2369.000000	99.824649
2368.000000	99.824161
2367.000000	99.823817
2366.000000	99.823657
2365.000000	99.823709
2364.000000	99.823946
2363.000000	99.824238
2362.000000	99.824373
2361.000000	99.824165
2360.000000	99.823535
2359.000000	99.822597
2358.000000	99.821662
2357.000000	99.821053
2356.000000	99.820919
2355.000000	99.821135
2354.000000	99.821384
2353.000000	99.821446
2352.000000	99.821354
2351.000000	99.821246
2350.000000	99.821146
2349.000000	99.821013
2348.000000	99.820832
2347.000000	99.820668
2346.000000	99.820655
2345.000000	99.820879
2344.000000	99.821271
2343.000000	99.821503
2342.000000	99.821335
2341.000000	99.820795
2340.000000	99.820051
2339.000000	99.819220
2338.000000	99.818295
2337.000000	99.817308
2336.000000	99.816444
2335.000000	99.815995
2334.000000	99.816206
2333.000000	99.817160
2332.000000	99.818686
2331.000000	99.820271
2330.000000	99.821212
2329.000000	99.821244
2328.000000	99.820637
2327.000000	99.819867
2326.000000	99.819114
2325.000000	99.818339
2324.000000	99.817716
2323.000000	99.817420
2322.000000	99.817446
2321.000000	99.817507
2320.000000	99.817382
2319.000000	99.817044
2318.000000	99.816480
2317.000000	99.815600
2316.000000	99.814355
2315.000000	99.813091
2314.000000	99.812450
2313.000000	99.812804
2312.000000	99.813828
2311.000000	99.814770
2310.000000	99.815039
2309.000000	99.814659
2308.000000	99.814053
2307.000000	99.813571
2306.000000	99.813282
2305.000000	99.813087
2304.000000	99.812848
2303.000000	99.812400
2302.000000	99.811673
2301.000000	99.810874
2300.000000	99.810381
2299.000000	99.810360
2298.000000	99.810578
2297.000000	99.810636
2296.000000	99.810348
2295.000000	99.809832
2294.000000	99.809345
2293.000000	99.809120
2292.000000	99.809283
2291.000000	99.809760
2290.000000	99.810257
2289.000000	99.810464
2288.000000	99.810296
2287.000000	99.809848
2286.000000	99.809219
2285.000000	99.808504
2284.000000	99.807959
2283.000000	99.807909
2282.000000	99.808392
2281.000000	99.809032
2280.000000	99.809423
2279.000000	99.809502
2278.000000	99.809330
2277.000000	99.808736
2276.000000	99.807537
2275.000000	99.806047
2274.000000	99.804907
2273.000000	99.804286
2272.000000	99.803636
2271.000000	99.802485
2270.000000	99.801191
2269.000000	99.800501
2268.000000	99.800612
2267.000000	99.801082
2266.000000	99.801524
2265.000000	99.802026
2264.000000	99.802796
2263.000000	99.803832
2262.000000	99.804995
2261.000000	99.806081
2260.000000	99.806681
2259.000000	99.806253
2258.000000	99.804642
2257.000000	99.802435
2256.000000	99.800633
2255.000000	99.799937
2254.000000	99.800457
2253.000000	99.801845
2252.000000	99.803413
2251.000000	99.804368
2250.000000	99.804332
2249.000000	99.803738
2248.000000	99.803391
2247.000000	99.803445
2246.000000	99.803170
2245.000000	99.801924
2244.000000	99.800030
2243.000000	99.798389
2242.000000	99.797443
2241.000000	99.796873
2240.000000	99.796228
2239.000000	99.795432
2238.000000	99.794618
2237.000000	99.793849
2236.000000	99.793213
2235.000000	99.792973
2234.000000	99.793393
2233.000000	99.794432
2232.000000	99.795749
2231.000000	99.797052
2230.000000	99.798347
2229.000000	99.799777
2228.000000	99.801173
2227.000000	99.801894
2226.000000	99.801300
2225.000000	99.799487
2224.000000	99.797496
2223.000000	99.796538
2222.000000	99.796883
2221.000000	99.797670
2220.000000	99.797788
2219.000000	99.796978
2218.000000	99.795967
2217.000000	99.795656
2216.000000	99.796352
2215.000000	99.797765
2214.000000	99.799456
2213.000000	99.801061
2212.000000	99.802189
2211.000000	99.802531
2210.000000	99.802242
2209.000000	99.801995
2208.000000	99.802304
2207.000000	99.802845
2206.000000	99.802772
2205.000000	99.801747
2204.000000	99.800368
2203.000000	99.799458
2202.000000	99.799110
2201.000000	99.798687
2200.000000	99.797640
2199.000000	99.796148
2198.000000	99.794975
2197.000000	99.794805
2196.000000	99.795688
2195.000000	99.796958
2194.000000	99.797651
2193.000000	99.797216
2192.000000	99.795920
2191.000000	99.794616
2190.000000	99.794078
2189.000000	99.794502
2188.000000	99.795544
2187.000000	99.796681
2186.000000	99.797581
2185.000000	99.798262
2184.000000	99.798937
2183.000000	99.799727
2182.000000	99.800528
2181.000000	99.801176
2180.000000	99.801668
2179.000000	99.802094
2178.000000	99.802355
2177.000000	99.802112
2176.000000	99.801156
2175.000000	99.799731
2174.000000	99.798433
2173.000000	99.797796
2172.000000	99.797967
2171.000000	99.798727
2170.000000	99.799695
2169.000000	99.800540
2168.000000	99.801068
2167.000000	99.801195
2166.000000	99.800917
2165.000000	99.800376
2164.000000	99.799885
2163.000000	99.799779
2162.000000	99.800184
2161.000000	99.800938
2160.000000	99.801741
2159.000000	99.802390
2158.000000	99.802849
2157.000000	99.803132
2156.000000	99.803229
2155.000000	99.803182
2154.000000	99.803159
2153.000000	99.803354
2152.000000	99.803802
2151.000000	99.804368
2150.000000	99.804913
2149.000000	99.805447
2148.000000	99.806037
2147.000000	99.806645
2146.000000	99.807135
2145.000000	99.807423
2144.000000	99.807555
2143.000000	99.807674
2142.000000	99.807933
2141.000000	99.808416
2140.000000	99.809116
2139.000000	99.809915
2138.000000	99.810606
2137.000000	99.811041
2136.000000	99.811231
2135.000000	99.811333
2134.000000	99.811524
2133.000000	99.811868
2132.000000	99.812305
2131.000000	99.812727
2130.000000	99.813079
2129.000000	99.813409
2128.000000	99.813791
2127.000000	99.814219
2126.000000	99.814611
2125.000000	99.814914
2124.000000	99.815176
2123.000000	99.815478
2122.000000	99.815837
2121.000000	99.816200
2120.000000	99.816533
2119.000000	99.816854
2118.000000	99.817196
2117.000000	99.817564
2116.000000	99.817938
2115.000000	99.818300
2114.000000	99.818644
2113.000000	99.818981
2112.000000	99.819326
2111.000000	99.819694
2110.000000	99.820098
2109.000000	99.820539
2108.000000	99.821001
2107.000000	99.821469
2106.000000	99.821934
2105.000000	99.822395
2104.000000	99.822851
2103.000000	99.823304
2102.000000	99.823760
2101.000000	99.824223
2100.000000	99.824697
2099.000000	99.825184
2098.000000	99.825679
2097.000000	99.826179
2096.000000	99.826682
2095.000000	99.827186
2094.000000	99.827695
2093.000000	99.828210
2092.000000	99.828730
2091.000000	99.829256
2090.000000	99.829782
2089.000000	99.830303
2088.000000	99.830821
2087.000000	99.831338
2086.000000	99.831859
2085.000000	99.832387
2084.000000	99.832916
2083.000000	99.833440
2082.000000	99.833947
2081.000000	99.834430
2080.000000	99.834892
2079.000000	99.835338
2078.000000	99.835777
2077.000000	99.836212
2076.000000	99.836643
2075.000000	99.837063
2074.000000	99.837470
2073.000000	99.837857
2072.000000	99.838222
2071.000000	99.838560
2070.000000	99.838867
2069.000000	99.839144
2068.000000	99.839392
2067.000000	99.839610
2066.000000	99.839793
2065.000000	99.839937
2064.000000	99.840043
2063.000000	99.840117
2062.000000	99.840167
2061.000000	99.840202
2060.000000	99.840223
2059.000000	99.840222
2058.000000	99.840192
2057.000000	99.840124
2056.000000	99.840016
2055.000000	99.839872
2054.000000	99.839698
2053.000000	99.839497
2052.000000	99.839270
2051.000000	99.839023
2050.000000	99.838758
2049.000000	99.838479
2048.000000	99.838185
2047.000000	99.837875
2046.000000	99.837546
2045.000000	99.837194
2044.000000	99.836820
2043.000000	99.836422
2042.000000	99.835998
2041.000000	99.835550
2040.000000	99.835083
2039.000000	99.834602
2038.000000	99.834113
2037.000000	99.833615
2036.000000	99.833098
2035.000000	99.832556
2034.000000	99.832002
2033.000000	99.831452
2032.000000	99.830892
2031.000000	99.830279
2030.000000	99.829588
2029.000000	99.828839
2028.000000	99.828087
2027.000000	99.827366
2026.000000	99.826656
2025.000000	99.825925
2024.000000	99.825231
2023.000000	99.824706
2022.000000	99.824413
2021.000000	99.824181
2020.000000	99.823711
2019.000000	99.822858
2018.000000	99.821773
2017.000000	99.820785
2016.000000	99.819986
2015.000000	99.819189
2014.000000	99.818297
2013.000000	99.817523
2012.000000	99.817132
2011.000000	99.817131
2010.000000	99.817297
2009.000000	99.817412
2008.000000	99.817353
2007.000000	99.817043
2006.000000	99.816446
2005.000000	99.815646
2004.000000	99.814794
2003.000000	99.813935
2002.000000	99.812975
2001.000000	99.811878
2000.000000	99.810796
1999.000000	99.809972
1998.000000	99.809525
1997.000000	99.809369
1996.000000	99.809287
1995.000000	99.809116
1994.000000	99.808851
1993.000000	99.808561
1992.000000	99.808212
1991.000000	99.807714
1990.000000	99.807185
1989.000000	99.806997
1988.000000	99.807331
1987.000000	99.807808
1986.000000	99.807860
1985.000000	99.807453
1984.000000	99.807134
1983.000000	99.807257
1982.000000	99.807506
1981.000000	99.807414
1980.000000	99.807083
1979.000000	99.807060
1978.000000	99.807571
1977.000000	99.808266
1976.000000	99.808668
1975.000000	99.808582
1974.000000	99.807969
1973.000000	99.806853
1972.000000	99.805489
1971.000000	99.804374
1970.000000	99.803848
1969.000000	99.803763
1968.000000	99.803715
1967.000000	99.803648
1966.000000	99.803985
1965.000000	99.805013
1964.000000	99.806328
1963.000000	99.807052
1962.000000	99.806610
1961.000000	99.805144
1960.000000	99.803376
1959.000000	99.801977
1958.000000	99.801104
1957.000000	99.800538
1956.000000	99.800068
1955.000000	99.799690
1954.000000	99.799479
1953.000000	99.799369
1952.000000	99.799176
1951.000000	99.798815
1950.000000	99.798441
1949.000000	99.798320
1948.000000	99.798502
1947.000000	99.798663
1946.000000	99.798373
1945.000000	99.797585
1944.000000	99.796720
1943.000000	99.796139
1942.000000	99.795624
1941.000000	99.794688
1940.000000	99.793326
1939.000000	99.792091
1938.000000	99.791406
1937.000000	99.791125
1936.000000	99.790864
1935.000000	99.790539
1934.000000	99.790290
1933.000000	99.790028
1932.000000	99.789486
1931.000000	99.788638
1930.000000	99.787710
1929.000000	99.786709
1928.000000	99.785337
1927.000000	99.783448
1926.000000	99.781222
1925.000000	99.778936
1924.000000	99.776811
1923.000000	99.775195
1922.000000	99.774477
1921.000000	99.774541
1920.000000	99.774609
1919.000000	99.773799
1918.000000	99.771896
1917.000000	99.769483
1916.000000	99.767199
1915.000000	99.765262
1914.000000	99.763876
1913.000000	99.763337
1912.000000	99.763400
1911.000000	99.763046
1910.000000	99.761587
1909.000000	99.759775
1908.000000	99.758985
1907.000000	99.759170
1906.000000	99.758598
1905.000000	99.756007
1904.000000	99.752035
1903.000000	99.748328
1902.000000	99.745731
1901.000000	99.743952
1900.000000	99.742450
1899.000000	99.740845
1898.000000	99.738715
1897.000000	99.735916
1896.000000	99.733133
1895.000000	99.731355
1894.000000	99.730620
1893.000000	99.729969
1892.000000	99.728788
1891.000000	99.727481
1890.000000	99.726817
1889.000000	99.727110
1888.000000	99.727962
1887.000000	99.728447
1886.000000	99.727548
1885.000000	99.724946
1884.000000	99.721739
1883.000000	99.719652
1882.000000	99.719157
1881.000000	99.719044
1880.000000	99.718111
1879.000000	99.716706
1878.000000	99.715935
1877.000000	99.716011
1876.000000	99.716310
1875.000000	99.716557
1874.000000	99.717061
1873.000000	99.717874
1872.000000	99.718600
1871.000000	99.719173
1870.000000	99.720150
1869.000000	99.721947
1868.000000	99.724086
1867.000000	99.725426
1866.000000	99.725211
1865.000000	99.723701
1864.000000	99.721960
1863.000000	99.721240
1862.000000	99.722233
1861.000000	99.724515
1860.000000	99.726872
1859.000000	99.728415
1858.000000	99.729235
1857.000000	99.729802
1856.000000	99.730063
1855.000000	99.729482
1854.000000	99.728169
1853.000000	99.727393
1852.000000	99.728366
1851.000000	99.730986
1850.000000	99.733902
1849.000000	99.735832
1848.000000	99.736673
1847.000000	99.737267
1846.000000	99.738471
1845.000000	99.740477
1844.000000	99.742827
1843.000000	99.744858
1842.000000	99.746334
1841.000000	99.747661
1840.000000	99.749190
1839.000000	99.750451
1838.000000	99.750540
1837.000000	99.749437
1836.000000	99.748447
1835.000000	99.748904
1834.000000	99.750867
1833.000000	99.753271
1832.000000	99.754990
1831.000000	99.755504
1830.000000	99.755028
1829.000000	99.754486
1828.000000	99.754656
1827.000000	99.755535
1826.000000	99.756361
1825.000000	99.756091
1824.000000	99.754638
1823.000000	99.752979
1822.000000	99.751834
1821.000000	99.751158
1820.000000	99.750895
1819.000000	99.751319
1818.000000	99.752200
1817.000000	99.752587
1816.000000	99.752064
1815.000000	99.751595
1814.000000	99.752277
1813.000000	99.753744
1812.000000	99.754664
1811.000000	99.754368
1810.000000	99.753261
1809.000000	99.751952
1808.000000	99.750989
1807.000000	99.750958
1806.000000	99.751883
1805.000000	99.752981
1804.000000	99.753414
1803.000000	99.753157
1802.000000	99.752714
1801.000000	99.752159
1800.000000	99.751330
1799.000000	99.750442
1798.000000	99.749831
1797.000000	99.749569
1796.000000	99.749682
1795.000000	99.750443
1794.000000	99.752194
1793.000000	99.754694
1792.000000	99.757251
1791.000000	99.759404
1790.000000	99.760932
1789.000000	99.762107
1788.000000	99.763789
1787.000000	99.766564
1786.000000	99.769834
1785.000000	99.772199
1784.000000	99.772957
1783.000000	99.772710
1782.000000	99.772256
1781.000000	99.771553
1780.000000	99.770484
1779.000000	99.769686
1778.000000	99.770014
1777.000000	99.771731
1776.000000	99.774476
1775.000000	99.777771
1774.000000	99.781200
1773.000000	99.783824
1772.000000	99.784748
1771.000000	99.784502
1770.000000	99.784249
1769.000000	99.784324
1768.000000	99.784389
1767.000000	99.784331
1766.000000	99.784484
1765.000000	99.785095
1764.000000	99.786076
1763.000000	99.787184
1762.000000	99.788249
1761.000000	99.789158
1760.000000	99.789766
1759.000000	99.790070
1758.000000	99.790292
1757.000000	99.790611
1756.000000	99.791030
1755.000000	99.791601
1754.000000	99.792522
1753.000000	99.793826
1752.000000	99.794899
1751.000000	99.794775
1750.000000	99.793379
1749.000000	99.791881
1748.000000	99.791266
1747.000000	99.791448
1746.000000	99.791828
1745.000000	99.792009
1744.000000	99.791993
1743.000000	99.791864
1742.000000	99.791559
1741.000000	99.790842
1740.000000	99.789574
1739.000000	99.788123
1738.000000	99.787233
1737.000000	99.787342
1736.000000	99.788432
1735.000000	99.789476
1734.000000	99.788526
1733.000000	99.785190
1732.000000	99.780989
1731.000000	99.777273
1730.000000	99.774656
1729.000000	99.773343
1728.000000	99.772893
1727.000000	99.772472
1726.000000	99.771463
1725.000000	99.769764
1724.000000	99.767600
1723.000000	99.765101
1722.000000	99.762252
1721.000000	99.759162
1720.000000	99.756158
1719.000000	99.753578
1718.000000	99.751561
1717.000000	99.750135
1716.000000	99.749419
1715.000000	99.749276
1714.000000	99.748885
1713.000000	99.747360
1712.000000	99.744583
1711.000000	99.741074
1710.000000	99.737395
1709.000000	99.733774
1708.000000	99.730160
1707.000000	99.726405
1706.000000	99.722346
1705.000000	99.718196
1704.000000	99.714676
1703.000000	99.712229
1702.000000	99.710683
1701.000000	99.708507
1700.000000	99.704246
1699.000000	99.699004
1698.000000	99.694295
1697.000000	99.689978
1696.000000	99.685603
1695.000000	99.681391
1694.000000	99.677647
1693.000000	99.674175
1692.000000	99.670737
1691.000000	99.667138
1690.000000	99.663255
1689.000000	99.659151
1688.000000	99.655112
1687.000000	99.651385
1686.000000	99.647849
1685.000000	99.643585
1684.000000	99.638349
1683.000000	99.633909
1682.000000	99.630947
1681.000000	99.628340
1680.000000	99.624945
1679.000000	99.620441
1678.000000	99.615556
1677.000000	99.611144
1676.000000	99.607224
1675.000000	99.603266
1674.000000	99.599413
1673.000000	99.596284
1672.000000	99.594035
1671.000000	99.591901
1670.000000	99.588409
1669.000000	99.583102
1668.000000	99.577068
1667.000000	99.571318
1666.000000	99.566296
1665.000000	99.562330
1664.000000	99.559468
1663.000000	99.557011
1662.000000	99.553842
1661.000000	99.549429
1660.000000	99.544425
1659.000000	99.540154
1658.000000	99.537037
1657.000000	99.534474
1656.000000	99.531358
1655.000000	99.527528
1654.000000	99.521314
1653.000000	99.514596
1652.000000	99.513187
1651.000000	99.514548
1650.000000	99.514967
1649.000000	99.513687
1648.000000	99.509671
1647.000000	99.503975
1646.000000	99.500202
1645.000000	99.499796
1644.000000	99.500605
1643.000000	99.501208
1642.000000	99.501496
1641.000000	99.501444
1640.000000	99.501657
1639.000000	99.503215
1638.000000	99.506154
1637.000000	99.507616
1636.000000	99.503681
1635.000000	99.497007
1634.000000	99.493758
1633.000000	99.494355
1632.000000	99.496072
1631.000000	99.497723
1630.000000	99.500265
1629.000000	99.504986
1628.000000	99.510691
1627.000000	99.514496
1626.000000	99.515373
1625.000000	99.514843
1624.000000	99.514217
1623.000000	99.513496
1622.000000	99.513283
1621.000000	99.515067
1620.000000	99.519562
1619.000000	99.526364
1618.000000	99.534077
1617.000000	99.540806
1616.000000	99.545675
1615.000000	99.548699
1614.000000	99.550336
1613.000000	99.552060
1612.000000	99.555460
1611.000000	99.561035
1610.000000	99.567911
1609.000000	99.574507
1608.000000	99.579378
1607.000000	99.582037
1606.000000	99.584040
1605.000000	99.587928
1604.000000	99.594379
1603.000000	99.600973
1602.000000	99.604752
1601.000000	99.605807
1600.000000	99.606954
1599.000000	99.610462
1598.000000	99.616173
1597.000000	99.622353
1596.000000	99.627325
1595.000000	99.630252
1594.000000	99.631323
1593.000000	99.631630
1592.000000	99.632299
1591.000000	99.633641
1590.000000	99.635540
1589.000000	99.638168
1588.000000	99.641669
1587.000000	99.645290
1586.000000	99.647827
1585.000000	99.648873
1584.000000	99.649060
1583.000000	99.649440
1582.000000	99.650782
1581.000000	99.653318
1580.000000	99.656718
1579.000000	99.660242
1578.000000	99.663049
1577.000000	99.664551
1576.000000	99.665297
1575.000000	99.666594
1574.000000	99.668761
1573.000000	99.671248
1572.000000	99.673438
1571.000000	99.674462
1570.000000	99.674062
1569.000000	99.674057
1568.000000	99.676059
1567.000000	99.679304
1566.000000	99.682402
1565.000000	99.684824
1564.000000	99.686460
1563.000000	99.687475
1562.000000	99.687983
1561.000000	99.688750
1560.000000	99.689686
1559.000000	99.689853
1558.000000	99.690844
1557.000000	99.693067
1556.000000	99.695171
1555.000000	99.697035
1554.000000	99.699094
1553.000000	99.701620
1552.000000	99.704758
1551.000000	99.708063
1550.000000	99.710532
1549.000000	99.711623
1548.000000	99.711967
1547.000000	99.712744
1546.000000	99.714463
1545.000000	99.716433
1544.000000	99.717812
1543.000000	99.718831
1542.000000	99.720435
1541.000000	99.722585
1540.000000	99.723833
1539.000000	99.723570
1538.000000	99.722633
1537.000000	99.721868
1536.000000	99.721495
1535.000000	99.721348
1534.000000	99.721349
1533.000000	99.721934
1532.000000	99.723368
1531.000000	99.725087
1530.000000	99.726424
1529.000000	99.727292
1528.000000	99.728035
1527.000000	99.728906
1526.000000	99.729675
1525.000000	99.730076
1524.000000	99.730472
1523.000000	99.731594
1522.000000	99.733624
1521.000000	99.735662
1520.000000	99.736756
1519.000000	99.737063
1518.000000	99.737252
1517.000000	99.737729
1516.000000	99.738480
1515.000000	99.739284
1514.000000	99.740014
1513.000000	99.740652
1512.000000	99.741154
1511.000000	99.741519
1510.000000	99.741972
1509.000000	99.742930
1508.000000	99.744735
1507.000000	99.747256
1506.000000	99.749588
1505.000000	99.750992
1504.000000	99.751717
1503.000000	99.752287
1502.000000	99.752908
1501.000000	99.753559
1500.000000	99.754257
1499.000000	99.755181
1498.000000	99.756456
1497.000000	99.757768
1496.000000	99.758589
1495.000000	99.758882
1494.000000	99.759140
1493.000000	99.759812
1492.000000	99.761057
1491.000000	99.762746
1490.000000	99.764509
1489.000000	99.765913
1488.000000	99.766783
1487.000000	99.767275
1486.000000	99.767640
1485.000000	99.768124
1484.000000	99.768889
1483.000000	99.769899
1482.000000	99.770803
1481.000000	99.771112
1480.000000	99.770683
1479.000000	99.769885
1478.000000	99.769102
1477.000000	99.768439
1476.000000	99.768036
1475.000000	99.768289
1474.000000	99.769387
1473.000000	99.770666
1472.000000	99.771319
1471.000000	99.771196
1470.000000	99.770258
1469.000000	99.768590
1468.000000	99.766738
1467.000000	99.765344
1466.000000	99.764455
1465.000000	99.763384
1464.000000	99.762317
1463.000000	99.762391
1462.000000	99.763593
1461.000000	99.764581
1460.000000	99.764337
1459.000000	99.763514
1458.000000	99.764135
1457.000000	99.767360
1456.000000	99.771565
1455.000000	99.774519
1454.000000	99.775612
1453.000000	99.774173
1452.000000	99.769773
1451.000000	99.763959
1450.000000	99.759268
1449.000000	99.756392
1448.000000	99.753766
1447.000000	99.750206
1446.000000	99.746090
1445.000000	99.741845
1444.000000	99.738035
1443.000000	99.735730
1442.000000	99.735170
1441.000000	99.734962
1440.000000	99.734024
1439.000000	99.733942
1438.000000	99.737802
1437.000000	99.745449
1436.000000	99.751260
1435.000000	99.751621
1434.000000	99.749405
1433.000000	99.748271
1432.000000	99.748472
1431.000000	99.747703
1430.000000	99.744458
1429.000000	99.740209
1428.000000	99.737559
1427.000000	99.737898
1426.000000	99.741176
1425.000000	99.746010
1424.000000	99.750002
1423.000000	99.751822
1422.000000	99.752679
1421.000000	99.754488
1420.000000	99.756947
1419.000000	99.757990
1418.000000	99.757880
1417.000000	99.758684
1416.000000	99.760921
1415.000000	99.764207
1414.000000	99.768395
1413.000000	99.773295
1412.000000	99.778035
1411.000000	99.781463
1410.000000	99.783610
1409.000000	99.785681
1408.000000	99.788532
1407.000000	99.792071
1406.000000	99.796013
1405.000000	99.799983
1404.000000	99.803017
1403.000000	99.804413
1402.000000	99.805196
1401.000000	99.807438
1400.000000	99.811869
1399.000000	99.816602
1398.000000	99.819364
1397.000000	99.820460
1396.000000	99.822104
1395.000000	99.825688
1394.000000	99.830258
1393.000000	99.833443
1392.000000	99.833910
1391.000000	99.832671
1390.000000	99.831909
1389.000000	99.833114
1388.000000	99.835994
1387.000000	99.838870
1386.000000	99.840394
1385.000000	99.840535
1384.000000	99.840467
1383.000000	99.842183
1382.000000	99.847281
1381.000000	99.855049
1380.000000	99.862022
1379.000000	99.864507
1378.000000	99.861785
1377.000000	99.856258
1376.000000	99.850331
1375.000000	99.844158
1374.000000	99.837301
1373.000000	99.831167
1372.000000	99.827916
1371.000000	99.827923
1370.000000	99.829578
1369.000000	99.830910
1368.000000	99.831281
1367.000000	99.831497
1366.000000	99.832271
1365.000000	99.833061
1364.000000	99.832688
1363.000000	99.830983
1362.000000	99.829177
1361.000000	99.828047
1360.000000	99.826855
1359.000000	99.825065
1358.000000	99.824003
1357.000000	99.825842
1356.000000	99.830991
1355.000000	99.837041
1354.000000	99.840843
1353.000000	99.841454
1352.000000	99.840427
1351.000000	99.839641
1350.000000	99.839672
1349.000000	99.840175
1348.000000	99.840843
1347.000000	99.841680
1346.000000	99.842999
1345.000000	99.845353
1344.000000	99.848845
1343.000000	99.852272
1342.000000	99.853692
1341.000000	99.852381
1340.000000	99.849955
1339.000000	99.848759
1338.000000	99.849174
1337.000000	99.849885
1336.000000	99.850285
1335.000000	99.850966
1334.000000	99.852021
1333.000000	99.852368
1332.000000	99.851286
1331.000000	99.849702
1330.000000	99.849203
1329.000000	99.850227
1328.000000	99.851856
1327.000000	99.852877
1326.000000	99.852499
1325.000000	99.850660
1324.000000	99.848330
1323.000000	99.847251
1322.000000	99.848539
1321.000000	99.851491
1320.000000	99.854317
1319.000000	99.856002
1318.000000	99.856760
1317.000000	99.856841
1316.000000	99.856014
1315.000000	99.854514
1314.000000	99.853433
1313.000000	99.853504
1312.000000	99.854119
1311.000000	99.854143
1310.000000	99.853231
1309.000000	99.851860
1308.000000	99.850669
1307.000000	99.850230
1306.000000	99.850894
1305.000000	99.852308
1304.000000	99.853268
1303.000000	99.852650
1302.000000	99.850569
1301.000000	99.848371
1300.000000	99.847367
1299.000000	99.847799
1298.000000	99.848972
1297.000000	99.850063
1296.000000	99.850688
1295.000000	99.850852
1294.000000	99.850701
1293.000000	99.850455
1292.000000	99.850382
1291.000000	99.850590
1290.000000	99.850867
1289.000000	99.850974
1288.000000	99.851052
1287.000000	99.851356
1286.000000	99.851597
1285.000000	99.851043
1284.000000	99.849440
1283.000000	99.847336
1282.000000	99.845187
1281.000000	99.842810
1280.000000	99.840317
1279.000000	99.839040
1278.000000	99.840624
1277.000000	99.845318
1276.000000	99.851654
1275.000000	99.857492
1274.000000	99.860872
1273.000000	99.860402
1272.000000	99.856064
1271.000000	99.849915
1270.000000	99.845135
1269.000000	99.843911
1268.000000	99.846378
1267.000000	99.851026
1266.000000	99.855475
1265.000000	99.857530
1264.000000	99.856465
1263.000000	99.853214
1262.000000	99.849029
1261.000000	99.844885
1260.000000	99.842711
1259.000000	99.845260
1258.000000	99.852698
1257.000000	99.860406
1256.000000	99.862583
1255.000000	99.858034
1254.000000	99.850941
1253.000000	99.846081
1252.000000	99.844786
1251.000000	99.845276
1250.000000	99.844782
1249.000000	99.841195
1248.000000	99.834544
1247.000000	99.827419
1246.000000	99.822574
1245.000000	99.819992
1244.000000	99.817689
1243.000000	99.814874
1242.000000	99.812090
1241.000000	99.808595
1240.000000	99.802571
1239.000000	99.794555
1238.000000	99.787941
1237.000000	99.784787
1236.000000	99.783256
1235.000000	99.780486
1234.000000	99.776014
1233.000000	99.770989
1232.000000	99.765624
1231.000000	99.758877
1230.000000	99.749559
1229.000000	99.736924
1228.000000	99.721383
1227.000000	99.705070
1226.000000	99.689750
1225.000000	99.673546
1224.000000	99.652181
1223.000000	99.624679
1222.000000	99.595407
1221.000000	99.568595
1220.000000	99.542728
1219.000000	99.512819
1218.000000	99.477014
1217.000000	99.438682
1216.000000	99.402439
1215.000000	99.369712
1214.000000	99.338196
1213.000000	99.304733
1212.000000	99.268581
1211.000000	99.231788
1210.000000	99.195973
1209.000000	99.159713
1208.000000	99.120970
1207.000000	99.081524
1206.000000	99.046149
1205.000000	99.016691
1204.000000	98.989563
1203.000000	98.960289
1202.000000	98.928151
1201.000000	98.894699
1200.000000	98.859599
1199.000000	98.820553
1198.000000	98.776947
1197.000000	98.731571
1196.000000	98.688293
1195.000000	98.648848
1194.000000	98.612106
1193.000000	98.575943
1192.000000	98.539321
1191.000000	98.502438
1190.000000	98.465347
1189.000000	98.427398
1188.000000	98.388314
1187.000000	98.348723
1186.000000	98.308818
1185.000000	98.267498
1184.000000	98.224021
1183.000000	98.179582
1182.000000	98.135638
1181.000000	98.091182
1180.000000	98.043535
1179.000000	97.991861
1178.000000	97.938214
1177.000000	97.884677
1176.000000	97.830905
1175.000000	97.775264
1174.000000	97.717500
1173.000000	97.659418
1172.000000	97.602958
1171.000000	97.547894
1170.000000	97.491764
1169.000000	97.432685
1168.000000	97.372467
1167.000000	97.316420
1166.000000	97.270016
1165.000000	97.236535
1164.000000	97.217766
1163.000000	97.214946
1162.000000	97.227461
1161.000000	97.250777
1160.000000	97.276122
1159.000000	97.292969
1158.000000	97.293956
1157.000000	97.278988
1156.000000	97.254125
1155.000000	97.225438
1154.000000	97.194073
1153.000000	97.157696
1152.000000	97.115219
1151.000000	97.068362
1150.000000	97.019789
1149.000000	96.971935
1148.000000	96.926859
1147.000000	96.884557
1146.000000	96.841762
1145.000000	96.795188
1144.000000	96.745827
1143.000000	96.697359
1142.000000	96.650511
1141.000000	96.602313
1140.000000	96.551404
1139.000000	96.500691
1138.000000	96.453448
1137.000000	96.409213
1136.000000	96.364711
1135.000000	96.316874
1134.000000	96.264368
1133.000000	96.208181
1132.000000	96.151028
1131.000000	96.094345
1130.000000	96.036140
1129.000000	95.974106
1128.000000	95.910190
1127.000000	95.849072
1126.000000	95.792487
1125.000000	95.738161
1124.000000	95.683685
1123.000000	95.627810
1122.000000	95.568758
1121.000000	95.505751
1120.000000	95.442113
1119.000000	95.382476
1118.000000	95.327027
1117.000000	95.272695
1116.000000	95.219049
1115.000000	95.167736
1114.000000	95.117200
1113.000000	95.064510
1112.000000	95.012249
1111.000000	94.966562
1110.000000	94.927713
1109.000000	94.889229
1108.000000	94.847231
1107.000000	94.803938
1106.000000	94.761005
1105.000000	94.717032
1104.000000	94.673614
1103.000000	94.636149
1102.000000	94.605684
1101.000000	94.576331
1100.000000	94.543630
1099.000000	94.509466
1098.000000	94.475713
1097.000000	94.439893
1096.000000	94.400186
1095.000000	94.359181
1094.000000	94.319302
1093.000000	94.279399
1092.000000	94.238386
1091.000000	94.197333
1090.000000	94.156022
1089.000000	94.112803
1088.000000	94.069669
1087.000000	94.031695
1086.000000	93.999409
1085.000000	93.967522
1084.000000	93.933240
1083.000000	93.899800
1082.000000	93.869572
1081.000000	93.839677
1080.000000	93.807177
1079.000000	93.773209
1078.000000	93.739216
1077.000000	93.703330
1076.000000	93.662083
1075.000000	93.611837
1074.000000	93.548758
1073.000000	93.472763
1072.000000	93.391277
1071.000000	93.312893
1070.000000	93.237030
1069.000000	93.156098
1068.000000	93.066992
1067.000000	92.972897
1066.000000	92.874806
1065.000000	92.770825
1064.000000	92.664845
1063.000000	92.566166
1062.000000	92.478178
1061.000000	92.395935
1060.000000	92.316217
1059.000000	92.240310
1058.000000	92.165532
1057.000000	92.084952
1056.000000	91.998417
1055.000000	91.913363
1054.000000	91.830656
1053.000000	91.739464
1052.000000	91.631058
1051.000000	91.508124
1050.000000	91.375516
1049.000000	91.232621
1048.000000	91.081283
1047.000000	90.929797
1046.000000	90.781985
1045.000000	90.632266
1044.000000	90.477073
1043.000000	90.321843
1042.000000	90.171702
1041.000000	90.024038
1040.000000	89.875580
1039.000000	89.728814
1038.000000	89.586790
1037.000000	89.449700
1036.000000	89.320501
1035.000000	89.204950
1034.000000	89.102250
1033.000000	89.005097
1032.000000	88.912761
1031.000000	88.833972
1030.000000	88.772518
1029.000000	88.720362
1028.000000	88.669715
1027.000000	88.621906
1026.000000	88.579310
1025.000000	88.538783
1024.000000	88.498831
1023.000000	88.463811
1022.000000	88.434744
1021.000000	88.404076
1020.000000	88.365164
1019.000000	88.319902
1018.000000	88.272729
1017.000000	88.224516
1016.000000	88.176237
1015.000000	88.131148
1014.000000	88.089488
1013.000000	88.047816
1012.000000	88.006219
1011.000000	87.969011
1010.000000	87.936711
1009.000000	87.905576
1008.000000	87.876297
1007.000000	87.853706
1006.000000	87.835904
1005.000000	87.813945
1004.000000	87.786076
1003.000000	87.763316
1002.000000	87.756788
1001.000000	87.766770
1000.000000	87.786319
999.000000	87.808096
998.000000	87.826170
997.000000	87.839135
996.000000	87.852983
995.000000	87.873544
994.000000	87.896166
993.000000	87.911606
992.000000	87.921935
991.000000	87.940313
990.000000	87.973982
989.000000	88.017554
988.000000	88.064258
987.000000	88.113418
986.000000	88.164529
985.000000	88.214236
984.000000	88.263027
983.000000	88.317240
982.000000	88.381951
981.000000	88.458602
980.000000	88.549808
979.000000	88.657995
978.000000	88.778259
977.000000	88.900445
976.000000	89.019099
975.000000	89.134912
974.000000	89.248625
973.000000	89.362486
972.000000	89.485517
971.000000	89.626114
970.000000	89.779007
969.000000	89.929242
968.000000	90.069291
967.000000	90.203026
966.000000	90.334284
965.000000	90.463059
964.000000	90.593006
963.000000	90.730009
962.000000	90.870097
961.000000	90.999526
960.000000	91.110972
959.000000	91.211485
958.000000	91.312119
957.000000	91.417629
956.000000	91.528193
955.000000	91.641775
954.000000	91.751096
953.000000	91.846845
952.000000	91.928322
951.000000	92.004609
950.000000	92.082181
949.000000	92.157930
948.000000	92.227292
947.000000	92.291680
946.000000	92.353510
945.000000	92.410181
944.000000	92.457952
943.000000	92.497403
942.000000	92.531264
941.000000	92.560800
940.000000	92.587733
939.000000	92.616394
938.000000	92.650773
937.000000	92.691212
936.000000	92.735126
935.000000	92.778640
934.000000	92.817863
933.000000	92.851760
932.000000	92.883184
931.000000	92.914292
930.000000	92.943370
929.000000	92.970287
928.000000	93.001299
927.000000	93.041520
926.000000	93.085472
925.000000	93.123426
924.000000	93.155458
923.000000	93.190192
922.000000	93.229974
921.000000	93.266488
920.000000	93.291977
919.000000	93.306462
918.000000	93.313122
917.000000	93.315433
916.000000	93.320807
915.000000	93.338327
914.000000	93.369294
913.000000	93.406747
912.000000	93.446773
911.000000	93.493533
910.000000	93.551317
909.000000	93.619503
908.000000	93.698352
907.000000	93.792369
906.000000	93.903968
905.000000	94.028904
904.000000	94.159802
903.000000	94.289699
902.000000	94.412749
901.000000	94.528319
900.000000	94.644661
899.000000	94.771242
898.000000	94.906212
897.000000	95.038352
896.000000	95.162502
895.000000	95.285416
894.000000	95.413650
893.000000	95.542781
892.000000	95.662836
891.000000	95.769932
890.000000	95.869031
889.000000	95.967892
888.000000	96.070150
887.000000	96.172195
886.000000	96.266417
885.000000	96.349801
884.000000	96.428295
883.000000	96.509534
882.000000	96.592901
881.000000	96.671355
880.000000	96.741283
879.000000	96.804544
878.000000	96.862015
877.000000	96.912648
876.000000	96.959948
875.000000	97.012642
874.000000	97.076804
873.000000	97.151901
872.000000	97.234803
871.000000	97.322229
870.000000	97.409542
869.000000	97.493455
868.000000	97.576296
867.000000	97.661729
866.000000	97.745857
865.000000	97.818783
864.000000	97.876695
863.000000	97.927653
862.000000	97.983783
861.000000	98.050839
860.000000	98.125196
859.000000	98.196337
858.000000	98.252638
857.000000	98.291152
856.000000	98.323563
855.000000	98.367320
854.000000	98.428178
853.000000	98.495301
852.000000	98.553995
851.000000	98.597398
850.000000	98.625373
849.000000	98.639967
848.000000	98.646193
847.000000	98.651894
846.000000	98.662038
845.000000	98.676108
844.000000	98.692813
843.000000	98.711464
842.000000	98.725462
841.000000	98.721387
840.000000	98.691057
839.000000	98.641286
838.000000	98.586910
837.000000	98.537291
836.000000	98.494551
835.000000	98.460375
834.000000	98.436106
833.000000	98.417555
832.000000	98.397715
831.000000	98.376083
830.000000	98.360003
829.000000	98.355031
828.000000	98.357978
827.000000	98.360946
826.000000	98.359138
825.000000	98.353792
824.000000	98.350679
823.000000	98.357156
822.000000	98.377395
821.000000	98.407865
820.000000	98.438399
819.000000	98.459276
818.000000	98.468381
817.000000	98.471513
816.000000	98.474172
815.000000	98.471880
814.000000	98.450051
813.000000	98.395558
812.000000	98.307556
811.000000	98.194796
810.000000	98.062965
809.000000	97.907998
808.000000	97.722751
807.000000	97.506773
806.000000	97.267681
805.000000	97.016057
804.000000	96.762028
803.000000	96.515118
802.000000	96.285404
801.000000	96.086004
800.000000	95.933067
799.000000	95.837244
798.000000	95.793839
797.000000	95.787213
796.000000	95.806229
795.000000	95.849254
794.000000	95.913881
793.000000	95.990374
792.000000	96.067762
791.000000	96.139233
790.000000	96.199091
789.000000	96.241117
788.000000	96.262817
787.000000	96.265272
786.000000	96.245729
785.000000	96.196590
784.000000	96.116543
783.000000	96.018377
782.000000	95.921110
781.000000	95.837377
780.000000	95.771832
779.000000	95.727418
778.000000	95.708375
777.000000	95.719470
776.000000	95.764698
775.000000	95.843238
774.000000	95.944653
773.000000	96.052188
772.000000	96.152965
771.000000	96.241914
770.000000	96.316052
769.000000	96.371213
768.000000	96.407037
767.000000	96.430281
766.000000	96.449542
765.000000	96.469484
764.000000	96.492288
763.000000	96.520365
762.000000	96.553356
761.000000	96.585034
760.000000	96.607471
759.000000	96.618462
758.000000	96.623975
757.000000	96.634412
756.000000	96.658267
755.000000	96.696299
754.000000	96.740635
753.000000	96.781920
752.000000	96.817797
751.000000	96.852064
750.000000	96.886611
749.000000	96.919076
748.000000	96.949289
747.000000	96.982908
746.000000	97.026047
745.000000	97.079863
744.000000	97.142652
743.000000	97.213522
742.000000	97.290986
741.000000	97.370714
740.000000	97.447809
739.000000	97.520252
738.000000	97.588764
737.000000	97.654498
736.000000	97.717696
735.000000	97.777501
734.000000	97.832491
733.000000	97.882014
732.000000	97.926452
731.000000	97.965186
730.000000	97.995516
729.000000	98.015728
728.000000	98.028034
727.000000	98.036464
726.000000	98.043762
725.000000	98.052918
724.000000	98.069435
723.000000	98.097918
722.000000	98.137452
721.000000	98.184008
720.000000	98.235673
719.000000	98.290528
718.000000	98.340906
717.000000	98.376625
716.000000	98.394727
715.000000	98.401267
714.000000	98.403293
713.000000	98.404224
712.000000	98.407776
711.000000	98.419048
710.000000	98.436980
709.000000	98.450542
708.000000	98.447987
707.000000	98.428605
706.000000	98.402776
705.000000	98.381345
704.000000	98.366244
703.000000	98.348834
702.000000	98.313766
701.000000	98.245886
700.000000	98.138489
699.000000	97.998577
698.000000	97.846042
697.000000	97.706808
696.000000	97.603075
695.000000	97.546496
694.000000	97.538403
693.000000	97.575207
692.000000	97.649722
691.000000	97.745526
690.000000	97.837822
689.000000	97.907916
688.000000	97.955506
687.000000	97.991775
686.000000	98.024107
685.000000	98.055711
684.000000	98.094607
683.000000	98.149067
682.000000	98.213512
681.000000	98.268717
680.000000	98.299065
679.000000	98.304179
678.000000	98.294422
677.000000	98.284896
676.000000	98.292795
675.000000	98.326429
674.000000	98.376167
673.000000	98.423824
672.000000	98.462142
671.000000	98.498463
670.000000	98.539352
669.000000	98.580464
668.000000	98.617561
667.000000	98.652289
666.000000	98.682000
665.000000	98.706728
664.000000	98.729982
663.000000	98.755429
662.000000	98.784305
661.000000	98.811663
660.000000	98.830360
659.000000	98.839782
658.000000	98.846983
657.000000	98.857382
656.000000	98.866497
655.000000	98.863445
654.000000	98.846063
653.000000	98.828433
652.000000	98.827457
651.000000	98.844071
650.000000	98.863849
