4000.000000	100.680144
3999.000000	100.678976
3998.000000	100.677883
3997.000000	100.677082
3996.000000	100.676574
3995.000000	100.676147
3994.000000	100.675414
3993.000000	100.673987
3992.000000	100.671707
3991.000000	100.668841
3990.000000	100.665994
3989.000000	100.663671
3988.000000	100.662003
3987.000000	100.660753
3986.000000	100.659517
3985.000000	100.658170
3984.000000	100.657112
3983.000000	100.656877
3982.000000	100.657501
3981.000000	100.658346
3980.000000	100.658562
3979.000000	100.657806
3978.000000	100.656390
3977.000000	100.654899
3976.000000	100.653666
3975.000000	100.652565
3974.000000	100.651279
3973.000000	100.649801
3972.000000	100.648669
3971.000000	100.648544
3970.000000	100.649556
3969.000000	100.651089
3968.000000	100.652155
3967.000000	100.652173
3966.000000	100.651228
3965.000000	100.649883
3964.000000	100.648779
3963.000000	100.648229
3962.000000	100.648099
3961.000000	100.647974
3960.000000	100.647499
3959.000000	100.646633
3958.000000	100.645660
3957.000000	100.644951
3956.000000	100.644716
3955.000000	100.644922
3954.000000	100.645359
3953.000000	100.645781
3952.000000	100.646026
3951.000000	100.646045
3950.000000	100.645848
3949.000000	100.645469
3948.000000	100.645027
3947.000000	100.644676
3946.000000	100.644391
3945.000000	100.643910
3944.000000	100.643030
3943.000000	100.642016
3942.000000	100.641521
3941.000000	100.642023
3940.000000	100.643445
3939.000000	100.645163
3938.000000	100.646406
3937.000000	100.646746
3936.000000	100.646298
3935.000000	100.645592
3934.000000	100.645076
3933.000000	100.644820
3932.000000	100.644727
3931.000000	100.644896
3930.000000	100.645476
3929.000000	100.646197
3928.000000	100.646479
3927.000000	100.646105
3926.000000	100.645494
3925.000000	100.645066
3924.000000	100.644481
3923.000000	100.642970
3922.000000	100.640332
3921.000000	100.637279
3920.000000	100.634939
3919.000000	100.634076
3918.000000	100.634784
3917.000000	100.636524
3916.000000	100.638330
3915.000000	100.639294
3914.000000	100.639064
3913.000000	100.638024
3912.000000	100.637102
3911.000000	100.637136
3910.000000	100.638372
3909.000000	100.640349
3908.000000	100.642264
3907.000000	100.643533
3906.000000	100.643919
3905.000000	100.643443
3904.000000	100.642230
3903.000000	100.640560
3902.000000	100.639064
3901.000000	100.638504
3900.000000	100.639236
3899.000000	100.640911
3898.000000	100.642633
3897.000000	100.643734
3896.000000	100.644262
3895.000000	100.644599
3894.000000	100.644861
3893.000000	100.644643
3892.000000	100.643493
3891.000000	100.641532
3890.000000	100.639310
3889.000000	100.637289
3888.000000	100.635695
3887.000000	100.634902
3886.000000	100.635456
3885.000000	100.637438
3884.000000	100.640073
3883.000000	100.642191
3882.000000	100.642909
3881.000000	100.642206
3880.000000	100.641216
3879.000000	100.641487
3878.000000	100.643523
3877.000000	100.646428
3876.000000	100.648854
3875.000000	100.650372
3874.000000	100.651603
3873.000000	100.653042
3872.000000	100.654393
3871.000000	100.655310
3870.000000	100.655916
3869.000000	100.656086
3868.000000	100.655434
3867.000000	100.653980
3866.000000	100.652155
3865.000000	100.650457
3864.000000	100.649416
3863.000000	100.649850
3862.000000	100.652474
3861.000000	100.656645
3860.000000	100.660668
3859.000000	100.663348
3858.000000	100.664658
3857.000000	100.664899
3856.000000	100.663826
3855.000000	100.661204
3854.000000	100.658306
3853.000000	100.656474
3852.000000	100.655586
3851.000000	100.655243
3850.000000	100.655520
3849.000000	100.656295
3848.000000	100.657386
3847.000000	100.658899
3846.000000	100.661500
3845.000000	100.665766
3844.000000	100.671308
3843.000000	100.677081
3842.000000	100.682249
3841.000000	100.686041
3840.000000	100.687443
3839.000000	100.685418
3838.000000	100.680083
3837.000000	100.673778
3836.000000	100.669514
3835.000000	100.668270
3834.000000	100.668683
3833.000000	100.668792
3832.000000	100.667969
3831.000000	100.667067
3830.000000	100.666906
3829.000000	100.667240
3828.000000	100.667191
3827.000000	100.666525
3826.000000	100.666102
3825.000000	100.666714
3824.000000	100.668111
3823.000000	100.669157
3822.000000	100.669034
3821.000000	100.668128
3820.000000	100.667227
3819.000000	100.666479
3818.000000	100.665332
3817.000000	100.663157
3816.000000	100.659989
3815.000000	100.656694
3814.000000	100.654367
3813.000000	100.653677
3812.000000	100.654632
3811.000000	100.656641
3810.000000	100.658864
3809.000000	100.660525
3808.000000	100.661186
3807.000000	100.660976
3806.000000	100.660477
3805.000000	100.660143
3804.000000	100.659873
3803.000000	100.658912
3802.000000	100.656479
3801.000000	100.652513
3800.000000	100.647890
3799.000000	100.644170
3798.000000	100.642664
3797.000000	100.643644
3796.000000	100.646006
3795.000000	100.647792
3794.000000	100.647832
3793.000000	100.646448
3792.000000	100.644750
3791.000000	100.643511
3790.000000	100.642778
3789.000000	100.642368
3788.000000	100.642379
3787.000000	100.643103
3786.000000	100.644553
3785.000000	100.646231
3784.000000	100.647433
3783.000000	100.647709
3782.000000	100.647070
3781.000000	100.645902
3780.000000	100.644772
3779.000000	100.644122
3778.000000	100.644075
3777.000000	100.644490
3776.000000	100.645227
3775.000000	100.646264
3774.000000	100.647575
3773.000000	100.648968
3772.000000	100.650093
3771.000000	100.650626
3770.000000	100.650471
3769.000000	100.649759
3768.000000	100.648781
3767.000000	100.647894
3766.000000	100.647324
3765.000000	100.647076
3764.000000	100.647024
3763.000000	100.647189
3762.000000	100.647860
3761.000000	100.649345
3760.000000	100.651651
3759.000000	100.654293
3758.000000	100.656656
3757.000000	100.658342
3756.000000	100.659225
3755.000000	100.659577
3754.000000	100.659876
3753.000000	100.660037
3752.000000	100.658924
3751.000000	100.655755
3750.000000	100.651990
3749.000000	100.650044
3748.000000	100.650518
3747.000000	100.652144
3746.000000	100.653206
3745.000000	100.652894
3744.000000	100.651191
3743.000000	100.648391
3742.000000	100.645275
3741.000000	100.643032
3740.000000	100.642735
3739.000000	100.644788
3738.000000	100.648626
3737.000000	100.652756
3736.000000	100.655291
3735.000000	100.655142
3734.000000	100.652638
3733.000000	100.649031
3732.000000	100.645420
3731.000000	100.642323
3730.000000	100.640106
3729.000000	100.639241
3728.000000	100.639987
3727.000000	100.641981
3726.000000	100.644176
3725.000000	100.645501
3724.000000	100.645553
3723.000000	100.644506
3722.000000	100.642570
3721.000000	100.639732
3720.000000	100.636123
3719.000000	100.632171
3718.000000	100.628540
3717.000000	100.625855
3716.000000	100.624283
3715.000000	100.623462
3714.000000	100.622445
3713.000000	100.619927
3712.000000	100.615403
3711.000000	100.610114
3710.000000	100.606166
3709.000000	100.604454
3708.000000	100.604074
3707.000000	100.603740
3706.000000	100.602897
3705.000000	100.601527
3704.000000	100.599229
3703.000000	100.594921
3702.000000	100.588140
3701.000000	100.580332
3700.000000	100.574099
3699.000000	100.570930
3698.000000	100.570168
3697.000000	100.570101
3696.000000	100.569564
3695.000000	100.568619
3694.000000	100.567950
3693.000000	100.567741
3692.000000	100.567408
3691.000000	100.566137
3690.000000	100.563549
3689.000000	100.559657
3688.000000	100.554991
3687.000000	100.550811
3686.000000	100.547971
3685.000000	100.545782
3684.000000	100.542282
3683.000000	100.535829
3682.000000	100.527045
3681.000000	100.519237
3680.000000	100.515962
3679.000000	100.518084
3678.000000	100.522771
3677.000000	100.525031
3676.000000	100.521132
3675.000000	100.511136
3674.000000	100.498714
3673.000000	100.487910
3672.000000	100.480699
3671.000000	100.476100
3670.000000	100.470762
3669.000000	100.461342
3668.000000	100.447819
3667.000000	100.433442
3666.000000	100.421484
3665.000000	100.413195
3664.000000	100.407730
3663.000000	100.402976
3662.000000	100.397060
3661.000000	100.389470
3660.000000	100.380924
3659.000000	100.372911
3658.000000	100.366903
3657.000000	100.363404
3656.000000	100.360818
3655.000000	100.356357
3654.000000	100.348900
3653.000000	100.339829
3652.000000	100.331680
3651.000000	100.326138
3650.000000	100.322608
3649.000000	100.318708
3648.000000	100.312990
3647.000000	100.306023
3646.000000	100.298417
3645.000000	100.289824
3644.000000	100.279780
3643.000000	100.268525
3642.000000	100.257232
3641.000000	100.247532
3640.000000	100.240494
3639.000000	100.235944
3638.000000	100.232346
3637.000000	100.227702
3636.000000	100.220887
3635.000000	100.212436
3634.000000	100.203925
3633.000000	100.196695
3632.000000	100.191797
3631.000000	100.191055
3630.000000	100.196506
3629.000000	100.206497
3628.000000	100.213990
3627.000000	100.213339
3626.000000	100.205437
3625.000000	100.194624
3624.000000	100.184821
3623.000000	100.178164
3622.000000	100.175257
3621.000000	100.175883
3620.000000	100.179136
3619.000000	100.182850
3618.000000	100.184691
3617.000000	100.184660
3616.000000	100.185275
3615.000000	100.189096
3614.000000	100.196210
3613.000000	100.203918
3612.000000	100.209617
3611.000000	100.213851
3610.000000	100.219369
3609.000000	100.227507
3608.000000	100.236269
3607.000000	100.242107
3606.000000	100.243389
3605.000000	100.241646
3604.000000	100.240230
3603.000000	100.242254
3602.000000	100.248572
3601.000000	100.256921
3600.000000	100.263610
3599.000000	100.266543
3598.000000	100.266563
3597.000000	100.266155
3596.000000	100.267073
3595.000000	100.269598
3594.000000	100.273164
3593.000000	100.276854
3592.000000	100.279525
3591.000000	100.280063
3590.000000	100.278234
3589.000000	100.275916
3588.000000	100.276646
3587.000000	100.282220
3586.000000	100.290246
3585.000000	100.296508
3584.000000	100.298753
3583.000000	100.297765
3582.000000	100.295547
3581.000000	100.293188
3580.000000	100.290425
3579.000000	100.286987
3578.000000	100.283646
3577.000000	100.281550
3576.000000	100.280964
3575.000000	100.281137
3574.000000	100.281449
3573.000000	100.282012
3572.000000	100.283061
3571.000000	100.284190
3570.000000	100.284605
3569.000000	100.284045
3568.000000	100.283256
3567.000000	100.283226
3566.000000	100.284004
3565.000000	100.284555
3564.000000	100.283602
3563.000000	100.280579
3562.000000	100.276392
3561.000000	100.273258
3560.000000	100.273081
3559.000000	100.275744
3558.000000	100.279275
3557.000000	100.281802
3556.000000	100.283044
3555.000000	100.283630
3554.000000	100.283633
3553.000000	100.282438
3552.000000	100.279945
3551.000000	100.277258
3550.000000	100.275729
3549.000000	100.275664
3548.000000	100.276302
3547.000000	100.276946
3546.000000	100.277878
3545.000000	100.279894
3544.000000	100.283047
3543.000000	100.286256
3542.000000	100.288199
3541.000000	100.288341
3540.000000	100.287097
3539.000000	100.285382
3538.000000	100.284028
3537.000000	100.283414
3536.000000	100.283442
3535.000000	100.283746
3534.000000	100.283949
3533.000000	100.283888
3532.000000	100.283695
3531.000000	100.283695
3530.000000	100.284179
3529.000000	100.285143
3528.000000	100.286155
3527.000000	100.286553
3526.000000	100.285945
3525.000000	100.284553
3524.000000	100.283139
3523.000000	100.282451
3522.000000	100.282697
3521.000000	100.283521
3520.000000	100.284361
3519.000000	100.284927
3518.000000	100.285369
3517.000000	100.286015
3516.000000	100.286916
3515.000000	100.287665
3514.000000	100.287775
3513.000000	100.287279
3512.000000	100.286803
3511.000000	100.286923
3510.000000	100.287535
3509.000000	100.288049
3508.000000	100.288150
3507.000000	100.288114
3506.000000	100.288355
3505.000000	100.288934
3504.000000	100.289599
3503.000000	100.290132
3502.000000	100.290520
3501.000000	100.290820
3500.000000	100.291022
3499.000000	100.291123
3498.000000	100.291272
3497.000000	100.291793
3496.000000	100.293008
3495.000000	100.294886
3494.000000	100.296744
3493.000000	100.297614
3492.000000	100.297076
3491.000000	100.295609
3490.000000	100.294222
3489.000000	100.293496
3488.000000	100.293240
3487.000000	100.292985
3486.000000	100.292585
3485.000000	100.292271
3484.000000	100.292329
3483.000000	100.292883
3482.000000	100.293905
3481.000000	100.295199
3480.000000	100.296319
3479.000000	100.296740
3478.000000	100.296250
3477.000000	100.295170
3476.000000	100.294224
3475.000000	100.294020
3474.000000	100.294655
3473.000000	100.295787
3472.000000	100.296977
3471.000000	100.298026
3470.000000	100.298993
3469.000000	100.299909
3468.000000	100.300530
3467.000000	100.300494
3466.000000	100.299768
3465.000000	100.298901
3464.000000	100.298637
3463.000000	100.299201
3462.000000	100.300054
3461.000000	100.300439
3460.000000	100.300141
3459.000000	100.299604
3458.000000	100.299369
3457.000000	100.299545
3456.000000	100.299838
3455.000000	100.299922
3454.000000	100.299663
3453.000000	100.299076
3452.000000	100.298137
3451.000000	100.296695
3450.000000	100.294707
3449.000000	100.292639
3448.000000	100.291439
3447.000000	100.291812
3446.000000	100.293481
3445.000000	100.295302
3444.000000	100.296372
3443.000000	100.296799
3442.000000	100.297363
3441.000000	100.298620
3440.000000	100.300371
3439.000000	100.301787
3438.000000	100.301892
3437.000000	100.300122
3436.000000	100.296762
3435.000000	100.293093
3434.000000	100.290675
3433.000000	100.290166
3432.000000	100.290966
3431.000000	100.291861
3430.000000	100.292217
3429.000000	100.292422
3428.000000	100.293113
3427.000000	100.294205
3426.000000	100.294900
3425.000000	100.294608
3424.000000	100.293565
3423.000000	100.292470
3422.000000	100.291681
3421.000000	100.290994
3420.000000	100.290115
3419.000000	100.288988
3418.000000	100.287575
3417.000000	100.285633
3416.000000	100.283059
3415.000000	100.280410
3414.000000	100.278749
3413.000000	100.278787
3412.000000	100.280277
3411.000000	100.282247
3410.000000	100.283810
3409.000000	100.284728
3408.000000	100.285224
3407.000000	100.285483
3406.000000	100.285432
3405.000000	100.285005
3404.000000	100.284498
3403.000000	100.284498
3402.000000	100.285346
3401.000000	100.286768
3400.000000	100.288122
3399.000000	100.288966
3398.000000	100.289267
3397.000000	100.289121
3396.000000	100.288524
3395.000000	100.287557
3394.000000	100.286659
3393.000000	100.286451
3392.000000	100.287197
3391.000000	100.288602
3390.000000	100.289987
3389.000000	100.290847
3388.000000	100.291183
3387.000000	100.291342
3386.000000	100.291680
3385.000000	100.292268
3384.000000	100.292915
3383.000000	100.293437
3382.000000	100.293873
3381.000000	100.294435
3380.000000	100.295282
3379.000000	100.296364
3378.000000	100.297441
3377.000000	100.298255
3376.000000	100.298693
3375.000000	100.298841
3374.000000	100.298936
3373.000000	100.299194
3372.000000	100.299672
3371.000000	100.300303
3370.000000	100.301032
3369.000000	100.301873
3368.000000	100.302794
3367.000000	100.303624
3366.000000	100.304173
3365.000000	100.304475
3364.000000	100.304801
3363.000000	100.305376
3362.000000	100.306107
3361.000000	100.306623
3360.000000	100.306574
3359.000000	100.305908
3358.000000	100.304995
3357.000000	100.304477
3356.000000	100.304856
3355.000000	100.306176
3354.000000	100.308021
3353.000000	100.309843
3352.000000	100.311330
3351.000000	100.312398
3350.000000	100.312981
3349.000000	100.313011
3348.000000	100.312552
3347.000000	100.311801
3346.000000	100.311018
3345.000000	100.310426
3344.000000	100.310075
3343.000000	100.309837
3342.000000	100.309601
3341.000000	100.309492
3340.000000	100.309784
3339.000000	100.310526
3338.000000	100.311368
3337.000000	100.311874
3336.000000	100.311924
3335.000000	100.311784
3334.000000	100.311856
3333.000000	100.312388
3332.000000	100.313313
3331.000000	100.314262
3330.000000	100.314809
3329.000000	100.314824
3328.000000	100.314586
3327.000000	100.314540
3326.000000	100.314928
3325.000000	100.315682
3324.000000	100.316593
3323.000000	100.317446
3322.000000	100.318034
3321.000000	100.318187
3320.000000	100.317870
3319.000000	100.317264
3318.000000	100.316703
3317.000000	100.316490
3316.000000	100.316730
3315.000000	100.317310
3314.000000	100.318016
3313.000000	100.318670
3312.000000	100.319172
3311.000000	100.319448
3310.000000	100.319470
3309.000000	100.319368
3308.000000	100.319401
3307.000000	100.319711
3306.000000	100.320153
3305.000000	100.320491
3304.000000	100.320763
3303.000000	100.321266
3302.000000	100.322082
3301.000000	100.322812
3300.000000	100.322996
3299.000000	100.322694
3298.000000	100.322488
3297.000000	100.322871
3296.000000	100.323798
3295.000000	100.324797
3294.000000	100.325373
3293.000000	100.325292
3292.000000	100.324634
3291.000000	100.323726
3290.000000	100.322945
3289.000000	100.322445
3288.000000	100.322049
3287.000000	100.321459
3286.000000	100.320664
3285.000000	100.320147
3284.000000	100.320552
3283.000000	100.322097
3282.000000	100.324250
3281.000000	100.325984
3280.000000	100.326619
3279.000000	100.326293
3278.000000	100.325695
3277.000000	100.325317
3276.000000	100.325012
3275.000000	100.324382
3274.000000	100.323372
3273.000000	100.322347
3272.000000	100.321713
3271.000000	100.321590
3270.000000	100.321813
3269.000000	100.322102
3268.000000	100.322293
3267.000000	100.322471
3266.000000	100.322894
3265.000000	100.323765
3264.000000	100.325017
3263.000000	100.326312
3262.000000	100.327228
3261.000000	100.327488
3260.000000	100.327119
3259.000000	100.326481
3258.000000	100.326054
3257.000000	100.326104
3256.000000	100.326524
3255.000000	100.327019
3254.000000	100.327447
3253.000000	100.327912
3252.000000	100.328522
3251.000000	100.329135
3250.000000	100.329455
3249.000000	100.329346
3248.000000	100.329031
3247.000000	100.328963
3246.000000	100.329419
3245.000000	100.330278
3244.000000	100.331140
3243.000000	100.331681
3242.000000	100.331884
3241.000000	100.331954
3240.000000	100.332098
3239.000000	100.332384
3238.000000	100.332803
3237.000000	100.333366
3236.000000	100.334075
3235.000000	100.334849
3234.000000	100.335546
3233.000000	100.336107
3232.000000	100.336657
3231.000000	100.337389
3230.000000	100.338338
3229.000000	100.339278
3228.000000	100.339906
3227.000000	100.340142
3226.000000	100.340210
3225.000000	100.340441
3224.000000	100.340960
3223.000000	100.341602
3222.000000	100.342092
3221.000000	100.342300
3220.000000	100.342333
3219.000000	100.342437
3218.000000	100.342835
3217.000000	100.343589
3216.000000	100.344511
3215.000000	100.345193
3214.000000	100.345302
3213.000000	100.344845
3212.000000	100.344204
3211.000000	100.343865
3210.000000	100.344083
3209.000000	100.344800
3208.000000	100.345712
3207.000000	100.346439
3206.000000	100.346735
3205.000000	100.346642
3204.000000	100.346447
3203.000000	100.346414
3202.000000	100.346547
3201.000000	100.346661
3200.000000	100.346639
3199.000000	100.346523
3198.000000	100.346410
3197.000000	100.346390
3196.000000	100.346586
3195.000000	100.347110
3194.000000	100.347986
3193.000000	100.349169
3192.000000	100.350636
3191.000000	100.352318
3190.000000	100.353932
3189.000000	100.355071
3188.000000	100.355450
3187.000000	100.355008
3186.000000	100.353836
3185.000000	100.352226
3184.000000	100.350780
3183.000000	100.350187
3182.000000	100.350767
3181.000000	100.352367
3180.000000	100.354680
3179.000000	100.357417
3178.000000	100.360050
3177.000000	100.361774
3176.000000	100.362038
3175.000000	100.361058
3174.000000	100.359644
3173.000000	100.358464
3172.000000	100.357611
3171.000000	100.356884
3170.000000	100.356278
3169.000000	100.356182
3168.000000	100.357071
3167.000000	100.358927
3166.000000	100.361002
3165.000000	100.362418
3164.000000	100.363027
3163.000000	100.363467
3162.000000	100.364342
3161.000000	100.365551
3160.000000	100.366560
3159.000000	100.367095
3158.000000	100.367334
3157.000000	100.367580
3156.000000	100.368017
3155.000000	100.368724
3154.000000	100.369656
3153.000000	100.370529
3152.000000	100.370906
3151.000000	100.370547
3150.000000	100.369659
3149.000000	100.368814
3148.000000	100.368516
3147.000000	100.368879
3146.000000	100.369699
3145.000000	100.370783
3144.000000	100.372115
3143.000000	100.373655
3142.000000	100.375105
3141.000000	100.376053
3140.000000	100.376367
3139.000000	100.376304
3138.000000	100.376252
3137.000000	100.376398
3136.000000	100.376737
3135.000000	100.377278
3134.000000	100.378074
3133.000000	100.379099
3132.000000	100.380204
3131.000000	100.381240
3130.000000	100.382161
3129.000000	100.382953
3128.000000	100.383569
3127.000000	100.383984
3126.000000	100.384284
3125.000000	100.384655
3124.000000	100.385243
3123.000000	100.386045
3122.000000	100.386894
3121.000000	100.387570
3120.000000	100.387996
3119.000000	100.388299
3118.000000	100.388723
3117.000000	100.389391
3116.000000	100.390207
3115.000000	100.390959
3114.000000	100.391541
3113.000000	100.392045
3112.000000	100.392651
3111.000000	100.393469
3110.000000	100.394480
3109.000000	100.395586
3108.000000	100.396663
3107.000000	100.397626
3106.000000	100.398471
3105.000000	100.399245
3104.000000	100.399971
3103.000000	100.400610
3102.000000	100.401125
3101.000000	100.401564
3100.000000	100.402064
3099.000000	100.402734
3098.000000	100.403606
3097.000000	100.404688
3096.000000	100.405996
3095.000000	100.407459
3094.000000	100.408786
3093.000000	100.409635
3092.000000	100.409929
3091.000000	100.409976
3090.000000	100.410220
3089.000000	100.410798
3088.000000	100.411499
3087.000000	100.412060
3086.000000	100.412439
3085.000000	100.412793
3084.000000	100.413274
3083.000000	100.413890
3082.000000	100.414552
3081.000000	100.415176
3080.000000	100.415732
3079.000000	100.416280
3078.000000	100.417007
3077.000000	100.418069
3076.000000	100.419288
3075.000000	100.420171
3074.000000	100.420436
3073.000000	100.420461
3072.000000	100.420918
3071.000000	100.421938
3070.000000	100.422861
3069.000000	100.422973
3068.000000	100.422287
3067.000000	100.421506
3066.000000	100.421279
3065.000000	100.421727
3064.000000	100.422620
3063.000000	100.423651
3062.000000	100.424449
3061.000000	100.424596
3060.000000	100.424001
3059.000000	100.423225
3058.000000	100.423135
3057.000000	100.424183
3056.000000	100.426152
3055.000000	100.428547
3054.000000	100.430933
3053.000000	100.432834
3052.000000	100.433715
3051.000000	100.433428
3050.000000	100.432515
3049.000000	100.431752
3048.000000	100.431418
3047.000000	100.431295
3046.000000	100.431153
3045.000000	100.430967
3044.000000	100.430913
3043.000000	100.431471
3042.000000	100.433292
3041.000000	100.436429
3040.000000	100.439741
3039.000000	100.441777
3038.000000	100.442457
3037.000000	100.443305
3036.000000	100.445682
3035.000000	100.449241
3034.000000	100.452469
3033.000000	100.454529
3032.000000	100.456062
3031.000000	100.458181
3030.000000	100.461105
3029.000000	100.463951
3028.000000	100.465729
3027.000000	100.466536
3026.000000	100.467775
3025.000000	100.470966
3024.000000	100.476180
3023.000000	100.481631
3022.000000	100.485088
3021.000000	100.485860
3020.000000	100.485277
3019.000000	100.485469
3018.000000	100.487797
3017.000000	100.492502
3016.000000	100.499135
3015.000000	100.506733
3014.000000	100.513783
3013.000000	100.518841
3012.000000	100.521700
3011.000000	100.523768
3010.000000	100.526782
3009.000000	100.530968
3008.000000	100.534879
3007.000000	100.537275
3006.000000	100.538744
3005.000000	100.540945
3004.000000	100.544445
3003.000000	100.548193
3002.000000	100.551331
3001.000000	100.554566
3000.000000	100.559004
2999.000000	100.564255
2998.000000	100.568741
2997.000000	100.571708
2996.000000	100.574051
2995.000000	100.577169
2994.000000	100.581826
2993.000000	100.588119
2992.000000	100.595535
2991.000000	100.602767
2990.000000	100.608365
2989.000000	100.612108
2988.000000	100.615168
2987.000000	100.618744
2986.000000	100.623128
2985.000000	100.628257
2984.000000	100.634124
2983.000000	100.640019
2982.000000	100.644404
2981.000000	100.646589
2980.000000	100.647949
2979.000000	100.650467
2978.000000	100.654440
2977.000000	100.658431
2976.000000	100.661111
2975.000000	100.662134
2974.000000	100.661397
2973.000000	100.658612
2972.000000	100.653998
2971.000000	100.648678
2970.000000	100.644108
2969.000000	100.641265
2968.000000	100.640068
2967.000000	100.639084
2966.000000	100.636102
2965.000000	100.630028
2964.000000	100.622498
2963.000000	100.616794
2962.000000	100.614742
2961.000000	100.615273
2960.000000	100.616178
2959.000000	100.616572
2958.000000	100.617186
2957.000000	100.618981
2956.000000	100.622166
2955.000000	100.626067
2954.000000	100.629088
2953.000000	100.629196
2952.000000	100.625506
2951.000000	100.619748
2950.000000	100.615553
2949.000000	100.615715
2948.000000	100.620211
2947.000000	100.626638
2946.000000	100.632224
2945.000000	100.635551
2944.000000	100.636873
2943.000000	100.637428
2942.000000	100.638517
2941.000000	100.640744
2940.000000	100.643599
2939.000000	100.645635
2938.000000	100.645467
2937.000000	100.643137
2936.000000	100.640445
2935.000000	100.639420
2934.000000	100.640371
2933.000000	100.642149
2932.000000	100.644584
2931.000000	100.649571
2930.000000	100.658526
2929.000000	100.669192
2928.000000	100.676801
2927.000000	100.679109
2926.000000	100.678737
2925.000000	100.679760
2924.000000	100.682676
2923.000000	100.684453
2922.000000	100.683031
2921.000000	100.679705
2920.000000	100.676948
2919.000000	100.675494
2918.000000	100.674442
2917.000000	100.673045
2916.000000	100.671208
2915.000000	100.668787
2914.000000	100.665606
2913.000000	100.662210
2912.000000	100.659695
2911.000000	100.658581
2910.000000	100.658292
2909.000000	100.657881
2908.000000	100.656915
2907.000000	100.655558
2906.000000	100.654202
2905.000000	100.653330
2904.000000	100.653494
2903.000000	100.655023
2902.000000	100.657392
2901.000000	100.659292
2900.000000	100.659452
2899.000000	100.657611
2898.000000	100.654690
2897.000000	100.651888
2896.000000	100.649742
2895.000000	100.648073
2894.000000	100.646550
2893.000000	100.644931
2892.000000	100.643021
2891.000000	100.640959
2890.000000	100.639455
2889.000000	100.639077
2888.000000	100.639205
2887.000000	100.638387
2886.000000	100.636126
2885.000000	100.633650
2884.000000	100.632403
2883.000000	100.632314
2882.000000	100.632162
2881.000000	100.631142
2880.000000	100.629575
2879.000000	100.628282
2878.000000	100.627788
2877.000000	100.628073
2876.000000	100.628580
2875.000000	100.628350
2874.000000	100.626654
2873.000000	100.623793
2872.000000	100.621127
2871.000000	100.619781
2870.000000	100.619461
2869.000000	100.618910
2868.000000	100.617474
2867.000000	100.615705
2866.000000	100.614307
2865.000000	100.613186
2864.000000	100.611964
2863.000000	100.610967
2862.000000	100.610945
2861.000000	100.611915
2860.000000	100.612955
2859.000000	100.613322
2858.000000	100.613196
2857.000000	100.613022
2856.000000	100.612629
2855.000000	100.611447
2854.000000	100.609270
2853.000000	100.606283
2852.000000	100.602505
2851.000000	100.597846
2850.000000	100.592878
2849.000000	100.588988
2848.000000	100.587274
2847.000000	100.587361
2846.000000	100.587511
2845.000000	100.586033
2844.000000	100.582609
2843.000000	100.578451
2842.000000	100.575348
2841.000000	100.574238
2840.000000	100.574352
2839.000000	100.573774
2838.000000	100.571354
2837.000000	100.568095
2836.000000	100.566218
2835.000000	100.566714
2834.000000	100.568260
2833.000000	100.568661
2832.000000	100.567031
2831.000000	100.564129
2830.000000	100.561080
2829.000000	100.558431
2828.000000	100.556339
2827.000000	100.554896
2826.000000	100.553862
2825.000000	100.552553
2824.000000	100.550539
2823.000000	100.548439
2822.000000	100.547626
2821.000000	100.548994
2820.000000	100.552112
2819.000000	100.555565
2818.000000	100.558084
2817.000000	100.559272
2816.000000	100.559346
2815.000000	100.558614
2814.000000	100.557485
2813.000000	100.556698
2812.000000	100.556961
2811.000000	100.558154
2810.000000	100.559157
2809.000000	100.558785
2808.000000	100.556890
2807.000000	100.554477
2806.000000	100.552924
2805.000000	100.553124
2804.000000	100.555141
2803.000000	100.558266
2802.000000	100.561354
2801.000000	100.563554
2800.000000	100.564937
2799.000000	100.566266
2798.000000	100.568040
2797.000000	100.569830
2796.000000	100.570696
2795.000000	100.570298
2794.000000	100.569372
2793.000000	100.568988
2792.000000	100.569372
2791.000000	100.569699
2790.000000	100.569187
2789.000000	100.568227
2788.000000	100.568156
2787.000000	100.569840
2786.000000	100.572776
2785.000000	100.575490
2784.000000	100.576790
2783.000000	100.576476
2782.000000	100.575094
2781.000000	100.573473
2780.000000	100.572326
2779.000000	100.571954
2778.000000	100.572093
2777.000000	100.572089
2776.000000	100.571483
2775.000000	100.570521
2774.000000	100.570006
2773.000000	100.570611
2772.000000	100.572390
2771.000000	100.574839
2770.000000	100.577281
2769.000000	100.579217
2768.000000	100.580437
2767.000000	100.580971
2766.000000	100.580980
2765.000000	100.580595
2764.000000	100.579801
2763.000000	100.578555
2762.000000	100.577084
2761.000000	100.575903
2760.000000	100.575412
2759.000000	100.575586
2758.000000	100.576225
2757.000000	100.577359
2756.000000	100.579095
2755.000000	100.581041
2754.000000	100.582304
2753.000000	100.582287
2752.000000	100.581280
2751.000000	100.580119
2750.000000	100.579403
2749.000000	100.579226
2748.000000	100.579478
2747.000000	100.580007
2746.000000	100.580542
2745.000000	100.580848
2744.000000	100.581101
2743.000000	100.581857
2742.000000	100.583486
2741.000000	100.585694
2740.000000	100.587612
2739.000000	100.588458
2738.000000	100.588130
2737.000000	100.587300
2736.000000	100.586842
2735.000000	100.587000
2734.000000	100.587235
2733.000000	100.586886
2732.000000	100.585823
2731.000000	100.584424
2730.000000	100.583285
2729.000000	100.583106
2728.000000	100.584471
2727.000000	100.587305
2726.000000	100.590597
2725.000000	100.593145
2724.000000	100.594557
2723.000000	100.595173
2722.000000	100.595283
2721.000000	100.594987
2720.000000	100.594613
2719.000000	100.594533
2718.000000	100.594531
2717.000000	100.594110
2716.000000	100.593515
2715.000000	100.593573
2714.000000	100.594312
2713.000000	100.594685
2712.000000	100.594185
2711.000000	100.593898
2710.000000	100.595214
2709.000000	100.597942
2708.000000	100.600437
2707.000000	100.601319
2706.000000	100.600350
2705.000000	100.598037
2704.000000	100.594992
2703.000000	100.591613
2702.000000	100.588103
2701.000000	100.584794
2700.000000	100.582532
2699.000000	100.582372
2698.000000	100.584599
2697.000000	100.588301
2696.000000	100.592183
2695.000000	100.595572
2694.000000	100.598357
2693.000000	100.600331
2692.000000	100.601051
2691.000000	100.600215
2690.000000	100.597903
2689.000000	100.594592
2688.000000	100.591142
2687.000000	100.588519
2686.000000	100.587239
2685.000000	100.587151
2684.000000	100.587883
2683.000000	100.589383
2682.000000	100.591878
2681.000000	100.595523
2680.000000	100.600140
2679.000000	100.604892
2678.000000	100.608275
2677.000000	100.608976
2676.000000	100.607000
2675.000000	100.603719
2674.000000	100.600626
2673.000000	100.598315
2672.000000	100.596784
2671.000000	100.595970
2670.000000	100.595555
2669.000000	100.594970
2668.000000	100.594326
2667.000000	100.594867
2666.000000	100.597678
2665.000000	100.602095
2664.000000	100.605897
2663.000000	100.607274
2662.000000	100.606094
2661.000000	100.603378
2660.000000	100.600220
2659.000000	100.597274
2658.000000	100.594965
2657.000000	100.593809
2656.000000	100.594360
2655.000000	100.596765
2654.000000	100.600307
2653.000000	100.603592
2652.000000	100.605579
2651.000000	100.606291
2650.000000	100.606386
2649.000000	100.606342
2648.000000	100.606300
2647.000000	100.606375
2646.000000	100.606585
2645.000000	100.606660
2644.000000	100.606456
2643.000000	100.606360
2642.000000	100.606701
2641.000000	100.606906
2640.000000	100.605996
2639.000000	100.603940
2638.000000	100.601987
2637.000000	100.601353
2636.000000	100.602074
2635.000000	100.603390
2634.000000	100.604616
2633.000000	100.605438
2632.000000	100.605681
2631.000000	100.605352
2630.000000	100.604846
2629.000000	100.604643
2628.000000	100.604791
2627.000000	100.604963
2626.000000	100.604936
2625.000000	100.604696
2624.000000	100.604191
2623.000000	100.603349
2622.000000	100.602324
2621.000000	100.601416
2620.000000	100.600792
2619.000000	100.600490
2618.000000	100.600641
2617.000000	100.601341
2616.000000	100.602297
2615.000000	100.602942
2614.000000	100.602991
2613.000000	100.602635
2612.000000	100.602245
2611.000000	100.601984
2610.000000	100.601723
2609.000000	100.601255
2608.000000	100.600575
2607.000000	100.599987
2606.000000	100.599908
2605.000000	100.600468
2604.000000	100.601335
2603.000000	100.602023
2602.000000	100.602377
2601.000000	100.602602
2600.000000	100.602934
2599.000000	100.603412
2598.000000	100.603877
2597.000000	100.603958
2596.000000	100.603231
2595.000000	100.601663
2594.000000	100.599964
2593.000000	100.599118
2592.000000	100.599406
2591.000000	100.600332
2590.000000	100.601271
2589.000000	100.602040
2588.000000	100.602727
2587.000000	100.603290
2586.000000	100.603576
2585.000000	100.603569
2584.000000	100.603416
2583.000000	100.603249
2582.000000	100.603047
2581.000000	100.602616
2580.000000	100.601749
2579.000000	100.600540
2578.000000	100.599492
2577.000000	100.599117
2576.000000	100.599464
2575.000000	100.600206
2574.000000	100.601091
2573.000000	100.602049
2572.000000	100.602857
2571.000000	100.603074
2570.000000	100.602482
2569.000000	100.601308
2568.000000	100.600008
2567.000000	100.598933
2566.000000	100.598266
2565.000000	100.598084
2564.000000	100.598272
2563.000000	100.598550
2562.000000	100.598702
2561.000000	100.598720
2560.000000	100.598677
2559.000000	100.598569
2558.000000	100.598362
2557.000000	100.598085
2556.000000	100.597817
2555.000000	100.597640
2554.000000	100.597622
2553.000000	100.597750
2552.000000	100.597851
2551.000000	100.597699
2550.000000	100.597249
2549.000000	100.596709
2548.000000	100.596346
2547.000000	100.596262
2546.000000	100.596385
2545.000000	100.596584
2544.000000	100.596750
2543.000000	100.596830
2542.000000	100.596836
2541.000000	100.596828
2540.000000	100.596873
2539.000000	100.597005
2538.000000	100.597237
2537.000000	100.597551
2536.000000	100.597868
2535.000000	100.598090
2534.000000	100.598180
2533.000000	100.598201
2532.000000	100.598272
2531.000000	100.598488
2530.000000	100.598878
2529.000000	100.599421
2528.000000	100.600038
2527.000000	100.600602
2526.000000	100.601011
2525.000000	100.601246
2524.000000	100.601372
2523.000000	100.601483
2522.000000	100.601636
2521.000000	100.601859
2520.000000	100.602163
2519.000000	100.602537
2518.000000	100.602962
2517.000000	100.603444
2516.000000	100.603981
2515.000000	100.604507
2514.000000	100.604922
2513.000000	100.605171
2512.000000	100.605284
2511.000000	100.605361
2510.000000	100.605539
2509.000000	100.605948
2508.000000	100.606646
2507.000000	100.607546
2506.000000	100.608454
2505.000000	100.609197
2504.000000	100.609681
2503.000000	100.609920
2502.000000	100.610057
2501.000000	100.610312
2500.000000	100.610771
2499.000000	100.611277
2498.000000	100.611593
2497.000000	100.611669
2496.000000	100.611682
2495.000000	100.611881
2494.000000	100.612447
2493.000000	100.613385
2492.000000	100.614419
2491.000000	100.615122
2490.000000	100.615362
2489.000000	100.615456
2488.000000	100.615710
2487.000000	100.615993
2486.000000	100.616053
2485.000000	100.616009
2484.000000	100.616044
2483.000000	100.615826
2482.000000	100.614916
2481.000000	100.613759
2480.000000	100.613475
2479.000000	100.614475
2478.000000	100.615979
2477.000000	100.617162
2476.000000	100.618246
2475.000000	100.619901
2474.000000	100.622079
2473.000000	100.623959
2472.000000	100.624979
2471.000000	100.625500
2470.000000	100.626361
2469.000000	100.627804
2468.000000	100.629007
2467.000000	100.628989
2466.000000	100.627944
2465.000000	100.627331
2464.000000	100.628240
2463.000000	100.630160
2462.000000	100.631795
2461.000000	100.632637
2460.000000	100.632965
2459.000000	100.632693
2458.000000	100.631372
2457.000000	100.629400
2456.000000	100.628072
2455.000000	100.628011
2454.000000	100.628482
2453.000000	100.628692
2452.000000	100.628987
2451.000000	100.630108
2450.000000	100.632027
2449.000000	100.634221
2448.000000	100.636523
2447.000000	100.639025
2446.000000	100.641419
2445.000000	100.643085
2444.000000	100.643728
2443.000000	100.643551
2442.000000	100.642963
2441.000000	100.642331
2440.000000	100.641794
2439.000000	100.641178
2438.000000	100.640359
2437.000000	100.639726
2436.000000	100.639797
2435.000000	100.640328
2434.000000	100.640468
2433.000000	100.640022
2432.000000	100.639952
2431.000000	100.641247
2430.000000	100.643824
2429.000000	100.646800
2428.000000	100.649297
2427.000000	100.650641
2426.000000	100.650427
2425.000000	100.648967
2424.000000	100.647238
2423.000000	100.645826
2422.000000	100.644321
2421.000000	100.642262
2420.000000	100.640147
2419.000000	100.638932
2418.000000	100.638881
2417.000000	100.639530
2416.000000	100.640546
2415.000000	100.642033
2414.000000	100.643996
2413.000000	100.645954
2412.000000	100.647119
2411.000000	100.646770
2410.000000	100.644674
2409.000000	100.641566
2408.000000	100.639057
2407.000000	100.638546
2406.000000	100.640162
2405.000000	100.642932
2404.000000	100.645868
2403.000000	100.648675
2402.000000	100.651497
2401.000000	100.654333
2400.000000	100.656762
2399.000000	100.658199
2398.000000	100.658528
2397.000000	100.658439
2396.000000	100.658871
2395.000000	100.660000
2394.000000	100.661045
2393.000000	100.661317
2392.000000	100.661177
2391.000000	100.661667
2390.000000	100.663298
2389.000000	100.665628
2388.000000	100.667795
2387.000000	100.669263
2386.000000	100.670037
2385.000000	100.670451
2384.000000	100.670947
2383.000000	100.671844
2382.000000	100.673164
2381.000000	100.674664
2380.000000	100.676070
2379.000000	100.677293
2378.000000	100.678403
2377.000000	100.679470
2376.000000	100.680505
2375.000000	100.681507
2374.000000	100.682498
2373.000000	100.683489
2372.000000	100.684475
2371.000000	100.685458
2370.000000	100.686439
2369.000000	100.687364
2368.000000	100.688141
2367.000000	100.688748
2366.000000	100.689276
2365.000000	100.689844
2364.000000	100.690480
2363.000000	100.691136
2362.000000	100.691726
2361.000000	100.692184
2360.000000	100.692512
2359.000000	100.692763
2358.000000	100.693016
2357.000000	100.693317
2356.000000	100.693679
2355.000000	100.694068
2354.000000	100.694386
2353.000000	100.694544
2352.000000	100.694519
2351.000000	100.694383
2350.000000	100.694254
2349.000000	100.694178
2348.000000	100.694129
2347.000000	100.694023
2346.000000	100.693807
2345.000000	100.693499
2344.000000	100.693168
2343.000000	100.692870
2342.000000	100.692593
2341.000000	100.692312
2340.000000	100.692000
2339.000000	100.691642
2338.000000	100.691228
2337.000000	100.690784
2336.000000	100.690337
2335.000000	100.689856
2334.000000	100.689257
2333.000000	100.688522
2332.000000	100.687715
2331.000000	100.686935
2330.000000	100.686222
2329.000000	100.685559
2328.000000	100.684900
2327.000000	100.684171
2326.000000	100.683338
2325.000000	100.682427
2324.000000	100.681540
2323.000000	100.680760
2322.000000	100.680062
2321.000000	100.679369
2320.000000	100.678646
2319.000000	100.677926
2318.000000	100.677176
2317.000000	100.676312
2316.000000	100.675308
2315.000000	100.674262
2314.000000	100.673310
2313.000000	100.672509
2312.000000	100.671841
2311.000000	100.671255
2310.000000	100.670693
2309.000000	100.670079
2308.000000	100.669383
2307.000000	100.668623
2306.000000	100.667838
2305.000000	100.667039
2304.000000	100.666200
2303.000000	100.665287
2302.000000	100.664282
2301.000000	100.663179
2300.000000	100.661969
2299.000000	100.660647
2298.000000	100.659309
2297.000000	100.658198
2296.000000	100.657560
2295.000000	100.657395
2294.000000	100.657454
2293.000000	100.657422
2292.000000	100.657135
2291.000000	100.656542
2290.000000	100.655665
2289.000000	100.654659
2288.000000	100.653776
2287.000000	100.653124
2286.000000	100.652511
2285.000000	100.651634
2284.000000	100.650412
2283.000000	100.649108
2282.000000	100.648131
2281.000000	100.647705
2280.000000	100.647705
2279.000000	100.647720
2278.000000	100.647397
2277.000000	100.646728
2276.000000	100.645971
2275.000000	100.645349
2274.000000	100.644851
2273.000000	100.644405
2272.000000	100.644092
2271.000000	100.644022
2270.000000	100.644084
2269.000000	100.643990
2268.000000	100.643590
2267.000000	100.642994
2266.000000	100.642429
2265.000000	100.641993
2264.000000	100.641627
2263.000000	100.641251
2262.000000	100.640872
2261.000000	100.640546
2260.000000	100.640297
2259.000000	100.640087
2258.000000	100.639853
2257.000000	100.639572
2256.000000	100.639274
2255.000000	100.638993
2254.000000	100.638704
2253.000000	100.638346
2252.000000	100.637906
2251.000000	100.637449
2250.000000	100.637071
2249.000000	100.636813
2248.000000	100.636648
2247.000000	100.636514
2246.000000	100.636363
2245.000000	100.636174
2244.000000	100.635918
2243.000000	100.635531
2242.000000	100.634988
2241.000000	100.634433
2240.000000	100.634135
2239.000000	100.634245
2238.000000	100.634651
2237.000000	100.635080
2236.000000	100.635398
2235.000000	100.635609
2234.000000	100.635622
2233.000000	100.635246
2232.000000	100.634459
2231.000000	100.633557
2230.000000	100.632906
2229.000000	100.632576
2228.000000	100.632349
2227.000000	100.632010
2226.000000	100.631603
2225.000000	100.631359
2224.000000	100.631389
2223.000000	100.631572
2222.000000	100.631676
2221.000000	100.631562
2220.000000	100.631283
2219.000000	100.631001
2218.000000	100.630843
2217.000000	100.630808
2216.000000	100.630818
2215.000000	100.630801
2214.000000	100.630748
2213.000000	100.630672
2212.000000	100.630568
2211.000000	100.630427
2210.000000	100.630277
2209.000000	100.630176
2208.000000	100.630135
2207.000000	100.630097
2206.000000	100.630003
2205.000000	100.629881
2204.000000	100.629813
2203.000000	100.629841
2202.000000	100.629922
2201.000000	100.629978
2200.000000	100.629968
2199.000000	100.629897
2198.000000	100.629782
2197.000000	100.629655
2196.000000	100.629568
2195.000000	100.629556
2194.000000	100.629600
2193.000000	100.629632
2192.000000	100.629608
2191.000000	100.629540
2190.000000	100.629457
2189.000000	100.629367
2188.000000	100.629273
2187.000000	100.629221
2186.000000	100.629284
2185.000000	100.629474
2184.000000	100.629701
2183.000000	100.629825
2182.000000	100.629788
2181.000000	100.629677
2180.000000	100.629655
2179.000000	100.629804
2178.000000	100.630050
2177.000000	100.630232
2176.000000	100.630263
2175.000000	100.630208
2174.000000	100.630242
2173.000000	100.630521
2172.000000	100.631046
2171.000000	100.631642
2170.000000	100.632118
2169.000000	100.632482
2168.000000	100.632888
2167.000000	100.633365
2166.000000	100.633743
2165.000000	100.633883
2164.000000	100.633881
2163.000000	100.633923
2162.000000	100.634038
2161.000000	100.634122
2160.000000	100.634153
2159.000000	100.634236
2158.000000	100.634471
2157.000000	100.634883
2156.000000	100.635460
2155.000000	100.636134
2154.000000	100.636741
2153.000000	100.637118
2152.000000	100.637295
2151.000000	100.637510
2150.000000	100.637988
2149.000000	100.638764
2148.000000	100.639709
2147.000000	100.640614
2146.000000	100.641283
2145.000000	100.641628
2144.000000	100.641727
2143.000000	100.641782
2142.000000	100.641942
2141.000000	100.642216
2140.000000	100.642568
2139.000000	100.642995
2138.000000	100.643500
2137.000000	100.644025
2136.000000	100.644479
2135.000000	100.644819
2134.000000	100.645098
2133.000000	100.645430
2132.000000	100.645914
2131.000000	100.646570
2130.000000	100.647295
2129.000000	100.647912
2128.000000	100.648306
2127.000000	100.648509
2126.000000	100.648679
2125.000000	100.648979
2124.000000	100.649471
2123.000000	100.650101
2122.000000	100.650760
2121.000000	100.651366
2120.000000	100.651904
2119.000000	100.652402
2118.000000	100.652877
2117.000000	100.653321
2116.000000	100.653741
2115.000000	100.654170
2114.000000	100.654599
2113.000000	100.654950
2112.000000	100.655173
2111.000000	100.655385
2110.000000	100.655826
2109.000000	100.656625
2108.000000	100.657687
2107.000000	100.658817
2106.000000	100.659860
2105.000000	100.660688
2104.000000	100.661168
2103.000000	100.661216
2102.000000	100.660905
2101.000000	100.660486
2100.000000	100.660215
2099.000000	100.660260
2098.000000	100.660707
2097.000000	100.661511
2096.000000	100.662463
2095.000000	100.663284
2094.000000	100.663837
2093.000000	100.664251
2092.000000	100.664818
2091.000000	100.665727
2090.000000	100.666876
2089.000000	100.667902
2088.000000	100.668445
2087.000000	100.668456
2086.000000	100.668290
2085.000000	100.668439
2084.000000	100.669113
2083.000000	100.670139
2082.000000	100.671193
2081.000000	100.672062
2080.000000	100.672691
2079.000000	100.673154
2078.000000	100.673649
2077.000000	100.674394
2076.000000	100.675410
2075.000000	100.676459
2074.000000	100.677286
2073.000000	100.677839
2072.000000	100.678150
2071.000000	100.678147
2070.000000	100.677795
2069.000000	100.677328
2068.000000	100.677158
2067.000000	100.677533
2066.000000	100.678417
2065.000000	100.679558
2064.000000	100.680521
2063.000000	100.680796
2062.000000	100.680145
2061.000000	100.678922
2060.000000	100.677967
2059.000000	100.677897
2058.000000	100.678661
2057.000000	100.679690
2056.000000	100.680368
2055.000000	100.680431
2054.000000	100.680039
2053.000000	100.679583
2052.000000	100.679311
2051.000000	100.679082
2050.000000	100.678632
2049.000000	100.677981
2048.000000	100.677360
2047.000000	100.676742
2046.000000	100.675814
2045.000000	100.674534
2044.000000	100.673387
2043.000000	100.672798
2042.000000	100.672608
2041.000000	100.672389
2040.000000	100.672040
2039.000000	100.671724
2038.000000	100.671381
2037.000000	100.670763
2036.000000	100.669890
2035.000000	100.669069
2034.000000	100.668442
2033.000000	100.667842
2032.000000	100.667158
2031.000000	100.666517
2030.000000	100.665994
2029.000000	100.665440
2028.000000	100.664760
2027.000000	100.664118
2026.000000	100.663661
2025.000000	100.663212
2024.000000	100.662508
2023.000000	100.661616
2022.000000	100.660812
2021.000000	100.660112
2020.000000	100.659206
2019.000000	100.657884
2018.000000	100.656349
2017.000000	100.655092
2016.000000	100.654463
2015.000000	100.654322
2014.000000	100.654149
2013.000000	100.653515
2012.000000	100.652419
2011.000000	100.651160
2010.000000	100.649933
2009.000000	100.648664
2008.000000	100.647305
2007.000000	100.646122
2006.000000	100.645496
2005.000000	100.645505
2004.000000	100.645843
2003.000000	100.646079
2002.000000	100.645940
2001.000000	100.645347
2000.000000	100.644375
1999.000000	100.643229
1998.000000	100.642185
1997.000000	100.641431
1996.000000	100.640923
1995.000000	100.640503
1994.000000	100.640124
1993.000000	100.639890
1992.000000	100.639842
1991.000000	100.639842
1990.000000	100.639751
1989.000000	100.639651
1988.000000	100.639725
1987.000000	100.639936
1986.000000	100.639932
1985.000000	100.639434
1984.000000	100.638654
1983.000000	100.638124
1982.000000	100.638039
1981.000000	100.637942
1980.000000	100.637183
1979.000000	100.635602
1978.000000	100.633683
1977.000000	100.632079
1976.000000	100.631165
1975.000000	100.631131
1974.000000	100.632089
1973.000000	100.633747
1972.000000	100.635237
1971.000000	100.635758
1970.000000	100.635380
1969.000000	100.634963
1968.000000	100.635259
1967.000000	100.636285
1966.000000	100.637592
1965.000000	100.638799
1964.000000	100.639587
1963.000000	100.639549
1962.000000	100.638557
1961.000000	100.637212
1960.000000	100.636491
1959.000000	100.636785
1958.000000	100.637487
1957.000000	100.637605
1956.000000	100.636662
1955.000000	100.634994
1954.000000	100.633423
1953.000000	100.632670
1952.000000	100.632963
1951.000000	100.633937
1950.000000	100.634788
1949.000000	100.634830
1948.000000	100.634021
1947.000000	100.632846
1946.000000	100.631745
1945.000000	100.630743
1944.000000	100.629541
1943.000000	100.627755
1942.000000	100.625137
1941.000000	100.621928
1940.000000	100.618981
1939.000000	100.617334
1938.000000	100.617536
1937.000000	100.619165
1936.000000	100.621019
1935.000000	100.622087
1934.000000	100.622287
1933.000000	100.622279
1932.000000	100.622907
1931.000000	100.624557
1930.000000	100.626630
1929.000000	100.627787
1928.000000	100.627035
1927.000000	100.624618
1926.000000	100.621780
1925.000000	100.619695
1924.000000	100.618672
1923.000000	100.618120
1922.000000	100.617201
1921.000000	100.615508
1920.000000	100.612936
1919.000000	100.609376
1918.000000	100.605029
1917.000000	100.600911
1916.000000	100.598364
1915.000000	100.597755
1914.000000	100.598224
1913.000000	100.598550
1912.000000	100.597915
1911.000000	100.596006
1910.000000	100.592810
1909.000000	100.588780
1908.000000	100.584845
1907.000000	100.581785
1906.000000	100.579609
1905.000000	100.577779
1904.000000	100.575971
1903.000000	100.574304
1902.000000	100.573015
1901.000000	100.572163
1900.000000	100.571370
1899.000000	100.570027
1898.000000	100.568002
1897.000000	100.565953
1896.000000	100.564665
1895.000000	100.563979
1894.000000	100.562854
1893.000000	100.560680
1892.000000	100.557881
1891.000000	100.555296
1890.000000	100.553546
1889.000000	100.552821
1888.000000	100.552721
1887.000000	100.552184
1886.000000	100.550221
1885.000000	100.547136
1884.000000	100.544539
1883.000000	100.543742
1882.000000	100.544690
1881.000000	100.546519
1880.000000	100.548318
1879.000000	100.549222
1878.000000	100.548505
1877.000000	100.546046
1876.000000	100.542572
1875.000000	100.539190
1874.000000	100.536793
1873.000000	100.536053
1872.000000	100.537357
1871.000000	100.540319
1870.000000	100.543515
1869.000000	100.545261
1868.000000	100.545345
1867.000000	100.545109
1866.000000	100.545610
1865.000000	100.546903
1864.000000	100.548599
1863.000000	100.550195
1862.000000	100.551362
1861.000000	100.552388
1860.000000	100.553990
1859.000000	100.556199
1858.000000	100.557892
1857.000000	100.558013
1856.000000	100.556853
1855.000000	100.555682
1854.000000	100.555647
1853.000000	100.557369
1852.000000	100.560867
1851.000000	100.565326
1850.000000	100.569296
1849.000000	100.571547
1848.000000	100.571914
1847.000000	100.571132
1846.000000	100.570151
1845.000000	100.569741
1844.000000	100.570304
1843.000000	100.571713
1842.000000	100.573518
1841.000000	100.575214
1840.000000	100.576440
1839.000000	100.577230
1838.000000	100.577859
1837.000000	100.578484
1836.000000	100.578971
1835.000000	100.579054
1834.000000	100.578687
1833.000000	100.578130
1832.000000	100.577695
1831.000000	100.577793
1830.000000	100.578816
1829.000000	100.580562
1828.000000	100.582254
1827.000000	100.583210
1826.000000	100.583317
1825.000000	100.583078
1824.000000	100.583113
1823.000000	100.583537
1822.000000	100.583843
1821.000000	100.583443
1820.000000	100.582325
1819.000000	100.581119
1818.000000	100.580446
1817.000000	100.580413
1816.000000	100.580845
1815.000000	100.581518
1814.000000	100.582214
1813.000000	100.582818
1812.000000	100.583374
1811.000000	100.583726
1810.000000	100.583057
1809.000000	100.580897
1808.000000	100.578487
1807.000000	100.577669
1806.000000	100.578759
1805.000000	100.580563
1804.000000	100.582080
1803.000000	100.583270
1802.000000	100.584172
1801.000000	100.584317
1800.000000	100.583695
1799.000000	100.583155
1798.000000	100.582989
1797.000000	100.582609
1796.000000	100.581863
1795.000000	100.581481
1794.000000	100.582337
1793.000000	100.584561
1792.000000	100.587484
1791.000000	100.590467
1790.000000	100.593099
1789.000000	100.594952
1788.000000	100.595938
1787.000000	100.596441
1786.000000	100.596627
1785.000000	100.596117
1784.000000	100.594738
1783.000000	100.593132
1782.000000	100.592496
1781.000000	100.593753
1780.000000	100.596771
1779.000000	100.600530
1778.000000	100.604139
1777.000000	100.607508
1776.000000	100.610832
1775.000000	100.613743
1774.000000	100.615513
1773.000000	100.615664
1772.000000	100.614494
1771.000000	100.613648
1770.000000	100.614703
1769.000000	100.617385
1768.000000	100.620482
1767.000000	100.623471
1766.000000	100.626534
1765.000000	100.629521
1764.000000	100.631776
1763.000000	100.633190
1762.000000	100.634691
1761.000000	100.637175
1760.000000	100.640510
1759.000000	100.643720
1758.000000	100.645762
1757.000000	100.646314
1756.000000	100.645953
1755.000000	100.646010
1754.000000	100.647423
1753.000000	100.649854
1752.000000	100.652153
1751.000000	100.653559
1750.000000	100.654699
1749.000000	100.656438
1748.000000	100.658153
1747.000000	100.658762
1746.000000	100.658458
1745.000000	100.657957
1744.000000	100.657260
1743.000000	100.656299
1742.000000	100.655838
1741.000000	100.656732
1740.000000	100.658808
1739.000000	100.661077
1738.000000	100.663170
1737.000000	100.665219
1736.000000	100.667065
1735.000000	100.668018
1734.000000	100.666952
1733.000000	100.664182
1732.000000	100.661558
1731.000000	100.659701
1730.000000	100.658471
1729.000000	100.658344
1728.000000	100.659157
1727.000000	100.659834
1726.000000	100.659446
1725.000000	100.658284
1724.000000	100.657416
1723.000000	100.657435
1722.000000	100.657809
1721.000000	100.657669
1720.000000	100.656732
1719.000000	100.655500
1718.000000	100.654494
1717.000000	100.653357
1716.000000	100.651910
1715.000000	100.650578
1714.000000	100.649505
1713.000000	100.648777
1712.000000	100.648475
1711.000000	100.648241
1710.000000	100.647465
1709.000000	100.645971
1708.000000	100.644249
1707.000000	100.642960
1706.000000	100.642206
1705.000000	100.641426
1704.000000	100.640221
1703.000000	100.638540
1702.000000	100.636370
1701.000000	100.633899
1700.000000	100.631865
1699.000000	100.630887
1698.000000	100.630524
1697.000000	100.629770
1696.000000	100.628397
1695.000000	100.627062
1694.000000	100.626145
1693.000000	100.625231
1692.000000	100.623771
1691.000000	100.621749
1690.000000	100.619635
1689.000000	100.617905
1688.000000	100.616636
1687.000000	100.615523
1686.000000	100.614355
1685.000000	100.613386
1684.000000	100.612561
1683.000000	100.611380
1682.000000	100.610196
1681.000000	100.609415
1680.000000	100.608734
1679.000000	100.608159
1678.000000	100.607614
1677.000000	100.607237
1676.000000	100.607091
1675.000000	100.606829
1674.000000	100.606064
1673.000000	100.604894
1672.000000	100.603396
1671.000000	100.601628
1670.000000	100.599832
1669.000000	100.598529
1668.000000	100.598298
1667.000000	100.599155
1666.000000	100.600539
1665.000000	100.601792
1664.000000	100.602604
1663.000000	100.602829
1662.000000	100.602350
1661.000000	100.601495
1660.000000	100.600339
1659.000000	100.598456
1658.000000	100.595513
1657.000000	100.592073
1656.000000	100.588430
1655.000000	100.584519
1654.000000	100.580508
1653.000000	100.577498
1652.000000	100.577573
1651.000000	100.581141
1650.000000	100.585868
1649.000000	100.589157
1648.000000	100.590699
1647.000000	100.590555
1646.000000	100.589133
1645.000000	100.586973
1644.000000	100.584748
1643.000000	100.582337
1642.000000	100.579726
1641.000000	100.577340
1640.000000	100.575860
1639.000000	100.575586
1638.000000	100.576237
1637.000000	100.577506
1636.000000	100.578724
1635.000000	100.578374
1634.000000	100.576364
1633.000000	100.574189
1632.000000	100.572794
1631.000000	100.572418
1630.000000	100.572737
1629.000000	100.573209
1628.000000	100.573438
1627.000000	100.573204
1626.000000	100.572502
1625.000000	100.571645
1624.000000	100.571133
1623.000000	100.570851
1622.000000	100.570099
1621.000000	100.568963
1620.000000	100.568233
1619.000000	100.568521
1618.000000	100.569916
1617.000000	100.571536
1616.000000	100.572027
1615.000000	100.571158
1614.000000	100.569807
1613.000000	100.568718
1612.000000	100.568595
1611.000000	100.569875
1610.000000	100.572063
1609.000000	100.573989
1608.000000	100.574822
1607.000000	100.574785
1606.000000	100.574973
1605.000000	100.576327
1604.000000	100.578751
1603.000000	100.581480
1602.000000	100.584017
1601.000000	100.586387
1600.000000	100.588657
1599.000000	100.590637
1598.000000	100.592130
1597.000000	100.593074
1596.000000	100.593459
1595.000000	100.593379
1594.000000	100.593300
1593.000000	100.594037
1592.000000	100.596124
1591.000000	100.599209
1590.000000	100.602250
1589.000000	100.604435
1588.000000	100.605714
1587.000000	100.606525
1586.000000	100.607456
1585.000000	100.609015
1584.000000	100.611138
1583.000000	100.612979
1582.000000	100.613784
1581.000000	100.613859
1580.000000	100.614234
1579.000000	100.615555
1578.000000	100.617944
1577.000000	100.621428
1576.000000	100.625287
1575.000000	100.628106
1574.000000	100.629931
1573.000000	100.631526
1572.000000	100.632770
1571.000000	100.633383
1570.000000	100.632932
1569.000000	100.631335
1568.000000	100.629186
1567.000000	100.627598
1566.000000	100.627883
1565.000000	100.631425
1564.000000	100.637610
1563.000000	100.643585
1562.000000	100.646456
1561.000000	100.645683
1560.000000	100.644374
1559.000000	100.644588
1558.000000	100.643905
1557.000000	100.644669
1556.000000	100.649172
1555.000000	100.654186
1554.000000	100.659665
1553.000000	100.663739
1552.000000	100.664772
1551.000000	100.661869
1550.000000	100.657356
1549.000000	100.654476
1548.000000	100.654336
1547.000000	100.655303
1546.000000	100.655624
1545.000000	100.654844
1544.000000	100.653478
1543.000000	100.652336
1542.000000	100.651810
1541.000000	100.651404
1540.000000	100.649981
1539.000000	100.646822
1538.000000	100.643509
1537.000000	100.640824
1536.000000	100.637198
1535.000000	100.632637
1534.000000	100.628047
1533.000000	100.623279
1532.000000	100.617959
1531.000000	100.613477
1530.000000	100.610272
1529.000000	100.607418
1528.000000	100.604038
1527.000000	100.600133
1526.000000	100.596812
1525.000000	100.594751
1524.000000	100.593286
1523.000000	100.591749
1522.000000	100.590492
1521.000000	100.589526
1520.000000	100.588316
1519.000000	100.586743
1518.000000	100.585213
1517.000000	100.584942
1516.000000	100.586654
1515.000000	100.588941
1514.000000	100.589527
1513.000000	100.587043
1512.000000	100.582450
1511.000000	100.578529
1510.000000	100.577281
1509.000000	100.578455
1508.000000	100.580794
1507.000000	100.582154
1506.000000	100.579733
1505.000000	100.575211
1504.000000	100.571683
1503.000000	100.568110
1502.000000	100.563327
1501.000000	100.557447
1500.000000	100.552282
1499.000000	100.550037
1498.000000	100.551376
1497.000000	100.553504
1496.000000	100.553034
1495.000000	100.550830
1494.000000	100.549407
1493.000000	100.548700
1492.000000	100.547228
1491.000000	100.544626
1490.000000	100.541721
1489.000000	100.538710
1488.000000	100.535920
1487.000000	100.534601
1486.000000	100.534884
1485.000000	100.535784
1484.000000	100.536062
1483.000000	100.535397
1482.000000	100.535230
1481.000000	100.537089
1480.000000	100.540510
1479.000000	100.543348
1478.000000	100.544106
1477.000000	100.543237
1476.000000	100.542533
1475.000000	100.542918
1474.000000	100.543573
1473.000000	100.543739
1472.000000	100.544512
1471.000000	100.547806
1470.000000	100.552821
1469.000000	100.556439
1468.000000	100.556954
1467.000000	100.555503
1466.000000	100.554507
1465.000000	100.555046
1464.000000	100.556189
1463.000000	100.557388
1462.000000	100.558736
1461.000000	100.559729
1460.000000	100.559933
1459.000000	100.559871
1458.000000	100.560934
1457.000000	100.561522
1456.000000	100.558846
1455.000000	100.555332
1454.000000	100.553645
1453.000000	100.552648
1452.000000	100.551569
1451.000000	100.550799
1450.000000	100.551057
1449.000000	100.551460
1448.000000	100.550635
1447.000000	100.548653
1446.000000	100.546711
1445.000000	100.545030
1444.000000	100.543031
1443.000000	100.541248
1442.000000	100.540731
1441.000000	100.540873
1440.000000	100.539534
1439.000000	100.536151
1438.000000	100.533783
1437.000000	100.535994
1436.000000	100.541378
1435.000000	100.545757
1434.000000	100.548152
1433.000000	100.549598
1432.000000	100.551079
1431.000000	100.552952
1430.000000	100.554945
1429.000000	100.556305
1428.000000	100.556483
1427.000000	100.556143
1426.000000	100.557049
1425.000000	100.560496
1424.000000	100.564818
1423.000000	100.566715
1422.000000	100.565438
1421.000000	100.563367
1420.000000	100.563524
1419.000000	100.567239
1418.000000	100.573648
1417.000000	100.581219
1416.000000	100.588884
1415.000000	100.595730
1414.000000	100.601024
1413.000000	100.604207
1412.000000	100.605151
1411.000000	100.604851
1410.000000	100.605451
1409.000000	100.608257
1408.000000	100.612477
1407.000000	100.616189
1406.000000	100.618301
1405.000000	100.619492
1404.000000	100.620927
1403.000000	100.623173
1402.000000	100.626324
1401.000000	100.630394
1400.000000	100.635193
1399.000000	100.639682
1398.000000	100.642986
1397.000000	100.645891
1396.000000	100.650118
1395.000000	100.655818
1394.000000	100.660595
1393.000000	100.661858
1392.000000	100.659336
1391.000000	100.655383
1390.000000	100.653360
1389.000000	100.655517
1388.000000	100.661735
1387.000000	100.669493
1386.000000	100.675786
1385.000000	100.679333
1384.000000	100.680420
1383.000000	100.680132
1382.000000	100.679789
1381.000000	100.679940
1380.000000	100.680188
1379.000000	100.680099
1378.000000	100.680035
1377.000000	100.680597
1376.000000	100.681445
1375.000000	100.681326
1374.000000	100.679719
1373.000000	100.677666
1372.000000	100.676036
1371.000000	100.674000
1370.000000	100.670549
1369.000000	100.666743
1368.000000	100.664713
1367.000000	100.665121
1366.000000	100.666711
1365.000000	100.667999
1364.000000	100.668530
1363.000000	100.668426
1362.000000	100.667928
1361.000000	100.668117
1360.000000	100.670529
1359.000000	100.675108
1358.000000	100.679554
1357.000000	100.681435
1356.000000	100.680616
1355.000000	100.679123
1354.000000	100.678668
1353.000000	100.678981
1352.000000	100.679133
1351.000000	100.679150
1350.000000	100.679639
1349.000000	100.680731
1348.000000	100.681596
1347.000000	100.681343
1346.000000	100.680026
1345.000000	100.678649
1344.000000	100.678217
1343.000000	100.678941
1342.000000	100.680197
1341.000000	100.681035
1340.000000	100.680784
1339.000000	100.679522
1338.000000	100.678057
1337.000000	100.677086
1336.000000	100.676535
1335.000000	100.676070
1334.000000	100.675916
1333.000000	100.676746
1332.000000	100.678681
1331.000000	100.680742
1330.000000	100.681731
1329.000000	100.681549
1328.000000	100.681113
1327.000000	100.680959
1326.000000	100.680591
1325.000000	100.679484
1324.000000	100.678033
1323.000000	100.677256
1322.000000	100.677686
1321.000000	100.678760
1320.000000	100.679306
1319.000000	100.678667
1318.000000	100.677363
1317.000000	100.676641
1316.000000	100.677440
1315.000000	100.679833
1314.000000	100.683073
1313.000000	100.685755
1312.000000	100.686286
1311.000000	100.683878
1310.000000	100.679520
1309.000000	100.675736
1308.000000	100.674746
1307.000000	100.676597
1306.000000	100.679196
1305.000000	100.680344
1304.000000	100.679601
1303.000000	100.678348
1302.000000	100.678219
1301.000000	100.679477
1300.000000	100.680898
1299.000000	100.681210
1298.000000	100.680439
1297.000000	100.679669
1296.000000	100.679573
1295.000000	100.679702
1294.000000	100.679532
1293.000000	100.679554
1292.000000	100.680529
1291.000000	100.681860
1290.000000	100.681656
1289.000000	100.678866
1288.000000	100.674749
1287.000000	100.671625
1286.000000	100.670323
1285.000000	100.669433
1284.000000	100.667041
1283.000000	100.662822
1282.000000	100.658425
1281.000000	100.656097
1280.000000	100.656830
1279.000000	100.659379
1278.000000	100.661150
1277.000000	100.660454
1276.000000	100.657963
1275.000000	100.655629
1274.000000	100.654354
1273.000000	100.653262
1272.000000	100.651466
1271.000000	100.649933
1270.000000	100.650941
1269.000000	100.655673
1268.000000	100.662735
1267.000000	100.669317
1266.000000	100.673714
1265.000000	100.676411
1264.000000	100.678837
1263.000000	100.681570
1262.000000	100.683986
1261.000000	100.685185
1260.000000	100.684616
1259.000000	100.681984
1258.000000	100.677329
1257.000000	100.671235
1256.000000	100.664466
1255.000000	100.657300
1254.000000	100.649693
1253.000000	100.642223
1252.000000	100.636302
1251.000000	100.632982
1250.000000	100.631828
1249.000000	100.631124
1248.000000	100.628758
1247.000000	100.622989
1246.000000	100.613537
1245.000000	100.602439
1244.000000	100.592808
1243.000000	100.585567
1242.000000	100.577866
1241.000000	100.566052
1240.000000	100.550153
1239.000000	100.534268
1238.000000	100.522173
1237.000000	100.513325
1236.000000	100.503714
1235.000000	100.490216
1234.000000	100.473891
1233.000000	100.459271
1232.000000	100.450244
1231.000000	100.446112
1230.000000	100.441827
1229.000000	100.432338
1228.000000	100.416178
1227.000000	100.394660
1226.000000	100.369110
1225.000000	100.340275
1224.000000	100.309318
1223.000000	100.277131
1222.000000	100.242719
1221.000000	100.204393
1220.000000	100.162793
1219.000000	100.120712
1218.000000	100.079230
1217.000000	100.035800
1216.000000	99.986945
1215.000000	99.931319
1214.000000	99.869934
1213.000000	99.805619
1212.000000	99.743049
1211.000000	99.686811
1210.000000	99.637686
1209.000000	99.592387
1208.000000	99.547714
1207.000000	99.502782
1206.000000	99.456691
1205.000000	99.407371
1204.000000	99.354594
1203.000000	99.301376
1202.000000	99.250101
1201.000000	99.199280
1200.000000	99.146227
1199.000000	99.091083
1198.000000	99.036135
1197.000000	98.982769
1196.000000	98.931031
1195.000000	98.880778
1194.000000	98.831613
1193.000000	98.782925
1192.000000	98.734952
1191.000000	98.688145
1190.000000	98.640780
1189.000000	98.589712
1188.000000	98.534793
1187.000000	98.480054
1186.000000	98.428620
1185.000000	98.378519
1184.000000	98.325446
1183.000000	98.267665
1182.000000	98.206280
1181.000000	98.142617
1180.000000	98.077617
1179.000000	98.012479
1178.000000	97.947723
1177.000000	97.882329
1176.000000	97.815179
1175.000000	97.746468
1174.000000	97.676867
1173.000000	97.606630
1172.000000	97.536190
1171.000000	97.466098
1170.000000	97.395861
1169.000000	97.324741
1168.000000	97.254341
1167.000000	97.188552
1166.000000	97.130869
1165.000000	97.084144
1164.000000	97.052849
1163.000000	97.042018
1162.000000	97.052670
1161.000000	97.080092
1160.000000	97.116143
1159.000000	97.150612
1158.000000	97.172075
1157.000000	97.172542
1156.000000	97.152123
1155.000000	97.116204
1154.000000	97.068028
1153.000000	97.007604
1152.000000	96.938175
1151.000000	96.868919
1150.000000	96.808515
1149.000000	96.758509
1148.000000	96.714285
1147.000000	96.669443
1146.000000	96.618443
1145.000000	96.558959
1144.000000	96.493826
1143.000000	96.428590
1142.000000	96.366324
1141.000000	96.307073
1140.000000	96.251587
1139.000000	96.200962
1138.000000	96.152001
1137.000000	96.097926
1136.000000	96.035714
1135.000000	95.969479
1134.000000	95.905422
1133.000000	95.846297
1132.000000	95.791097
1131.000000	95.736288
1130.000000	95.677022
1129.000000	95.611281
1128.000000	95.543235
1127.000000	95.478730
1126.000000	95.417822
1125.000000	95.356179
1124.000000	95.292794
1123.000000	95.230407
1122.000000	95.168972
1121.000000	95.105600
1120.000000	95.041135
1119.000000	94.979485
1118.000000	94.919831
1117.000000	94.857296
1116.000000	94.792435
1115.000000	94.731627
1114.000000	94.676044
1113.000000	94.618788
1112.000000	94.555748
1111.000000	94.490870
1110.000000	94.427779
1109.000000	94.364734
1108.000000	94.301414
1107.000000	94.242546
1106.000000	94.190778
1105.000000	94.143508
1104.000000	94.099998
1103.000000	94.063460
1102.000000	94.032517
1101.000000	93.998638
1100.000000	93.956747
1099.000000	93.911359
1098.000000	93.867545
1097.000000	93.823980
1096.000000	93.779025
1095.000000	93.736328
1094.000000	93.698834
1093.000000	93.663511
1092.000000	93.627115
1091.000000	93.591851
1090.000000	93.560901
1089.000000	93.533421
1088.000000	93.507843
1087.000000	93.485383
1086.000000	93.467096
1085.000000	93.451737
1084.000000	93.438381
1083.000000	93.426355
1082.000000	93.411568
1081.000000	93.388818
1080.000000	93.359063
1079.000000	93.328932
1078.000000	93.302370
1077.000000	93.278561
1076.000000	93.257478
1075.000000	93.239141
1074.000000	93.216597
1073.000000	93.178304
1072.000000	93.119458
1071.000000	93.044450
1070.000000	92.958234
1069.000000	92.862846
1068.000000	92.762184
1067.000000	92.660253
1066.000000	92.553043
1065.000000	92.432254
1064.000000	92.299616
1063.000000	92.168231
1062.000000	92.047563
1061.000000	91.937140
1060.000000	91.837077
1059.000000	91.752114
1058.000000	91.680648
1057.000000	91.611667
1056.000000	91.538463
1055.000000	91.465184
1054.000000	91.394453
1053.000000	91.319024
1052.000000	91.232590
1051.000000	91.138689
1050.000000	91.040506
1049.000000	90.931815
1048.000000	90.807464
1047.000000	90.673622
1046.000000	90.539232
1045.000000	90.405463
1044.000000	90.270016
1043.000000	90.133825
1042.000000	89.997756
1041.000000	89.860137
1040.000000	89.722899
1039.000000	89.592981
1038.000000	89.472697
1037.000000	89.356083
1036.000000	89.239495
1035.000000	89.128159
1034.000000	89.027727
1033.000000	88.937621
1032.000000	88.857392
1031.000000	88.791106
1030.000000	88.739712
1029.000000	88.696222
1028.000000	88.653916
1027.000000	88.613410
1026.000000	88.577381
1025.000000	88.544387
1024.000000	88.511471
1023.000000	88.477496
1022.000000	88.441710
1021.000000	88.404512
1020.000000	88.370393
1019.000000	88.343570
1018.000000	88.320491
1017.000000	88.293759
1016.000000	88.262853
1015.000000	88.232724
1014.000000	88.203069
1013.000000	88.169202
1012.000000	88.133426
1011.000000	88.104498
1010.000000	88.084237
1009.000000	88.064847
1008.000000	88.041547
1007.000000	88.018611
1006.000000	88.001230
1005.000000	87.990548
1004.000000	87.987869
1003.000000	87.994254
1002.000000	88.004511
1001.000000	88.010750
1000.000000	88.013149
999.000000	88.018645
998.000000	88.029231
997.000000	88.041333
996.000000	88.056265
995.000000	88.080122
994.000000	88.112287
993.000000	88.144730
992.000000	88.174079
991.000000	88.204436
990.000000	88.237659
989.000000	88.271881
988.000000	88.310792
987.000000	88.362894
986.000000	88.428903
985.000000	88.499838
984.000000	88.570140
983.000000	88.643959
982.000000	88.726997
981.000000	88.821113
980.000000	88.927686
979.000000	89.046855
978.000000	89.172670
977.000000	89.298249
976.000000	89.425992
975.000000	89.563158
974.000000	89.707828
973.000000	89.849834
972.000000	89.986194
971.000000	90.124928
970.000000	90.272141
969.000000	90.425309
968.000000	90.580694
967.000000	90.737451
966.000000	90.892402
965.000000	91.039918
964.000000	91.179340
963.000000	91.315038
962.000000	91.448324
961.000000	91.577096
960.000000	91.703275
959.000000	91.831196
958.000000	91.957764
957.000000	92.074009
956.000000	92.178541
955.000000	92.280568
954.000000	92.386974
953.000000	92.494530
952.000000	92.597838
951.000000	92.697054
950.000000	92.794080
949.000000	92.887603
948.000000	92.975483
947.000000	93.057390
946.000000	93.133016
945.000000	93.202111
944.000000	93.267165
943.000000	93.331222
942.000000	93.392661
941.000000	93.447424
940.000000	93.496638
939.000000	93.546844
938.000000	93.602671
937.000000	93.664059
936.000000	93.729347
935.000000	93.794990
934.000000	93.854038
933.000000	93.902614
932.000000	93.947376
931.000000	93.999262
930.000000	94.060113
929.000000	94.122759
928.000000	94.183225
927.000000	94.244056
926.000000	94.305704
925.000000	94.364159
924.000000	94.418978
923.000000	94.475278
922.000000	94.535208
921.000000	94.594388
920.000000	94.648767
919.000000	94.698516
918.000000	94.743916
917.000000	94.784553
916.000000	94.824553
915.000000	94.871804
914.000000	94.929404
913.000000	94.993173
912.000000	95.059012
911.000000	95.127517
910.000000	95.201128
909.000000	95.282879
908.000000	95.377619
907.000000	95.487246
906.000000	95.604514
905.000000	95.719181
904.000000	95.831164
903.000000	95.949672
902.000000	96.078467
901.000000	96.210131
900.000000	96.336798
899.000000	96.458964
898.000000	96.580824
897.000000	96.703651
896.000000	96.826805
895.000000	96.949765
894.000000	97.070199
893.000000	97.184420
892.000000	97.291702
891.000000	97.394191
890.000000	97.491535
889.000000	97.579974
888.000000	97.658112
887.000000	97.729664
886.000000	97.799110
885.000000	97.868123
884.000000	97.937079
883.000000	98.006214
882.000000	98.074329
881.000000	98.139424
880.000000	98.200815
879.000000	98.258117
878.000000	98.310168
877.000000	98.359323
876.000000	98.414430
875.000000	98.483315
874.000000	98.563665
873.000000	98.647389
872.000000	98.731566
871.000000	98.817459
870.000000	98.900982
869.000000	98.973830
868.000000	99.034956
867.000000	99.092904
866.000000	99.154824
865.000000	99.219539
864.000000	99.283311
863.000000	99.346109
862.000000	99.409412
861.000000	99.472609
860.000000	99.533801
859.000000	99.590306
858.000000	99.637753
857.000000	99.673858
856.000000	99.704426
855.000000	99.740388
854.000000	99.786155
853.000000	99.834412
852.000000	99.874128
851.000000	99.900745
850.000000	99.918422
849.000000	99.936200
848.000000	99.961857
847.000000	99.994592
846.000000	100.023453
845.000000	100.038058
844.000000	100.040572
843.000000	100.041298
842.000000	100.042950
841.000000	100.037103
840.000000	100.017216
839.000000	99.986411
838.000000	99.949613
837.000000	99.906963
836.000000	99.860540
835.000000	99.819929
834.000000	99.793263
833.000000	99.777057
832.000000	99.761880
831.000000	99.745200
830.000000	99.732913
829.000000	99.730525
828.000000	99.738073
827.000000	99.751879
826.000000	99.766969
825.000000	99.779726
824.000000	99.791201
823.000000	99.804375
822.000000	99.816027
821.000000	99.817533
820.000000	99.807150
819.000000	99.794725
818.000000	99.788674
817.000000	99.781962
816.000000	99.755889
815.000000	99.695909
814.000000	99.600765
813.000000	99.478306
812.000000	99.335654
811.000000	99.171249
810.000000	98.972540
809.000000	98.723364
808.000000	98.418056
807.000000	98.068043
806.000000	97.692705
805.000000	97.307089
804.000000	96.922535
803.000000	96.554599
802.000000	96.223046
801.000000	95.945172
800.000000	95.732553
799.000000	95.590071
798.000000	95.513946
797.000000	95.494479
796.000000	95.522935
795.000000	95.591384
794.000000	95.686470
793.000000	95.791583
792.000000	95.896606
791.000000	95.997592
790.000000	96.085470
789.000000	96.143948
788.000000	96.161975
787.000000	96.140549
786.000000	96.083650
785.000000	95.990687
784.000000	95.864240
783.000000	95.719069
782.000000	95.575887
781.000000	95.449452
780.000000	95.348196
779.000000	95.281022
778.000000	95.257605
777.000000	95.283415
776.000000	95.357379
775.000000	95.471623
774.000000	95.612390
773.000000	95.766122
772.000000	95.925951
771.000000	96.087426
770.000000	96.238318
769.000000	96.361116
768.000000	96.449369
767.000000	96.515229
766.000000	96.576122
765.000000	96.638271
764.000000	96.697470
763.000000	96.751250
762.000000	96.804002
761.000000	96.861778
760.000000	96.926791
759.000000	96.996652
758.000000	97.066506
757.000000	97.132854
756.000000	97.196820
755.000000	97.262463
754.000000	97.331260
753.000000	97.400354
752.000000	97.466508
751.000000	97.528766
750.000000	97.586505
749.000000	97.638286
748.000000	97.684619
747.000000	97.729814
746.000000	97.779577
745.000000	97.838244
744.000000	97.908523
743.000000	97.991060
742.000000	98.083314
741.000000	98.180993
740.000000	98.280675
739.000000	98.378893
738.000000	98.469997
737.000000	98.549089
736.000000	98.616961
735.000000	98.678284
734.000000	98.734876
733.000000	98.784012
732.000000	98.823087
731.000000	98.852390
730.000000	98.873297
729.000000	98.887689
728.000000	98.899749
727.000000	98.914845
726.000000	98.935478
725.000000	98.960747
724.000000	98.990624
723.000000	99.027883
722.000000	99.074380
721.000000	99.127105
720.000000	99.178988
719.000000	99.223637
718.000000	99.260368
717.000000	99.295182
716.000000	99.334709
715.000000	99.377403
714.000000	99.413524
713.000000	99.437063
712.000000	99.454171
711.000000	99.475240
710.000000	99.501618
709.000000	99.526204
708.000000	99.544876
707.000000	99.559168
706.000000	99.567658
705.000000	99.562020
704.000000	99.533675
703.000000	99.478854
702.000000	99.394744
701.000000	99.276065
700.000000	99.119068
699.000000	98.926839
698.000000	98.712715
697.000000	98.503822
696.000000	98.338620
695.000000	98.250182
694.000000	98.246731
693.000000	98.312078
692.000000	98.424152
691.000000	98.566654
690.000000	98.723959
689.000000	98.875685
688.000000	99.004140
687.000000	99.103641
686.000000	99.177458
685.000000	99.230811
684.000000	99.270747
683.000000	99.305169
682.000000	99.336339
681.000000	99.360239
680.000000	99.376662
679.000000	99.394649
678.000000	99.423972
677.000000	99.467418
676.000000	99.522475
675.000000	99.582121
674.000000	99.633324
673.000000	99.660535
672.000000	99.656801
671.000000	99.631671
670.000000	99.607965
669.000000	99.616858
668.000000	99.676564
667.000000	99.759067
666.000000	99.826941
665.000000	99.878718
664.000000	99.923824
663.000000	99.963302
662.000000	99.988234
661.000000	99.993691
660.000000	99.988344
659.000000	99.983897
658.000000	99.980867
657.000000	99.972767
656.000000	99.959763
655.000000	99.947946
654.000000	99.939829
653.000000	99.933182
652.000000	99.928688
651.000000	99.930875
650.000000	99.939112
