4000.000000	100.560365
3999.000000	100.559753
3998.000000	100.559257
3997.000000	100.558819
3996.000000	100.558425
3995.000000	100.558084
3994.000000	100.557795
3993.000000	100.557550
3992.000000	100.557328
3991.000000	100.557061
3990.000000	100.556645
3989.000000	100.556021
3988.000000	100.555229
3987.000000	100.554428
3986.000000	100.553791
3985.000000	100.553406
3984.000000	100.553235
3983.000000	100.553036
3982.000000	100.552555
3981.000000	100.551710
3980.000000	100.550633
3979.000000	100.549577
3978.000000	100.548707
3977.000000	100.548033
3976.000000	100.547466
3975.000000	100.546948
3974.000000	100.546531
3973.000000	100.546285
3972.000000	100.546135
3971.000000	100.545854
3970.000000	100.545246
3969.000000	100.544313
3968.000000	100.543348
3967.000000	100.542723
3966.000000	100.542590
3965.000000	100.542766
3964.000000	100.542880
3963.000000	100.542722
3962.000000	100.542354
3961.000000	100.541897
3960.000000	100.541286
3959.000000	100.540351
3958.000000	100.539088
3957.000000	100.537742
3956.000000	100.536607
3955.000000	100.535817
3954.000000	100.535310
3953.000000	100.534949
3952.000000	100.534605
3951.000000	100.534143
3950.000000	100.533419
3949.000000	100.532371
3948.000000	100.531143
3947.000000	100.530068
3946.000000	100.529397
3945.000000	100.529078
3944.000000	100.528857
3943.000000	100.528587
3942.000000	100.528360
3941.000000	100.528347
3940.000000	100.528555
3939.000000	100.528749
3938.000000	100.528622
3937.000000	100.528055
3936.000000	100.527158
3935.000000	100.526187
3934.000000	100.525327
3933.000000	100.524585
3932.000000	100.523892
3931.000000	100.523276
3930.000000	100.522860
3929.000000	100.522651
3928.000000	100.522437
3927.000000	100.521979
3926.000000	100.521271
3925.000000	100.520516
3924.000000	100.519873
3923.000000	100.519362
3922.000000	100.519003
3921.000000	100.518842
3920.000000	100.518809
3919.000000	100.518696
3918.000000	100.518336
3917.000000	100.517730
3916.000000	100.517023
3915.000000	100.516398
3914.000000	100.516000
3913.000000	100.515880
3912.000000	100.515966
3911.000000	100.516093
3910.000000	100.516113
3909.000000	100.515973
3908.000000	100.515663
3907.000000	100.515177
3906.000000	100.514584
3905.000000	100.514071
3904.000000	100.513802
3903.000000	100.513726
3902.000000	100.513606
3901.000000	100.513249
3900.000000	100.512656
3899.000000	100.511953
3898.000000	100.511276
3897.000000	100.510731
3896.000000	100.510381
3895.000000	100.510183
3894.000000	100.510033
3893.000000	100.509879
3892.000000	100.509773
3891.000000	100.509735
3890.000000	100.509697
3889.000000	100.509590
3888.000000	100.509402
3887.000000	100.509160
3886.000000	100.508901
3885.000000	100.508648
3884.000000	100.508409
3883.000000	100.508185
3882.000000	100.507978
3881.000000	100.507786
3880.000000	100.507606
3879.000000	100.507430
3878.000000	100.507252
3877.000000	100.507066
3876.000000	100.506872
3875.000000	100.506667
3874.000000	100.506449
3873.000000	100.506212
3872.000000	100.505952
3871.000000	100.505674
3870.000000	100.505386
3869.000000	100.505096
3868.000000	100.504808
3867.000000	100.504531
3866.000000	100.504278
3865.000000	100.504048
3864.000000	100.503827
3863.000000	100.503593
3862.000000	100.503334
3861.000000	100.503052
3860.000000	100.502761
3859.000000	100.502478
3858.000000	100.502213
3857.000000	100.501958
3856.000000	100.501692
3855.000000	100.501395
3854.000000	100.501068
3853.000000	100.500716
3852.000000	100.500339
3851.000000	100.499930
3850.000000	100.499497
3849.000000	100.499054
3848.000000	100.498620
3847.000000	100.498215
3846.000000	100.497854
3845.000000	100.497541
3844.000000	100.497274
3843.000000	100.497038
3842.000000	100.496813
3841.000000	100.496579
3840.000000	100.496323
3839.000000	100.496041
3838.000000	100.495734
3837.000000	100.495403
3836.000000	100.495051
3835.000000	100.494676
3834.000000	100.494278
3833.000000	100.493861
3832.000000	100.493443
3831.000000	100.493042
3830.000000	100.492665
3829.000000	100.492306
3828.000000	100.491971
3827.000000	100.491681
3826.000000	100.491436
3825.000000	100.491162
3824.000000	100.490714
3823.000000	100.489953
3822.000000	100.488928
3821.000000	100.488024
3820.000000	100.487518
3819.000000	100.487364
3818.000000	100.487325
3817.000000	100.487252
3816.000000	100.487036
3815.000000	100.486392
3814.000000	100.485096
3813.000000	100.483499
3812.000000	100.482385
3811.000000	100.482239
3810.000000	100.482825
3809.000000	100.483403
3808.000000	100.483682
3807.000000	100.484176
3806.000000	100.485221
3805.000000	100.486254
3804.000000	100.486414
3803.000000	100.485312
3802.000000	100.483586
3801.000000	100.481823
3800.000000	100.479409
3799.000000	100.476082
3798.000000	100.472847
3797.000000	100.470994
3796.000000	100.470880
3795.000000	100.471565
3794.000000	100.471763
3793.000000	100.470753
3792.000000	100.468266
3791.000000	100.464417
3790.000000	100.460083
3789.000000	100.456630
3788.000000	100.454760
3787.000000	100.453909
3786.000000	100.453126
3785.000000	100.452385
3784.000000	100.452466
3783.000000	100.453615
3782.000000	100.455144
3781.000000	100.456440
3780.000000	100.457952
3779.000000	100.460225
3778.000000	100.462348
3777.000000	100.462749
3776.000000	100.461355
3775.000000	100.459645
3774.000000	100.458926
3773.000000	100.459019
3772.000000	100.459119
3771.000000	100.459626
3770.000000	100.461921
3769.000000	100.465879
3768.000000	100.469156
3767.000000	100.469505
3766.000000	100.466685
3765.000000	100.462286
3764.000000	100.458087
3763.000000	100.454824
3762.000000	100.452444
3761.000000	100.450599
3760.000000	100.448951
3759.000000	100.447431
3758.000000	100.446439
3757.000000	100.446278
3756.000000	100.446432
3755.000000	100.446002
3754.000000	100.444911
3753.000000	100.444393
3752.000000	100.445979
3751.000000	100.449856
3750.000000	100.454250
3749.000000	100.457509
3748.000000	100.458915
3747.000000	100.457617
3746.000000	100.453086
3745.000000	100.447298
3744.000000	100.442273
3743.000000	100.437263
3742.000000	100.432512
3741.000000	100.430212
3740.000000	100.431112
3739.000000	100.433199
3738.000000	100.433512
3737.000000	100.431611
3736.000000	100.430129
3735.000000	100.430893
3734.000000	100.432075
3733.000000	100.430861
3732.000000	100.426493
3731.000000	100.419936
3730.000000	100.412672
3729.000000	100.406188
3728.000000	100.401711
3727.000000	100.399710
3726.000000	100.399158
3725.000000	100.398221
3724.000000	100.396310
3723.000000	100.394366
3722.000000	100.393093
3721.000000	100.391626
3720.000000	100.388517
3719.000000	100.383490
3718.000000	100.377913
3717.000000	100.373453
3716.000000	100.370461
3715.000000	100.367958
3714.000000	100.364453
3713.000000	100.358918
3712.000000	100.351873
3711.000000	100.344766
3710.000000	100.338487
3709.000000	100.333265
3708.000000	100.329279
3707.000000	100.326853
3706.000000	100.325877
3705.000000	100.325230
3704.000000	100.323050
3703.000000	100.318012
3702.000000	100.310681
3701.000000	100.302767
3700.000000	100.295212
3699.000000	100.287991
3698.000000	100.281262
3697.000000	100.275787
3696.000000	100.271988
3695.000000	100.269386
3694.000000	100.267313
3693.000000	100.265323
3692.000000	100.263133
3691.000000	100.260721
3690.000000	100.258359
3689.000000	100.255065
3688.000000	100.248352
3687.000000	100.237538
3686.000000	100.225160
3685.000000	100.214802
3684.000000	100.208327
3683.000000	100.204741
3682.000000	100.201417
3681.000000	100.196882
3680.000000	100.191228
3679.000000	100.183740
3678.000000	100.172754
3677.000000	100.159973
3676.000000	100.152885
3675.000000	100.153454
3674.000000	100.152984
3673.000000	100.145402
3672.000000	100.132982
3671.000000	100.121007
3670.000000	100.112206
3669.000000	100.102261
3668.000000	100.085717
3667.000000	100.063732
3666.000000	100.041652
3665.000000	100.023700
3664.000000	100.010781
3663.000000	100.001166
3662.000000	99.992908
3661.000000	99.985901
3660.000000	99.980989
3659.000000	99.977508
3658.000000	99.972321
3657.000000	99.962817
3656.000000	99.949734
3655.000000	99.936171
3654.000000	99.925110
3653.000000	99.916866
3652.000000	99.908421
3651.000000	99.896040
3650.000000	99.879563
3649.000000	99.861828
3648.000000	99.845242
3647.000000	99.830903
3646.000000	99.819001
3645.000000	99.809506
3644.000000	99.802573
3643.000000	99.797713
3642.000000	99.792810
3641.000000	99.785166
3640.000000	99.774040
3639.000000	99.761950
3638.000000	99.751717
3637.000000	99.742805
3636.000000	99.732257
3635.000000	99.719134
3634.000000	99.706525
3633.000000	99.698323
3632.000000	99.695470
3631.000000	99.695964
3630.000000	99.698123
3629.000000	99.701098
3628.000000	99.699623
3627.000000	99.690275
3626.000000	99.678554
3625.000000	99.671112
3624.000000	99.669189
3623.000000	99.670027
3622.000000	99.670492
3621.000000	99.669693
3620.000000	99.669871
3619.000000	99.674343
3618.000000	99.683635
3617.000000	99.694969
3616.000000	99.704838
3615.000000	99.711702
3614.000000	99.717504
3613.000000	99.725366
3612.000000	99.735146
3611.000000	99.743335
3610.000000	99.747354
3609.000000	99.748742
3608.000000	99.751442
3607.000000	99.757060
3606.000000	99.763719
3605.000000	99.768766
3604.000000	99.770563
3603.000000	99.769156
3602.000000	99.766614
3601.000000	99.766193
3600.000000	99.769743
3599.000000	99.776475
3598.000000	99.784306
3597.000000	99.791930
3596.000000	99.799635
3595.000000	99.808855
3594.000000	99.820198
3593.000000	99.832008
3592.000000	99.841443
3591.000000	99.846360
3590.000000	99.846691
3589.000000	99.845222
3588.000000	99.845387
3587.000000	99.845579
3586.000000	99.839790
3585.000000	99.826053
3584.000000	99.809235
3583.000000	99.796095
3582.000000	99.789783
3581.000000	99.788875
3580.000000	99.789837
3579.000000	99.790149
3578.000000	99.789493
3577.000000	99.788705
3576.000000	99.788507
3575.000000	99.789131
3574.000000	99.790725
3573.000000	99.793515
3572.000000	99.797553
3571.000000	99.802026
3570.000000	99.804836
3569.000000	99.803453
3568.000000	99.797086
3567.000000	99.787755
3566.000000	99.778600
3565.000000	99.771825
3564.000000	99.767893
3563.000000	99.765500
3562.000000	99.762845
3561.000000	99.759320
3560.000000	99.756030
3559.000000	99.754561
3558.000000	99.755421
3557.000000	99.757560
3556.000000	99.759132
3555.000000	99.758829
3554.000000	99.756886
3553.000000	99.754779
3552.000000	99.753666
3551.000000	99.753429
3550.000000	99.753447
3549.000000	99.753637
3548.000000	99.754340
3547.000000	99.755629
3546.000000	99.756981
3545.000000	99.757567
3544.000000	99.756791
3543.000000	99.754581
3542.000000	99.751469
3541.000000	99.748399
3540.000000	99.746254
3539.000000	99.745416
3538.000000	99.745723
3537.000000	99.746826
3536.000000	99.748316
3535.000000	99.749618
3534.000000	99.750097
3533.000000	99.749425
3532.000000	99.747816
3531.000000	99.745972
3530.000000	99.744712
3529.000000	99.744397
3528.000000	99.744670
3527.000000	99.744743
3526.000000	99.744120
3525.000000	99.743048
3524.000000	99.742247
3523.000000	99.742126
3522.000000	99.742469
3521.000000	99.742773
3520.000000	99.742696
3519.000000	99.742227
3518.000000	99.741624
3517.000000	99.741239
3516.000000	99.741241
3515.000000	99.741497
3514.000000	99.741775
3513.000000	99.742096
3512.000000	99.742674
3511.000000	99.743446
3510.000000	99.743878
3509.000000	99.743512
3508.000000	99.742558
3507.000000	99.741687
3506.000000	99.741292
3505.000000	99.741217
3504.000000	99.741104
3503.000000	99.740797
3502.000000	99.740398
3501.000000	99.740190
3500.000000	99.740491
3499.000000	99.741295
3498.000000	99.742020
3497.000000	99.741823
3496.000000	99.740435
3495.000000	99.738603
3494.000000	99.737608
3493.000000	99.738297
3492.000000	99.740559
3491.000000	99.743497
3490.000000	99.746010
3489.000000	99.747435
3488.000000	99.747674
3487.000000	99.746824
3486.000000	99.744826
3485.000000	99.741764
3484.000000	99.738433
3483.000000	99.736255
3482.000000	99.736323
3481.000000	99.738474
3480.000000	99.741314
3479.000000	99.743112
3478.000000	99.742782
3477.000000	99.740263
3476.000000	99.736366
3475.000000	99.732203
3474.000000	99.728449
3473.000000	99.725181
3472.000000	99.722363
3471.000000	99.720220
3470.000000	99.718991
3469.000000	99.718472
3468.000000	99.718001
3467.000000	99.716907
3466.000000	99.714925
3465.000000	99.712350
3464.000000	99.709991
3463.000000	99.708781
3462.000000	99.709060
3461.000000	99.710176
3460.000000	99.710865
3459.000000	99.710238
3458.000000	99.708322
3457.000000	99.705780
3456.000000	99.703382
3455.000000	99.701617
3454.000000	99.700552
3453.000000	99.699839
3452.000000	99.698901
3451.000000	99.697382
3450.000000	99.695445
3449.000000	99.693565
3448.000000	99.692002
3447.000000	99.690586
3446.000000	99.689042
3445.000000	99.687368
3444.000000	99.685820
3443.000000	99.684591
3442.000000	99.683637
3441.000000	99.682745
3440.000000	99.681717
3439.000000	99.680517
3438.000000	99.679248
3437.000000	99.678019
3436.000000	99.676849
3435.000000	99.675702
3434.000000	99.674549
3433.000000	99.673381
3432.000000	99.672198
3431.000000	99.671021
3430.000000	99.669880
3429.000000	99.668788
3428.000000	99.667750
3427.000000	99.666767
3426.000000	99.665822
3425.000000	99.664865
3424.000000	99.663855
3423.000000	99.662822
3422.000000	99.661844
3421.000000	99.660936
3420.000000	99.659992
3419.000000	99.658877
3418.000000	99.657617
3417.000000	99.656465
3416.000000	99.655722
3415.000000	99.655498
3414.000000	99.655565
3413.000000	99.655442
3412.000000	99.654730
3411.000000	99.653458
3410.000000	99.652113
3409.000000	99.651146
3408.000000	99.650523
3407.000000	99.649869
3406.000000	99.648992
3405.000000	99.648068
3404.000000	99.647309
3403.000000	99.646723
3402.000000	99.646319
3401.000000	99.646264
3400.000000	99.646590
3399.000000	99.646881
3398.000000	99.646580
3397.000000	99.645535
3396.000000	99.644030
3395.000000	99.642349
3394.000000	99.640542
3393.000000	99.638656
3392.000000	99.636931
3391.000000	99.635698
3390.000000	99.635218
3389.000000	99.635630
3388.000000	99.636880
3387.000000	99.638551
3386.000000	99.639975
3385.000000	99.640725
3384.000000	99.640891
3383.000000	99.640803
3382.000000	99.640619
3381.000000	99.640310
3380.000000	99.639976
3379.000000	99.639979
3378.000000	99.640619
3377.000000	99.641740
3376.000000	99.642764
3375.000000	99.643218
3374.000000	99.643146
3373.000000	99.642970
3372.000000	99.642985
3371.000000	99.643061
3370.000000	99.642916
3369.000000	99.642544
3368.000000	99.642270
3367.000000	99.642406
3366.000000	99.642960
3365.000000	99.643667
3364.000000	99.644227
3363.000000	99.644508
3362.000000	99.644589
3361.000000	99.644681
3360.000000	99.644970
3359.000000	99.645476
3358.000000	99.646064
3357.000000	99.646567
3356.000000	99.646930
3355.000000	99.647222
3354.000000	99.647541
3353.000000	99.647926
3352.000000	99.648355
3351.000000	99.648794
3350.000000	99.649230
3349.000000	99.649657
3348.000000	99.650069
3347.000000	99.650465
3346.000000	99.650846
3345.000000	99.651218
3344.000000	99.651587
3343.000000	99.651965
3342.000000	99.652364
3341.000000	99.652791
3340.000000	99.653249
3339.000000	99.653735
3338.000000	99.654240
3337.000000	99.654754
3336.000000	99.655267
3335.000000	99.655773
3334.000000	99.656272
3333.000000	99.656768
3332.000000	99.657269
3331.000000	99.657782
3330.000000	99.658311
3329.000000	99.658863
3328.000000	99.659439
3327.000000	99.660040
3326.000000	99.660659
3325.000000	99.661288
3324.000000	99.661919
3323.000000	99.662551
3322.000000	99.663187
3321.000000	99.663830
3320.000000	99.664481
3319.000000	99.665137
3318.000000	99.665798
3317.000000	99.666450
3316.000000	99.667077
3315.000000	99.667678
3314.000000	99.668279
3313.000000	99.668911
3312.000000	99.669583
3311.000000	99.670266
3310.000000	99.670912
3309.000000	99.671493
3308.000000	99.672010
3307.000000	99.672501
3306.000000	99.673027
3305.000000	99.673657
3304.000000	99.674438
3303.000000	99.675355
3302.000000	99.676321
3301.000000	99.677198
3300.000000	99.677872
3299.000000	99.678321
3298.000000	99.678643
3297.000000	99.678973
3296.000000	99.679347
3295.000000	99.679692
3294.000000	99.679976
3293.000000	99.680340
3292.000000	99.681005
3291.000000	99.682019
3290.000000	99.683135
3289.000000	99.683990
3288.000000	99.684409
3287.000000	99.684528
3286.000000	99.684687
3285.000000	99.685147
3284.000000	99.685843
3283.000000	99.686388
3282.000000	99.686408
3281.000000	99.685866
3280.000000	99.685075
3279.000000	99.684418
3278.000000	99.684137
3277.000000	99.684368
3276.000000	99.685098
3275.000000	99.686031
3274.000000	99.686716
3273.000000	99.687007
3272.000000	99.687295
3271.000000	99.688093
3270.000000	99.689391
3269.000000	99.690588
3268.000000	99.691110
3267.000000	99.690917
3266.000000	99.690460
3265.000000	99.690184
3264.000000	99.690118
3263.000000	99.689911
3262.000000	99.689207
3261.000000	99.688047
3260.000000	99.686919
3259.000000	99.686342
3258.000000	99.686376
3257.000000	99.686598
3256.000000	99.686583
3255.000000	99.686349
3254.000000	99.686199
3253.000000	99.686280
3252.000000	99.686535
3251.000000	99.686990
3250.000000	99.687780
3249.000000	99.688866
3248.000000	99.689911
3247.000000	99.690543
3246.000000	99.690676
3245.000000	99.690515
3244.000000	99.690351
3243.000000	99.690386
3242.000000	99.690712
3241.000000	99.691307
3240.000000	99.692006
3239.000000	99.692528
3238.000000	99.692667
3237.000000	99.692444
3236.000000	99.692090
3235.000000	99.691897
3234.000000	99.692006
3233.000000	99.692356
3232.000000	99.692770
3231.000000	99.693087
3230.000000	99.693298
3229.000000	99.693505
3228.000000	99.693800
3227.000000	99.694184
3226.000000	99.694590
3225.000000	99.694949
3224.000000	99.695246
3223.000000	99.695507
3222.000000	99.695767
3221.000000	99.696042
3220.000000	99.696334
3219.000000	99.696646
3218.000000	99.696981
3217.000000	99.697327
3216.000000	99.697652
3215.000000	99.697931
3214.000000	99.698170
3213.000000	99.698404
3212.000000	99.698679
3211.000000	99.699014
3210.000000	99.699397
3209.000000	99.699792
3208.000000	99.700166
3207.000000	99.700515
3206.000000	99.700860
3205.000000	99.701231
3204.000000	99.701639
3203.000000	99.702061
3202.000000	99.702461
3201.000000	99.702821
3200.000000	99.703157
3199.000000	99.703499
3198.000000	99.703874
3197.000000	99.704302
3196.000000	99.704797
3195.000000	99.705346
3194.000000	99.705895
3193.000000	99.706396
3192.000000	99.706853
3191.000000	99.707296
3190.000000	99.707723
3189.000000	99.708106
3188.000000	99.708478
3187.000000	99.708927
3186.000000	99.709486
3185.000000	99.710071
3184.000000	99.710597
3183.000000	99.711114
3182.000000	99.711770
3181.000000	99.712635
3180.000000	99.713593
3179.000000	99.714390
3178.000000	99.714829
3177.000000	99.714917
3176.000000	99.714886
3175.000000	99.715038
3174.000000	99.715505
3173.000000	99.716176
3172.000000	99.716797
3171.000000	99.717208
3170.000000	99.717484
3169.000000	99.717814
3168.000000	99.718309
3167.000000	99.718889
3166.000000	99.719377
3165.000000	99.719687
3164.000000	99.719945
3163.000000	99.720327
3162.000000	99.720800
3161.000000	99.721133
3160.000000	99.721189
3159.000000	99.721139
3158.000000	99.721297
3157.000000	99.721784
3156.000000	99.722504
3155.000000	99.723361
3154.000000	99.724329
3153.000000	99.725300
3152.000000	99.726054
3151.000000	99.726489
3150.000000	99.726743
3149.000000	99.727051
3148.000000	99.727490
3147.000000	99.727975
3146.000000	99.728441
3145.000000	99.728917
3144.000000	99.729441
3143.000000	99.730015
3142.000000	99.730626
3141.000000	99.731264
3140.000000	99.731875
3139.000000	99.732398
3138.000000	99.732859
3137.000000	99.733391
3136.000000	99.734122
3135.000000	99.735058
3134.000000	99.736074
3133.000000	99.737021
3132.000000	99.737820
3131.000000	99.738483
3130.000000	99.739093
3129.000000	99.739757
3128.000000	99.740549
3127.000000	99.741416
3126.000000	99.742135
3125.000000	99.742514
3124.000000	99.742691
3123.000000	99.743094
3122.000000	99.743938
3121.000000	99.744975
3120.000000	99.745865
3119.000000	99.746629
3118.000000	99.747562
3117.000000	99.748795
3116.000000	99.750112
3115.000000	99.751106
3114.000000	99.751420
3113.000000	99.750991
3112.000000	99.750258
3111.000000	99.750025
3110.000000	99.750897
3109.000000	99.752771
3108.000000	99.754862
3107.000000	99.756274
3106.000000	99.756647
3105.000000	99.756357
3104.000000	99.756089
3103.000000	99.756136
3102.000000	99.756234
3101.000000	99.756274
3100.000000	99.756984
3099.000000	99.759368
3098.000000	99.763271
3097.000000	99.766866
3096.000000	99.768111
3095.000000	99.766579
3094.000000	99.763660
3093.000000	99.761149
3092.000000	99.759697
3091.000000	99.758629
3090.000000	99.756926
3089.000000	99.754246
3088.000000	99.751234
3087.000000	99.748976
3086.000000	99.748132
3085.000000	99.748619
3084.000000	99.750102
3083.000000	99.752506
3082.000000	99.755782
3081.000000	99.759440
3080.000000	99.762747
3079.000000	99.765459
3078.000000	99.767986
3077.000000	99.770704
3076.000000	99.773314
3075.000000	99.775068
3074.000000	99.775448
3073.000000	99.774509
3072.000000	99.772832
3071.000000	99.771325
3070.000000	99.770763
3069.000000	99.771217
3068.000000	99.771878
3067.000000	99.771863
3066.000000	99.771377
3065.000000	99.771823
3064.000000	99.774420
3063.000000	99.778800
3062.000000	99.783067
3061.000000	99.785332
3060.000000	99.785037
3059.000000	99.782911
3058.000000	99.780140
3057.000000	99.777626
3056.000000	99.775817
3055.000000	99.774842
3054.000000	99.774611
3053.000000	99.774964
3052.000000	99.775815
3051.000000	99.777186
3050.000000	99.779034
3049.000000	99.781082
3048.000000	99.782972
3047.000000	99.784528
3046.000000	99.785686
3045.000000	99.786220
3044.000000	99.785756
3043.000000	99.784231
3042.000000	99.782234
3041.000000	99.780678
3040.000000	99.780062
3039.000000	99.780172
3038.000000	99.780489
3037.000000	99.780741
3036.000000	99.781037
3035.000000	99.781774
3034.000000	99.783607
3033.000000	99.787187
3032.000000	99.792421
3031.000000	99.797802
3030.000000	99.801115
3029.000000	99.801319
3028.000000	99.799516
3027.000000	99.798005
3026.000000	99.798081
3025.000000	99.799101
3024.000000	99.799768
3023.000000	99.799843
3022.000000	99.800204
3021.000000	99.801394
3020.000000	99.802713
3019.000000	99.803072
3018.000000	99.802624
3017.000000	99.803011
3016.000000	99.805592
3015.000000	99.809585
3014.000000	99.812461
3013.000000	99.812620
3012.000000	99.811465
3011.000000	99.812295
3010.000000	99.817048
3009.000000	99.824491
3008.000000	99.831389
3007.000000	99.835345
3006.000000	99.836472
3005.000000	99.836727
3004.000000	99.838021
3003.000000	99.840848
3002.000000	99.844476
3001.000000	99.848215
3000.000000	99.852277
2999.000000	99.857234
2998.000000	99.862819
2997.000000	99.867670
2996.000000	99.870368
2995.000000	99.870564
2994.000000	99.869220
2993.000000	99.868277
2992.000000	99.870018
2991.000000	99.875824
2990.000000	99.884655
2989.000000	99.893112
2988.000000	99.898253
2987.000000	99.900573
2986.000000	99.903534
2985.000000	99.910171
2984.000000	99.920885
2983.000000	99.934065
2982.000000	99.947488
2981.000000	99.958900
2980.000000	99.966833
2979.000000	99.972022
2978.000000	99.977146
2977.000000	99.983931
2976.000000	99.991039
2975.000000	99.996008
2974.000000	99.998862
2973.000000	100.002426
2972.000000	100.009033
2971.000000	100.018191
2970.000000	100.027822
2969.000000	100.036589
2968.000000	100.044341
2967.000000	100.051247
2966.000000	100.057500
2965.000000	100.063456
2964.000000	100.069241
2963.000000	100.074333
2962.000000	100.078049
2961.000000	100.080399
2960.000000	100.082200
2959.000000	100.084540
2958.000000	100.088184
2957.000000	100.092833
2956.000000	100.096600
2955.000000	100.096939
2954.000000	100.093095
2953.000000	100.087559
2952.000000	100.084321
2951.000000	100.085432
2950.000000	100.089543
2949.000000	100.093800
2948.000000	100.097042
2947.000000	100.101372
2946.000000	100.110800
2945.000000	100.127966
2944.000000	100.151682
2943.000000	100.177738
2942.000000	100.202490
2941.000000	100.225547
2940.000000	100.248744
2939.000000	100.273207
2938.000000	100.298378
2937.000000	100.323679
2936.000000	100.349753
2935.000000	100.377350
2934.000000	100.405694
2933.000000	100.432886
2932.000000	100.457969
2931.000000	100.481974
2930.000000	100.506456
2929.000000	100.530955
2928.000000	100.552391
2927.000000	100.567626
2926.000000	100.576434
2925.000000	100.581093
2924.000000	100.582833
2923.000000	100.579850
2922.000000	100.569576
2921.000000	100.551562
2920.000000	100.526746
2919.000000	100.495196
2918.000000	100.457082
2917.000000	100.415749
2916.000000	100.377172
2915.000000	100.345128
2914.000000	100.318339
2913.000000	100.293435
2912.000000	100.269389
2911.000000	100.247861
2910.000000	100.230131
2909.000000	100.215025
2908.000000	100.199708
2907.000000	100.181980
2906.000000	100.162276
2905.000000	100.143856
2904.000000	100.130156
2903.000000	100.121443
2902.000000	100.114647
2901.000000	100.107480
2900.000000	100.101164
2899.000000	100.097935
2898.000000	100.097064
2897.000000	100.095082
2896.000000	100.089770
2895.000000	100.082200
2894.000000	100.074750
2893.000000	100.068558
2892.000000	100.063335
2891.000000	100.058463
2890.000000	100.053746
2889.000000	100.049789
2888.000000	100.047687
2887.000000	100.047410
2886.000000	100.046588
2885.000000	100.042481
2884.000000	100.035750
2883.000000	100.030796
2882.000000	100.031212
2881.000000	100.035869
2880.000000	100.040686
2879.000000	100.043523
2878.000000	100.045560
2877.000000	100.048054
2876.000000	100.049941
2875.000000	100.049867
2874.000000	100.049182
2873.000000	100.050797
2872.000000	100.055084
2871.000000	100.058794
2870.000000	100.059137
2869.000000	100.057796
2868.000000	100.059370
2867.000000	100.066311
2866.000000	100.076988
2865.000000	100.088858
2864.000000	100.101876
2863.000000	100.117803
2862.000000	100.137440
2861.000000	100.159992
2860.000000	100.184466
2859.000000	100.210038
2858.000000	100.234999
2857.000000	100.256729
2856.000000	100.273377
2855.000000	100.284968
2854.000000	100.292351
2853.000000	100.295325
2852.000000	100.292120
2851.000000	100.280696
2850.000000	100.260405
2849.000000	100.232383
2848.000000	100.198486
2847.000000	100.160558
2846.000000	100.121298
2845.000000	100.085042
2844.000000	100.055870
2843.000000	100.034557
2842.000000	100.018617
2841.000000	100.005732
2840.000000	99.995785
2839.000000	99.988774
2838.000000	99.982592
2837.000000	99.974743
2836.000000	99.965355
2835.000000	99.956663
2834.000000	99.949998
2833.000000	99.944945
2832.000000	99.940966
2831.000000	99.937996
2830.000000	99.935535
2829.000000	99.932892
2828.000000	99.930389
2827.000000	99.928735
2826.000000	99.927353
2825.000000	99.925321
2824.000000	99.924068
2823.000000	99.926573
2822.000000	99.932725
2821.000000	99.937559
2820.000000	99.936054
2819.000000	99.928841
2818.000000	99.921746
2817.000000	99.920235
2816.000000	99.925132
2815.000000	99.932664
2814.000000	99.937359
2813.000000	99.935707
2812.000000	99.928594
2811.000000	99.920370
2810.000000	99.914980
2809.000000	99.913122
2808.000000	99.913276
2807.000000	99.914418
2806.000000	99.916668
2805.000000	99.919929
2804.000000	99.923290
2803.000000	99.925945
2802.000000	99.927840
2801.000000	99.929205
2800.000000	99.930066
2799.000000	99.930322
2798.000000	99.929795
2797.000000	99.928238
2796.000000	99.925956
2795.000000	99.924494
2794.000000	99.925872
2793.000000	99.930592
2792.000000	99.936611
2791.000000	99.940789
2790.000000	99.941578
2789.000000	99.940079
2788.000000	99.938599
2787.000000	99.938389
2786.000000	99.938969
2785.000000	99.939393
2784.000000	99.939523
2783.000000	99.939795
2782.000000	99.940257
2781.000000	99.940427
2780.000000	99.940039
2779.000000	99.939473
2778.000000	99.939288
2777.000000	99.939571
2776.000000	99.939951
2775.000000	99.940156
2774.000000	99.940336
2773.000000	99.940860
2772.000000	99.941970
2771.000000	99.943645
2770.000000	99.945566
2769.000000	99.947328
2768.000000	99.948781
2767.000000	99.950069
2766.000000	99.951326
2765.000000	99.952473
2764.000000	99.953332
2763.000000	99.953906
2762.000000	99.954490
2761.000000	99.955518
2760.000000	99.957239
2759.000000	99.959436
2758.000000	99.961419
2757.000000	99.962522
2756.000000	99.962633
2755.000000	99.962274
2754.000000	99.962152
2753.000000	99.962561
2752.000000	99.963376
2751.000000	99.964410
2750.000000	99.965635
2749.000000	99.967132
2748.000000	99.968914
2747.000000	99.970788
2746.000000	99.972399
2745.000000	99.973496
2744.000000	99.974188
2743.000000	99.974875
2742.000000	99.975828
2741.000000	99.976941
2740.000000	99.977980
2739.000000	99.978950
2738.000000	99.980088
2737.000000	99.981530
2736.000000	99.983071
2735.000000	99.984291
2734.000000	99.984899
2733.000000	99.985001
2732.000000	99.985062
2731.000000	99.985472
2730.000000	99.986198
2729.000000	99.986953
2728.000000	99.987584
2727.000000	99.988222
2726.000000	99.989002
2725.000000	99.989789
2724.000000	99.990325
2723.000000	99.990629
2722.000000	99.991041
2721.000000	99.991843
2720.000000	99.992994
2719.000000	99.994242
2718.000000	99.995317
2717.000000	99.995974
2716.000000	99.996080
2715.000000	99.995775
2714.000000	99.995465
2713.000000	99.995489
2712.000000	99.995839
2711.000000	99.996309
2710.000000	99.996752
2709.000000	99.997125
2708.000000	99.997382
2707.000000	99.997510
2706.000000	99.997667
2705.000000	99.998106
2704.000000	99.998888
2703.000000	99.999711
2702.000000	100.000192
2701.000000	100.000314
2700.000000	100.000452
2699.000000	100.000902
2698.000000	100.001458
2697.000000	100.001598
2696.000000	100.001130
2695.000000	100.000597
2694.000000	100.000838
2693.000000	100.002104
2692.000000	100.003698
2691.000000	100.004543
2690.000000	100.004226
2689.000000	100.003334
2688.000000	100.002811
2687.000000	100.002957
2686.000000	100.003329
2685.000000	100.003557
2684.000000	100.003945
2683.000000	100.005025
2682.000000	100.006784
2681.000000	100.008611
2680.000000	100.009959
2679.000000	100.010812
2678.000000	100.011481
2677.000000	100.012204
2676.000000	100.013070
2675.000000	100.014122
2674.000000	100.015358
2673.000000	100.016666
2672.000000	100.017857
2671.000000	100.018767
2670.000000	100.019332
2669.000000	100.019717
2668.000000	100.020340
2667.000000	100.021581
2666.000000	100.023321
2665.000000	100.024828
2664.000000	100.025263
2663.000000	100.024307
2662.000000	100.022419
2661.000000	100.020678
2660.000000	100.020180
2659.000000	100.021275
2658.000000	100.023239
2657.000000	100.024824
2656.000000	100.025351
2655.000000	100.025092
2654.000000	100.024641
2653.000000	100.024264
2652.000000	100.023964
2651.000000	100.023759
2650.000000	100.023630
2649.000000	100.023534
2648.000000	100.023693
2647.000000	100.024439
2646.000000	100.025480
2645.000000	100.025867
2644.000000	100.025106
2643.000000	100.023901
2642.000000	100.023332
2641.000000	100.023606
2640.000000	100.024167
2639.000000	100.024679
2638.000000	100.025229
2637.000000	100.025746
2636.000000	100.025986
2635.000000	100.026051
2634.000000	100.026186
2633.000000	100.026139
2632.000000	100.025493
2631.000000	100.024608
2630.000000	100.024285
2629.000000	100.024371
2628.000000	100.023712
2627.000000	100.021907
2626.000000	100.020176
2625.000000	100.019789
2624.000000	100.020510
2623.000000	100.021405
2622.000000	100.022623
2621.000000	100.025190
2620.000000	100.029239
2619.000000	100.033432
2618.000000	100.036220
2617.000000	100.037206
2616.000000	100.037132
2615.000000	100.036960
2614.000000	100.037092
2613.000000	100.037255
2612.000000	100.037015
2611.000000	100.036479
2610.000000	100.036416
2609.000000	100.037480
2608.000000	100.039389
2607.000000	100.041098
2606.000000	100.041880
2605.000000	100.041995
2604.000000	100.042174
2603.000000	100.042662
2602.000000	100.043013
2601.000000	100.042781
2600.000000	100.042090
2599.000000	100.041422
2598.000000	100.041114
2597.000000	100.041241
2596.000000	100.041809
2595.000000	100.042715
2594.000000	100.043584
2593.000000	100.043997
2592.000000	100.043971
2591.000000	100.043915
2590.000000	100.044008
2589.000000	100.044014
2588.000000	100.043794
2587.000000	100.043616
2586.000000	100.043798
2585.000000	100.044270
2584.000000	100.044770
2583.000000	100.045291
2582.000000	100.046047
2581.000000	100.047031
2580.000000	100.047851
2579.000000	100.048104
2578.000000	100.047817
2577.000000	100.047481
2576.000000	100.047639
2575.000000	100.048460
2574.000000	100.049657
2573.000000	100.050681
2572.000000	100.051108
2571.000000	100.050948
2570.000000	100.050664
2569.000000	100.050821
2568.000000	100.051647
2567.000000	100.052934
2566.000000	100.054235
2565.000000	100.055147
2564.000000	100.055517
2563.000000	100.055527
2562.000000	100.055603
2561.000000	100.056127
2560.000000	100.057183
2559.000000	100.058599
2558.000000	100.060180
2557.000000	100.061854
2556.000000	100.063598
2555.000000	100.065272
2554.000000	100.066558
2553.000000	100.067159
2552.000000	100.067181
2551.000000	100.067329
2550.000000	100.068455
2549.000000	100.070758
2548.000000	100.073394
2547.000000	100.075124
2546.000000	100.075534
2545.000000	100.075375
2544.000000	100.075788
2543.000000	100.077099
2542.000000	100.078664
2541.000000	100.079747
2540.000000	100.080240
2539.000000	100.080473
2538.000000	100.080603
2537.000000	100.080475
2536.000000	100.080068
2535.000000	100.079763
2534.000000	100.080004
2533.000000	100.080831
2532.000000	100.081856
2531.000000	100.082660
2530.000000	100.083161
2529.000000	100.083609
2528.000000	100.084298
2527.000000	100.085308
2526.000000	100.086475
2525.000000	100.087551
2524.000000	100.088427
2523.000000	100.089168
2522.000000	100.089873
2521.000000	100.090554
2520.000000	100.091173
2519.000000	100.091717
2518.000000	100.092211
2517.000000	100.092698
2516.000000	100.093241
2515.000000	100.093902
2514.000000	100.094647
2513.000000	100.095294
2512.000000	100.095633
2511.000000	100.095650
2510.000000	100.095630
2509.000000	100.095959
2508.000000	100.096769
2507.000000	100.097856
2506.000000	100.098826
2505.000000	100.099500
2504.000000	100.099999
2503.000000	100.100570
2502.000000	100.101349
2501.000000	100.102269
2500.000000	100.103167
2499.000000	100.103928
2498.000000	100.104511
2497.000000	100.104913
2496.000000	100.105184
2495.000000	100.105487
2494.000000	100.106024
2493.000000	100.106861
2492.000000	100.107806
2491.000000	100.108539
2490.000000	100.108868
2489.000000	100.108854
2488.000000	100.108766
2487.000000	100.108913
2486.000000	100.109460
2485.000000	100.110325
2484.000000	100.111201
2483.000000	100.111782
2482.000000	100.112060
2481.000000	100.112369
2480.000000	100.113064
2479.000000	100.114097
2478.000000	100.114979
2477.000000	100.115200
2476.000000	100.114677
2475.000000	100.113814
2474.000000	100.113192
2473.000000	100.113253
2472.000000	100.114190
2471.000000	100.115883
2470.000000	100.117911
2469.000000	100.119800
2468.000000	100.121426
2467.000000	100.123008
2466.000000	100.124614
2465.000000	100.125886
2464.000000	100.126475
2463.000000	100.126573
2462.000000	100.126796
2461.000000	100.127451
2460.000000	100.128130
2459.000000	100.128213
2458.000000	100.127667
2457.000000	100.127199
2456.000000	100.127577
2455.000000	100.128856
2454.000000	100.130408
2453.000000	100.131684
2452.000000	100.132782
2451.000000	100.134057
2450.000000	100.135440
2449.000000	100.136558
2448.000000	100.137419
2447.000000	100.138475
2446.000000	100.139851
2445.000000	100.140998
2444.000000	100.141398
2443.000000	100.141244
2442.000000	100.141111
2441.000000	100.141214
2440.000000	100.141451
2439.000000	100.141931
2438.000000	100.142933
2437.000000	100.144337
2436.000000	100.145560
2435.000000	100.146289
2434.000000	100.146952
2433.000000	100.148193
2432.000000	100.150006
2431.000000	100.151658
2430.000000	100.152493
2429.000000	100.152602
2428.000000	100.152643
2427.000000	100.153074
2426.000000	100.153673
2425.000000	100.153955
2424.000000	100.153891
2423.000000	100.153949
2422.000000	100.154442
2421.000000	100.155056
2420.000000	100.155211
2419.000000	100.154736
2418.000000	100.154085
2417.000000	100.153914
2416.000000	100.154541
2415.000000	100.155734
2414.000000	100.156877
2413.000000	100.157454
2412.000000	100.157432
2411.000000	100.157261
2410.000000	100.157527
2409.000000	100.158569
2408.000000	100.160259
2407.000000	100.162028
2406.000000	100.163203
2405.000000	100.163577
2404.000000	100.163594
2403.000000	100.163864
2402.000000	100.164446
2401.000000	100.164871
2400.000000	100.164859
2399.000000	100.164663
2398.000000	100.164665
2397.000000	100.164924
2396.000000	100.165244
2395.000000	100.165464
2394.000000	100.165529
2393.000000	100.165435
2392.000000	100.165238
2391.000000	100.165036
2390.000000	100.164866
2389.000000	100.164695
2388.000000	100.164508
2387.000000	100.164340
2386.000000	100.164217
2385.000000	100.164135
2384.000000	100.164099
2383.000000	100.164111
2382.000000	100.164139
2381.000000	100.164126
2380.000000	100.164050
2379.000000	100.163933
2378.000000	100.163806
2377.000000	100.163677
2376.000000	100.163540
2375.000000	100.163393
2374.000000	100.163244
2373.000000	100.163100
2372.000000	100.162964
2371.000000	100.162833
2370.000000	100.162692
2369.000000	100.162531
2368.000000	100.162350
2367.000000	100.162157
2366.000000	100.161964
2365.000000	100.161775
2364.000000	100.161589
2363.000000	100.161410
2362.000000	100.161247
2361.000000	100.161107
2360.000000	100.160988
2359.000000	100.160883
2358.000000	100.160788
2357.000000	100.160702
2356.000000	100.160632
2355.000000	100.160585
2354.000000	100.160565
2353.000000	100.160575
2352.000000	100.160610
2351.000000	100.160665
2350.000000	100.160736
2349.000000	100.160824
2348.000000	100.160934
2347.000000	100.161070
2346.000000	100.161235
2345.000000	100.161422
2344.000000	100.161622
2343.000000	100.161826
2342.000000	100.162027
2341.000000	100.162225
2340.000000	100.162424
2339.000000	100.162629
2338.000000	100.162845
2337.000000	100.163075
2336.000000	100.163317
2335.000000	100.163568
2334.000000	100.163826
2333.000000	100.164094
2332.000000	100.164367
2331.000000	100.164643
2330.000000	100.164916
2329.000000	100.165157
2328.000000	100.165322
2327.000000	100.165456
2326.000000	100.165716
2325.000000	100.166182
2324.000000	100.166768
2323.000000	100.167317
2322.000000	100.167809
2321.000000	100.168324
2320.000000	100.168885
2319.000000	100.169432
2318.000000	100.169901
2317.000000	100.170275
2316.000000	100.170577
2315.000000	100.170886
2314.000000	100.171311
2313.000000	100.171875
2312.000000	100.172479
2311.000000	100.172986
2310.000000	100.173357
2309.000000	100.173655
2308.000000	100.173975
2307.000000	100.174365
2306.000000	100.174820
2305.000000	100.175293
2304.000000	100.175721
2303.000000	100.176094
2302.000000	100.176482
2301.000000	100.176974
2300.000000	100.177575
2299.000000	100.178203
2298.000000	100.178765
2297.000000	100.179214
2296.000000	100.179543
2295.000000	100.179782
2294.000000	100.180029
2293.000000	100.180401
2292.000000	100.180947
2291.000000	100.181608
2290.000000	100.182273
2289.000000	100.182882
2288.000000	100.183442
2287.000000	100.184009
2286.000000	100.184642
2285.000000	100.185355
2284.000000	100.186111
2283.000000	100.186834
2282.000000	100.187418
2281.000000	100.187751
2280.000000	100.187780
2279.000000	100.187611
2278.000000	100.187518
2277.000000	100.187741
2276.000000	100.188318
2275.000000	100.189101
2274.000000	100.189893
2273.000000	100.190577
2272.000000	100.191105
2271.000000	100.191441
2270.000000	100.191588
2269.000000	100.191608
2268.000000	100.191580
2267.000000	100.191573
2266.000000	100.191673
2265.000000	100.191977
2264.000000	100.192505
2263.000000	100.193119
2262.000000	100.193597
2261.000000	100.193834
2260.000000	100.193964
2259.000000	100.194224
2258.000000	100.194667
2257.000000	100.195047
2256.000000	100.195055
2255.000000	100.194648
2254.000000	100.194111
2253.000000	100.193815
2252.000000	100.193898
2251.000000	100.194205
2250.000000	100.194443
2249.000000	100.194418
2248.000000	100.194144
2247.000000	100.193797
2246.000000	100.193561
2245.000000	100.193507
2244.000000	100.193567
2243.000000	100.193604
2242.000000	100.193513
2241.000000	100.193319
2240.000000	100.193226
2239.000000	100.193480
2238.000000	100.194141
2237.000000	100.194954
2236.000000	100.195540
2235.000000	100.195735
2234.000000	100.195642
2233.000000	100.195466
2232.000000	100.195337
2231.000000	100.195333
2230.000000	100.195503
2229.000000	100.195781
2228.000000	100.195988
2227.000000	100.195988
2226.000000	100.195801
2225.000000	100.195550
2224.000000	100.195381
2223.000000	100.195476
2222.000000	100.195985
2221.000000	100.196861
2220.000000	100.197830
2219.000000	100.198594
2218.000000	100.199017
2217.000000	100.199137
2216.000000	100.199137
2215.000000	100.199317
2214.000000	100.199924
2213.000000	100.200930
2212.000000	100.202009
2211.000000	100.202832
2210.000000	100.203357
2209.000000	100.203781
2208.000000	100.204285
2207.000000	100.204897
2206.000000	100.205568
2205.000000	100.206245
2204.000000	100.206882
2203.000000	100.207434
2202.000000	100.207864
2201.000000	100.208169
2200.000000	100.208428
2199.000000	100.208814
2198.000000	100.209469
2197.000000	100.210357
2196.000000	100.211233
2195.000000	100.211844
2194.000000	100.212155
2193.000000	100.212317
2192.000000	100.212494
2191.000000	100.212737
2190.000000	100.213051
2189.000000	100.213465
2188.000000	100.213997
2187.000000	100.214609
2186.000000	100.215231
2185.000000	100.215810
2184.000000	100.216336
2183.000000	100.216832
2182.000000	100.217330
2181.000000	100.217850
2180.000000	100.218389
2179.000000	100.218936
2178.000000	100.219476
2177.000000	100.219997
2176.000000	100.220493
2175.000000	100.220972
2174.000000	100.221449
2173.000000	100.221933
2172.000000	100.222422
2171.000000	100.222911
2170.000000	100.223398
2169.000000	100.223884
2168.000000	100.224373
2167.000000	100.224869
2166.000000	100.225375
2165.000000	100.225890
2164.000000	100.226412
2163.000000	100.226939
2162.000000	100.227472
2161.000000	100.228013
2160.000000	100.228558
2159.000000	100.229099
2158.000000	100.229633
2157.000000	100.230162
2156.000000	100.230700
2155.000000	100.231259
2154.000000	100.231848
2153.000000	100.232470
2152.000000	100.233119
2151.000000	100.233787
2150.000000	100.234465
2149.000000	100.235145
2148.000000	100.235826
2147.000000	100.236509
2146.000000	100.237190
2145.000000	100.237868
2144.000000	100.238545
2143.000000	100.239228
2142.000000	100.239925
2141.000000	100.240641
2140.000000	100.241368
2139.000000	100.242096
2138.000000	100.242832
2137.000000	100.243612
2136.000000	100.244454
2135.000000	100.245330
2134.000000	100.246173
2133.000000	100.246924
2132.000000	100.247566
2131.000000	100.248141
2130.000000	100.248729
2129.000000	100.249404
2128.000000	100.250181
2127.000000	100.251022
2126.000000	100.251879
2125.000000	100.252728
2124.000000	100.253570
2123.000000	100.254416
2122.000000	100.255279
2121.000000	100.256147
2120.000000	100.256968
2119.000000	100.257667
2118.000000	100.258232
2117.000000	100.258793
2116.000000	100.259601
2115.000000	100.260863
2114.000000	100.262541
2113.000000	100.264289
2112.000000	100.265662
2111.000000	100.266430
2110.000000	100.266646
2109.000000	100.266560
2108.000000	100.266499
2107.000000	100.266754
2106.000000	100.267469
2105.000000	100.268581
2104.000000	100.269948
2103.000000	100.271552
2102.000000	100.273429
2101.000000	100.275388
2100.000000	100.277001
2099.000000	100.277952
2098.000000	100.278300
2097.000000	100.278388
2096.000000	100.278563
2095.000000	100.278992
2094.000000	100.279677
2093.000000	100.280508
2092.000000	100.281360
2091.000000	100.282207
2090.000000	100.283116
2089.000000	100.284126
2088.000000	100.285170
2087.000000	100.286130
2086.000000	100.286923
2085.000000	100.287524
2084.000000	100.288007
2083.000000	100.288575
2082.000000	100.289414
2081.000000	100.290467
2080.000000	100.291451
2079.000000	100.292173
2078.000000	100.292755
2077.000000	100.293479
2076.000000	100.294478
2075.000000	100.295609
2074.000000	100.296553
2073.000000	100.297012
2072.000000	100.296937
2071.000000	100.296622
2070.000000	100.296474
2069.000000	100.296678
2068.000000	100.297160
2067.000000	100.297837
2066.000000	100.298688
2065.000000	100.299526
2064.000000	100.299958
2063.000000	100.299750
2062.000000	100.299110
2061.000000	100.298550
2060.000000	100.298489
2059.000000	100.299013
2058.000000	100.299883
2057.000000	100.300667
2056.000000	100.301017
2055.000000	100.300929
2054.000000	100.300680
2053.000000	100.300486
2052.000000	100.300372
2051.000000	100.300373
2050.000000	100.300549
2049.000000	100.300659
2048.000000	100.300208
2047.000000	100.299024
2046.000000	100.297538
2045.000000	100.296355
2044.000000	100.295668
2043.000000	100.295327
2042.000000	100.295175
2041.000000	100.295069
2040.000000	100.294772
2039.000000	100.294132
2038.000000	100.293316
2037.000000	100.292665
2036.000000	100.292277
2035.000000	100.291913
2034.000000	100.291324
2033.000000	100.290508
2032.000000	100.289618
2031.000000	100.288808
2030.000000	100.288201
2029.000000	100.287835
2028.000000	100.287592
2027.000000	100.287246
2026.000000	100.286695
2025.000000	100.286015
2024.000000	100.285323
2023.000000	100.284678
2022.000000	100.284124
2021.000000	100.283699
2020.000000	100.283360
2019.000000	100.282972
2018.000000	100.282444
2017.000000	100.281817
2016.000000	100.281198
2015.000000	100.280636
2014.000000	100.280138
2013.000000	100.279727
2012.000000	100.279401
2011.000000	100.279083
2010.000000	100.278655
2009.000000	100.278091
2008.000000	100.277481
2007.000000	100.276939
2006.000000	100.276517
2005.000000	100.276202
2004.000000	100.275916
2003.000000	100.275514
2002.000000	100.274886
2001.000000	100.274116
2000.000000	100.273426
1999.000000	100.272915
1998.000000	100.272507
1997.000000	100.272218
1996.000000	100.272265
1995.000000	100.272721
1994.000000	100.273226
1993.000000	100.273256
1992.000000	100.272737
1991.000000	100.272174
1990.000000	100.272004
1989.000000	100.272032
1988.000000	100.271778
1987.000000	100.271270
1986.000000	100.271147
1985.000000	100.271864
1984.000000	100.273111
1983.000000	100.274098
1982.000000	100.274419
1981.000000	100.274291
1980.000000	100.274082
1979.000000	100.273891
1978.000000	100.273638
1977.000000	100.273256
1976.000000	100.272643
1975.000000	100.271675
1974.000000	100.270410
1973.000000	100.269195
1972.000000	100.268508
1971.000000	100.268740
1970.000000	100.270012
1969.000000	100.271947
1968.000000	100.273699
1967.000000	100.274589
1966.000000	100.274693
1965.000000	100.274519
1964.000000	100.274240
1963.000000	100.273668
1962.000000	100.272893
1961.000000	100.272400
1960.000000	100.272416
1959.000000	100.272554
1958.000000	100.272405
1957.000000	100.272148
1956.000000	100.272206
1955.000000	100.272546
1954.000000	100.272775
1953.000000	100.272791
1952.000000	100.272950
1951.000000	100.273637
1950.000000	100.274907
1949.000000	100.276394
1948.000000	100.277364
1947.000000	100.277133
1946.000000	100.275780
1945.000000	100.274235
1944.000000	100.273335
1943.000000	100.272981
1942.000000	100.272547
1941.000000	100.271715
1940.000000	100.270412
1939.000000	100.268532
1938.000000	100.266317
1937.000000	100.264644
1936.000000	100.264364
1935.000000	100.265425
1934.000000	100.266968
1933.000000	100.268082
1932.000000	100.268226
1931.000000	100.267095
1930.000000	100.264739
1929.000000	100.261863
1928.000000	100.259517
1927.000000	100.258241
1926.000000	100.257749
1925.000000	100.257596
1924.000000	100.257674
1923.000000	100.258061
1922.000000	100.258741
1921.000000	100.259650
1920.000000	100.260700
1919.000000	100.261357
1918.000000	100.260579
1917.000000	100.257826
1916.000000	100.253641
1915.000000	100.249011
1914.000000	100.244818
1913.000000	100.241759
1912.000000	100.239993
1911.000000	100.238705
1910.000000	100.236539
1909.000000	100.232837
1908.000000	100.228243
1907.000000	100.223935
1906.000000	100.220707
1905.000000	100.219043
1904.000000	100.219240
1903.000000	100.220892
1902.000000	100.222570
1901.000000	100.222630
1900.000000	100.220399
1899.000000	100.216491
1898.000000	100.212347
1897.000000	100.209552
1896.000000	100.209038
1895.000000	100.210354
1894.000000	100.211816
1893.000000	100.211916
1892.000000	100.210374
1891.000000	100.207595
1890.000000	100.203925
1889.000000	100.200042
1888.000000	100.197240
1887.000000	100.196415
1886.000000	100.197226
1885.000000	100.198437
1884.000000	100.198899
1883.000000	100.198133
1882.000000	100.196203
1881.000000	100.193594
1880.000000	100.191148
1879.000000	100.189700
1878.000000	100.189535
1877.000000	100.190203
1876.000000	100.190869
1875.000000	100.190824
1874.000000	100.189867
1873.000000	100.188506
1872.000000	100.187671
1871.000000	100.187980
1870.000000	100.189121
1869.000000	100.190183
1868.000000	100.190864
1867.000000	100.191398
1866.000000	100.191823
1865.000000	100.192626
1864.000000	100.194915
1863.000000	100.199081
1862.000000	100.203917
1861.000000	100.207690
1860.000000	100.210015
1859.000000	100.211836
1858.000000	100.213809
1857.000000	100.215761
1856.000000	100.217643
1855.000000	100.219634
1854.000000	100.221259
1853.000000	100.221457
1852.000000	100.220053
1851.000000	100.218701
1850.000000	100.219592
1849.000000	100.223439
1848.000000	100.229127
1847.000000	100.235175
1846.000000	100.240929
1845.000000	100.245718
1844.000000	100.248189
1843.000000	100.247814
1842.000000	100.245899
1841.000000	100.244528
1840.000000	100.245170
1839.000000	100.247957
1838.000000	100.251656
1837.000000	100.254582
1836.000000	100.255752
1835.000000	100.255228
1834.000000	100.253846
1833.000000	100.252739
1832.000000	100.252852
1831.000000	100.254538
1830.000000	100.257219
1829.000000	100.259793
1828.000000	100.261534
1827.000000	100.262494
1826.000000	100.262931
1825.000000	100.262771
1824.000000	100.262330
1823.000000	100.262648
1822.000000	100.264248
1821.000000	100.266222
1820.000000	100.267229
1819.000000	100.267306
1818.000000	100.267655
1817.000000	100.268555
1816.000000	100.268829
1815.000000	100.267771
1814.000000	100.266169
1813.000000	100.264768
1812.000000	100.263067
1811.000000	100.260521
1810.000000	100.258053
1809.000000	100.257333
1808.000000	100.259151
1807.000000	100.262832
1806.000000	100.266683
1805.000000	100.269184
1804.000000	100.269817
1803.000000	100.268955
1802.000000	100.267362
1801.000000	100.265870
1800.000000	100.265580
1799.000000	100.267243
1798.000000	100.270034
1797.000000	100.272020
1796.000000	100.272140
1795.000000	100.271269
1794.000000	100.271256
1793.000000	100.272487
1792.000000	100.273364
1791.000000	100.273027
1790.000000	100.272350
1789.000000	100.273027
1788.000000	100.276690
1787.000000	100.283325
1786.000000	100.290354
1785.000000	100.294783
1784.000000	100.296548
1783.000000	100.298204
1782.000000	100.301494
1781.000000	100.305335
1780.000000	100.307856
1779.000000	100.309344
1778.000000	100.312039
1777.000000	100.317427
1776.000000	100.324594
1775.000000	100.331523
1774.000000	100.337363
1773.000000	100.341723
1772.000000	100.343832
1771.000000	100.344446
1770.000000	100.344853
1769.000000	100.345261
1768.000000	100.345540
1767.000000	100.345637
1766.000000	100.345388
1765.000000	100.345008
1764.000000	100.346321
1763.000000	100.352192
1762.000000	100.363230
1761.000000	100.375477
1760.000000	100.384429
1759.000000	100.390521
1758.000000	100.398046
1757.000000	100.409408
1756.000000	100.422294
1755.000000	100.434166
1754.000000	100.446793
1753.000000	100.463491
1752.000000	100.483110
1751.000000	100.499368
1750.000000	100.509263
1749.000000	100.516742
1748.000000	100.524762
1747.000000	100.532238
1746.000000	100.538332
1745.000000	100.543491
1744.000000	100.547527
1743.000000	100.550040
1742.000000	100.552221
1741.000000	100.555006
1740.000000	100.555682
1739.000000	100.550543
1738.000000	100.540765
1737.000000	100.529881
1736.000000	100.520108
1735.000000	100.509491
1734.000000	100.494132
1733.000000	100.478586
1732.000000	100.468885
1731.000000	100.463266
1730.000000	100.458827
1729.000000	100.455127
1728.000000	100.452283
1727.000000	100.450273
1726.000000	100.449138
1725.000000	100.448516
1724.000000	100.447189
1723.000000	100.444021
1722.000000	100.438808
1721.000000	100.431854
1720.000000	100.423744
1719.000000	100.416009
1718.000000	100.410401
1717.000000	100.407143
1716.000000	100.405600
1715.000000	100.405124
1714.000000	100.404590
1713.000000	100.403414
1712.000000	100.401917
1711.000000	100.400407
1710.000000	100.399111
1709.000000	100.397876
1708.000000	100.395923
1707.000000	100.392334
1706.000000	100.386284
1705.000000	100.377865
1704.000000	100.368531
1703.000000	100.359390
1702.000000	100.352410
1701.000000	100.348924
1700.000000	100.348164
1699.000000	100.349535
1698.000000	100.350600
1697.000000	100.349016
1696.000000	100.346089
1695.000000	100.345201
1694.000000	100.346657
1693.000000	100.347539
1692.000000	100.346540
1691.000000	100.344369
1690.000000	100.342062
1689.000000	100.339405
1688.000000	100.335218
1687.000000	100.329145
1686.000000	100.323068
1685.000000	100.319024
1684.000000	100.318201
1683.000000	100.321301
1682.000000	100.325347
1681.000000	100.327248
1680.000000	100.326946
1679.000000	100.325867
1678.000000	100.325632
1677.000000	100.327039
1676.000000	100.329094
1675.000000	100.329629
1674.000000	100.328586
1673.000000	100.327398
1672.000000	100.326393
1671.000000	100.324965
1670.000000	100.322697
1669.000000	100.320683
1668.000000	100.319916
1667.000000	100.319464
1666.000000	100.318510
1665.000000	100.317506
1664.000000	100.316990
1663.000000	100.316468
1662.000000	100.315562
1661.000000	100.315101
1660.000000	100.315301
1659.000000	100.314894
1658.000000	100.311861
1657.000000	100.305613
1656.000000	100.297561
1655.000000	100.291967
1654.000000	100.291066
1653.000000	100.290579
1652.000000	100.289076
1651.000000	100.288194
1650.000000	100.287470
1649.000000	100.286354
1648.000000	100.284880
1647.000000	100.282866
1646.000000	100.282052
1645.000000	100.284743
1644.000000	100.290230
1643.000000	100.295806
1642.000000	100.299046
1641.000000	100.298575
1640.000000	100.295019
1639.000000	100.290510
1638.000000	100.287131
1637.000000	100.285278
1636.000000	100.282383
1635.000000	100.277358
1634.000000	100.273212
1633.000000	100.271476
1632.000000	100.271256
1631.000000	100.271717
1630.000000	100.272621
1629.000000	100.274244
1628.000000	100.276425
1627.000000	100.278229
1626.000000	100.279070
1625.000000	100.279731
1624.000000	100.280953
1623.000000	100.281719
1622.000000	100.281064
1621.000000	100.279996
1620.000000	100.280220
1619.000000	100.283167
1618.000000	100.289207
1617.000000	100.295951
1616.000000	100.300573
1615.000000	100.303221
1614.000000	100.305465
1613.000000	100.308451
1612.000000	100.312285
1611.000000	100.315712
1610.000000	100.317802
1609.000000	100.320067
1608.000000	100.324921
1607.000000	100.332180
1606.000000	100.339177
1605.000000	100.343724
1604.000000	100.345904
1603.000000	100.347701
1602.000000	100.351642
1601.000000	100.358918
1600.000000	100.368125
1599.000000	100.376149
1598.000000	100.380786
1597.000000	100.382149
1596.000000	100.381854
1595.000000	100.381813
1594.000000	100.383586
1593.000000	100.387829
1592.000000	100.393704
1591.000000	100.399279
1590.000000	100.403270
1589.000000	100.406191
1588.000000	100.409261
1587.000000	100.412743
1586.000000	100.416253
1585.000000	100.419979
1584.000000	100.424401
1583.000000	100.429111
1582.000000	100.432894
1581.000000	100.435125
1580.000000	100.436255
1579.000000	100.437038
1578.000000	100.438123
1577.000000	100.440082
1576.000000	100.443242
1575.000000	100.447425
1574.000000	100.451888
1573.000000	100.455841
1572.000000	100.459056
1571.000000	100.461465
1570.000000	100.462636
1569.000000	100.463322
1568.000000	100.465015
1567.000000	100.467982
1566.000000	100.472023
1565.000000	100.476969
1564.000000	100.481065
1563.000000	100.482322
1562.000000	100.481046
1561.000000	100.481461
1560.000000	100.486866
1559.000000	100.489401
1558.000000	100.486272
1557.000000	100.487274
1556.000000	100.493730
1555.000000	100.500848
1554.000000	100.505670
1553.000000	100.507455
1552.000000	100.507944
1551.000000	100.507501
1550.000000	100.505768
1549.000000	100.503809
1548.000000	100.504194
1547.000000	100.508079
1546.000000	100.513816
1545.000000	100.517461
1544.000000	100.516675
1543.000000	100.513596
1542.000000	100.512138
1541.000000	100.511747
1540.000000	100.506989
1539.000000	100.498019
1538.000000	100.490650
1537.000000	100.486889
1536.000000	100.485689
1535.000000	100.485815
1534.000000	100.484430
1533.000000	100.479026
1532.000000	100.471550
1531.000000	100.465339
1530.000000	100.460904
1529.000000	100.457359
1528.000000	100.454073
1527.000000	100.451340
1526.000000	100.449976
1525.000000	100.450500
1524.000000	100.452897
1523.000000	100.456363
1522.000000	100.457135
1521.000000	100.451465
1520.000000	100.442823
1519.000000	100.437373
1518.000000	100.436807
1517.000000	100.438929
1516.000000	100.440282
1515.000000	100.439407
1514.000000	100.437074
1513.000000	100.434297
1512.000000	100.431485
1511.000000	100.429299
1510.000000	100.428846
1509.000000	100.430944
1508.000000	100.434460
1507.000000	100.435275
1506.000000	100.433221
1505.000000	100.432214
1504.000000	100.432426
1503.000000	100.432384
1502.000000	100.431932
1501.000000	100.431690
1500.000000	100.432197
1499.000000	100.433397
1498.000000	100.435155
1497.000000	100.435733
1496.000000	100.433065
1495.000000	100.428206
1494.000000	100.423702
1493.000000	100.421013
1492.000000	100.421484
1491.000000	100.426136
1490.000000	100.433719
1489.000000	100.440368
1488.000000	100.443566
1487.000000	100.444148
1486.000000	100.443425
1485.000000	100.442400
1484.000000	100.442317
1483.000000	100.444183
1482.000000	100.447657
1481.000000	100.450793
1480.000000	100.452317
1479.000000	100.453563
1478.000000	100.456893
1477.000000	100.463005
1476.000000	100.471296
1475.000000	100.482232
1474.000000	100.497017
1473.000000	100.513233
1472.000000	100.525942
1471.000000	100.534789
1470.000000	100.542447
1469.000000	100.549895
1468.000000	100.556799
1467.000000	100.562587
1466.000000	100.565815
1465.000000	100.563755
1464.000000	100.556884
1463.000000	100.550649
1462.000000	100.548984
1461.000000	100.551338
1460.000000	100.555706
1459.000000	100.561694
1458.000000	100.568952
1457.000000	100.572384
1456.000000	100.568177
1455.000000	100.560363
1454.000000	100.553428
1453.000000	100.547682
1452.000000	100.542330
1451.000000	100.537555
1450.000000	100.534055
1449.000000	100.530883
1448.000000	100.526363
1447.000000	100.521745
1446.000000	100.520428
1445.000000	100.522562
1444.000000	100.524728
1443.000000	100.523981
1442.000000	100.520556
1441.000000	100.516839
1440.000000	100.514479
1439.000000	100.513466
1438.000000	100.512286
1437.000000	100.507392
1436.000000	100.497502
1435.000000	100.487768
1434.000000	100.483139
1433.000000	100.483745
1432.000000	100.487378
1431.000000	100.491335
1430.000000	100.493871
1429.000000	100.494462
1428.000000	100.492974
1427.000000	100.489934
1426.000000	100.486783
1425.000000	100.484375
1424.000000	100.481687
1423.000000	100.477811
1422.000000	100.474629
1421.000000	100.475789
1420.000000	100.482879
1419.000000	100.492291
1418.000000	100.498910
1417.000000	100.501463
1416.000000	100.500942
1415.000000	100.498470
1414.000000	100.495251
1413.000000	100.492532
1412.000000	100.491305
1411.000000	100.492168
1410.000000	100.495364
1409.000000	100.500245
1408.000000	100.505187
1407.000000	100.508710
1406.000000	100.510853
1405.000000	100.513064
1404.000000	100.516309
1403.000000	100.520079
1402.000000	100.523494
1401.000000	100.526102
1400.000000	100.527400
1399.000000	100.527137
1398.000000	100.526508
1397.000000	100.527013
1396.000000	100.528353
1395.000000	100.528916
1394.000000	100.528606
1393.000000	100.529338
1392.000000	100.532137
1391.000000	100.536473
1390.000000	100.541564
1389.000000	100.546751
1388.000000	100.550916
1387.000000	100.552905
1386.000000	100.553494
1385.000000	100.554910
1384.000000	100.557786
1383.000000	100.560104
1382.000000	100.559653
1381.000000	100.557287
1380.000000	100.556597
1379.000000	100.559652
1378.000000	100.564404
1377.000000	100.567376
1376.000000	100.567360
1375.000000	100.565155
1374.000000	100.561587
1373.000000	100.557023
1372.000000	100.552216
1371.000000	100.548484
1370.000000	100.546764
1369.000000	100.546984
1368.000000	100.548386
1367.000000	100.550292
1366.000000	100.552392
1365.000000	100.554526
1364.000000	100.556635
1363.000000	100.558783
1362.000000	100.560730
1361.000000	100.561907
1360.000000	100.562211
1359.000000	100.562174
1358.000000	100.562043
1357.000000	100.561389
1356.000000	100.560058
1355.000000	100.559037
1354.000000	100.559421
1353.000000	100.560708
1352.000000	100.561313
1351.000000	100.560630
1350.000000	100.559669
1349.000000	100.559686
1348.000000	100.560679
1347.000000	100.561607
1346.000000	100.561593
1345.000000	100.560495
1344.000000	100.558806
1343.000000	100.557476
1342.000000	100.557404
1341.000000	100.558558
1340.000000	100.559662
1339.000000	100.559490
1338.000000	100.558442
1337.000000	100.557974
1336.000000	100.558776
1335.000000	100.560308
1334.000000	100.561592
1333.000000	100.561865
1332.000000	100.560844
1331.000000	100.559075
1330.000000	100.557867
1329.000000	100.558084
1328.000000	100.559070
1327.000000	100.559617
1326.000000	100.560030
1325.000000	100.562000
1324.000000	100.565727
1323.000000	100.568472
1322.000000	100.567324
1321.000000	100.562592
1320.000000	100.557781
1319.000000	100.556198
1318.000000	100.558033
1317.000000	100.560978
1316.000000	100.562799
1315.000000	100.562927
1314.000000	100.562212
1313.000000	100.561796
1312.000000	100.562011
1311.000000	100.562161
1310.000000	100.561539
1309.000000	100.560562
1308.000000	100.560463
1307.000000	100.561601
1306.000000	100.562581
1305.000000	100.561759
1304.000000	100.559330
1303.000000	100.557462
1302.000000	100.558146
1301.000000	100.561094
1300.000000	100.563965
1299.000000	100.564536
1298.000000	100.562529
1297.000000	100.559736
1296.000000	100.558695
1295.000000	100.560592
1294.000000	100.563764
1293.000000	100.564741
1292.000000	100.561717
1291.000000	100.556729
1290.000000	100.553268
1289.000000	100.551758
1288.000000	100.549231
1287.000000	100.543880
1286.000000	100.537914
1285.000000	100.534688
1284.000000	100.534737
1283.000000	100.536164
1282.000000	100.537595
1281.000000	100.538950
1280.000000	100.539935
1279.000000	100.539625
1278.000000	100.537788
1277.000000	100.535363
1276.000000	100.533529
1275.000000	100.533173
1274.000000	100.534951
1273.000000	100.538495
1272.000000	100.541331
1271.000000	100.539916
1270.000000	100.532804
1269.000000	100.522772
1268.000000	100.515601
1267.000000	100.516434
1266.000000	100.526176
1265.000000	100.540500
1264.000000	100.553023
1263.000000	100.560205
1262.000000	100.562673
1261.000000	100.561884
1260.000000	100.557298
1259.000000	100.548220
1258.000000	100.536792
1257.000000	100.526510
1256.000000	100.518248
1255.000000	100.509890
1254.000000	100.499790
1253.000000	100.488806
1252.000000	100.478705
1251.000000	100.469981
1250.000000	100.461495
1249.000000	100.451233
1248.000000	100.437663
1247.000000	100.421722
1246.000000	100.407276
1245.000000	100.397775
1244.000000	100.392262
1243.000000	100.386309
1242.000000	100.377156
1241.000000	100.366311
1240.000000	100.356635
1239.000000	100.348561
1238.000000	100.340056
1237.000000	100.329045
1236.000000	100.314915
1235.000000	100.298549
1234.000000	100.281588
1233.000000	100.264751
1232.000000	100.246393
1231.000000	100.223960
1230.000000	100.197674
1229.000000	100.171503
1228.000000	100.149269
1227.000000	100.130597
1226.000000	100.111814
1225.000000	100.089732
1224.000000	100.062544
1223.000000	100.027774
1222.000000	99.982657
1221.000000	99.928063
1220.000000	99.870167
1219.000000	99.815633
1218.000000	99.765230
1217.000000	99.714228
1216.000000	99.658952
1215.000000	99.600497
1214.000000	99.541504
1213.000000	99.481786
1212.000000	99.419091
1211.000000	99.352964
1210.000000	99.285892
1209.000000	99.220883
1208.000000	99.159058
1207.000000	99.099281
1206.000000	99.039498
1205.000000	98.979053
1204.000000	98.919769
1203.000000	98.863601
1202.000000	98.809209
1201.000000	98.752629
1200.000000	98.691818
1199.000000	98.628720
1198.000000	98.566287
1197.000000	98.505558
1196.000000	98.446605
1195.000000	98.389840
1194.000000	98.334479
1193.000000	98.277524
1192.000000	98.216308
1191.000000	98.151338
1190.000000	98.085505
1189.000000	98.021201
1188.000000	97.958679
1187.000000	97.895904
1186.000000	97.829705
1185.000000	97.758774
1184.000000	97.685787
1183.000000	97.614419
1182.000000	97.543960
1181.000000	97.469698
1180.000000	97.389523
1179.000000	97.306995
1178.000000	97.226180
1177.000000	97.146384
1176.000000	97.064117
1175.000000	96.977620
1174.000000	96.887008
1173.000000	96.792194
1172.000000	96.693556
1171.000000	96.593631
1170.000000	96.496027
1169.000000	96.403179
1168.000000	96.316151
1167.000000	96.235724
1166.000000	96.163793
1165.000000	96.105605
1164.000000	96.069877
1163.000000	96.062972
1162.000000	96.081956
1161.000000	96.115718
1160.000000	96.152587
1159.000000	96.183688
1158.000000	96.200502
1157.000000	96.195482
1156.000000	96.167123
1155.000000	96.121062
1154.000000	96.064448
1153.000000	96.001199
1152.000000	95.933235
1151.000000	95.862883
1150.000000	95.792131
1149.000000	95.721548
1148.000000	95.650837
1147.000000	95.578756
1146.000000	95.503435
1145.000000	95.426070
1144.000000	95.353326
1143.000000	95.291454
1142.000000	95.237896
1141.000000	95.183264
1140.000000	95.121476
1139.000000	95.053047
1138.000000	94.979117
1137.000000	94.898872
1136.000000	94.814180
1135.000000	94.730510
1134.000000	94.650575
1133.000000	94.571830
1132.000000	94.492190
1131.000000	94.413408
1130.000000	94.337147
1129.000000	94.262662
1128.000000	94.189977
1127.000000	94.120333
1126.000000	94.051861
1125.000000	93.979673
1124.000000	93.901678
1123.000000	93.819891
1122.000000	93.735889
1121.000000	93.650638
1120.000000	93.568701
1119.000000	93.495077
1118.000000	93.426732
1117.000000	93.355026
1116.000000	93.278360
1115.000000	93.204270
1114.000000	93.136343
1113.000000	93.067923
1112.000000	92.993197
1111.000000	92.916604
1110.000000	92.845714
1109.000000	92.781011
1108.000000	92.717425
1107.000000	92.651203
1106.000000	92.581730
1105.000000	92.511001
1104.000000	92.443722
1103.000000	92.383446
1102.000000	92.327624
1101.000000	92.271107
1100.000000	92.213913
1099.000000	92.159066
1098.000000	92.103620
1097.000000	92.041610
1096.000000	91.975636
1095.000000	91.915405
1094.000000	91.863075
1093.000000	91.810324
1092.000000	91.752709
1091.000000	91.697047
1090.000000	91.650802
1089.000000	91.612836
1088.000000	91.578204
1087.000000	91.543995
1086.000000	91.507405
1085.000000	91.465725
1084.000000	91.420897
1083.000000	91.377313
1082.000000	91.334308
1081.000000	91.288783
1080.000000	91.244899
1079.000000	91.210744
1078.000000	91.184251
1077.000000	91.153367
1076.000000	91.112068
1075.000000	91.065155
1074.000000	91.015002
1073.000000	90.954963
1072.000000	90.879310
1071.000000	90.788907
1070.000000	90.683431
1069.000000	90.558543
1068.000000	90.415581
1067.000000	90.264679
1066.000000	90.113427
1065.000000	89.960808
1064.000000	89.806387
1063.000000	89.656090
1062.000000	89.514668
1061.000000	89.381519
1060.000000	89.257421
1059.000000	89.145564
1058.000000	89.042533
1057.000000	88.938506
1056.000000	88.829664
1055.000000	88.720093
1054.000000	88.608657
1053.000000	88.485918
1052.000000	88.348710
1051.000000	88.205227
1050.000000	88.059139
1049.000000	87.901928
1048.000000	87.729027
1047.000000	87.550654
1046.000000	87.378946
1045.000000	87.215121
1044.000000	87.054119
1043.000000	86.891029
1042.000000	86.719619
1041.000000	86.536453
1040.000000	86.351191
1039.000000	86.181774
1038.000000	86.034657
1037.000000	85.900007
1036.000000	85.769369
1035.000000	85.646225
1034.000000	85.535524
1033.000000	85.435730
1032.000000	85.345840
1031.000000	85.267766
1030.000000	85.197017
1029.000000	85.123402
1028.000000	85.046283
1027.000000	84.977377
1026.000000	84.923324
1025.000000	84.876744
1024.000000	84.829119
1023.000000	84.781440
1022.000000	84.737224
1021.000000	84.695229
1020.000000	84.653448
1019.000000	84.611429
1018.000000	84.566270
1017.000000	84.515465
1016.000000	84.464421
1015.000000	84.420809
1014.000000	84.381435
1013.000000	84.336100
1012.000000	84.284199
1011.000000	84.234999
1010.000000	84.192102
1009.000000	84.151520
1008.000000	84.115003
1007.000000	84.089836
1006.000000	84.073740
1005.000000	84.055160
1004.000000	84.031415
1003.000000	84.012310
1002.000000	84.002853
1001.000000	83.996660
1000.000000	83.989576
999.000000	83.985835
998.000000	83.986836
997.000000	83.986978
996.000000	83.984783
995.000000	83.986507
994.000000	83.995583
993.000000	84.009398
992.000000	84.027814
991.000000	84.053285
990.000000	84.081965
989.000000	84.107580
988.000000	84.135070
987.000000	84.177059
986.000000	84.235757
985.000000	84.301559
984.000000	84.370435
983.000000	84.448689
982.000000	84.538844
981.000000	84.635065
980.000000	84.734989
979.000000	84.843043
978.000000	84.960000
977.000000	85.082065
976.000000	85.211693
975.000000	85.356092
974.000000	85.513322
973.000000	85.672883
972.000000	85.831836
971.000000	85.997442
970.000000	86.172202
969.000000	86.349531
968.000000	86.526326
967.000000	86.706723
966.000000	86.890575
965.000000	87.070726
964.000000	87.245110
963.000000	87.420119
962.000000	87.598276
961.000000	87.772701
960.000000	87.937139
959.000000	88.092397
958.000000	88.240508
957.000000	88.381505
956.000000	88.518301
955.000000	88.656242
954.000000	88.795266
953.000000	88.929335
952.000000	89.054176
951.000000	89.168847
950.000000	89.271319
949.000000	89.361363
948.000000	89.446787
947.000000	89.536966
946.000000	89.630059
945.000000	89.716284
944.000000	89.793403
943.000000	89.868781
942.000000	89.946125
941.000000	90.021011
940.000000	90.090922
939.000000	90.159104
938.000000	90.226137
937.000000	90.287188
936.000000	90.340436
935.000000	90.390179
934.000000	90.439811
933.000000	90.489758
932.000000	90.543699
931.000000	90.608033
930.000000	90.682804
929.000000	90.760637
928.000000	90.836294
927.000000	90.910447
926.000000	90.983604
925.000000	91.053752
924.000000	91.120739
923.000000	91.186259
922.000000	91.249506
921.000000	91.309030
920.000000	91.367041
919.000000	91.424362
918.000000	91.474115
917.000000	91.510406
916.000000	91.541602
915.000000	91.583953
914.000000	91.642485
913.000000	91.709272
912.000000	91.780339
911.000000	91.861417
910.000000	91.954429
909.000000	92.051321
908.000000	92.147372
907.000000	92.251008
906.000000	92.373650
905.000000	92.516120
904.000000	92.669493
903.000000	92.824468
902.000000	92.977286
901.000000	93.130423
900.000000	93.289329
899.000000	93.456068
898.000000	93.626817
897.000000	93.797935
896.000000	93.970168
895.000000	94.142046
894.000000	94.304394
893.000000	94.449491
892.000000	94.582434
891.000000	94.715462
890.000000	94.852900
889.000000	94.988882
888.000000	95.117706
887.000000	95.238609
886.000000	95.352146
885.000000	95.459716
884.000000	95.565530
883.000000	95.671939
882.000000	95.774586
881.000000	95.869600
880.000000	95.963185
879.000000	96.065438
878.000000	96.176251
877.000000	96.286645
876.000000	96.392869
875.000000	96.499288
874.000000	96.607591
873.000000	96.712933
872.000000	96.812248
871.000000	96.908848
870.000000	97.007730
869.000000	97.111769
868.000000	97.221769
867.000000	97.334495
866.000000	97.442016
865.000000	97.539021
864.000000	97.629577
863.000000	97.721629
862.000000	97.816935
861.000000	97.911578
860.000000	98.003163
859.000000	98.090809
858.000000	98.171092
857.000000	98.241979
856.000000	98.309247
855.000000	98.381285
854.000000	98.458072
853.000000	98.532111
852.000000	98.599032
851.000000	98.659897
850.000000	98.714272
849.000000	98.759301
848.000000	98.795735
847.000000	98.826998
846.000000	98.851440
845.000000	98.863293
844.000000	98.863069
843.000000	98.859702
842.000000	98.859142
841.000000	98.856254
840.000000	98.841266
839.000000	98.810125
838.000000	98.766257
837.000000	98.715679
836.000000	98.662689
835.000000	98.608268
834.000000	98.551864
833.000000	98.496914
832.000000	98.453760
831.000000	98.433012
830.000000	98.435603
829.000000	98.452566
828.000000	98.473287
827.000000	98.489648
826.000000	98.495440
825.000000	98.490307
824.000000	98.484300
823.000000	98.490757
822.000000	98.513298
821.000000	98.544510
820.000000	98.574236
819.000000	98.592163
818.000000	98.586603
817.000000	98.550470
816.000000	98.488598
815.000000	98.412516
814.000000	98.326719
813.000000	98.223523
812.000000	98.089439
811.000000	97.911025
810.000000	97.677214
809.000000	97.384595
808.000000	97.041529
807.000000	96.661205
806.000000	96.251352
805.000000	95.818752
804.000000	95.382741
803.000000	94.971854
802.000000	94.604017
801.000000	94.282091
800.000000	94.012450
799.000000	93.813516
798.000000	93.698477
797.000000	93.660834
796.000000	93.683280
795.000000	93.750314
794.000000	93.846984
793.000000	93.956198
792.000000	94.064459
791.000000	94.164195
790.000000	94.247436
789.000000	94.303547
788.000000	94.324868
787.000000	94.308346
786.000000	94.251387
785.000000	94.153555
784.000000	94.023186
783.000000	93.875238
782.000000	93.722730
781.000000	93.578312
780.000000	93.462803
779.000000	93.399435
778.000000	93.396090
777.000000	93.442832
776.000000	93.528775
775.000000	93.651021
774.000000	93.805209
773.000000	93.978390
772.000000	94.154634
771.000000	94.319700
770.000000	94.460206
769.000000	94.568318
768.000000	94.649049
767.000000	94.714853
766.000000	94.772238
765.000000	94.821068
764.000000	94.865148
763.000000	94.912128
762.000000	94.962138
761.000000	95.007985
760.000000	95.049066
759.000000	95.094849
758.000000	95.152020
757.000000	95.217785
756.000000	95.287809
755.000000	95.360670
754.000000	95.432695
753.000000	95.499267
752.000000	95.564381
751.000000	95.638784
750.000000	95.724387
749.000000	95.808777
748.000000	95.879084
747.000000	95.934913
746.000000	95.986133
745.000000	96.045410
744.000000	96.123760
743.000000	96.224238
742.000000	96.337704
741.000000	96.452963
740.000000	96.571632
739.000000	96.703448
738.000000	96.846574
737.000000	96.984129
736.000000	97.102728
735.000000	97.202825
734.000000	97.287570
733.000000	97.353982
732.000000	97.401200
731.000000	97.436987
730.000000	97.468794
729.000000	97.496338
728.000000	97.519250
727.000000	97.543860
726.000000	97.575570
725.000000	97.611822
724.000000	97.649558
723.000000	97.693693
722.000000	97.752082
721.000000	97.826799
720.000000	97.914203
719.000000	98.007100
718.000000	98.092961
717.000000	98.158467
716.000000	98.202528
715.000000	98.239320
714.000000	98.282526
713.000000	98.331490
712.000000	98.378278
711.000000	98.420729
710.000000	98.459901
709.000000	98.490670
708.000000	98.505399
707.000000	98.504618
706.000000	98.494478
705.000000	98.473669
704.000000	98.430920
703.000000	98.356275
702.000000	98.248208
701.000000	98.108202
700.000000	97.934451
699.000000	97.725579
698.000000	97.490909
697.000000	97.257362
696.000000	97.065056
695.000000	96.950968
694.000000	96.932346
693.000000	97.002216
692.000000	97.135276
691.000000	97.296354
690.000000	97.451478
689.000000	97.582543
688.000000	97.693334
687.000000	97.795159
686.000000	97.887684
685.000000	97.962363
684.000000	98.022373
683.000000	98.085853
682.000000	98.164860
681.000000	98.249226
680.000000	98.316514
679.000000	98.353717
678.000000	98.366118
677.000000	98.370945
676.000000	98.387193
675.000000	98.426564
674.000000	98.485271
673.000000	98.547413
672.000000	98.601664
671.000000	98.651595
670.000000	98.706151
669.000000	98.765375
668.000000	98.819730
667.000000	98.859821
666.000000	98.886301
665.000000	98.910852
664.000000	98.944092
663.000000	98.986867
662.000000	99.029930
661.000000	99.063474
660.000000	99.089778
659.000000	99.119236
658.000000	99.151054
657.000000	99.167259
656.000000	99.153453
655.000000	99.118813
654.000000	99.084370
653.000000	99.056894
652.000000	99.027847
651.000000	98.994991
650.000000	98.972211
