4000.000000	99.610853
3999.000000	99.612608
3998.000000	99.613916
3997.000000	99.614092
3996.000000	99.612910
3995.000000	99.610790
3994.000000	99.608611
3993.000000	99.607186
3992.000000	99.606697
3991.000000	99.606645
3990.000000	99.606244
3989.000000	99.604742
3988.000000	99.601664
3987.000000	99.597091
3986.000000	99.591812
3985.000000	99.587080
3984.000000	99.583938
3983.000000	99.582639
3982.000000	99.582709
3981.000000	99.583483
3980.000000	99.584549
3979.000000	99.585738
3978.000000	99.586812
3977.000000	99.587421
3976.000000	99.587559
3975.000000	99.587931
3974.000000	99.589435
3973.000000	99.592133
3972.000000	99.594853
3971.000000	99.596065
3970.000000	99.595203
3969.000000	99.593135
3968.000000	99.591489
3967.000000	99.591397
3966.000000	99.592817
3965.000000	99.594819
3964.000000	99.596388
3963.000000	99.597058
3962.000000	99.596933
3961.000000	99.596327
3960.000000	99.595480
3959.000000	99.594509
3958.000000	99.593483
3957.000000	99.592520
3956.000000	99.591867
3955.000000	99.591864
3954.000000	99.592699
3953.000000	99.594143
3952.000000	99.595522
3951.000000	99.596098
3950.000000	99.595628
3949.000000	99.594464
3948.000000	99.593355
3947.000000	99.592918
3946.000000	99.593282
3945.000000	99.594180
3944.000000	99.595171
3943.000000	99.595938
3942.000000	99.596431
3941.000000	99.596759
3940.000000	99.597040
3939.000000	99.597330
3938.000000	99.597630
3937.000000	99.597904
3936.000000	99.598109
3935.000000	99.598218
3934.000000	99.598223
3933.000000	99.598129
3932.000000	99.597964
3931.000000	99.597781
3930.000000	99.597642
3929.000000	99.597592
3928.000000	99.597678
3927.000000	99.597941
3926.000000	99.598339
3925.000000	99.598718
3924.000000	99.598926
3923.000000	99.598989
3922.000000	99.599057
3921.000000	99.599182
3920.000000	99.599227
3919.000000	99.599033
3918.000000	99.598636
3917.000000	99.598262
3916.000000	99.598120
3915.000000	99.598252
3914.000000	99.598530
3913.000000	99.598743
3912.000000	99.598734
3911.000000	99.598492
3910.000000	99.598122
3909.000000	99.597733
3908.000000	99.597378
3907.000000	99.597083
3906.000000	99.596871
3905.000000	99.596730
3904.000000	99.596610
3903.000000	99.596453
3902.000000	99.596246
3901.000000	99.596008
3900.000000	99.595759
3899.000000	99.595506
3898.000000	99.595249
3897.000000	99.594990
3896.000000	99.594735
3895.000000	99.594491
3894.000000	99.594260
3893.000000	99.594035
3892.000000	99.593794
3891.000000	99.593519
3890.000000	99.593213
3889.000000	99.592887
3888.000000	99.592565
3887.000000	99.592263
3886.000000	99.591977
3885.000000	99.591696
3884.000000	99.591414
3883.000000	99.591132
3882.000000	99.590849
3881.000000	99.590559
3880.000000	99.590248
3879.000000	99.589902
3878.000000	99.589518
3877.000000	99.589112
3876.000000	99.588713
3875.000000	99.588340
3874.000000	99.587974
3873.000000	99.587568
3872.000000	99.587102
3871.000000	99.586618
3870.000000	99.586184
3869.000000	99.585837
3868.000000	99.585570
3867.000000	99.585390
3866.000000	99.585314
3865.000000	99.585314
3864.000000	99.585318
3863.000000	99.585292
3862.000000	99.585237
3861.000000	99.585152
3860.000000	99.585042
3859.000000	99.584934
3858.000000	99.584844
3857.000000	99.584772
3856.000000	99.584814
3855.000000	99.585093
3854.000000	99.585289
3853.000000	99.584946
3852.000000	99.584163
3851.000000	99.583439
3850.000000	99.583075
3849.000000	99.583091
3848.000000	99.583397
3847.000000	99.583919
3846.000000	99.584579
3845.000000	99.585196
3844.000000	99.585463
3843.000000	99.585149
3842.000000	99.584321
3841.000000	99.583453
3840.000000	99.583141
3839.000000	99.583628
3838.000000	99.584566
3837.000000	99.585307
3836.000000	99.585537
3835.000000	99.585501
3834.000000	99.585813
3833.000000	99.587010
3832.000000	99.589110
3831.000000	99.591487
3830.000000	99.593258
3829.000000	99.593968
3828.000000	99.593835
3827.000000	99.593444
3826.000000	99.593152
3825.000000	99.592890
3824.000000	99.592602
3823.000000	99.592572
3822.000000	99.592919
3821.000000	99.593286
3820.000000	99.593433
3819.000000	99.593512
3818.000000	99.593956
3817.000000	99.595116
3816.000000	99.596693
3815.000000	99.598081
3814.000000	99.599084
3813.000000	99.599741
3812.000000	99.599952
3811.000000	99.599570
3810.000000	99.598786
3809.000000	99.598252
3808.000000	99.598403
3807.000000	99.598949
3806.000000	99.599287
3805.000000	99.599153
3804.000000	99.598814
3803.000000	99.598882
3802.000000	99.599621
3801.000000	99.600650
3800.000000	99.601432
3799.000000	99.601762
3798.000000	99.601744
3797.000000	99.601575
3796.000000	99.601420
3795.000000	99.601419
3794.000000	99.601676
3793.000000	99.602180
3792.000000	99.602771
3791.000000	99.603197
3790.000000	99.603217
3789.000000	99.602726
3788.000000	99.601830
3787.000000	99.600807
3786.000000	99.599938
3785.000000	99.599310
3784.000000	99.598819
3783.000000	99.598402
3782.000000	99.598155
3781.000000	99.598170
3780.000000	99.598285
3779.000000	99.598278
3778.000000	99.598259
3777.000000	99.598554
3776.000000	99.599164
3775.000000	99.599470
3774.000000	99.598669
3773.000000	99.596547
3772.000000	99.593894
3771.000000	99.592061
3770.000000	99.591799
3769.000000	99.592911
3768.000000	99.594654
3767.000000	99.596460
3766.000000	99.598042
3765.000000	99.598978
3764.000000	99.598783
3763.000000	99.597432
3762.000000	99.595498
3761.000000	99.593566
3760.000000	99.591703
3759.000000	99.589862
3758.000000	99.588221
3757.000000	99.586813
3756.000000	99.585421
3755.000000	99.583974
3754.000000	99.582745
3753.000000	99.581817
3752.000000	99.580650
3751.000000	99.579105
3750.000000	99.578164
3749.000000	99.578254
3748.000000	99.578187
3747.000000	99.577221
3746.000000	99.577175
3745.000000	99.578885
3744.000000	99.579872
3743.000000	99.579238
3742.000000	99.578662
3741.000000	99.578940
3740.000000	99.578847
3739.000000	99.576791
3738.000000	99.572802
3737.000000	99.567793
3736.000000	99.562233
3735.000000	99.557269
3734.000000	99.555290
3733.000000	99.557395
3732.000000	99.561436
3731.000000	99.563942
3730.000000	99.563555
3729.000000	99.561694
3728.000000	99.560450
3727.000000	99.560079
3726.000000	99.559313
3725.000000	99.557914
3724.000000	99.557071
3723.000000	99.557454
3722.000000	99.557931
3721.000000	99.556746
3720.000000	99.553232
3719.000000	99.548242
3718.000000	99.543211
3717.000000	99.538940
3716.000000	99.535629
3715.000000	99.533442
3714.000000	99.532021
3713.000000	99.529225
3712.000000	99.522226
3711.000000	99.511682
3710.000000	99.502140
3709.000000	99.496827
3708.000000	99.494525
3707.000000	99.491605
3706.000000	99.485793
3705.000000	99.478209
3704.000000	99.472180
3703.000000	99.469620
3702.000000	99.468488
3701.000000	99.464895
3700.000000	99.457686
3699.000000	99.449558
3698.000000	99.443734
3697.000000	99.440248
3696.000000	99.436270
3695.000000	99.429925
3694.000000	99.422346
3693.000000	99.415846
3692.000000	99.410985
3691.000000	99.406230
3690.000000	99.400225
3689.000000	99.393427
3688.000000	99.387472
3687.000000	99.383498
3686.000000	99.381270
3685.000000	99.379323
3684.000000	99.375628
3683.000000	99.368772
3682.000000	99.359074
3681.000000	99.347471
3680.000000	99.333482
3679.000000	99.315960
3678.000000	99.296862
3677.000000	99.281808
3676.000000	99.273580
3675.000000	99.269370
3674.000000	99.265211
3673.000000	99.258893
3672.000000	99.250002
3671.000000	99.237916
3670.000000	99.221356
3669.000000	99.202336
3668.000000	99.185581
3667.000000	99.173462
3666.000000	99.164978
3665.000000	99.157717
3664.000000	99.149550
3663.000000	99.139441
3662.000000	99.127712
3661.000000	99.115509
3660.000000	99.104156
3659.000000	99.094623
3658.000000	99.086804
3657.000000	99.078162
3656.000000	99.064929
3655.000000	99.046195
3654.000000	99.025002
3653.000000	99.006577
3652.000000	98.996400
3651.000000	98.996320
3650.000000	99.001354
3649.000000	99.003289
3648.000000	98.997624
3647.000000	98.985726
3646.000000	98.971479
3645.000000	98.957874
3644.000000	98.946137
3643.000000	98.936116
3642.000000	98.926891
3641.000000	98.917710
3640.000000	98.908715
3639.000000	98.900273
3638.000000	98.892135
3637.000000	98.883648
3636.000000	98.874278
3635.000000	98.863154
3634.000000	98.848787
3633.000000	98.830712
3632.000000	98.811719
3631.000000	98.798628
3630.000000	98.796306
3629.000000	98.800913
3628.000000	98.805840
3627.000000	98.809087
3626.000000	98.810747
3625.000000	98.809697
3624.000000	98.804325
3623.000000	98.795288
3622.000000	98.787154
3621.000000	98.786121
3620.000000	98.795190
3619.000000	98.811710
3618.000000	98.829801
3617.000000	98.844685
3616.000000	98.855186
3615.000000	98.863074
3614.000000	98.870384
3613.000000	98.877496
3612.000000	98.883561
3611.000000	98.888338
3610.000000	98.893049
3609.000000	98.899411
3608.000000	98.908442
3607.000000	98.919803
3606.000000	98.931572
3605.000000	98.941104
3604.000000	98.947170
3603.000000	98.951547
3602.000000	98.958344
3601.000000	98.970594
3600.000000	98.987334
3599.000000	99.004077
3598.000000	99.015872
3597.000000	99.019955
3596.000000	99.016988
3595.000000	99.010744
3594.000000	99.005861
3593.000000	99.004684
3592.000000	99.005891
3591.000000	99.006680
3590.000000	99.005853
3589.000000	99.004229
3588.000000	99.003016
3587.000000	99.002647
3586.000000	99.002869
3585.000000	99.003627
3584.000000	99.005344
3583.000000	99.007838
3582.000000	99.009945
3581.000000	99.010934
3580.000000	99.011734
3579.000000	99.013696
3578.000000	99.016136
3577.000000	99.016410
3576.000000	99.012859
3575.000000	99.006784
3574.000000	99.000909
3573.000000	98.996523
3572.000000	98.992833
3571.000000	98.988723
3570.000000	98.983995
3569.000000	98.978500
3568.000000	98.971604
3567.000000	98.964376
3566.000000	98.960302
3565.000000	98.961816
3564.000000	98.967944
3563.000000	98.975454
3562.000000	98.981047
3561.000000	98.982879
3560.000000	98.980903
3559.000000	98.976280
3558.000000	98.970234
3557.000000	98.963204
3556.000000	98.955295
3555.000000	98.947649
3554.000000	98.942586
3553.000000	98.941489
3552.000000	98.943028
3551.000000	98.944393
3550.000000	98.944377
3549.000000	98.944307
3548.000000	98.945864
3547.000000	98.948993
3546.000000	98.952222
3545.000000	98.954386
3544.000000	98.955388
3543.000000	98.955577
3542.000000	98.955055
3541.000000	98.953557
3540.000000	98.950802
3539.000000	98.947078
3538.000000	98.943590
3537.000000	98.941805
3536.000000	98.942158
3535.000000	98.943700
3534.000000	98.945248
3533.000000	98.946552
3532.000000	98.948004
3531.000000	98.949554
3530.000000	98.950410
3529.000000	98.949822
3528.000000	98.947772
3527.000000	98.944940
3526.000000	98.942336
3525.000000	98.940983
3524.000000	98.941405
3523.000000	98.943042
3522.000000	98.944523
3521.000000	98.944994
3520.000000	98.944963
3519.000000	98.945485
3518.000000	98.946812
3517.000000	98.948115
3516.000000	98.948330
3515.000000	98.947032
3514.000000	98.944789
3513.000000	98.943023
3512.000000	98.943236
3511.000000	98.945814
3510.000000	98.949524
3509.000000	98.952526
3508.000000	98.953856
3507.000000	98.953735
3506.000000	98.952751
3505.000000	98.951229
3504.000000	98.949319
3503.000000	98.947212
3502.000000	98.945028
3501.000000	98.942877
3500.000000	98.941349
3499.000000	98.941546
3498.000000	98.944154
3497.000000	98.948536
3496.000000	98.953104
3495.000000	98.956673
3494.000000	98.959254
3493.000000	98.961548
3492.000000	98.963954
3491.000000	98.966249
3490.000000	98.967950
3489.000000	98.968580
3488.000000	98.967609
3487.000000	98.964732
3486.000000	98.960526
3485.000000	98.956431
3484.000000	98.953582
3483.000000	98.951769
3482.000000	98.950011
3481.000000	98.948017
3480.000000	98.946411
3479.000000	98.945416
3478.000000	98.944018
3477.000000	98.940934
3476.000000	98.936135
3475.000000	98.931197
3474.000000	98.928179
3473.000000	98.928242
3472.000000	98.931087
3471.000000	98.935042
3470.000000	98.937851
3469.000000	98.938154
3468.000000	98.936354
3467.000000	98.934048
3466.000000	98.932466
3465.000000	98.931498
3464.000000	98.930242
3463.000000	98.928160
3462.000000	98.925534
3461.000000	98.923096
3460.000000	98.921473
3459.000000	98.920872
3458.000000	98.920985
3457.000000	98.921046
3456.000000	98.920201
3455.000000	98.918109
3454.000000	98.915267
3453.000000	98.912704
3452.000000	98.911195
3451.000000	98.910755
3450.000000	98.910777
3449.000000	98.910556
3448.000000	98.909694
3447.000000	98.908117
3446.000000	98.905907
3445.000000	98.903254
3444.000000	98.900537
3443.000000	98.898270
3442.000000	98.896830
3441.000000	98.896215
3440.000000	98.896075
3439.000000	98.895910
3438.000000	98.895211
3437.000000	98.893570
3436.000000	98.890908
3435.000000	98.887689
3434.000000	98.884788
3433.000000	98.882886
3432.000000	98.881909
3431.000000	98.881129
3430.000000	98.879819
3429.000000	98.877822
3428.000000	98.875506
3427.000000	98.873324
3426.000000	98.871512
3425.000000	98.870010
3424.000000	98.868398
3423.000000	98.865938
3422.000000	98.862053
3421.000000	98.857133
3420.000000	98.852693
3419.000000	98.850331
3418.000000	98.850534
3417.000000	98.852624
3416.000000	98.855558
3415.000000	98.858456
3414.000000	98.860444
3413.000000	98.860583
3412.000000	98.858491
3411.000000	98.855064
3410.000000	98.852173
3409.000000	98.851386
3408.000000	98.852917
3407.000000	98.855729
3406.000000	98.858356
3405.000000	98.859689
3404.000000	98.859416
3403.000000	98.858083
3402.000000	98.856802
3401.000000	98.856547
3400.000000	98.857523
3399.000000	98.859181
3398.000000	98.860776
3397.000000	98.861913
3396.000000	98.862584
3395.000000	98.862886
3394.000000	98.862890
3393.000000	98.862726
3392.000000	98.862644
3391.000000	98.862876
3390.000000	98.863489
3389.000000	98.864427
3388.000000	98.865614
3387.000000	98.866929
3386.000000	98.868100
3385.000000	98.868831
3384.000000	98.869104
3383.000000	98.869277
3382.000000	98.869759
3381.000000	98.870610
3380.000000	98.871556
3379.000000	98.872381
3378.000000	98.873177
3377.000000	98.874173
3376.000000	98.875438
3375.000000	98.876820
3374.000000	98.878058
3373.000000	98.878942
3372.000000	98.879438
3371.000000	98.879779
3370.000000	98.880382
3369.000000	98.881503
3368.000000	98.882972
3367.000000	98.884333
3366.000000	98.885323
3365.000000	98.886117
3364.000000	98.887055
3363.000000	98.888194
3362.000000	98.889297
3361.000000	98.890277
3360.000000	98.891432
3359.000000	98.893119
3358.000000	98.895326
3357.000000	98.897555
3356.000000	98.899222
3355.000000	98.900199
3354.000000	98.900995
3353.000000	98.902337
3352.000000	98.904350
3351.000000	98.906291
3350.000000	98.907360
3349.000000	98.907562
3348.000000	98.907626
3347.000000	98.908104
3346.000000	98.908834
3345.000000	98.909462
3344.000000	98.910053
3343.000000	98.910965
3342.000000	98.912299
3341.000000	98.913804
3340.000000	98.915273
3339.000000	98.916766
3338.000000	98.918400
3337.000000	98.920136
3336.000000	98.921819
3335.000000	98.923272
3334.000000	98.924365
3333.000000	98.925139
3332.000000	98.925920
3331.000000	98.927177
3330.000000	98.929130
3329.000000	98.931519
3328.000000	98.933752
3327.000000	98.935325
3326.000000	98.936130
3325.000000	98.936506
3324.000000	98.936985
3323.000000	98.937885
3322.000000	98.939075
3321.000000	98.940173
3320.000000	98.940978
3319.000000	98.941699
3318.000000	98.942744
3317.000000	98.944308
3316.000000	98.946192
3315.000000	98.947998
3314.000000	98.949539
3313.000000	98.951026
3312.000000	98.952813
3311.000000	98.954970
3310.000000	98.957136
3309.000000	98.958845
3308.000000	98.960004
3307.000000	98.960917
3306.000000	98.962003
3305.000000	98.963404
3304.000000	98.964978
3303.000000	98.966555
3302.000000	98.968109
3301.000000	98.969692
3300.000000	98.971296
3299.000000	98.972861
3298.000000	98.974396
3297.000000	98.976023
3296.000000	98.977891
3295.000000	98.980026
3294.000000	98.982236
3293.000000	98.984153
3292.000000	98.985500
3291.000000	98.986309
3290.000000	98.986936
3289.000000	98.987791
3288.000000	98.988983
3287.000000	98.990297
3286.000000	98.991508
3285.000000	98.992717
3284.000000	98.994242
3283.000000	98.996155
3282.000000	98.998135
3281.000000	98.999788
3280.000000	99.001055
3279.000000	99.002197
3278.000000	99.003469
3277.000000	99.004863
3276.000000	99.006214
3275.000000	99.007437
3274.000000	99.008593
3273.000000	99.009779
3272.000000	99.011035
3271.000000	99.012391
3270.000000	99.013914
3269.000000	99.015597
3268.000000	99.017221
3267.000000	99.018488
3266.000000	99.019334
3265.000000	99.020045
3264.000000	99.020944
3263.000000	99.022025
3262.000000	99.023062
3261.000000	99.023973
3260.000000	99.024927
3259.000000	99.026078
3258.000000	99.027346
3257.000000	99.028538
3256.000000	99.029615
3255.000000	99.030705
3254.000000	99.031887
3253.000000	99.033068
3252.000000	99.034115
3251.000000	99.035001
3250.000000	99.035785
3249.000000	99.036536
3248.000000	99.037343
3247.000000	99.038336
3246.000000	99.039633
3245.000000	99.041256
3244.000000	99.043096
3243.000000	99.044931
3242.000000	99.046478
3241.000000	99.047554
3240.000000	99.048243
3239.000000	99.048914
3238.000000	99.049905
3237.000000	99.051214
3236.000000	99.052555
3235.000000	99.053707
3234.000000	99.054759
3233.000000	99.055982
3232.000000	99.057539
3231.000000	99.059377
3230.000000	99.061304
3229.000000	99.063139
3228.000000	99.064789
3227.000000	99.066250
3226.000000	99.067586
3225.000000	99.068904
3224.000000	99.070330
3223.000000	99.071929
3222.000000	99.073627
3221.000000	99.075228
3220.000000	99.076569
3219.000000	99.077661
3218.000000	99.078706
3217.000000	99.079970
3216.000000	99.081608
3215.000000	99.083594
3214.000000	99.085770
3213.000000	99.087960
3212.000000	99.090052
3211.000000	99.091980
3210.000000	99.093695
3209.000000	99.095206
3208.000000	99.096651
3207.000000	99.098209
3206.000000	99.099903
3205.000000	99.101562
3204.000000	99.103023
3203.000000	99.104371
3202.000000	99.105900
3201.000000	99.107814
3200.000000	99.110008
3199.000000	99.112129
3198.000000	99.113837
3197.000000	99.115047
3196.000000	99.116039
3195.000000	99.117388
3194.000000	99.119567
3193.000000	99.122522
3192.000000	99.125557
3191.000000	99.127929
3190.000000	99.129547
3189.000000	99.130939
3188.000000	99.132553
3187.000000	99.134253
3186.000000	99.135668
3185.000000	99.136763
3184.000000	99.137799
3183.000000	99.138866
3182.000000	99.139789
3181.000000	99.140574
3180.000000	99.141644
3179.000000	99.143449
3178.000000	99.145938
3177.000000	99.148616
3176.000000	99.151099
3175.000000	99.153417
3174.000000	99.155686
3173.000000	99.157737
3172.000000	99.159306
3171.000000	99.160543
3170.000000	99.162007
3169.000000	99.163906
3168.000000	99.165496
3167.000000	99.165643
3166.000000	99.164078
3165.000000	99.162016
3164.000000	99.161243
3163.000000	99.162425
3162.000000	99.164634
3161.000000	99.166487
3160.000000	99.167719
3159.000000	99.169222
3158.000000	99.171641
3157.000000	99.174420
3156.000000	99.176419
3155.000000	99.177232
3154.000000	99.177669
3153.000000	99.179013
3152.000000	99.181868
3151.000000	99.185697
3150.000000	99.189317
3149.000000	99.191886
3148.000000	99.193416
3147.000000	99.194468
3146.000000	99.195571
3145.000000	99.196935
3144.000000	99.198571
3143.000000	99.200413
3142.000000	99.202263
3141.000000	99.203854
3140.000000	99.205136
3139.000000	99.206444
3138.000000	99.208207
3137.000000	99.210509
3136.000000	99.213005
3135.000000	99.215256
3134.000000	99.217038
3133.000000	99.218357
3132.000000	99.219320
3131.000000	99.220142
3130.000000	99.221214
3129.000000	99.222988
3128.000000	99.225664
3127.000000	99.228934
3126.000000	99.232075
3125.000000	99.234443
3124.000000	99.235861
3123.000000	99.236555
3122.000000	99.236816
3121.000000	99.236861
3120.000000	99.237064
3119.000000	99.237954
3118.000000	99.239764
3117.000000	99.242046
3116.000000	99.243907
3115.000000	99.244860
3114.000000	99.245318
3113.000000	99.246135
3112.000000	99.247618
3111.000000	99.249183
3110.000000	99.250092
3109.000000	99.250382
3108.000000	99.250925
3107.000000	99.252452
3106.000000	99.254697
3105.000000	99.256588
3104.000000	99.257382
3103.000000	99.257459
3102.000000	99.257922
3101.000000	99.259436
3100.000000	99.261675
3099.000000	99.263874
3098.000000	99.265724
3097.000000	99.267474
3096.000000	99.269297
3095.000000	99.270940
3094.000000	99.272149
3093.000000	99.273202
3092.000000	99.274737
3091.000000	99.277014
3090.000000	99.279522
3089.000000	99.281480
3088.000000	99.282705
3087.000000	99.283784
3086.000000	99.285266
3085.000000	99.286830
3084.000000	99.287645
3083.000000	99.287458
3082.000000	99.286947
3081.000000	99.286997
3080.000000	99.287766
3079.000000	99.288729
3078.000000	99.289380
3077.000000	99.289688
3076.000000	99.289973
3075.000000	99.290641
3074.000000	99.292073
3073.000000	99.294377
3072.000000	99.297034
3071.000000	99.299106
3070.000000	99.300157
3069.000000	99.300705
3068.000000	99.301618
3067.000000	99.303066
3066.000000	99.304407
3065.000000	99.305072
3064.000000	99.305164
3063.000000	99.305158
3062.000000	99.305327
3061.000000	99.305686
3060.000000	99.306284
3059.000000	99.307253
3058.000000	99.308524
3057.000000	99.309701
3056.000000	99.310415
3055.000000	99.310777
3054.000000	99.311370
3053.000000	99.312653
3052.000000	99.314401
3051.000000	99.315813
3050.000000	99.316293
3049.000000	99.315968
3048.000000	99.315457
3047.000000	99.315213
3046.000000	99.315234
3045.000000	99.315416
3044.000000	99.315894
3043.000000	99.316939
3042.000000	99.318616
3041.000000	99.320539
3040.000000	99.321986
3039.000000	99.322370
3038.000000	99.321655
3037.000000	99.320389
3036.000000	99.319238
3035.000000	99.318489
3034.000000	99.318111
3033.000000	99.318074
3032.000000	99.318373
3031.000000	99.318777
3030.000000	99.318851
3029.000000	99.318408
3028.000000	99.317752
3027.000000	99.317342
3026.000000	99.317241
3025.000000	99.317054
3024.000000	99.316398
3023.000000	99.315332
3022.000000	99.314300
3021.000000	99.313717
3020.000000	99.313638
3019.000000	99.313799
3018.000000	99.313934
3017.000000	99.314023
3016.000000	99.314161
3015.000000	99.314220
3014.000000	99.313798
3013.000000	99.312634
3012.000000	99.311003
3011.000000	99.309581
3010.000000	99.308850
3009.000000	99.308725
3008.000000	99.308776
3007.000000	99.308663
3006.000000	99.308279
3005.000000	99.307592
3004.000000	99.306627
3003.000000	99.305655
3002.000000	99.305074
3001.000000	99.304868
3000.000000	99.304377
2999.000000	99.303039
2998.000000	99.301341
2997.000000	99.300532
2996.000000	99.301289
2995.000000	99.303007
2994.000000	99.304531
2993.000000	99.305294
2992.000000	99.305306
2991.000000	99.304519
2990.000000	99.302887
2989.000000	99.300935
2988.000000	99.299605
2987.000000	99.299370
2986.000000	99.299913
2985.000000	99.300689
2984.000000	99.301456
2983.000000	99.302167
2982.000000	99.302832
2981.000000	99.303672
2980.000000	99.305033
2979.000000	99.306962
2978.000000	99.309058
2977.000000	99.310780
2976.000000	99.311768
2975.000000	99.311916
2974.000000	99.311512
2973.000000	99.311310
2972.000000	99.312042
2971.000000	99.313722
2970.000000	99.315695
2969.000000	99.317435
2968.000000	99.318985
2967.000000	99.320514
2966.000000	99.321861
2965.000000	99.322760
2964.000000	99.323340
2963.000000	99.324150
2962.000000	99.325664
2961.000000	99.327950
2960.000000	99.330791
2959.000000	99.333884
2958.000000	99.336831
2957.000000	99.339133
2956.000000	99.340396
2955.000000	99.340669
2954.000000	99.340713
2953.000000	99.341762
2952.000000	99.344546
2951.000000	99.348389
2950.000000	99.351539
2949.000000	99.352946
2948.000000	99.353425
2947.000000	99.354694
2946.000000	99.357332
2945.000000	99.360244
2944.000000	99.362080
2943.000000	99.362606
2942.000000	99.362572
2941.000000	99.362768
2940.000000	99.363399
2939.000000	99.364039
2938.000000	99.364140
2937.000000	99.363946
2936.000000	99.364849
2935.000000	99.368151
2934.000000	99.373305
2933.000000	99.377916
2932.000000	99.379990
2931.000000	99.379836
2930.000000	99.379668
2929.000000	99.381722
2928.000000	99.386741
2927.000000	99.393591
2926.000000	99.399911
2925.000000	99.403679
2924.000000	99.404492
2923.000000	99.403223
2922.000000	99.400714
2921.000000	99.397387
2920.000000	99.394078
2919.000000	99.392168
2918.000000	99.392233
2917.000000	99.393190
2916.000000	99.393366
2915.000000	99.392025
2914.000000	99.389439
2913.000000	99.386096
2912.000000	99.382525
2911.000000	99.379545
2910.000000	99.377872
2909.000000	99.377369
2908.000000	99.377182
2907.000000	99.376724
2906.000000	99.376165
2905.000000	99.376083
2904.000000	99.377135
2903.000000	99.379893
2902.000000	99.384289
2901.000000	99.388900
2900.000000	99.391407
2899.000000	99.390442
2898.000000	99.386922
2897.000000	99.383356
2896.000000	99.381768
2895.000000	99.382508
2894.000000	99.384817
2893.000000	99.387849
2892.000000	99.391127
2891.000000	99.394552
2890.000000	99.398341
2889.000000	99.402577
2888.000000	99.406580
2887.000000	99.409061
2886.000000	99.409372
2885.000000	99.408442
2884.000000	99.408129
2883.000000	99.409556
2882.000000	99.412364
2881.000000	99.415324
2880.000000	99.417347
2879.000000	99.418157
2878.000000	99.418460
2877.000000	99.419496
2876.000000	99.421898
2875.000000	99.424905
2874.000000	99.427055
2873.000000	99.427820
2872.000000	99.428130
2871.000000	99.429157
2870.000000	99.431055
2869.000000	99.433284
2868.000000	99.435689
2867.000000	99.438555
2866.000000	99.441723
2865.000000	99.444341
2864.000000	99.445757
2863.000000	99.446243
2862.000000	99.446664
2861.000000	99.447690
2860.000000	99.449528
2859.000000	99.452213
2858.000000	99.455749
2857.000000	99.459818
2856.000000	99.463535
2855.000000	99.465863
2854.000000	99.466389
2853.000000	99.465779
2852.000000	99.465420
2851.000000	99.466244
2850.000000	99.468029
2849.000000	99.469937
2848.000000	99.471485
2847.000000	99.472689
2846.000000	99.473368
2845.000000	99.472951
2844.000000	99.471297
2843.000000	99.469372
2842.000000	99.468569
2841.000000	99.469409
2840.000000	99.471298
2839.000000	99.473288
2838.000000	99.474890
2837.000000	99.476128
2836.000000	99.477200
2835.000000	99.478274
2834.000000	99.479390
2833.000000	99.480365
2832.000000	99.480967
2831.000000	99.481287
2830.000000	99.481768
2829.000000	99.482690
2828.000000	99.483822
2827.000000	99.484781
2826.000000	99.485581
2825.000000	99.486543
2824.000000	99.487788
2823.000000	99.489169
2822.000000	99.490663
2821.000000	99.492361
2820.000000	99.493960
2819.000000	99.494724
2818.000000	99.494268
2817.000000	99.493098
2816.000000	99.492118
2815.000000	99.491762
2814.000000	99.491931
2813.000000	99.492525
2812.000000	99.493481
2811.000000	99.494416
2810.000000	99.494786
2809.000000	99.494550
2808.000000	99.494304
2807.000000	99.494611
2806.000000	99.495545
2805.000000	99.497066
2804.000000	99.499339
2803.000000	99.502340
2802.000000	99.505384
2801.000000	99.507506
2800.000000	99.508338
2799.000000	99.508256
2798.000000	99.507875
2797.000000	99.507615
2796.000000	99.507725
2795.000000	99.508386
2794.000000	99.509529
2793.000000	99.510747
2792.000000	99.511578
2791.000000	99.511896
2790.000000	99.511956
2789.000000	99.512120
2788.000000	99.512633
2787.000000	99.513633
2786.000000	99.515220
2785.000000	99.517317
2784.000000	99.519430
2783.000000	99.520808
2782.000000	99.521133
2781.000000	99.521035
2780.000000	99.521660
2779.000000	99.523573
2778.000000	99.526334
2777.000000	99.529092
2776.000000	99.531335
2775.000000	99.532795
2774.000000	99.533065
2773.000000	99.531984
2772.000000	99.530258
2771.000000	99.529134
2770.000000	99.529205
2769.000000	99.530045
2768.000000	99.530948
2767.000000	99.531692
2766.000000	99.532427
2765.000000	99.533196
2764.000000	99.533960
2763.000000	99.534917
2762.000000	99.536365
2761.000000	99.538208
2760.000000	99.539856
2759.000000	99.540755
2758.000000	99.540905
2757.000000	99.540806
2756.000000	99.540982
2755.000000	99.541545
2754.000000	99.542230
2753.000000	99.542747
2752.000000	99.543085
2751.000000	99.543468
2750.000000	99.544040
2749.000000	99.544683
2748.000000	99.545179
2747.000000	99.545482
2746.000000	99.545759
2745.000000	99.546178
2744.000000	99.546724
2743.000000	99.547224
2742.000000	99.547533
2741.000000	99.547686
2740.000000	99.547901
2739.000000	99.548393
2738.000000	99.549205
2737.000000	99.550200
2736.000000	99.551117
2735.000000	99.551748
2734.000000	99.552083
2733.000000	99.552283
2732.000000	99.552535
2731.000000	99.552916
2730.000000	99.553387
2729.000000	99.553863
2728.000000	99.554289
2727.000000	99.554683
2726.000000	99.555094
2725.000000	99.555534
2724.000000	99.555978
2723.000000	99.556408
2722.000000	99.556831
2721.000000	99.557241
2720.000000	99.557606
2719.000000	99.557903
2718.000000	99.558179
2717.000000	99.558535
2716.000000	99.559032
2715.000000	99.559636
2714.000000	99.560241
2713.000000	99.560744
2712.000000	99.561091
2711.000000	99.561300
2710.000000	99.561488
2709.000000	99.561830
2708.000000	99.562444
2707.000000	99.563282
2706.000000	99.564110
2705.000000	99.564665
2704.000000	99.564818
2703.000000	99.564625
2702.000000	99.564298
2701.000000	99.564067
2700.000000	99.564032
2699.000000	99.564151
2698.000000	99.564409
2697.000000	99.564923
2696.000000	99.565706
2695.000000	99.566401
2694.000000	99.566578
2693.000000	99.566360
2692.000000	99.566506
2691.000000	99.567632
2690.000000	99.569546
2689.000000	99.571530
2688.000000	99.573058
2687.000000	99.573915
2686.000000	99.573945
2685.000000	99.573190
2684.000000	99.572196
2683.000000	99.571712
2682.000000	99.571948
2681.000000	99.572429
2680.000000	99.572659
2679.000000	99.572689
2678.000000	99.572888
2677.000000	99.573281
2676.000000	99.573318
2675.000000	99.572343
2674.000000	99.570276
2673.000000	99.567882
2672.000000	99.566255
2671.000000	99.566001
2670.000000	99.566958
2669.000000	99.568535
2668.000000	99.570098
2667.000000	99.571071
2666.000000	99.571001
2665.000000	99.569819
2664.000000	99.567932
2663.000000	99.565942
2662.000000	99.564364
2661.000000	99.563575
2660.000000	99.563802
2659.000000	99.565044
2658.000000	99.567218
2657.000000	99.570345
2656.000000	99.574239
2655.000000	99.578026
2654.000000	99.580475
2653.000000	99.581012
2652.000000	99.580054
2651.000000	99.578234
2650.000000	99.575851
2649.000000	99.573410
2648.000000	99.572008
2647.000000	99.572395
2646.000000	99.573955
2645.000000	99.575242
2644.000000	99.575512
2643.000000	99.575184
2642.000000	99.574950
2641.000000	99.575053
2640.000000	99.575392
2639.000000	99.575625
2638.000000	99.574996
2637.000000	99.572832
2636.000000	99.569669
2635.000000	99.567377
2634.000000	99.567496
2633.000000	99.569681
2632.000000	99.572025
2631.000000	99.572924
2630.000000	99.572361
2629.000000	99.571383
2628.000000	99.570796
2627.000000	99.570464
2626.000000	99.569684
2625.000000	99.568052
2624.000000	99.565934
2623.000000	99.564175
2622.000000	99.563400
2621.000000	99.563642
2620.000000	99.564460
2619.000000	99.565152
2618.000000	99.564892
2617.000000	99.563128
2616.000000	99.560209
2615.000000	99.557525
2614.000000	99.556568
2613.000000	99.557639
2612.000000	99.559563
2611.000000	99.560760
2610.000000	99.560772
2609.000000	99.560664
2608.000000	99.561819
2607.000000	99.564451
2606.000000	99.567575
2605.000000	99.570344
2604.000000	99.572939
2603.000000	99.575807
2602.000000	99.578413
2601.000000	99.579442
2600.000000	99.578272
2599.000000	99.575712
2598.000000	99.573296
2597.000000	99.571953
2596.000000	99.571458
2595.000000	99.570984
2594.000000	99.570063
2593.000000	99.569172
2592.000000	99.569297
2591.000000	99.570796
2590.000000	99.572820
2589.000000	99.574097
2588.000000	99.574146
2587.000000	99.573463
2586.000000	99.572765
2585.000000	99.572380
2584.000000	99.572342
2583.000000	99.572643
2582.000000	99.573228
2581.000000	99.573948
2580.000000	99.574630
2579.000000	99.575101
2578.000000	99.575224
2577.000000	99.575080
2576.000000	99.575075
2575.000000	99.575600
2574.000000	99.576578
2573.000000	99.577486
2572.000000	99.577887
2571.000000	99.577804
2570.000000	99.577516
2569.000000	99.577219
2568.000000	99.576946
2567.000000	99.576745
2566.000000	99.576722
2565.000000	99.576915
2564.000000	99.577213
2563.000000	99.577420
2562.000000	99.577431
2561.000000	99.577289
2560.000000	99.577087
2559.000000	99.576880
2558.000000	99.576689
2557.000000	99.576558
2556.000000	99.576544
2555.000000	99.576660
2554.000000	99.576839
2553.000000	99.577008
2552.000000	99.577163
2551.000000	99.577323
2550.000000	99.577443
2549.000000	99.577441
2548.000000	99.577307
2547.000000	99.577142
2546.000000	99.577060
2545.000000	99.577091
2544.000000	99.577213
2543.000000	99.577401
2542.000000	99.577598
2541.000000	99.577699
2540.000000	99.577623
2539.000000	99.577409
2538.000000	99.577233
2537.000000	99.577256
2536.000000	99.577505
2535.000000	99.577877
2534.000000	99.578260
2533.000000	99.578584
2532.000000	99.578786
2531.000000	99.578822
2530.000000	99.578736
2529.000000	99.578682
2528.000000	99.578825
2527.000000	99.579205
2526.000000	99.579691
2525.000000	99.580084
2524.000000	99.580301
2523.000000	99.580452
2522.000000	99.580703
2521.000000	99.581072
2520.000000	99.581381
2519.000000	99.581470
2518.000000	99.581403
2517.000000	99.581412
2516.000000	99.581630
2515.000000	99.581959
2514.000000	99.582274
2513.000000	99.582715
2512.000000	99.583568
2511.000000	99.584811
2510.000000	99.585917
2509.000000	99.586309
2508.000000	99.585894
2507.000000	99.585025
2506.000000	99.584097
2505.000000	99.583401
2504.000000	99.583268
2503.000000	99.583919
2502.000000	99.584980
2501.000000	99.585520
2500.000000	99.584917
2499.000000	99.583583
2498.000000	99.582642
2497.000000	99.582855
2496.000000	99.584066
2495.000000	99.585586
2494.000000	99.586919
2493.000000	99.588090
2492.000000	99.589332
2491.000000	99.590526
2490.000000	99.591138
2489.000000	99.590895
2488.000000	99.590417
2487.000000	99.590771
2486.000000	99.592323
2485.000000	99.594349
2484.000000	99.595976
2483.000000	99.597195
2482.000000	99.598535
2481.000000	99.599961
2480.000000	99.600654
2479.000000	99.600036
2478.000000	99.598625
2477.000000	99.597680
2476.000000	99.597975
2475.000000	99.599007
2474.000000	99.599418
2473.000000	99.598293
2472.000000	99.596055
2471.000000	99.594127
2470.000000	99.593560
2469.000000	99.594178
2468.000000	99.595055
2467.000000	99.595545
2466.000000	99.595610
2465.000000	99.595362
2464.000000	99.594816
2463.000000	99.594237
2462.000000	99.594297
2461.000000	99.595495
2460.000000	99.597513
2459.000000	99.599334
2458.000000	99.600135
2457.000000	99.600016
2456.000000	99.599784
2455.000000	99.600103
2454.000000	99.600929
2453.000000	99.601802
2452.000000	99.602464
2451.000000	99.603004
2450.000000	99.603446
2449.000000	99.603494
2448.000000	99.602821
2447.000000	99.601478
2446.000000	99.599898
2445.000000	99.598554
2444.000000	99.597729
2443.000000	99.597520
2442.000000	99.597910
2441.000000	99.598830
2440.000000	99.600170
2439.000000	99.601714
2438.000000	99.603074
2437.000000	99.603828
2436.000000	99.603825
2435.000000	99.603309
2434.000000	99.602706
2433.000000	99.602346
2432.000000	99.602381
2431.000000	99.602871
2430.000000	99.603752
2429.000000	99.604779
2428.000000	99.605672
2427.000000	99.606323
2426.000000	99.606776
2425.000000	99.607005
2424.000000	99.606844
2423.000000	99.606186
2422.000000	99.605222
2421.000000	99.604487
2420.000000	99.604552
2419.000000	99.605579
2418.000000	99.607074
2417.000000	99.608184
2416.000000	99.608483
2415.000000	99.608359
2414.000000	99.608562
2413.000000	99.609415
2412.000000	99.610626
2411.000000	99.611769
2410.000000	99.612675
2409.000000	99.613266
2408.000000	99.613300
2407.000000	99.612575
2406.000000	99.611330
2405.000000	99.610162
2404.000000	99.609555
2403.000000	99.609562
2402.000000	99.609999
2401.000000	99.610671
2400.000000	99.611361
2399.000000	99.611782
2398.000000	99.611750
2397.000000	99.611439
2396.000000	99.611268
2395.000000	99.611482
2394.000000	99.611916
2393.000000	99.612201
2392.000000	99.612137
2391.000000	99.611792
2390.000000	99.611371
2389.000000	99.611065
2388.000000	99.610942
2387.000000	99.610874
2386.000000	99.610624
2385.000000	99.610083
2384.000000	99.609411
2383.000000	99.608882
2382.000000	99.608606
2381.000000	99.608483
2380.000000	99.608387
2379.000000	99.608305
2378.000000	99.608260
2377.000000	99.608208
2376.000000	99.608084
2375.000000	99.607881
2374.000000	99.607628
2373.000000	99.607344
2372.000000	99.607026
2371.000000	99.606678
2370.000000	99.606324
2369.000000	99.605993
2368.000000	99.605702
2367.000000	99.605443
2366.000000	99.605202
2365.000000	99.604964
2364.000000	99.604730
2363.000000	99.604505
2362.000000	99.604292
2361.000000	99.604079
2360.000000	99.603847
2359.000000	99.603585
2358.000000	99.603296
2357.000000	99.602999
2356.000000	99.602709
2355.000000	99.602432
2354.000000	99.602165
2353.000000	99.601905
2352.000000	99.601652
2351.000000	99.601410
2350.000000	99.601183
2349.000000	99.600966
2348.000000	99.600754
2347.000000	99.600547
2346.000000	99.600349
2345.000000	99.600168
2344.000000	99.600010
2343.000000	99.599875
2342.000000	99.599759
2341.000000	99.599652
2340.000000	99.599538
2339.000000	99.599401
2338.000000	99.599236
2337.000000	99.599046
2336.000000	99.598827
2335.000000	99.598570
2334.000000	99.598293
2333.000000	99.598062
2332.000000	99.597934
2331.000000	99.597907
2330.000000	99.597931
2329.000000	99.597954
2328.000000	99.597944
2327.000000	99.597880
2326.000000	99.597770
2325.000000	99.597634
2324.000000	99.597504
2323.000000	99.597415
2322.000000	99.597392
2321.000000	99.597420
2320.000000	99.597427
2319.000000	99.597344
2318.000000	99.597195
2317.000000	99.597072
2316.000000	99.597024
2315.000000	99.596998
2314.000000	99.596928
2313.000000	99.596821
2312.000000	99.596739
2311.000000	99.596687
2310.000000	99.596599
2309.000000	99.596419
2308.000000	99.596164
2307.000000	99.595915
2306.000000	99.595760
2305.000000	99.595747
2304.000000	99.595842
2303.000000	99.595883
2302.000000	99.595713
2301.000000	99.595300
2300.000000	99.594771
2299.000000	99.594262
2298.000000	99.593795
2297.000000	99.593351
2296.000000	99.592952
2295.000000	99.592632
2294.000000	99.592379
2293.000000	99.592156
2292.000000	99.591938
2291.000000	99.591706
2290.000000	99.591426
2289.000000	99.591077
2288.000000	99.590678
2287.000000	99.590263
2286.000000	99.589830
2285.000000	99.589364
2284.000000	99.588905
2283.000000	99.588533
2282.000000	99.588264
2281.000000	99.587992
2280.000000	99.587582
2279.000000	99.587021
2278.000000	99.586407
2277.000000	99.585823
2276.000000	99.585282
2275.000000	99.584764
2274.000000	99.584255
2273.000000	99.583736
2272.000000	99.583191
2271.000000	99.582616
2270.000000	99.582017
2269.000000	99.581388
2268.000000	99.580728
2267.000000	99.580069
2266.000000	99.579476
2265.000000	99.578974
2264.000000	99.578518
2263.000000	99.578043
2262.000000	99.577529
2261.000000	99.577008
2260.000000	99.576510
2259.000000	99.576030
2258.000000	99.575535
2257.000000	99.575005
2256.000000	99.574471
2255.000000	99.573999
2254.000000	99.573633
2253.000000	99.573364
2252.000000	99.573123
2251.000000	99.572818
2250.000000	99.572394
2249.000000	99.571857
2248.000000	99.571286
2247.000000	99.570771
2246.000000	99.570359
2245.000000	99.570041
2244.000000	99.569776
2243.000000	99.569526
2242.000000	99.569308
2241.000000	99.569213
2240.000000	99.569296
2239.000000	99.569408
2238.000000	99.569247
2237.000000	99.568651
2236.000000	99.567817
2235.000000	99.567149
2234.000000	99.566807
2233.000000	99.566598
2232.000000	99.566316
2231.000000	99.566069
2230.000000	99.566095
2229.000000	99.566415
2228.000000	99.566839
2227.000000	99.567196
2226.000000	99.567362
2225.000000	99.567143
2224.000000	99.566397
2223.000000	99.565301
2222.000000	99.564294
2221.000000	99.563613
2220.000000	99.563137
2219.000000	99.562830
2218.000000	99.563095
2217.000000	99.564385
2216.000000	99.566514
2215.000000	99.568550
2214.000000	99.569589
2213.000000	99.569568
2212.000000	99.569218
2211.000000	99.569341
2210.000000	99.570064
2209.000000	99.570887
2208.000000	99.571296
2207.000000	99.571195
2206.000000	99.570793
2205.000000	99.570297
2204.000000	99.569842
2203.000000	99.569529
2202.000000	99.569390
2201.000000	99.569369
2200.000000	99.569381
2199.000000	99.569349
2198.000000	99.569191
2197.000000	99.568858
2196.000000	99.568449
2195.000000	99.568194
2194.000000	99.568237
2193.000000	99.568512
2192.000000	99.568902
2191.000000	99.569387
2190.000000	99.569970
2189.000000	99.570553
2188.000000	99.570975
2187.000000	99.571155
2186.000000	99.571138
2185.000000	99.571015
2184.000000	99.570850
2183.000000	99.570684
2182.000000	99.570558
2181.000000	99.570531
2180.000000	99.570659
2179.000000	99.570942
2178.000000	99.571288
2177.000000	99.571537
2176.000000	99.571596
2175.000000	99.571519
2174.000000	99.571460
2173.000000	99.571503
2172.000000	99.571579
2171.000000	99.571600
2170.000000	99.571607
2169.000000	99.571683
2168.000000	99.571800
2167.000000	99.571864
2166.000000	99.571889
2165.000000	99.571996
2164.000000	99.572179
2163.000000	99.572197
2162.000000	99.571818
2161.000000	99.571126
2160.000000	99.570566
2159.000000	99.570519
2158.000000	99.570984
2157.000000	99.571629
2156.000000	99.572157
2155.000000	99.572550
2154.000000	99.572901
2153.000000	99.573173
2152.000000	99.573221
2151.000000	99.572997
2150.000000	99.572677
2149.000000	99.572577
2148.000000	99.572967
2147.000000	99.573878
2146.000000	99.574932
2145.000000	99.575436
2144.000000	99.574874
2143.000000	99.573382
2142.000000	99.571746
2141.000000	99.570683
2140.000000	99.570231
2139.000000	99.570068
2138.000000	99.570230
2137.000000	99.571094
2136.000000	99.572627
2135.000000	99.574129
2134.000000	99.574996
2133.000000	99.575423
2132.000000	99.576061
2131.000000	99.577207
2130.000000	99.578602
2129.000000	99.579853
2128.000000	99.580686
2127.000000	99.580820
2126.000000	99.580099
2125.000000	99.578935
2124.000000	99.578180
2123.000000	99.578258
2122.000000	99.578709
2121.000000	99.578888
2120.000000	99.578907
2119.000000	99.579448
2118.000000	99.580766
2117.000000	99.582440
2116.000000	99.584082
2115.000000	99.585822
2114.000000	99.587832
2113.000000	99.589715
2112.000000	99.590814
2111.000000	99.591069
2110.000000	99.591229
2109.000000	99.592082
2108.000000	99.593558
2107.000000	99.594764
2106.000000	99.594897
2105.000000	99.593983
2104.000000	99.592721
2103.000000	99.591729
2102.000000	99.591144
2101.000000	99.590880
2100.000000	99.590955
2099.000000	99.591442
2098.000000	99.592246
2097.000000	99.593044
2096.000000	99.593426
2095.000000	99.593119
2094.000000	99.592214
2093.000000	99.591202
2092.000000	99.590643
2091.000000	99.590779
2090.000000	99.591575
2089.000000	99.593067
2088.000000	99.595274
2087.000000	99.597719
2086.000000	99.599584
2085.000000	99.600730
2084.000000	99.602245
2083.000000	99.605332
2082.000000	99.609646
2081.000000	99.613207
2080.000000	99.614263
2079.000000	99.612810
2078.000000	99.610293
2077.000000	99.608185
2076.000000	99.607067
2075.000000	99.606938
2074.000000	99.607799
2073.000000	99.609635
2072.000000	99.611993
2071.000000	99.613918
2070.000000	99.614519
2069.000000	99.613640
2068.000000	99.612013
2067.000000	99.610709
2066.000000	99.610380
2065.000000	99.610948
2064.000000	99.611845
2063.000000	99.612398
2062.000000	99.612002
2061.000000	99.610266
2060.000000	99.607391
2059.000000	99.604467
2058.000000	99.602983
2057.000000	99.603622
2056.000000	99.605521
2055.000000	99.606918
2054.000000	99.606845
2053.000000	99.606006
2052.000000	99.605832
2051.000000	99.606781
2050.000000	99.607842
2049.000000	99.607702
2048.000000	99.606044
2047.000000	99.603618
2046.000000	99.601341
2045.000000	99.599464
2044.000000	99.597500
2043.000000	99.594829
2042.000000	99.591477
2041.000000	99.588385
2040.000000	99.586645
2039.000000	99.586403
2038.000000	99.586701
2037.000000	99.586381
2036.000000	99.584990
2035.000000	99.582697
2034.000000	99.579804
2033.000000	99.576749
2032.000000	99.574264
2031.000000	99.572934
2030.000000	99.572547
2029.000000	99.572307
2028.000000	99.571745
2027.000000	99.571095
2026.000000	99.570684
2025.000000	99.570397
2024.000000	99.569936
2023.000000	99.569277
2022.000000	99.568607
2021.000000	99.567967
2020.000000	99.567233
2019.000000	99.566350
2018.000000	99.565392
2017.000000	99.564430
2016.000000	99.563476
2015.000000	99.562469
2014.000000	99.561198
2013.000000	99.559335
2012.000000	99.556736
2011.000000	99.553667
2010.000000	99.550531
2009.000000	99.547544
2008.000000	99.544864
2007.000000	99.542940
2006.000000	99.542393
2005.000000	99.543322
2004.000000	99.544857
2003.000000	99.545624
2002.000000	99.544860
2001.000000	99.542975
2000.000000	99.541040
1999.000000	99.539758
1998.000000	99.539013
1997.000000	99.538436
1996.000000	99.538111
1995.000000	99.538448
1994.000000	99.539432
1993.000000	99.540321
1992.000000	99.540334
1991.000000	99.539519
1990.000000	99.538639
1989.000000	99.538297
1988.000000	99.538454
1987.000000	99.538725
1986.000000	99.538849
1985.000000	99.538796
1984.000000	99.538626
1983.000000	99.538387
1982.000000	99.538100
1981.000000	99.537723
1980.000000	99.537228
1979.000000	99.536760
1978.000000	99.536626
1977.000000	99.537027
1976.000000	99.537829
1975.000000	99.538645
1974.000000	99.539113
1973.000000	99.539092
1972.000000	99.538683
1971.000000	99.538207
1970.000000	99.538071
1969.000000	99.538448
1968.000000	99.539096
1967.000000	99.539509
1966.000000	99.539431
1965.000000	99.539032
1964.000000	99.538584
1963.000000	99.538128
1962.000000	99.537615
1961.000000	99.537220
1960.000000	99.537267
1959.000000	99.537842
1958.000000	99.538654
1957.000000	99.539311
1956.000000	99.539614
1955.000000	99.539488
1954.000000	99.538887
1953.000000	99.537923
1952.000000	99.536935
1951.000000	99.536211
1950.000000	99.535723
1949.000000	99.535286
1948.000000	99.534894
1947.000000	99.534686
1946.000000	99.534604
1945.000000	99.534314
1944.000000	99.533585
1943.000000	99.532576
1942.000000	99.531673
1941.000000	99.531065
1940.000000	99.530642
1939.000000	99.530200
1938.000000	99.529555
1937.000000	99.528544
1936.000000	99.527141
1935.000000	99.525653
1934.000000	99.524662
1933.000000	99.524563
1932.000000	99.525081
1931.000000	99.525382
1930.000000	99.524900
1929.000000	99.523896
1928.000000	99.523064
1927.000000	99.522531
1926.000000	99.521640
1925.000000	99.519795
1924.000000	99.517191
1923.000000	99.514715
1922.000000	99.513104
1921.000000	99.512366
1920.000000	99.512015
1919.000000	99.511470
1918.000000	99.510315
1917.000000	99.508486
1916.000000	99.506230
1915.000000	99.503893
1914.000000	99.501853
1913.000000	99.500445
1912.000000	99.499495
1911.000000	99.498117
1910.000000	99.495576
1909.000000	99.492344
1908.000000	99.489733
1907.000000	99.488202
1906.000000	99.486987
1905.000000	99.485531
1904.000000	99.484256
1903.000000	99.483534
1902.000000	99.482640
1901.000000	99.480599
1900.000000	99.477710
1899.000000	99.475137
1898.000000	99.473199
1897.000000	99.470936
1896.000000	99.467419
1895.000000	99.462989
1894.000000	99.458998
1893.000000	99.456653
1892.000000	99.456143
1891.000000	99.456427
1890.000000	99.455725
1889.000000	99.453070
1888.000000	99.449569
1887.000000	99.447277
1886.000000	99.446987
1885.000000	99.447811
1884.000000	99.448579
1883.000000	99.449024
1882.000000	99.449243
1881.000000	99.448566
1880.000000	99.445963
1879.000000	99.441525
1878.000000	99.436956
1877.000000	99.434266
1876.000000	99.433969
1875.000000	99.434849
1874.000000	99.435542
1873.000000	99.436035
1872.000000	99.437265
1871.000000	99.439554
1870.000000	99.442100
1869.000000	99.444285
1868.000000	99.446674
1867.000000	99.449676
1866.000000	99.452049
1865.000000	99.452021
1864.000000	99.449614
1863.000000	99.447204
1862.000000	99.447437
1861.000000	99.450866
1860.000000	99.455883
1859.000000	99.460556
1858.000000	99.464089
1857.000000	99.466782
1856.000000	99.469335
1855.000000	99.472231
1854.000000	99.475414
1853.000000	99.478255
1852.000000	99.480251
1851.000000	99.481480
1850.000000	99.482316
1849.000000	99.483225
1848.000000	99.484936
1847.000000	99.488266
1846.000000	99.493158
1845.000000	99.497856
1844.000000	99.500295
1843.000000	99.500816
1842.000000	99.501472
1841.000000	99.503032
1840.000000	99.504770
1839.000000	99.506132
1838.000000	99.507579
1837.000000	99.509528
1836.000000	99.511136
1835.000000	99.511285
1834.000000	99.510480
1833.000000	99.510731
1832.000000	99.513492
1831.000000	99.517872
1830.000000	99.521112
1829.000000	99.521447
1828.000000	99.519911
1827.000000	99.518604
1826.000000	99.518411
1825.000000	99.518806
1824.000000	99.518711
1823.000000	99.517415
1822.000000	99.515085
1821.000000	99.512733
1820.000000	99.511676
1819.000000	99.512483
1818.000000	99.514574
1817.000000	99.516888
1816.000000	99.518648
1815.000000	99.519486
1814.000000	99.519124
1813.000000	99.517583
1812.000000	99.515544
1811.000000	99.514015
1810.000000	99.513490
1809.000000	99.513519
1808.000000	99.513078
1807.000000	99.511358
1806.000000	99.508538
1805.000000	99.505999
1804.000000	99.505249
1803.000000	99.506514
1802.000000	99.508489
1801.000000	99.509882
1800.000000	99.510689
1799.000000	99.511388
1798.000000	99.511796
1797.000000	99.511742
1796.000000	99.512182
1795.000000	99.514507
1794.000000	99.518574
1793.000000	99.522105
1792.000000	99.523142
1791.000000	99.522585
1790.000000	99.522442
1789.000000	99.523142
1788.000000	99.523959
1787.000000	99.524386
1786.000000	99.524473
1785.000000	99.524645
1784.000000	99.525569
1783.000000	99.527876
1782.000000	99.531271
1781.000000	99.534386
1780.000000	99.536050
1779.000000	99.536732
1778.000000	99.537992
1777.000000	99.540612
1776.000000	99.544298
1775.000000	99.548606
1774.000000	99.553114
1773.000000	99.556741
1772.000000	99.558454
1771.000000	99.559002
1770.000000	99.560250
1769.000000	99.562945
1768.000000	99.566118
1767.000000	99.568386
1766.000000	99.569509
1765.000000	99.570432
1764.000000	99.572139
1763.000000	99.574774
1762.000000	99.577475
1761.000000	99.579476
1760.000000	99.581158
1759.000000	99.583485
1758.000000	99.586608
1757.000000	99.589405
1756.000000	99.590888
1755.000000	99.591547
1754.000000	99.592510
1753.000000	99.594014
1752.000000	99.595240
1751.000000	99.595660
1750.000000	99.596360
1749.000000	99.598554
1748.000000	99.601678
1747.000000	99.604153
1746.000000	99.604872
1745.000000	99.603716
1744.000000	99.601483
1743.000000	99.599744
1742.000000	99.600095
1741.000000	99.602953
1740.000000	99.606803
1739.000000	99.609295
1738.000000	99.609602
1737.000000	99.608906
1736.000000	99.609170
1735.000000	99.611374
1734.000000	99.614290
1733.000000	99.615795
1732.000000	99.615348
1731.000000	99.613341
1730.000000	99.610094
1729.000000	99.605950
1728.000000	99.601417
1727.000000	99.597351
1726.000000	99.594788
1725.000000	99.594319
1724.000000	99.595256
1723.000000	99.595979
1722.000000	99.595664
1721.000000	99.594870
1720.000000	99.594338
1719.000000	99.593471
1718.000000	99.590567
1717.000000	99.585601
1716.000000	99.581357
1715.000000	99.579693
1714.000000	99.579732
1713.000000	99.579727
1712.000000	99.578540
1711.000000	99.576010
1710.000000	99.572901
1709.000000	99.570546
1708.000000	99.569702
1707.000000	99.569288
1706.000000	99.566954
1705.000000	99.561726
1704.000000	99.555433
1703.000000	99.550501
1702.000000	99.547836
1701.000000	99.546296
1700.000000	99.544514
1699.000000	99.542900
1698.000000	99.541865
1697.000000	99.540873
1696.000000	99.538946
1695.000000	99.535943
1694.000000	99.532973
1693.000000	99.530368
1692.000000	99.527669
1691.000000	99.524718
1690.000000	99.521494
1689.000000	99.517843
1688.000000	99.513924
1687.000000	99.510385
1686.000000	99.507854
1685.000000	99.506192
1684.000000	99.505248
1683.000000	99.505153
1682.000000	99.505366
1681.000000	99.505143
1680.000000	99.504423
1679.000000	99.503644
1678.000000	99.502955
1677.000000	99.501897
1676.000000	99.499775
1675.000000	99.496757
1674.000000	99.494014
1673.000000	99.492174
1672.000000	99.490883
1671.000000	99.489716
1670.000000	99.488580
1669.000000	99.487428
1668.000000	99.486095
1667.000000	99.484528
1666.000000	99.482799
1665.000000	99.480922
1664.000000	99.478782
1663.000000	99.476462
1662.000000	99.474475
1661.000000	99.473155
1660.000000	99.472235
1659.000000	99.471272
1658.000000	99.470101
1657.000000	99.468830
1656.000000	99.467633
1655.000000	99.466478
1654.000000	99.464622
1653.000000	99.461648
1652.000000	99.459489
1651.000000	99.459341
1650.000000	99.459730
1649.000000	99.458909
1648.000000	99.455960
1647.000000	99.451135
1646.000000	99.446590
1645.000000	99.444597
1644.000000	99.445213
1643.000000	99.446803
1642.000000	99.447519
1641.000000	99.446281
1640.000000	99.443230
1639.000000	99.439397
1638.000000	99.436057
1637.000000	99.434160
1636.000000	99.433819
1635.000000	99.433821
1634.000000	99.433330
1633.000000	99.432841
1632.000000	99.432988
1631.000000	99.434081
1630.000000	99.435893
1629.000000	99.437742
1628.000000	99.439200
1627.000000	99.440298
1626.000000	99.440857
1625.000000	99.440302
1624.000000	99.438585
1623.000000	99.437251
1622.000000	99.438062
1621.000000	99.440451
1620.000000	99.442035
1619.000000	99.441021
1618.000000	99.437636
1617.000000	99.434642
1616.000000	99.435483
1615.000000	99.440355
1614.000000	99.446571
1613.000000	99.452446
1612.000000	99.458358
1611.000000	99.464967
1610.000000	99.471406
1609.000000	99.475672
1608.000000	99.476745
1607.000000	99.475891
1606.000000	99.475708
1605.000000	99.478073
1604.000000	99.483036
1603.000000	99.488993
1602.000000	99.493864
1601.000000	99.496945
1600.000000	99.499502
1599.000000	99.503230
1598.000000	99.508369
1597.000000	99.513694
1596.000000	99.518224
1595.000000	99.522281
1594.000000	99.526561
1593.000000	99.530707
1592.000000	99.533580
1591.000000	99.534848
1590.000000	99.535746
1589.000000	99.538006
1588.000000	99.542258
1587.000000	99.547713
1586.000000	99.553096
1585.000000	99.557466
1584.000000	99.560524
1583.000000	99.562532
1582.000000	99.564138
1581.000000	99.565913
1580.000000	99.567892
1579.000000	99.569777
1578.000000	99.571564
1577.000000	99.573539
1576.000000	99.575707
1575.000000	99.577970
1574.000000	99.580350
1573.000000	99.582695
1572.000000	99.584913
1571.000000	99.586970
1570.000000	99.588938
1569.000000	99.591240
1568.000000	99.594242
1567.000000	99.597624
1566.000000	99.600468
1565.000000	99.601833
1564.000000	99.601430
1563.000000	99.599868
1562.000000	99.598561
1561.000000	99.599479
1560.000000	99.603901
1559.000000	99.610440
1558.000000	99.613840
1557.000000	99.613733
1556.000000	99.613130
1555.000000	99.612631
1554.000000	99.611761
1553.000000	99.610635
1552.000000	99.610203
1551.000000	99.610947
1550.000000	99.612248
1549.000000	99.612941
1548.000000	99.612582
1547.000000	99.611741
1546.000000	99.611048
1545.000000	99.610726
1544.000000	99.610571
1543.000000	99.609879
1542.000000	99.608080
1541.000000	99.605687
1540.000000	99.604050
1539.000000	99.603387
1538.000000	99.603163
1537.000000	99.602994
1536.000000	99.602607
1535.000000	99.602079
1534.000000	99.601487
1533.000000	99.600928
1532.000000	99.600587
1531.000000	99.600275
1530.000000	99.599385
1529.000000	99.597412
1528.000000	99.594687
1527.000000	99.592439
1526.000000	99.591613
1525.000000	99.591984
1524.000000	99.592730
1523.000000	99.593261
1522.000000	99.593206
1521.000000	99.592419
1520.000000	99.591492
1519.000000	99.590946
1518.000000	99.590522
1517.000000	99.589945
1516.000000	99.589322
1515.000000	99.588890
1514.000000	99.588717
1513.000000	99.588796
1512.000000	99.589115
1511.000000	99.589457
1510.000000	99.589506
1509.000000	99.589442
1508.000000	99.590178
1507.000000	99.592085
1506.000000	99.592997
1505.000000	99.591958
1504.000000	99.590527
1503.000000	99.589646
1502.000000	99.589399
1501.000000	99.589779
1500.000000	99.590865
1499.000000	99.592686
1498.000000	99.594508
1497.000000	99.594662
1496.000000	99.592149
1495.000000	99.588230
1494.000000	99.584821
1493.000000	99.582416
1492.000000	99.580796
1491.000000	99.580159
1490.000000	99.581060
1489.000000	99.583101
1488.000000	99.584848
1487.000000	99.585572
1486.000000	99.585838
1485.000000	99.586496
1484.000000	99.587958
1483.000000	99.589965
1482.000000	99.591606
1481.000000	99.591875
1480.000000	99.590617
1479.000000	99.588771
1478.000000	99.587460
1477.000000	99.587257
1476.000000	99.588000
1475.000000	99.589199
1474.000000	99.590395
1473.000000	99.591268
1472.000000	99.591924
1471.000000	99.592892
1470.000000	99.594338
1469.000000	99.595832
1468.000000	99.597032
1467.000000	99.598199
1466.000000	99.599814
1465.000000	99.601472
1464.000000	99.601915
1463.000000	99.600487
1462.000000	99.597639
1461.000000	99.593938
1460.000000	99.590071
1459.000000	99.587602
1458.000000	99.588352
1457.000000	99.591158
1456.000000	99.592488
1455.000000	99.592070
1454.000000	99.591374
1453.000000	99.590719
1452.000000	99.589833
1451.000000	99.587962
1450.000000	99.584476
1449.000000	99.579721
1448.000000	99.575105
1447.000000	99.572161
1446.000000	99.570978
1445.000000	99.570119
1444.000000	99.567898
1443.000000	99.563626
1442.000000	99.558576
1441.000000	99.555278
1440.000000	99.555175
1439.000000	99.557037
1438.000000	99.557461
1437.000000	99.553509
1436.000000	99.546787
1435.000000	99.541682
1434.000000	99.539324
1433.000000	99.538176
1432.000000	99.537093
1431.000000	99.535606
1430.000000	99.533504
1429.000000	99.531096
1428.000000	99.529097
1427.000000	99.527709
1426.000000	99.526247
1425.000000	99.524318
1424.000000	99.522941
1423.000000	99.523269
1422.000000	99.525318
1421.000000	99.528906
1420.000000	99.534082
1419.000000	99.539740
1418.000000	99.543365
1417.000000	99.543548
1416.000000	99.541066
1415.000000	99.537418
1414.000000	99.533917
1413.000000	99.531856
1412.000000	99.532438
1411.000000	99.535642
1410.000000	99.539647
1409.000000	99.542589
1408.000000	99.544319
1407.000000	99.545847
1406.000000	99.547733
1405.000000	99.549840
1404.000000	99.552366
1403.000000	99.555916
1402.000000	99.560566
1401.000000	99.565647
1400.000000	99.570241
1399.000000	99.573540
1398.000000	99.575007
1397.000000	99.574577
1396.000000	99.572907
1395.000000	99.571571
1394.000000	99.572230
1393.000000	99.575098
1392.000000	99.578854
1391.000000	99.581873
1390.000000	99.583442
1389.000000	99.584321
1388.000000	99.586252
1387.000000	99.590134
1386.000000	99.594576
1385.000000	99.597287
1384.000000	99.597444
1383.000000	99.596007
1382.000000	99.594773
1381.000000	99.594976
1380.000000	99.596502
1379.000000	99.598450
1378.000000	99.600202
1377.000000	99.601862
1376.000000	99.603600
1375.000000	99.604914
1374.000000	99.605060
1373.000000	99.604298
1372.000000	99.603847
1371.000000	99.604489
1370.000000	99.606000
1369.000000	99.607895
1368.000000	99.610049
1367.000000	99.612316
1366.000000	99.614069
1365.000000	99.614640
1364.000000	99.613952
1363.000000	99.612518
1362.000000	99.610974
1361.000000	99.609944
1360.000000	99.609979
1359.000000	99.610889
1358.000000	99.611377
1357.000000	99.610218
1356.000000	99.607837
1355.000000	99.606054
1354.000000	99.606097
1353.000000	99.607721
1352.000000	99.610143
1351.000000	99.612727
1350.000000	99.614629
1349.000000	99.615045
1348.000000	99.614318
1347.000000	99.613819
1346.000000	99.614237
1345.000000	99.614798
1344.000000	99.614492
1343.000000	99.612990
1342.000000	99.610232
1341.000000	99.606614
1340.000000	99.604101
1339.000000	99.605225
1338.000000	99.609647
1337.000000	99.613635
1336.000000	99.614287
1335.000000	99.612455
1334.000000	99.610756
1333.000000	99.610018
1332.000000	99.608980
1331.000000	99.606927
1330.000000	99.604842
1329.000000	99.603808
1328.000000	99.603736
1327.000000	99.604234
1326.000000	99.605628
1325.000000	99.608389
1324.000000	99.612082
1323.000000	99.615550
1322.000000	99.617981
1321.000000	99.619374
1320.000000	99.619868
1319.000000	99.619017
1318.000000	99.616179
1317.000000	99.611699
1316.000000	99.607179
1315.000000	99.604239
1314.000000	99.603344
1313.000000	99.604106
1312.000000	99.606255
1311.000000	99.609554
1310.000000	99.613020
1309.000000	99.615262
1308.000000	99.615720
1307.000000	99.614859
1306.000000	99.613147
1305.000000	99.610813
1304.000000	99.608866
1303.000000	99.609098
1302.000000	99.612098
1301.000000	99.615778
1300.000000	99.616852
1299.000000	99.613725
1298.000000	99.607719
1297.000000	99.601858
1296.000000	99.598438
1295.000000	99.597434
1294.000000	99.597127
1293.000000	99.596318
1292.000000	99.595578
1291.000000	99.595816
1290.000000	99.596135
1289.000000	99.594199
1288.000000	99.588761
1287.000000	99.581040
1286.000000	99.573613
1285.000000	99.568600
1284.000000	99.566723
1283.000000	99.566890
1282.000000	99.566664
1281.000000	99.564345
1280.000000	99.560504
1279.000000	99.556513
1278.000000	99.552249
1277.000000	99.547005
1276.000000	99.542042
1275.000000	99.539798
1274.000000	99.540434
1273.000000	99.541582
1272.000000	99.541846
1271.000000	99.542075
1270.000000	99.542580
1269.000000	99.541829
1268.000000	99.538992
1267.000000	99.535358
1266.000000	99.532218
1265.000000	99.529631
1264.000000	99.528035
1263.000000	99.528124
1262.000000	99.527960
1261.000000	99.523489
1260.000000	99.513983
1259.000000	99.504112
1258.000000	99.498207
1257.000000	99.495082
1256.000000	99.491082
1255.000000	99.485480
1254.000000	99.479661
1253.000000	99.472918
1252.000000	99.462822
1251.000000	99.449386
1250.000000	99.435985
1249.000000	99.425958
1248.000000	99.420104
1247.000000	99.416960
1246.000000	99.413437
1245.000000	99.405526
1244.000000	99.390663
1243.000000	99.370289
1242.000000	99.349348
1241.000000	99.332784
1240.000000	99.322403
1239.000000	99.316186
1238.000000	99.310014
1237.000000	99.300909
1236.000000	99.289043
1235.000000	99.276131
1234.000000	99.262426
1233.000000	99.246773
1232.000000	99.229110
1231.000000	99.210196
1230.000000	99.188669
1229.000000	99.161531
1228.000000	99.128542
1227.000000	99.093252
1226.000000	99.058167
1225.000000	99.021699
1224.000000	98.981861
1223.000000	98.939987
1222.000000	98.897921
1221.000000	98.853766
1220.000000	98.803770
1219.000000	98.747400
1218.000000	98.688021
1217.000000	98.629075
1216.000000	98.571151
1215.000000	98.511964
1214.000000	98.447947
1213.000000	98.377172
1212.000000	98.302074
1211.000000	98.227999
1210.000000	98.158199
1209.000000	98.091902
1208.000000	98.027552
1207.000000	97.964967
1206.000000	97.903360
1205.000000	97.840237
1204.000000	97.773757
1203.000000	97.704305
1202.000000	97.633690
1201.000000	97.565116
1200.000000	97.502754
1199.000000	97.447202
1198.000000	97.392169
1197.000000	97.330769
1196.000000	97.264454
1195.000000	97.199713
1194.000000	97.136203
1193.000000	97.065918
1192.000000	96.986161
1191.000000	96.905648
1190.000000	96.833717
1189.000000	96.769626
1188.000000	96.706960
1187.000000	96.642784
1186.000000	96.577321
1185.000000	96.509296
1184.000000	96.436977
1183.000000	96.360648
1182.000000	96.280048
1181.000000	96.192817
1180.000000	96.099325
1179.000000	96.005415
1178.000000	95.916236
1177.000000	95.830454
1176.000000	95.743604
1175.000000	95.653147
1174.000000	95.557151
1173.000000	95.453217
1172.000000	95.343402
1171.000000	95.235989
1170.000000	95.137425
1169.000000	95.045839
1168.000000	94.956485
1167.000000	94.869782
1166.000000	94.790346
1165.000000	94.722900
1164.000000	94.673878
1163.000000	94.652207
1162.000000	94.662206
1161.000000	94.697383
1160.000000	94.744251
1159.000000	94.789362
1158.000000	94.820442
1157.000000	94.826116
1156.000000	94.800855
1155.000000	94.749587
1154.000000	94.683831
1153.000000	94.612975
1152.000000	94.540485
1151.000000	94.466329
1150.000000	94.390161
1149.000000	94.313245
1148.000000	94.238769
1147.000000	94.168679
1146.000000	94.099906
1145.000000	94.026788
1144.000000	93.947842
1143.000000	93.866706
1142.000000	93.786116
1141.000000	93.705283
1140.000000	93.623879
1139.000000	93.543647
1138.000000	93.464795
1137.000000	93.385533
1136.000000	93.306236
1135.000000	93.229124
1134.000000	93.152938
1133.000000	93.073325
1132.000000	92.989421
1131.000000	92.904520
1130.000000	92.819618
1129.000000	92.732366
1128.000000	92.643124
1127.000000	92.555491
1126.000000	92.469888
1125.000000	92.383256
1124.000000	92.295816
1123.000000	92.210954
1122.000000	92.127929
1121.000000	92.042736
1120.000000	91.956692
1119.000000	91.875019
1118.000000	91.795980
1117.000000	91.711846
1116.000000	91.622333
1115.000000	91.536073
1114.000000	91.455911
1113.000000	91.374239
1112.000000	91.287151
1111.000000	91.201755
1110.000000	91.124315
1109.000000	91.052017
1108.000000	90.981320
1107.000000	90.914035
1106.000000	90.849590
1105.000000	90.781082
1104.000000	90.705159
1103.000000	90.627571
1102.000000	90.553840
1101.000000	90.482182
1100.000000	90.409779
1099.000000	90.338329
1098.000000	90.269868
1097.000000	90.204385
1096.000000	90.143278
1095.000000	90.086988
1094.000000	90.028923
1093.000000	89.962215
1092.000000	89.893062
1091.000000	89.835559
1090.000000	89.792006
1089.000000	89.750698
1088.000000	89.704678
1087.000000	89.659037
1086.000000	89.617132
1085.000000	89.574207
1084.000000	89.529020
1083.000000	89.487994
1082.000000	89.452808
1081.000000	89.416821
1080.000000	89.378613
1079.000000	89.345873
1078.000000	89.320571
1077.000000	89.293342
1076.000000	89.258293
1075.000000	89.220268
1074.000000	89.181309
1073.000000	89.132341
1072.000000	89.064775
1071.000000	88.978911
1070.000000	88.875335
1069.000000	88.749615
1068.000000	88.602231
1067.000000	88.443718
1066.000000	88.283836
1065.000000	88.124619
1064.000000	87.968333
1063.000000	87.820690
1062.000000	87.681242
1061.000000	87.542498
1060.000000	87.403511
1059.000000	87.272582
1058.000000	87.152456
1057.000000	87.035790
1056.000000	86.919406
1055.000000	86.808647
1054.000000	86.702081
1053.000000	86.586374
1052.000000	86.453872
1051.000000	86.311623
1050.000000	86.165322
1049.000000	86.009650
1048.000000	85.843253
1047.000000	85.676659
1046.000000	85.516071
1045.000000	85.354115
1044.000000	85.183934
1043.000000	85.009516
1042.000000	84.836629
1041.000000	84.666369
1040.000000	84.502761
1039.000000	84.353425
1038.000000	84.217364
1037.000000	84.085072
1036.000000	83.954935
1035.000000	83.835577
1034.000000	83.728650
1033.000000	83.625318
1032.000000	83.523817
1031.000000	83.433684
1030.000000	83.357591
1029.000000	83.286262
1028.000000	83.217076
1027.000000	83.160297
1026.000000	83.119857
1025.000000	83.084700
1024.000000	83.046224
1023.000000	83.008300
1022.000000	82.973402
1021.000000	82.935458
1020.000000	82.893473
1019.000000	82.855626
1018.000000	82.822155
1017.000000	82.780322
1016.000000	82.724635
1015.000000	82.666833
1014.000000	82.617578
1013.000000	82.573245
1012.000000	82.529065
1011.000000	82.490851
1010.000000	82.464433
1009.000000	82.445608
1008.000000	82.428147
1007.000000	82.410962
1006.000000	82.392560
1005.000000	82.371026
1004.000000	82.353599
1003.000000	82.352088
1002.000000	82.363870
1001.000000	82.371524
1000.000000	82.366434
999.000000	82.358769
998.000000	82.359243
997.000000	82.366356
996.000000	82.377295
995.000000	82.395844
994.000000	82.422030
993.000000	82.447911
992.000000	82.471276
991.000000	82.501178
990.000000	82.543324
989.000000	82.592215
988.000000	82.643501
987.000000	82.701711
986.000000	82.769721
985.000000	82.842669
984.000000	82.918214
983.000000	83.001841
982.000000	83.097011
981.000000	83.200763
980.000000	83.312694
979.000000	83.437132
978.000000	83.573418
977.000000	83.715773
976.000000	83.865341
975.000000	84.029738
974.000000	84.207935
973.000000	84.388442
972.000000	84.565311
971.000000	84.742821
970.000000	84.921533
969.000000	85.094642
968.000000	85.263099
967.000000	85.439839
966.000000	85.631559
965.000000	85.827956
964.000000	86.016163
963.000000	86.195747
962.000000	86.372687
961.000000	86.547758
960.000000	86.718174
959.000000	86.883902
958.000000	87.046082
957.000000	87.203900
956.000000	87.356375
955.000000	87.502374
954.000000	87.637899
953.000000	87.759778
952.000000	87.872787
951.000000	87.985938
950.000000	88.101022
949.000000	88.212418
948.000000	88.318025
947.000000	88.420975
946.000000	88.519807
945.000000	88.607171
944.000000	88.681046
943.000000	88.748685
942.000000	88.816755
941.000000	88.885119
940.000000	88.952324
939.000000	89.019304
938.000000	89.085677
937.000000	89.149785
936.000000	89.213488
935.000000	89.279364
934.000000	89.343444
933.000000	89.400173
932.000000	89.455039
931.000000	89.521766
930.000000	89.604840
929.000000	89.694440
928.000000	89.780519
927.000000	89.861944
926.000000	89.939486
925.000000	90.010339
924.000000	90.074048
923.000000	90.135859
922.000000	90.200289
921.000000	90.267440
920.000000	90.336558
919.000000	90.405496
918.000000	90.466715
917.000000	90.513723
916.000000	90.552861
915.000000	90.598629
914.000000	90.655673
913.000000	90.716335
912.000000	90.778541
911.000000	90.853714
910.000000	90.950813
909.000000	91.063009
908.000000	91.177315
907.000000	91.290442
906.000000	91.409201
905.000000	91.541287
904.000000	91.690658
903.000000	91.856498
902.000000	92.032500
901.000000	92.211157
900.000000	92.390206
899.000000	92.570213
898.000000	92.746808
897.000000	92.912860
896.000000	93.068512
895.000000	93.220959
894.000000	93.372893
893.000000	93.518843
892.000000	93.655019
891.000000	93.785555
890.000000	93.916204
889.000000	94.047621
888.000000	94.176904
887.000000	94.300606
886.000000	94.415558
885.000000	94.522790
884.000000	94.631181
883.000000	94.750080
882.000000	94.876829
881.000000	94.998891
880.000000	95.109741
879.000000	95.214951
878.000000	95.321090
877.000000	95.427219
876.000000	95.530786
875.000000	95.633480
874.000000	95.736455
873.000000	95.836647
872.000000	95.932802
871.000000	96.029995
870.000000	96.133808
869.000000	96.243956
868.000000	96.356527
867.000000	96.468599
866.000000	96.578509
865.000000	96.685291
864.000000	96.789728
863.000000	96.892903
862.000000	96.992757
861.000000	97.085358
860.000000	97.170107
859.000000	97.250670
858.000000	97.330837
857.000000	97.412725
856.000000	97.498036
855.000000	97.585773
854.000000	97.668611
853.000000	97.737107
852.000000	97.788670
851.000000	97.828549
850.000000	97.862612
849.000000	97.894500
848.000000	97.929122
847.000000	97.970652
846.000000	98.014443
845.000000	98.048380
844.000000	98.066340
843.000000	98.074372
842.000000	98.079253
841.000000	98.076559
840.000000	98.056065
839.000000	98.015322
838.000000	97.961966
837.000000	97.904617
836.000000	97.846985
835.000000	97.790041
834.000000	97.735020
833.000000	97.683857
832.000000	97.640011
831.000000	97.609210
830.000000	97.596441
829.000000	97.600794
828.000000	97.613788
827.000000	97.623752
826.000000	97.624307
825.000000	97.620385
824.000000	97.623585
823.000000	97.639148
822.000000	97.660822
821.000000	97.681402
820.000000	97.701502
819.000000	97.720838
818.000000	97.726381
817.000000	97.699257
816.000000	97.633215
815.000000	97.538561
814.000000	97.426041
813.000000	97.293182
812.000000	97.128721
811.000000	96.922563
810.000000	96.665956
809.000000	96.348657
808.000000	95.965252
807.000000	95.524199
806.000000	95.045635
805.000000	94.551186
804.000000	94.059810
803.000000	93.590579
802.000000	93.163677
801.000000	92.799405
800.000000	92.517168
799.000000	92.329109
798.000000	92.231010
797.000000	92.204670
796.000000	92.231543
795.000000	92.299463
794.000000	92.397678
793.000000	92.513698
792.000000	92.635479
791.000000	92.749990
790.000000	92.840593
789.000000	92.892770
788.000000	92.901299
787.000000	92.866118
786.000000	92.785078
785.000000	92.659250
784.000000	92.502229
783.000000	92.333783
782.000000	92.165581
781.000000	92.004011
780.000000	91.866043
779.000000	91.778712
778.000000	91.759694
777.000000	91.808453
776.000000	91.916674
775.000000	92.074490
774.000000	92.264717
773.000000	92.464680
772.000000	92.658901
771.000000	92.841547
770.000000	93.006139
769.000000	93.144342
768.000000	93.256643
767.000000	93.352577
766.000000	93.436781
765.000000	93.504769
764.000000	93.555536
763.000000	93.597975
762.000000	93.641159
761.000000	93.688162
760.000000	93.742950
759.000000	93.812495
758.000000	93.896708
757.000000	93.985872
756.000000	94.072974
755.000000	94.159144
754.000000	94.242567
753.000000	94.313540
752.000000	94.368658
751.000000	94.421084
750.000000	94.487331
749.000000	94.569072
748.000000	94.655880
747.000000	94.741592
746.000000	94.830163
745.000000	94.927695
744.000000	95.035332
743.000000	95.149396
742.000000	95.264750
741.000000	95.379165
740.000000	95.496237
739.000000	95.621155
738.000000	95.751357
737.000000	95.874827
736.000000	95.980916
735.000000	96.070506
734.000000	96.152974
733.000000	96.234399
732.000000	96.310510
731.000000	96.370986
730.000000	96.410423
729.000000	96.435105
728.000000	96.457041
727.000000	96.481184
726.000000	96.503798
725.000000	96.526465
724.000000	96.564554
723.000000	96.632871
722.000000	96.725724
721.000000	96.820448
720.000000	96.901007
719.000000	96.970278
718.000000	97.038458
717.000000	97.109083
716.000000	97.179492
715.000000	97.245515
714.000000	97.300932
713.000000	97.339417
712.000000	97.362318
711.000000	97.380201
710.000000	97.402098
709.000000	97.426134
708.000000	97.443482
707.000000	97.447846
706.000000	97.438665
705.000000	97.417741
704.000000	97.384371
703.000000	97.330978
702.000000	97.242030
701.000000	97.100625
700.000000	96.898998
699.000000	96.644260
698.000000	96.359755
697.000000	96.085429
696.000000	95.869915
695.000000	95.749069
694.000000	95.728105
693.000000	95.787488
692.000000	95.902537
691.000000	96.051792
690.000000	96.213433
689.000000	96.367834
688.000000	96.507015
687.000000	96.632922
686.000000	96.744919
685.000000	96.838872
684.000000	96.918294
683.000000	96.993527
682.000000	97.067325
681.000000	97.132245
680.000000	97.185615
679.000000	97.236193
678.000000	97.291325
677.000000	97.348413
676.000000	97.403820
675.000000	97.459761
674.000000	97.516283
673.000000	97.564683
672.000000	97.596508
671.000000	97.616856
670.000000	97.644124
669.000000	97.703272
668.000000	97.798132
667.000000	97.887741
666.000000	97.941808
665.000000	97.972456
664.000000	97.999084
663.000000	98.032144
662.000000	98.067146
661.000000	98.092174
660.000000	98.104380
659.000000	98.112120
658.000000	98.122143
657.000000	98.133825
656.000000	98.146661
655.000000	98.162355
654.000000	98.176416
653.000000	98.177501
652.000000	98.161914
651.000000	98.143591
650.000000	98.143553
