4000.000000	101.598608
3999.000000	101.597594
3998.000000	101.597056
3997.000000	101.597190
3996.000000	101.597815
3995.000000	101.598439
3994.000000	101.598445
3993.000000	101.597365
3992.000000	101.595157
3991.000000	101.592530
3990.000000	101.590699
3989.000000	101.590458
3988.000000	101.591737
3987.000000	101.593630
3986.000000	101.594988
3985.000000	101.595365
3984.000000	101.595294
3983.000000	101.595792
3982.000000	101.597391
3981.000000	101.599531
3980.000000	101.600967
3979.000000	101.600925
3978.000000	101.599734
3977.000000	101.598407
3976.000000	101.597572
3975.000000	101.596919
3974.000000	101.595702
3973.000000	101.593638
3972.000000	101.591345
3971.000000	101.589889
3970.000000	101.589829
3969.000000	101.590666
3968.000000	101.591202
3967.000000	101.590615
3966.000000	101.589204
3965.000000	101.588143
3964.000000	101.588507
3963.000000	101.590514
3962.000000	101.593421
3961.000000	101.596005
3960.000000	101.597272
3959.000000	101.596854
3958.000000	101.594977
3957.000000	101.592236
3956.000000	101.589340
3955.000000	101.586867
3954.000000	101.585117
3953.000000	101.584180
3952.000000	101.584112
3951.000000	101.584948
3950.000000	101.586363
3949.000000	101.587433
3948.000000	101.587199
3947.000000	101.585636
3946.000000	101.583912
3945.000000	101.583495
3944.000000	101.584943
3943.000000	101.587568
3942.000000	101.590024
3941.000000	101.591434
3940.000000	101.591794
3939.000000	101.591533
3938.000000	101.591060
3937.000000	101.590642
3936.000000	101.590496
3935.000000	101.590757
3934.000000	101.591246
3933.000000	101.591420
3932.000000	101.590822
3931.000000	101.589654
3930.000000	101.588668
3929.000000	101.588333
3928.000000	101.588351
3927.000000	101.588056
3926.000000	101.587192
3925.000000	101.586266
3924.000000	101.586022
3923.000000	101.586607
3922.000000	101.587417
3921.000000	101.587639
3920.000000	101.586971
3919.000000	101.585943
3918.000000	101.585535
3917.000000	101.586276
3916.000000	101.587684
3915.000000	101.588672
3914.000000	101.588575
3913.000000	101.587697
3912.000000	101.587040
3911.000000	101.587432
3910.000000	101.588921
3909.000000	101.590790
3908.000000	101.592127
3907.000000	101.592568
3906.000000	101.592533
3905.000000	101.592804
3904.000000	101.593618
3903.000000	101.594318
3902.000000	101.594105
3901.000000	101.592737
3900.000000	101.590438
3899.000000	101.587654
3898.000000	101.584944
3897.000000	101.582979
3896.000000	101.582353
3895.000000	101.583294
3894.000000	101.585725
3893.000000	101.589324
3892.000000	101.593391
3891.000000	101.596909
3890.000000	101.599007
3889.000000	101.599420
3888.000000	101.598477
3887.000000	101.596849
3886.000000	101.595207
3885.000000	101.594025
3884.000000	101.593469
3883.000000	101.593337
3882.000000	101.593022
3881.000000	101.591756
3880.000000	101.589271
3879.000000	101.586393
3878.000000	101.584463
3877.000000	101.584360
3876.000000	101.585999
3875.000000	101.588476
3874.000000	101.590673
3873.000000	101.592290
3872.000000	101.593984
3871.000000	101.596386
3870.000000	101.598992
3869.000000	101.600302
3868.000000	101.599428
3867.000000	101.596882
3866.000000	101.594019
3865.000000	101.592179
3864.000000	101.591809
3863.000000	101.592258
3862.000000	101.592519
3861.000000	101.591915
3860.000000	101.590466
3859.000000	101.588829
3858.000000	101.587887
3857.000000	101.588234
3856.000000	101.589905
3855.000000	101.592101
3854.000000	101.593431
3853.000000	101.593100
3852.000000	101.592208
3851.000000	101.592181
3850.000000	101.593184
3849.000000	101.594456
3848.000000	101.595276
3847.000000	101.595419
3846.000000	101.595329
3845.000000	101.595725
3844.000000	101.596674
3843.000000	101.597417
3842.000000	101.597292
3841.000000	101.596306
3840.000000	101.594849
3839.000000	101.592938
3838.000000	101.590251
3837.000000	101.587247
3836.000000	101.585297
3835.000000	101.585319
3834.000000	101.586803
3833.000000	101.588002
3832.000000	101.587445
3831.000000	101.585314
3830.000000	101.583203
3829.000000	101.582659
3828.000000	101.583951
3827.000000	101.586090
3826.000000	101.587904
3825.000000	101.589072
3824.000000	101.590051
3823.000000	101.591230
3822.000000	101.592275
3821.000000	101.592363
3820.000000	101.591140
3819.000000	101.588979
3818.000000	101.586587
3817.000000	101.584774
3816.000000	101.584089
3815.000000	101.584318
3814.000000	101.584536
3813.000000	101.583907
3812.000000	101.582353
3811.000000	101.580576
3810.000000	101.579579
3809.000000	101.579936
3808.000000	101.581303
3807.000000	101.582665
3806.000000	101.583483
3805.000000	101.584152
3804.000000	101.585293
3803.000000	101.586826
3802.000000	101.587806
3801.000000	101.587456
3800.000000	101.586134
3799.000000	101.584971
3798.000000	101.584804
3797.000000	101.585627
3796.000000	101.586706
3795.000000	101.587176
3794.000000	101.586754
3793.000000	101.585769
3792.000000	101.584762
3791.000000	101.584099
3790.000000	101.583851
3789.000000	101.583868
3788.000000	101.583930
3787.000000	101.583981
3786.000000	101.584206
3785.000000	101.584841
3784.000000	101.585914
3783.000000	101.587184
3782.000000	101.588291
3781.000000	101.589000
3780.000000	101.589304
3779.000000	101.589369
3778.000000	101.589427
3777.000000	101.589688
3776.000000	101.590292
3775.000000	101.591243
3774.000000	101.592291
3773.000000	101.592924
3772.000000	101.592593
3771.000000	101.591205
3770.000000	101.589514
3769.000000	101.588679
3768.000000	101.589244
3767.000000	101.590864
3766.000000	101.592687
3765.000000	101.593995
3764.000000	101.594551
3763.000000	101.594463
3762.000000	101.593957
3761.000000	101.593312
3760.000000	101.592871
3759.000000	101.592758
3758.000000	101.592744
3757.000000	101.592491
3756.000000	101.591894
3755.000000	101.591254
3754.000000	101.591226
3753.000000	101.592613
3752.000000	101.595859
3751.000000	101.600259
3750.000000	101.603958
3749.000000	101.605246
3748.000000	101.603442
3747.000000	101.599037
3746.000000	101.593566
3745.000000	101.589040
3744.000000	101.586416
3743.000000	101.585382
3742.000000	101.585566
3741.000000	101.586887
3740.000000	101.589093
3739.000000	101.591334
3738.000000	101.592284
3737.000000	101.590944
3736.000000	101.587367
3735.000000	101.582704
3734.000000	101.578189
3733.000000	101.574421
3732.000000	101.571704
3731.000000	101.570443
3730.000000	101.571011
3729.000000	101.573274
3728.000000	101.575964
3727.000000	101.576904
3726.000000	101.574493
3725.000000	101.569013
3724.000000	101.562013
3723.000000	101.554665
3722.000000	101.547376
3721.000000	101.540809
3720.000000	101.536812
3719.000000	101.537070
3718.000000	101.540909
3717.000000	101.545282
3716.000000	101.547212
3715.000000	101.546325
3714.000000	101.544669
3713.000000	101.543594
3712.000000	101.540940
3711.000000	101.532923
3710.000000	101.520027
3709.000000	101.507713
3708.000000	101.500536
3707.000000	101.498624
3706.000000	101.498942
3705.000000	101.498536
3704.000000	101.496482
3703.000000	101.493225
3702.000000	101.489016
3701.000000	101.483397
3700.000000	101.476468
3699.000000	101.469248
3698.000000	101.462012
3697.000000	101.453602
3696.000000	101.442924
3695.000000	101.431042
3694.000000	101.421159
3693.000000	101.415946
3692.000000	101.414908
3691.000000	101.414489
3690.000000	101.411827
3689.000000	101.407980
3688.000000	101.406100
3687.000000	101.406759
3686.000000	101.406853
3685.000000	101.402454
3684.000000	101.391542
3683.000000	101.375196
3682.000000	101.357353
3681.000000	101.342272
3680.000000	101.330820
3679.000000	101.319883
3678.000000	101.305356
3677.000000	101.286018
3676.000000	101.265390
3675.000000	101.247858
3674.000000	101.233627
3673.000000	101.219927
3672.000000	101.205597
3671.000000	101.191250
3670.000000	101.177027
3669.000000	101.161508
3668.000000	101.143901
3667.000000	101.125714
3666.000000	101.108847
3665.000000	101.093117
3664.000000	101.075765
3663.000000	101.053226
3662.000000	101.024471
3661.000000	100.992863
3660.000000	100.964438
3659.000000	100.944639
3658.000000	100.934987
3657.000000	100.930990
3656.000000	100.923994
3655.000000	100.908362
3654.000000	100.886343
3653.000000	100.865337
3652.000000	100.852295
3651.000000	100.847653
3650.000000	100.842541
3649.000000	100.826924
3648.000000	100.802231
3647.000000	100.778014
3646.000000	100.759395
3645.000000	100.745328
3644.000000	100.733581
3643.000000	100.722533
3642.000000	100.709920
3641.000000	100.693248
3640.000000	100.672720
3639.000000	100.652755
3638.000000	100.638497
3637.000000	100.630840
3636.000000	100.625579
3635.000000	100.616984
3634.000000	100.602088
3633.000000	100.582272
3632.000000	100.562681
3631.000000	100.550827
3630.000000	100.551725
3629.000000	100.560061
3628.000000	100.562712
3627.000000	100.554313
3626.000000	100.541509
3625.000000	100.533156
3624.000000	100.533125
3623.000000	100.539817
3622.000000	100.549621
3621.000000	100.560050
3620.000000	100.570358
3619.000000	100.580095
3618.000000	100.588882
3617.000000	100.597603
3616.000000	100.608366
3615.000000	100.623298
3614.000000	100.643499
3613.000000	100.668306
3612.000000	100.695153
3611.000000	100.720169
3610.000000	100.739027
3609.000000	100.748967
3608.000000	100.751891
3607.000000	100.753610
3606.000000	100.758834
3605.000000	100.767911
3604.000000	100.778816
3603.000000	100.790571
3602.000000	100.803225
3601.000000	100.814941
3600.000000	100.821765
3599.000000	100.821887
3598.000000	100.819177
3597.000000	100.820811
3596.000000	100.830377
3595.000000	100.844428
3594.000000	100.856691
3593.000000	100.864286
3592.000000	100.868569
3591.000000	100.871254
3590.000000	100.871643
3589.000000	100.868036
3588.000000	100.861326
3587.000000	100.855821
3586.000000	100.854928
3585.000000	100.857623
3584.000000	100.860470
3583.000000	100.861596
3582.000000	100.861789
3581.000000	100.862743
3580.000000	100.864553
3579.000000	100.865269
3578.000000	100.862858
3577.000000	100.857323
3576.000000	100.850837
3575.000000	100.845780
3574.000000	100.842806
3573.000000	100.840352
3572.000000	100.836112
3571.000000	100.829326
3570.000000	100.821775
3569.000000	100.816288
3568.000000	100.813785
3567.000000	100.812124
3566.000000	100.808786
3565.000000	100.803707
3564.000000	100.798311
3563.000000	100.793485
3562.000000	100.789694
3561.000000	100.787933
3560.000000	100.789243
3559.000000	100.792980
3558.000000	100.796416
3557.000000	100.796908
3556.000000	100.794357
3555.000000	100.791053
3554.000000	100.789191
3553.000000	100.788742
3552.000000	100.787800
3551.000000	100.784939
3550.000000	100.780639
3549.000000	100.776493
3548.000000	100.773612
3547.000000	100.772074
3546.000000	100.771647
3545.000000	100.772734
3544.000000	100.776119
3543.000000	100.781689
3542.000000	100.787662
3541.000000	100.791410
3540.000000	100.791330
3539.000000	100.788094
3538.000000	100.784212
3537.000000	100.782201
3536.000000	100.782908
3535.000000	100.785639
3534.000000	100.789288
3533.000000	100.792901
3532.000000	100.795539
3531.000000	100.796494
3530.000000	100.796158
3529.000000	100.796206
3528.000000	100.798194
3527.000000	100.801932
3526.000000	100.805549
3525.000000	100.807194
3524.000000	100.806443
3523.000000	100.804214
3522.000000	100.801804
3521.000000	100.800182
3520.000000	100.800005
3519.000000	100.801762
3518.000000	100.805456
3517.000000	100.810263
3516.000000	100.814861
3515.000000	100.818374
3514.000000	100.820955
3513.000000	100.823328
3512.000000	100.825857
3511.000000	100.828181
3510.000000	100.829733
3509.000000	100.830352
3508.000000	100.830310
3507.000000	100.830009
3506.000000	100.829860
3505.000000	100.830327
3504.000000	100.831803
3503.000000	100.834306
3502.000000	100.837298
3501.000000	100.839811
3500.000000	100.840839
3499.000000	100.839863
3498.000000	100.837284
3497.000000	100.834414
3496.000000	100.832733
3495.000000	100.833021
3494.000000	100.835058
3493.000000	100.837789
3492.000000	100.839855
3491.000000	100.840477
3490.000000	100.840170
3489.000000	100.840467
3488.000000	100.842584
3487.000000	100.846344
3486.000000	100.850527
3485.000000	100.854086
3484.000000	100.856710
3483.000000	100.858318
3482.000000	100.858480
3481.000000	100.856661
3480.000000	100.852906
3479.000000	100.848212
3478.000000	100.844236
3477.000000	100.842321
3476.000000	100.842538
3475.000000	100.843568
3474.000000	100.843741
3473.000000	100.842389
3472.000000	100.840204
3471.000000	100.838497
3470.000000	100.838048
3469.000000	100.838502
3468.000000	100.838655
3467.000000	100.837503
3466.000000	100.835152
3465.000000	100.832613
3464.000000	100.830655
3463.000000	100.829072
3462.000000	100.827303
3461.000000	100.825497
3460.000000	100.824509
3459.000000	100.824864
3458.000000	100.826029
3457.000000	100.826786
3456.000000	100.826179
3455.000000	100.824192
3454.000000	100.821746
3453.000000	100.819931
3452.000000	100.819056
3451.000000	100.818439
3450.000000	100.817247
3449.000000	100.815423
3448.000000	100.813622
3447.000000	100.812375
3446.000000	100.811566
3445.000000	100.810758
3444.000000	100.809692
3443.000000	100.808400
3442.000000	100.807028
3441.000000	100.805693
3440.000000	100.804413
3439.000000	100.803132
3438.000000	100.801834
3437.000000	100.800646
3436.000000	100.799750
3435.000000	100.799163
3434.000000	100.798661
3433.000000	100.797947
3432.000000	100.796938
3431.000000	100.795896
3430.000000	100.795303
3429.000000	100.795466
3428.000000	100.796197
3427.000000	100.796873
3426.000000	100.796985
3425.000000	100.796573
3424.000000	100.796034
3423.000000	100.795629
3422.000000	100.795274
3421.000000	100.794793
3420.000000	100.794172
3419.000000	100.793540
3418.000000	100.793053
3417.000000	100.792873
3416.000000	100.793103
3415.000000	100.793646
3414.000000	100.794151
3413.000000	100.794249
3412.000000	100.793816
3411.000000	100.793021
3410.000000	100.792258
3409.000000	100.791945
3408.000000	100.792266
3407.000000	100.793053
3406.000000	100.793866
3405.000000	100.794368
3404.000000	100.794565
3403.000000	100.794660
3402.000000	100.794840
3401.000000	100.795210
3400.000000	100.795845
3399.000000	100.796736
3398.000000	100.797710
3397.000000	100.798527
3396.000000	100.799104
3395.000000	100.799575
3394.000000	100.800163
3393.000000	100.801012
3392.000000	100.802129
3391.000000	100.803411
3390.000000	100.804686
3389.000000	100.805796
3388.000000	100.806699
3387.000000	100.807464
3386.000000	100.808164
3385.000000	100.808796
3384.000000	100.809341
3383.000000	100.809873
3382.000000	100.810546
3381.000000	100.811460
3380.000000	100.812597
3379.000000	100.813880
3378.000000	100.815238
3377.000000	100.816596
3376.000000	100.817833
3375.000000	100.818852
3374.000000	100.819707
3373.000000	100.820620
3372.000000	100.821796
3371.000000	100.823221
3370.000000	100.824676
3369.000000	100.825939
3368.000000	100.826965
3367.000000	100.827854
3366.000000	100.828772
3365.000000	100.829897
3364.000000	100.831356
3363.000000	100.833157
3362.000000	100.835102
3361.000000	100.836852
3360.000000	100.838209
3359.000000	100.839227
3358.000000	100.840118
3357.000000	100.841043
3356.000000	100.841999
3355.000000	100.842929
3354.000000	100.843834
3353.000000	100.844803
3352.000000	100.845955
3351.000000	100.847376
3350.000000	100.849075
3349.000000	100.850942
3348.000000	100.852747
3347.000000	100.854249
3346.000000	100.855373
3345.000000	100.856282
3344.000000	100.857277
3343.000000	100.858510
3342.000000	100.859879
3341.000000	100.861185
3340.000000	100.862348
3339.000000	100.863436
3338.000000	100.864545
3337.000000	100.865747
3336.000000	100.867108
3335.000000	100.868664
3334.000000	100.870380
3333.000000	100.872195
3332.000000	100.874046
3331.000000	100.875775
3330.000000	100.877117
3329.000000	100.877916
3328.000000	100.878406
3327.000000	100.879125
3326.000000	100.880449
3325.000000	100.882327
3324.000000	100.884442
3323.000000	100.886540
3322.000000	100.888563
3321.000000	100.890510
3320.000000	100.892252
3319.000000	100.893521
3318.000000	100.894170
3317.000000	100.894483
3316.000000	100.895087
3315.000000	100.896388
3314.000000	100.898165
3313.000000	100.899782
3312.000000	100.900813
3311.000000	100.901340
3310.000000	100.901701
3309.000000	100.902120
3308.000000	100.902663
3307.000000	100.903383
3306.000000	100.904385
3305.000000	100.905783
3304.000000	100.907591
3303.000000	100.909595
3302.000000	100.911399
3301.000000	100.912731
3300.000000	100.913727
3299.000000	100.914833
3298.000000	100.916388
3297.000000	100.918374
3296.000000	100.920512
3295.000000	100.922451
3294.000000	100.923834
3293.000000	100.924404
3292.000000	100.924235
3291.000000	100.923828
3290.000000	100.923844
3289.000000	100.924616
3288.000000	100.926000
3287.000000	100.927550
3286.000000	100.928824
3285.000000	100.929647
3284.000000	100.930114
3283.000000	100.930464
3282.000000	100.930960
3281.000000	100.931797
3280.000000	100.933024
3279.000000	100.934507
3278.000000	100.935998
3277.000000	100.937314
3276.000000	100.938425
3275.000000	100.939361
3274.000000	100.940078
3273.000000	100.940515
3272.000000	100.940788
3271.000000	100.941202
3270.000000	100.942049
3269.000000	100.943420
3268.000000	100.945216
3267.000000	100.947196
3266.000000	100.949002
3265.000000	100.950299
3264.000000	100.951013
3263.000000	100.951386
3262.000000	100.951754
3261.000000	100.952264
3260.000000	100.952924
3259.000000	100.953789
3258.000000	100.954955
3257.000000	100.956371
3256.000000	100.957819
3255.000000	100.959099
3254.000000	100.960154
3253.000000	100.960968
3252.000000	100.961495
3251.000000	100.961751
3250.000000	100.961921
3249.000000	100.962285
3248.000000	100.963041
3247.000000	100.964237
3246.000000	100.965767
3245.000000	100.967389
3244.000000	100.968816
3243.000000	100.969872
3242.000000	100.970580
3241.000000	100.971118
3240.000000	100.971683
3239.000000	100.972429
3238.000000	100.973472
3237.000000	100.974829
3236.000000	100.976318
3235.000000	100.977662
3234.000000	100.978731
3233.000000	100.979686
3232.000000	100.980819
3231.000000	100.982285
3230.000000	100.983990
3229.000000	100.985696
3228.000000	100.987168
3227.000000	100.988268
3226.000000	100.989005
3225.000000	100.989585
3224.000000	100.990311
3223.000000	100.991339
3222.000000	100.992571
3221.000000	100.993769
3220.000000	100.994796
3219.000000	100.995714
3218.000000	100.996680
3217.000000	100.997769
3216.000000	100.998924
3215.000000	101.000046
3214.000000	101.001096
3213.000000	101.002116
3212.000000	101.003175
3211.000000	101.004312
3210.000000	101.005511
3209.000000	101.006722
3208.000000	101.007913
3207.000000	101.009086
3206.000000	101.010259
3205.000000	101.011439
3204.000000	101.012626
3203.000000	101.013828
3202.000000	101.015066
3201.000000	101.016335
3200.000000	101.017613
3199.000000	101.018869
3198.000000	101.020096
3197.000000	101.021304
3196.000000	101.022504
3195.000000	101.023697
3194.000000	101.024880
3193.000000	101.026046
3192.000000	101.027193
3191.000000	101.028325
3190.000000	101.029446
3189.000000	101.030561
3188.000000	101.031670
3187.000000	101.032772
3186.000000	101.033868
3185.000000	101.034969
3184.000000	101.036090
3183.000000	101.037238
3182.000000	101.038409
3181.000000	101.039589
3180.000000	101.040769
3179.000000	101.041946
3178.000000	101.043126
3177.000000	101.044318
3176.000000	101.045528
3175.000000	101.046761
3174.000000	101.048013
3173.000000	101.049277
3172.000000	101.050548
3171.000000	101.051820
3170.000000	101.053093
3169.000000	101.054371
3168.000000	101.055653
3167.000000	101.056932
3166.000000	101.058200
3165.000000	101.059447
3164.000000	101.060671
3163.000000	101.061876
3162.000000	101.063071
3161.000000	101.064271
3160.000000	101.065486
3159.000000	101.066716
3158.000000	101.067956
3157.000000	101.069194
3156.000000	101.070423
3155.000000	101.071641
3154.000000	101.072852
3153.000000	101.074061
3152.000000	101.075279
3151.000000	101.076517
3150.000000	101.077785
3149.000000	101.079082
3148.000000	101.080401
3147.000000	101.081733
3146.000000	101.083076
3145.000000	101.084436
3144.000000	101.085821
3143.000000	101.087233
3142.000000	101.088662
3141.000000	101.090094
3140.000000	101.091522
3139.000000	101.092950
3138.000000	101.094387
3137.000000	101.095836
3136.000000	101.097298
3135.000000	101.098764
3134.000000	101.100228
3133.000000	101.101678
3132.000000	101.103109
3131.000000	101.104519
3130.000000	101.105918
3129.000000	101.107318
3128.000000	101.108727
3127.000000	101.110141
3126.000000	101.111547
3125.000000	101.112936
3124.000000	101.114314
3123.000000	101.115701
3122.000000	101.117120
3121.000000	101.118585
3120.000000	101.120106
3119.000000	101.121674
3118.000000	101.123230
3117.000000	101.124688
3116.000000	101.126000
3115.000000	101.127220
3114.000000	101.128499
3113.000000	101.129975
3112.000000	101.131704
3111.000000	101.133661
3110.000000	101.135711
3109.000000	101.137599
3108.000000	101.139138
3107.000000	101.140347
3106.000000	101.141458
3105.000000	101.142701
3104.000000	101.144118
3103.000000	101.145629
3102.000000	101.147155
3101.000000	101.148645
3100.000000	101.150086
3099.000000	101.151519
3098.000000	101.152984
3097.000000	101.154419
3096.000000	101.155687
3095.000000	101.156763
3094.000000	101.157819
3093.000000	101.159029
3092.000000	101.160365
3091.000000	101.161672
3090.000000	101.162892
3089.000000	101.164109
3088.000000	101.165389
3087.000000	101.166725
3086.000000	101.168139
3085.000000	101.169721
3084.000000	101.171468
3083.000000	101.173179
3082.000000	101.174630
3081.000000	101.175799
3080.000000	101.176844
3079.000000	101.177899
3078.000000	101.178977
3077.000000	101.180063
3076.000000	101.181173
3075.000000	101.182282
3074.000000	101.183310
3073.000000	101.184253
3072.000000	101.185293
3071.000000	101.186669
3070.000000	101.188462
3069.000000	101.190486
3068.000000	101.192349
3067.000000	101.193714
3066.000000	101.194486
3065.000000	101.194912
3064.000000	101.195490
3063.000000	101.196633
3062.000000	101.198489
3061.000000	101.200894
3060.000000	101.203458
3059.000000	101.205747
3058.000000	101.207496
3057.000000	101.208761
3056.000000	101.209886
3055.000000	101.211180
3054.000000	101.212622
3053.000000	101.213953
3052.000000	101.214980
3051.000000	101.215680
3050.000000	101.216108
3049.000000	101.216397
3048.000000	101.216900
3047.000000	101.218106
3046.000000	101.220235
3045.000000	101.223006
3044.000000	101.225900
3043.000000	101.228615
3042.000000	101.231095
3041.000000	101.233215
3040.000000	101.234672
3039.000000	101.235274
3038.000000	101.235171
3037.000000	101.234806
3036.000000	101.234849
3035.000000	101.236215
3034.000000	101.239745
3033.000000	101.245442
3032.000000	101.251948
3031.000000	101.257192
3030.000000	101.259950
3029.000000	101.260759
3028.000000	101.261344
3027.000000	101.263106
3026.000000	101.266073
3025.000000	101.269182
3024.000000	101.271447
3023.000000	101.272941
3022.000000	101.274655
3021.000000	101.277287
3020.000000	101.280260
3019.000000	101.282390
3018.000000	101.283717
3017.000000	101.286043
3016.000000	101.290862
3015.000000	101.296994
3014.000000	101.301318
3013.000000	101.302267
3012.000000	101.301979
3011.000000	101.304400
3010.000000	101.311367
3009.000000	101.320940
3008.000000	101.329373
3007.000000	101.334425
3006.000000	101.336773
3005.000000	101.338731
3004.000000	101.341987
3003.000000	101.346507
3002.000000	101.351229
3001.000000	101.355475
3000.000000	101.359640
2999.000000	101.364747
2998.000000	101.371518
2997.000000	101.379783
2996.000000	101.388567
2995.000000	101.396851
2994.000000	101.404547
2993.000000	101.412720
2992.000000	101.422415
2991.000000	101.433029
2990.000000	101.442232
2989.000000	101.448150
2988.000000	101.451687
2987.000000	101.456187
2986.000000	101.464465
2985.000000	101.476374
2984.000000	101.489559
2983.000000	101.502072
2982.000000	101.513463
2981.000000	101.523535
2980.000000	101.531211
2979.000000	101.535606
2978.000000	101.537804
2977.000000	101.540230
2976.000000	101.543478
2975.000000	101.544346
2974.000000	101.538094
2973.000000	101.522887
2972.000000	101.501794
2971.000000	101.480354
2970.000000	101.462195
2969.000000	101.446937
2968.000000	101.431948
2967.000000	101.415709
2966.000000	101.399410
2965.000000	101.385468
2964.000000	101.374769
2963.000000	101.365683
2962.000000	101.355794
2961.000000	101.344308
2960.000000	101.332560
2959.000000	101.322675
2958.000000	101.316275
2957.000000	101.314073
2956.000000	101.315544
2955.000000	101.318496
2954.000000	101.319731
2953.000000	101.317052
2952.000000	101.310689
2951.000000	101.302741
2950.000000	101.295737
2949.000000	101.291838
2948.000000	101.292183
2947.000000	101.295491
2946.000000	101.297711
2945.000000	101.294973
2944.000000	101.287798
2943.000000	101.281291
2942.000000	101.280004
2941.000000	101.283121
2940.000000	101.285499
2939.000000	101.283048
2938.000000	101.276016
2937.000000	101.267151
2936.000000	101.258169
2935.000000	101.248909
2934.000000	101.239328
2933.000000	101.231179
2932.000000	101.227331
2931.000000	101.229545
2930.000000	101.236732
2929.000000	101.245170
2928.000000	101.250733
2927.000000	101.251448
2926.000000	101.248215
2925.000000	101.243622
2924.000000	101.240645
2923.000000	101.242244
2922.000000	101.250692
2921.000000	101.265725
2920.000000	101.283396
2919.000000	101.298212
2918.000000	101.307544
2917.000000	101.313475
2916.000000	101.319798
2915.000000	101.327698
2914.000000	101.335158
2913.000000	101.340280
2912.000000	101.343832
2911.000000	101.347955
2910.000000	101.353487
2909.000000	101.359788
2908.000000	101.366689
2907.000000	101.375129
2906.000000	101.385522
2905.000000	101.396686
2904.000000	101.406970
2903.000000	101.415639
2902.000000	101.422340
2901.000000	101.426448
2900.000000	101.427933
2899.000000	101.428440
2898.000000	101.430195
2897.000000	101.433626
2896.000000	101.437257
2895.000000	101.440049
2894.000000	101.442655
2893.000000	101.446017
2892.000000	101.449758
2891.000000	101.452592
2890.000000	101.453631
2889.000000	101.452885
2888.000000	101.451213
2887.000000	101.450234
2886.000000	101.451370
2885.000000	101.454138
2884.000000	101.456007
2883.000000	101.454808
2882.000000	101.450918
2881.000000	101.446585
2880.000000	101.443767
2879.000000	101.443289
2878.000000	101.445164
2877.000000	101.448173
2876.000000	101.449485
2875.000000	101.446473
2874.000000	101.439326
2873.000000	101.430938
2872.000000	101.424051
2871.000000	101.419336
2870.000000	101.416266
2869.000000	101.414352
2868.000000	101.412921
2867.000000	101.410949
2866.000000	101.408004
2865.000000	101.404512
2864.000000	101.400380
2863.000000	101.394331
2862.000000	101.385619
2861.000000	101.375690
2860.000000	101.367085
2859.000000	101.361304
2858.000000	101.358651
2857.000000	101.359245
2856.000000	101.362666
2855.000000	101.366921
2854.000000	101.369388
2853.000000	101.369454
2852.000000	101.369384
2851.000000	101.372226
2850.000000	101.379281
2849.000000	101.389314
2848.000000	101.399314
2847.000000	101.406072
2846.000000	101.408170
2845.000000	101.406983
2844.000000	101.405347
2843.000000	101.404920
2842.000000	101.405296
2841.000000	101.405776
2840.000000	101.407002
2839.000000	101.410075
2838.000000	101.414708
2837.000000	101.419271
2836.000000	101.422536
2835.000000	101.424589
2834.000000	101.425978
2833.000000	101.426846
2832.000000	101.427327
2831.000000	101.428168
2830.000000	101.430268
2829.000000	101.433688
2828.000000	101.437497
2827.000000	101.440540
2826.000000	101.442073
2825.000000	101.441877
2824.000000	101.440441
2823.000000	101.439229
2822.000000	101.440050
2821.000000	101.443464
2820.000000	101.447952
2819.000000	101.451194
2818.000000	101.452264
2817.000000	101.452161
2816.000000	101.452327
2815.000000	101.453229
2814.000000	101.454473
2813.000000	101.455625
2812.000000	101.456512
2811.000000	101.457105
2810.000000	101.457522
2809.000000	101.458032
2808.000000	101.458871
2807.000000	101.460045
2806.000000	101.461315
2805.000000	101.462391
2804.000000	101.463196
2803.000000	101.463908
2802.000000	101.464760
2801.000000	101.465835
2800.000000	101.467066
2799.000000	101.468305
2798.000000	101.469371
2797.000000	101.470116
2796.000000	101.470529
2795.000000	101.470818
2794.000000	101.471309
2793.000000	101.472162
2792.000000	101.473222
2791.000000	101.474148
2790.000000	101.474771
2789.000000	101.475244
2788.000000	101.475851
2787.000000	101.476713
2786.000000	101.477744
2785.000000	101.478777
2784.000000	101.479669
2783.000000	101.480359
2782.000000	101.480937
2781.000000	101.481619
2780.000000	101.482521
2779.000000	101.483484
2778.000000	101.484274
2777.000000	101.484954
2776.000000	101.485869
2775.000000	101.487223
2774.000000	101.488855
2773.000000	101.490389
2772.000000	101.491575
2771.000000	101.492433
2770.000000	101.493139
2769.000000	101.493874
2768.000000	101.494721
2767.000000	101.495664
2766.000000	101.496617
2765.000000	101.497465
2764.000000	101.498149
2763.000000	101.498719
2762.000000	101.499326
2761.000000	101.500131
2760.000000	101.501185
2759.000000	101.502406
2758.000000	101.503646
2757.000000	101.504798
2756.000000	101.505847
2755.000000	101.506836
2754.000000	101.507786
2753.000000	101.508665
2752.000000	101.509422
2751.000000	101.510075
2750.000000	101.510742
2749.000000	101.511520
2748.000000	101.512360
2747.000000	101.513111
2746.000000	101.513698
2745.000000	101.514190
2744.000000	101.514710
2743.000000	101.515313
2742.000000	101.515971
2741.000000	101.516637
2740.000000	101.517269
2739.000000	101.517847
2738.000000	101.518371
2737.000000	101.518853
2736.000000	101.519311
2735.000000	101.519758
2734.000000	101.520196
2733.000000	101.520621
2732.000000	101.521029
2731.000000	101.521418
2730.000000	101.521796
2729.000000	101.522170
2728.000000	101.522542
2727.000000	101.522912
2726.000000	101.523277
2725.000000	101.523634
2724.000000	101.523983
2723.000000	101.524322
2722.000000	101.524654
2721.000000	101.524981
2720.000000	101.525300
2719.000000	101.525603
2718.000000	101.525883
2717.000000	101.526133
2716.000000	101.526351
2715.000000	101.526534
2714.000000	101.526690
2713.000000	101.526827
2712.000000	101.526953
2711.000000	101.527072
2710.000000	101.527185
2709.000000	101.527289
2708.000000	101.527364
2707.000000	101.527380
2706.000000	101.527331
2705.000000	101.527266
2704.000000	101.527273
2703.000000	101.527452
2702.000000	101.527861
2701.000000	101.528440
2700.000000	101.528965
2699.000000	101.529155
2698.000000	101.528869
2697.000000	101.528180
2696.000000	101.527322
2695.000000	101.526600
2694.000000	101.526359
2693.000000	101.526863
2692.000000	101.527979
2691.000000	101.529070
2690.000000	101.529574
2689.000000	101.529598
2688.000000	101.529679
2687.000000	101.530039
2686.000000	101.530410
2685.000000	101.530632
2684.000000	101.530928
2683.000000	101.531409
2682.000000	101.531817
2681.000000	101.532010
2680.000000	101.532199
2679.000000	101.532363
2678.000000	101.531983
2677.000000	101.530834
2676.000000	101.529619
2675.000000	101.529179
2674.000000	101.529366
2673.000000	101.529283
2672.000000	101.528394
2671.000000	101.526824
2670.000000	101.524852
2669.000000	101.522885
2668.000000	101.521822
2667.000000	101.522514
2666.000000	101.524816
2665.000000	101.527735
2664.000000	101.530568
2663.000000	101.533345
2662.000000	101.536008
2661.000000	101.537915
2660.000000	101.538531
2659.000000	101.538172
2658.000000	101.537606
2657.000000	101.537174
2656.000000	101.536735
2655.000000	101.536368
2654.000000	101.536561
2653.000000	101.537545
2652.000000	101.538765
2651.000000	101.539372
2650.000000	101.539213
2649.000000	101.539005
2648.000000	101.539440
2647.000000	101.540365
2646.000000	101.541009
2645.000000	101.540848
2644.000000	101.539974
2643.000000	101.538805
2642.000000	101.537738
2641.000000	101.537088
2640.000000	101.537038
2639.000000	101.537550
2638.000000	101.538393
2637.000000	101.539297
2636.000000	101.540074
2635.000000	101.540592
2634.000000	101.540810
2633.000000	101.540854
2632.000000	101.540930
2631.000000	101.541159
2630.000000	101.541549
2629.000000	101.542060
2628.000000	101.542631
2627.000000	101.543154
2626.000000	101.543517
2625.000000	101.543689
2624.000000	101.543733
2623.000000	101.543745
2622.000000	101.543799
2621.000000	101.543924
2620.000000	101.544115
2619.000000	101.544338
2618.000000	101.544545
2617.000000	101.544703
2616.000000	101.544811
2615.000000	101.544887
2614.000000	101.544952
2613.000000	101.545022
2612.000000	101.545111
2611.000000	101.545227
2610.000000	101.545367
2609.000000	101.545528
2608.000000	101.545699
2607.000000	101.545860
2606.000000	101.545983
2605.000000	101.546070
2604.000000	101.546152
2603.000000	101.546235
2602.000000	101.546266
2601.000000	101.546201
2600.000000	101.546132
2599.000000	101.546230
2598.000000	101.546565
2597.000000	101.546985
2596.000000	101.547221
2595.000000	101.547158
2594.000000	101.546951
2593.000000	101.546939
2592.000000	101.547376
2591.000000	101.548228
2590.000000	101.549125
2589.000000	101.549663
2588.000000	101.549795
2587.000000	101.549780
2586.000000	101.549693
2585.000000	101.549233
2584.000000	101.548203
2583.000000	101.546937
2582.000000	101.546111
2581.000000	101.546114
2580.000000	101.546801
2579.000000	101.547703
2578.000000	101.548355
2577.000000	101.548543
2576.000000	101.548330
2575.000000	101.547904
2574.000000	101.547362
2573.000000	101.546698
2572.000000	101.545986
2571.000000	101.545444
2570.000000	101.545255
2569.000000	101.545463
2568.000000	101.546046
2567.000000	101.546880
2566.000000	101.547552
2565.000000	101.547533
2564.000000	101.546792
2563.000000	101.546130
2562.000000	101.546553
2561.000000	101.548358
2560.000000	101.550909
2559.000000	101.553190
2558.000000	101.554606
2557.000000	101.555182
2556.000000	101.555234
2555.000000	101.554964
2554.000000	101.554373
2553.000000	101.553554
2552.000000	101.552895
2551.000000	101.552807
2550.000000	101.553291
2549.000000	101.553938
2548.000000	101.554404
2547.000000	101.554749
2546.000000	101.555202
2545.000000	101.555712
2544.000000	101.555920
2543.000000	101.555558
2542.000000	101.554777
2541.000000	101.554106
2540.000000	101.554049
2539.000000	101.554724
2538.000000	101.555832
2537.000000	101.556887
2536.000000	101.557580
2535.000000	101.557921
2534.000000	101.558119
2533.000000	101.558355
2532.000000	101.558651
2531.000000	101.558921
2530.000000	101.559112
2529.000000	101.559285
2528.000000	101.559541
2527.000000	101.559907
2526.000000	101.560295
2525.000000	101.560575
2524.000000	101.560680
2523.000000	101.560659
2522.000000	101.560663
2521.000000	101.560826
2520.000000	101.561134
2519.000000	101.561424
2518.000000	101.561513
2517.000000	101.561405
2516.000000	101.561349
2515.000000	101.561583
2514.000000	101.562102
2513.000000	101.562698
2512.000000	101.563167
2511.000000	101.563460
2510.000000	101.563648
2509.000000	101.563860
2508.000000	101.564228
2507.000000	101.564802
2506.000000	101.565484
2505.000000	101.566083
2504.000000	101.566487
2503.000000	101.566756
2502.000000	101.567057
2501.000000	101.567521
2500.000000	101.568137
2499.000000	101.568752
2498.000000	101.569201
2497.000000	101.569507
2496.000000	101.569889
2495.000000	101.570493
2494.000000	101.571138
2493.000000	101.571508
2492.000000	101.571575
2491.000000	101.571664
2490.000000	101.572057
2489.000000	101.572693
2488.000000	101.573305
2487.000000	101.573727
2486.000000	101.573995
2485.000000	101.574245
2484.000000	101.574598
2483.000000	101.575026
2482.000000	101.575290
2481.000000	101.575141
2480.000000	101.574673
2479.000000	101.574353
2478.000000	101.574541
2477.000000	101.575130
2476.000000	101.575722
2475.000000	101.576077
2474.000000	101.576233
2473.000000	101.576360
2472.000000	101.576704
2471.000000	101.577542
2470.000000	101.578958
2469.000000	101.580603
2468.000000	101.581842
2467.000000	101.582261
2466.000000	101.581864
2465.000000	101.580954
2464.000000	101.579976
2463.000000	101.579360
2462.000000	101.579349
2461.000000	101.579867
2460.000000	101.580647
2459.000000	101.581495
2458.000000	101.582333
2457.000000	101.583072
2456.000000	101.583632
2455.000000	101.584078
2454.000000	101.584563
2453.000000	101.585106
2452.000000	101.585550
2451.000000	101.585795
2450.000000	101.585945
2449.000000	101.586167
2448.000000	101.586493
2447.000000	101.586838
2446.000000	101.587159
2445.000000	101.587540
2444.000000	101.588107
2443.000000	101.588875
2442.000000	101.589668
2441.000000	101.590219
2440.000000	101.590369
2439.000000	101.590134
2438.000000	101.589599
2437.000000	101.588830
2436.000000	101.587963
2435.000000	101.587330
2434.000000	101.587314
2433.000000	101.588066
2432.000000	101.589357
2431.000000	101.590683
2430.000000	101.591578
2429.000000	101.591897
2428.000000	101.591875
2427.000000	101.591940
2426.000000	101.592313
2425.000000	101.592808
2424.000000	101.593058
2423.000000	101.592923
2422.000000	101.592598
2421.000000	101.592416
2420.000000	101.592596
2419.000000	101.593179
2418.000000	101.594063
2417.000000	101.594997
2416.000000	101.595684
2415.000000	101.595974
2414.000000	101.595913
2413.000000	101.595623
2412.000000	101.595207
2411.000000	101.594789
2410.000000	101.594599
2409.000000	101.594836
2408.000000	101.595428
2407.000000	101.596086
2406.000000	101.596595
2405.000000	101.596988
2404.000000	101.597400
2403.000000	101.597839
2402.000000	101.598186
2401.000000	101.598393
2400.000000	101.598578
2399.000000	101.598886
2398.000000	101.599319
2397.000000	101.599770
2396.000000	101.600167
2395.000000	101.600529
2394.000000	101.600903
2393.000000	101.601314
2392.000000	101.601794
2391.000000	101.602381
2390.000000	101.603071
2389.000000	101.603787
2388.000000	101.604428
2387.000000	101.604954
2386.000000	101.605408
2385.000000	101.605873
2384.000000	101.606404
2383.000000	101.607002
2382.000000	101.607635
2381.000000	101.608273
2380.000000	101.608921
2379.000000	101.609605
2378.000000	101.610326
2377.000000	101.611019
2376.000000	101.611599
2375.000000	101.612040
2374.000000	101.612391
2373.000000	101.612727
2372.000000	101.613127
2371.000000	101.613661
2370.000000	101.614352
2369.000000	101.615147
2368.000000	101.615930
2367.000000	101.616609
2366.000000	101.617170
2365.000000	101.617642
2364.000000	101.618068
2363.000000	101.618479
2362.000000	101.618902
2361.000000	101.619345
2360.000000	101.619783
2359.000000	101.620177
2358.000000	101.620526
2357.000000	101.620880
2356.000000	101.621291
2355.000000	101.621758
2354.000000	101.622230
2353.000000	101.622653
2352.000000	101.623011
2351.000000	101.623307
2350.000000	101.623559
2349.000000	101.623782
2348.000000	101.623998
2347.000000	101.624198
2346.000000	101.624363
2345.000000	101.624492
2344.000000	101.624635
2343.000000	101.624844
2342.000000	101.625047
2341.000000	101.625105
2340.000000	101.624965
2339.000000	101.624730
2338.000000	101.624516
2337.000000	101.624332
2336.000000	101.624127
2335.000000	101.623875
2334.000000	101.623580
2333.000000	101.623271
2332.000000	101.622999
2331.000000	101.622803
2330.000000	101.622655
2329.000000	101.622439
2328.000000	101.622062
2327.000000	101.621505
2326.000000	101.620878
2325.000000	101.620322
2324.000000	101.619895
2323.000000	101.619541
2322.000000	101.619183
2321.000000	101.618848
2320.000000	101.618572
2319.000000	101.618296
2318.000000	101.617879
2317.000000	101.617271
2316.000000	101.616547
2315.000000	101.615821
2314.000000	101.615145
2313.000000	101.614539
2312.000000	101.614024
2311.000000	101.613570
2310.000000	101.613069
2309.000000	101.612420
2308.000000	101.611607
2307.000000	101.610653
2306.000000	101.609587
2305.000000	101.608472
2304.000000	101.607418
2303.000000	101.606515
2302.000000	101.605769
2301.000000	101.605114
2300.000000	101.604460
2299.000000	101.603738
2298.000000	101.602935
2297.000000	101.602100
2296.000000	101.601325
2295.000000	101.600650
2294.000000	101.599997
2293.000000	101.599225
2292.000000	101.598277
2291.000000	101.597230
2290.000000	101.596222
2289.000000	101.595321
2288.000000	101.594511
2287.000000	101.593741
2286.000000	101.592967
2285.000000	101.592163
2284.000000	101.591318
2283.000000	101.590431
2282.000000	101.589513
2281.000000	101.588600
2280.000000	101.587735
2279.000000	101.586929
2278.000000	101.586112
2277.000000	101.585185
2276.000000	101.584121
2275.000000	101.583007
2274.000000	101.581981
2273.000000	101.581130
2272.000000	101.580460
2271.000000	101.579906
2270.000000	101.579368
2269.000000	101.578761
2268.000000	101.578046
2267.000000	101.577236
2266.000000	101.576403
2265.000000	101.575687
2264.000000	101.575238
2263.000000	101.575082
2262.000000	101.575027
2261.000000	101.574762
2260.000000	101.574121
2259.000000	101.573202
2258.000000	101.572287
2257.000000	101.571621
2256.000000	101.571260
2255.000000	101.571106
2254.000000	101.571031
2253.000000	101.570965
2252.000000	101.570857
2251.000000	101.570640
2250.000000	101.570260
2249.000000	101.569742
2248.000000	101.569167
2247.000000	101.568648
2246.000000	101.568328
2245.000000	101.568331
2244.000000	101.568645
2243.000000	101.569079
2242.000000	101.569394
2241.000000	101.569510
2240.000000	101.569498
2239.000000	101.569440
2238.000000	101.569363
2237.000000	101.569279
2236.000000	101.569210
2235.000000	101.569160
2234.000000	101.569138
2233.000000	101.569169
2232.000000	101.569260
2231.000000	101.569355
2230.000000	101.569389
2229.000000	101.569370
2228.000000	101.569349
2227.000000	101.569362
2226.000000	101.569400
2225.000000	101.569433
2224.000000	101.569441
2223.000000	101.569419
2222.000000	101.569368
2221.000000	101.569293
2220.000000	101.569211
2219.000000	101.569149
2218.000000	101.569126
2217.000000	101.569144
2216.000000	101.569183
2215.000000	101.569230
2214.000000	101.569284
2213.000000	101.569340
2212.000000	101.569378
2211.000000	101.569370
2210.000000	101.569298
2209.000000	101.569179
2208.000000	101.569089
2207.000000	101.569117
2206.000000	101.569233
2205.000000	101.569293
2204.000000	101.569248
2203.000000	101.569223
2202.000000	101.569242
2201.000000	101.569063
2200.000000	101.568556
2199.000000	101.568087
2198.000000	101.568116
2197.000000	101.568475
2196.000000	101.568515
2195.000000	101.568042
2194.000000	101.567658
2193.000000	101.567976
2192.000000	101.568854
2191.000000	101.569607
2190.000000	101.569694
2189.000000	101.569052
2188.000000	101.568040
2187.000000	101.567240
2186.000000	101.566962
2185.000000	101.566794
2184.000000	101.565981
2183.000000	101.564471
2182.000000	101.563231
2181.000000	101.563239
2180.000000	101.564508
2179.000000	101.566410
2178.000000	101.568702
2177.000000	101.571674
2176.000000	101.575281
2175.000000	101.578594
2174.000000	101.580407
2173.000000	101.580156
2172.000000	101.578200
2171.000000	101.575459
2170.000000	101.572757
2169.000000	101.570400
2168.000000	101.568327
2167.000000	101.566627
2166.000000	101.565770
2165.000000	101.566164
2164.000000	101.567574
2163.000000	101.569297
2162.000000	101.570924
2161.000000	101.572606
2160.000000	101.574418
2159.000000	101.575924
2158.000000	101.576725
2157.000000	101.577070
2156.000000	101.577435
2155.000000	101.577690
2154.000000	101.577232
2153.000000	101.575908
2152.000000	101.574276
2151.000000	101.572899
2150.000000	101.571843
2149.000000	101.570996
2148.000000	101.570383
2147.000000	101.570002
2146.000000	101.569791
2145.000000	101.570009
2144.000000	101.571173
2143.000000	101.573228
2142.000000	101.575066
2141.000000	101.575378
2140.000000	101.573924
2139.000000	101.571723
2138.000000	101.570100
2137.000000	101.569692
2136.000000	101.570277
2135.000000	101.571144
2134.000000	101.571601
2133.000000	101.571402
2132.000000	101.570879
2131.000000	101.570673
2130.000000	101.571307
2129.000000	101.572940
2128.000000	101.575328
2127.000000	101.577889
2126.000000	101.579997
2125.000000	101.581465
2124.000000	101.582668
2123.000000	101.584028
2122.000000	101.585406
2121.000000	101.586136
2120.000000	101.585706
2119.000000	101.584302
2118.000000	101.582724
2117.000000	101.581793
2116.000000	101.581805
2115.000000	101.582510
2114.000000	101.583552
2113.000000	101.584781
2112.000000	101.586041
2111.000000	101.586901
2110.000000	101.586898
2109.000000	101.586066
2108.000000	101.585002
2107.000000	101.584349
2106.000000	101.584306
2105.000000	101.584672
2104.000000	101.585136
2103.000000	101.585494
2102.000000	101.585831
2101.000000	101.586561
2100.000000	101.588019
2099.000000	101.589896
2098.000000	101.591356
2097.000000	101.591941
2096.000000	101.592037
2095.000000	101.592175
2094.000000	101.592252
2093.000000	101.591927
2092.000000	101.591525
2091.000000	101.591908
2090.000000	101.593383
2089.000000	101.595256
2088.000000	101.596610
2087.000000	101.597173
2086.000000	101.597134
2085.000000	101.596580
2084.000000	101.595526
2083.000000	101.594323
2082.000000	101.593610
2081.000000	101.593806
2080.000000	101.594774
2079.000000	101.595837
2078.000000	101.596070
2077.000000	101.594886
2076.000000	101.592685
2075.000000	101.590829
2074.000000	101.590578
2073.000000	101.592017
2072.000000	101.594096
2071.000000	101.595754
2070.000000	101.596843
2069.000000	101.597882
2068.000000	101.599187
2067.000000	101.600452
2066.000000	101.601118
2065.000000	101.600944
2064.000000	101.600131
2063.000000	101.599001
2062.000000	101.597732
2061.000000	101.596420
2060.000000	101.595209
2059.000000	101.594198
2058.000000	101.593315
2057.000000	101.592462
2056.000000	101.591736
2055.000000	101.591379
2054.000000	101.591476
2053.000000	101.591708
2052.000000	101.591470
2051.000000	101.590441
2050.000000	101.589105
2049.000000	101.588408
2048.000000	101.588649
2047.000000	101.588895
2046.000000	101.587886
2045.000000	101.585420
2044.000000	101.582552
2043.000000	101.580456
2042.000000	101.579381
2041.000000	101.578779
2040.000000	101.577911
2039.000000	101.576177
2038.000000	101.573391
2037.000000	101.570172
2036.000000	101.567746
2035.000000	101.566861
2034.000000	101.567083
2033.000000	101.567371
2032.000000	101.567156
2031.000000	101.566453
2030.000000	101.565241
2029.000000	101.563408
2028.000000	101.561247
2027.000000	101.559393
2026.000000	101.558074
2025.000000	101.556875
2024.000000	101.555392
2023.000000	101.553803
2022.000000	101.552554
2021.000000	101.551710
2020.000000	101.550827
2019.000000	101.549354
2018.000000	101.547029
2017.000000	101.544059
2016.000000	101.541137
2015.000000	101.539048
2014.000000	101.538050
2013.000000	101.537607
2012.000000	101.536800
2011.000000	101.535192
2010.000000	101.533246
2009.000000	101.531857
2008.000000	101.531481
2007.000000	101.531730
2006.000000	101.531755
2005.000000	101.531059
2004.000000	101.529852
2003.000000	101.528667
2002.000000	101.527800
2001.000000	101.527195
2000.000000	101.526705
1999.000000	101.526204
1998.000000	101.525571
1997.000000	101.524716
1996.000000	101.523645
1995.000000	101.522534
1994.000000	101.521726
1993.000000	101.521601
1992.000000	101.522243
1991.000000	101.523186
1990.000000	101.523695
1989.000000	101.523412
1988.000000	101.522626
1987.000000	101.521998
1986.000000	101.521982
1985.000000	101.522522
1984.000000	101.523230
1983.000000	101.523747
1982.000000	101.523910
1981.000000	101.523707
1980.000000	101.523215
1979.000000	101.522652
1978.000000	101.522424
1977.000000	101.522889
1976.000000	101.523964
1975.000000	101.525008
1974.000000	101.525381
1973.000000	101.525076
1972.000000	101.524677
1971.000000	101.524699
1970.000000	101.525099
1969.000000	101.525505
1968.000000	101.525730
1967.000000	101.525899
1966.000000	101.526105
1965.000000	101.526178
1964.000000	101.525889
1963.000000	101.525285
1962.000000	101.524787
1961.000000	101.524934
1960.000000	101.525880
1959.000000	101.527162
1958.000000	101.528065
1957.000000	101.528286
1956.000000	101.528079
1955.000000	101.527802
1954.000000	101.527681
1953.000000	101.528038
1952.000000	101.529273
1951.000000	101.531240
1950.000000	101.532930
1949.000000	101.533440
1948.000000	101.532940
1947.000000	101.532050
1946.000000	101.530633
1945.000000	101.528108
1944.000000	101.524815
1943.000000	101.522225
1942.000000	101.521341
1941.000000	101.521635
1940.000000	101.522127
1939.000000	101.522599
1938.000000	101.523100
1937.000000	101.523110
1936.000000	101.522013
1935.000000	101.520147
1934.000000	101.518621
1933.000000	101.517902
1932.000000	101.517234
1931.000000	101.515664
1930.000000	101.513135
1929.000000	101.510538
1928.000000	101.508689
1927.000000	101.507324
1926.000000	101.505317
1925.000000	101.502011
1924.000000	101.498415
1923.000000	101.496646
1922.000000	101.497804
1921.000000	101.500748
1920.000000	101.502975
1919.000000	101.502240
1918.000000	101.497874
1917.000000	101.491451
1916.000000	101.485461
1915.000000	101.480880
1914.000000	101.477161
1913.000000	101.474000
1912.000000	101.472006
1911.000000	101.471307
1910.000000	101.470314
1909.000000	101.467293
1908.000000	101.462483
1907.000000	101.457392
1906.000000	101.452680
1905.000000	101.448172
1904.000000	101.444564
1903.000000	101.442813
1902.000000	101.441890
1901.000000	101.439305
1900.000000	101.434040
1899.000000	101.427589
1898.000000	101.421877
1897.000000	101.417364
1896.000000	101.413824
1895.000000	101.411273
1894.000000	101.409204
1893.000000	101.406422
1892.000000	101.402357
1891.000000	101.397647
1890.000000	101.393266
1889.000000	101.389779
1888.000000	101.387534
1887.000000	101.386736
1886.000000	101.386933
1885.000000	101.386913
1884.000000	101.385599
1883.000000	101.382703
1882.000000	101.378667
1881.000000	101.374980
1880.000000	101.373826
1879.000000	101.376052
1878.000000	101.379543
1877.000000	101.380545
1876.000000	101.377507
1875.000000	101.372784
1874.000000	101.369718
1873.000000	101.369341
1872.000000	101.370543
1871.000000	101.372124
1870.000000	101.373631
1869.000000	101.374959
1868.000000	101.376171
1867.000000	101.376959
1866.000000	101.376680
1865.000000	101.375914
1864.000000	101.376782
1863.000000	101.380723
1862.000000	101.386340
1861.000000	101.390468
1860.000000	101.391951
1859.000000	101.393018
1858.000000	101.396449
1857.000000	101.402878
1856.000000	101.411116
1855.000000	101.419463
1854.000000	101.426177
1853.000000	101.430203
1852.000000	101.432112
1851.000000	101.433791
1850.000000	101.437074
1849.000000	101.442387
1848.000000	101.448939
1847.000000	101.455767
1846.000000	101.462106
1845.000000	101.466848
1844.000000	101.469028
1843.000000	101.469014
1842.000000	101.467924
1841.000000	101.466728
1840.000000	101.466168
1839.000000	101.466881
1838.000000	101.468836
1837.000000	101.470886
1836.000000	101.472086
1835.000000	101.473165
1834.000000	101.475999
1833.000000	101.481483
1832.000000	101.487970
1831.000000	101.492267
1830.000000	101.492608
1829.000000	101.490178
1828.000000	101.487517
1827.000000	101.486291
1826.000000	101.486357
1825.000000	101.486074
1824.000000	101.484427
1823.000000	101.482730
1822.000000	101.482737
1821.000000	101.484056
1820.000000	101.484817
1819.000000	101.484540
1818.000000	101.484378
1817.000000	101.484400
1816.000000	101.483228
1815.000000	101.480504
1814.000000	101.478069
1813.000000	101.477859
1812.000000	101.479515
1811.000000	101.480927
1810.000000	101.480152
1809.000000	101.477297
1808.000000	101.474906
1807.000000	101.475173
1806.000000	101.477462
1805.000000	101.479526
1804.000000	101.480364
1803.000000	101.480621
1802.000000	101.480932
1801.000000	101.481051
1800.000000	101.480847
1799.000000	101.481042
1798.000000	101.481712
1797.000000	101.482040
1796.000000	101.481904
1795.000000	101.481827
1794.000000	101.481869
1793.000000	101.481184
1792.000000	101.479927
1791.000000	101.479981
1790.000000	101.481643
1789.000000	101.483629
1788.000000	101.485683
1787.000000	101.488251
1786.000000	101.490954
1785.000000	101.492994
1784.000000	101.494836
1783.000000	101.497626
1782.000000	101.501782
1781.000000	101.506659
1780.000000	101.510961
1779.000000	101.514051
1778.000000	101.516085
1777.000000	101.517396
1776.000000	101.517950
1775.000000	101.517464
1774.000000	101.516603
1773.000000	101.516781
1772.000000	101.518388
1771.000000	101.520655
1770.000000	101.522917
1769.000000	101.524998
1768.000000	101.527362
1767.000000	101.530822
1766.000000	101.535685
1765.000000	101.541574
1764.000000	101.547614
1763.000000	101.552270
1762.000000	101.554017
1761.000000	101.552896
1760.000000	101.551142
1759.000000	101.551879
1758.000000	101.556609
1757.000000	101.563951
1756.000000	101.569999
1755.000000	101.572400
1754.000000	101.572559
1753.000000	101.572607
1752.000000	101.572271
1751.000000	101.569946
1750.000000	101.566337
1749.000000	101.563984
1748.000000	101.563464
1747.000000	101.562935
1746.000000	101.561355
1745.000000	101.559324
1744.000000	101.557524
1743.000000	101.556046
1742.000000	101.554377
1741.000000	101.551777
1740.000000	101.548611
1739.000000	101.546552
1738.000000	101.546385
1737.000000	101.546498
1736.000000	101.545350
1735.000000	101.542515
1734.000000	101.539012
1733.000000	101.536959
1732.000000	101.536428
1731.000000	101.536035
1730.000000	101.535015
1729.000000	101.533715
1728.000000	101.532761
1727.000000	101.532909
1726.000000	101.534568
1725.000000	101.536742
1724.000000	101.537266
1723.000000	101.535177
1722.000000	101.531226
1721.000000	101.526565
1720.000000	101.521853
1719.000000	101.518043
1718.000000	101.516387
1717.000000	101.516006
1716.000000	101.515182
1715.000000	101.513555
1714.000000	101.510703
1713.000000	101.506508
1712.000000	101.501796
1711.000000	101.497079
1710.000000	101.492203
1709.000000	101.487376
1708.000000	101.483599
1707.000000	101.481866
1706.000000	101.481790
1705.000000	101.481236
1704.000000	101.479150
1703.000000	101.476265
1702.000000	101.473581
1701.000000	101.470129
1700.000000	101.464943
1699.000000	101.460527
1698.000000	101.458123
1697.000000	101.456322
1696.000000	101.454154
1695.000000	101.451626
1694.000000	101.448642
1693.000000	101.445204
1692.000000	101.441935
1691.000000	101.439258
1690.000000	101.436388
1689.000000	101.432149
1688.000000	101.426612
1687.000000	101.420794
1686.000000	101.415620
1685.000000	101.410358
1684.000000	101.404708
1683.000000	101.400318
1682.000000	101.397402
1681.000000	101.395206
1680.000000	101.393307
1679.000000	101.391623
1678.000000	101.389940
1677.000000	101.387921
1676.000000	101.385044
1675.000000	101.381314
1674.000000	101.377737
1673.000000	101.375003
1672.000000	101.372750
1671.000000	101.370295
1670.000000	101.367230
1669.000000	101.364090
1668.000000	101.361626
1667.000000	101.359685
1666.000000	101.357691
1665.000000	101.355130
1664.000000	101.351792
1663.000000	101.348154
1662.000000	101.345208
1661.000000	101.343437
1660.000000	101.342016
1659.000000	101.339746
1658.000000	101.336024
1657.000000	101.331372
1656.000000	101.326700
1655.000000	101.323381
1654.000000	101.322892
1653.000000	101.324922
1652.000000	101.326510
1651.000000	101.325613
1650.000000	101.322553
1649.000000	101.317437
1648.000000	101.312353
1647.000000	101.310636
1646.000000	101.313097
1645.000000	101.315739
1644.000000	101.316048
1643.000000	101.315076
1642.000000	101.314495
1641.000000	101.314622
1640.000000	101.314423
1639.000000	101.312973
1638.000000	101.310521
1637.000000	101.308484
1636.000000	101.308198
1635.000000	101.308781
1634.000000	101.308432
1633.000000	101.307104
1632.000000	101.306350
1631.000000	101.307587
1630.000000	101.310634
1629.000000	101.313953
1628.000000	101.316071
1627.000000	101.316768
1626.000000	101.317066
1625.000000	101.318475
1624.000000	101.321801
1623.000000	101.326177
1622.000000	101.329772
1621.000000	101.332050
1620.000000	101.333451
1619.000000	101.334618
1618.000000	101.336518
1617.000000	101.340286
1616.000000	101.346189
1615.000000	101.352181
1614.000000	101.356470
1613.000000	101.359506
1612.000000	101.362396
1611.000000	101.364877
1610.000000	101.366281
1609.000000	101.368363
1608.000000	101.374086
1607.000000	101.383413
1606.000000	101.393392
1605.000000	101.401779
1604.000000	101.408209
1603.000000	101.413312
1602.000000	101.418005
1601.000000	101.422950
1600.000000	101.428032
1599.000000	101.432426
1598.000000	101.435649
1597.000000	101.438025
1596.000000	101.440388
1595.000000	101.443593
1594.000000	101.447992
1593.000000	101.453251
1592.000000	101.458504
1591.000000	101.462910
1590.000000	101.466407
1589.000000	101.469725
1588.000000	101.473391
1587.000000	101.477298
1586.000000	101.481464
1585.000000	101.486468
1584.000000	101.492310
1583.000000	101.497940
1582.000000	101.502743
1581.000000	101.506826
1580.000000	101.509484
1579.000000	101.509332
1578.000000	101.506825
1577.000000	101.505524
1576.000000	101.508673
1575.000000	101.514133
1574.000000	101.517973
1573.000000	101.519484
1572.000000	101.519387
1571.000000	101.518619
1570.000000	101.518723
1569.000000	101.521818
1568.000000	101.526947
1567.000000	101.530840
1566.000000	101.532711
1565.000000	101.534960
1564.000000	101.538860
1563.000000	101.542890
1562.000000	101.545143
1561.000000	101.546938
1560.000000	101.549880
1559.000000	101.551523
1558.000000	101.550402
1557.000000	101.549539
1556.000000	101.550059
1555.000000	101.549168
1554.000000	101.547203
1553.000000	101.545093
1552.000000	101.544100
1551.000000	101.543702
1550.000000	101.543660
1549.000000	101.544339
1548.000000	101.546613
1547.000000	101.550674
1546.000000	101.555506
1545.000000	101.558773
1544.000000	101.558893
1543.000000	101.556692
1542.000000	101.554133
1541.000000	101.551222
1540.000000	101.546952
1539.000000	101.542364
1538.000000	101.539309
1537.000000	101.538164
1536.000000	101.538288
1535.000000	101.539726
1534.000000	101.542407
1533.000000	101.545082
1532.000000	101.545926
1531.000000	101.544916
1530.000000	101.543036
1529.000000	101.540971
1528.000000	101.538878
1527.000000	101.536655
1526.000000	101.534614
1525.000000	101.533556
1524.000000	101.534225
1523.000000	101.537001
1522.000000	101.541199
1521.000000	101.544923
1520.000000	101.547194
1519.000000	101.548705
1518.000000	101.550078
1517.000000	101.550752
1516.000000	101.549841
1515.000000	101.547547
1514.000000	101.545193
1513.000000	101.543925
1512.000000	101.544044
1511.000000	101.545284
1510.000000	101.547261
1509.000000	101.549809
1508.000000	101.552863
1507.000000	101.555888
1506.000000	101.556986
1505.000000	101.555557
1504.000000	101.553647
1503.000000	101.552666
1502.000000	101.552859
1501.000000	101.553815
1500.000000	101.554907
1499.000000	101.555636
1498.000000	101.555854
1497.000000	101.555096
1496.000000	101.553351
1495.000000	101.552058
1494.000000	101.552285
1493.000000	101.553538
1492.000000	101.554630
1491.000000	101.554631
1490.000000	101.553677
1489.000000	101.552664
1488.000000	101.552430
1487.000000	101.553368
1486.000000	101.554696
1485.000000	101.555369
1484.000000	101.555139
1483.000000	101.554457
1482.000000	101.554182
1481.000000	101.554846
1480.000000	101.556371
1479.000000	101.558331
1478.000000	101.560044
1477.000000	101.560515
1476.000000	101.559578
1475.000000	101.558546
1474.000000	101.558686
1473.000000	101.559294
1472.000000	101.558204
1471.000000	101.554942
1470.000000	101.550765
1469.000000	101.546571
1468.000000	101.542261
1467.000000	101.537299
1466.000000	101.531714
1465.000000	101.527154
1464.000000	101.525606
1463.000000	101.526760
1462.000000	101.528190
1461.000000	101.527912
1460.000000	101.525942
1459.000000	101.524301
1458.000000	101.526221
1457.000000	101.531741
1456.000000	101.535380
1455.000000	101.534136
1454.000000	101.530714
1453.000000	101.527880
1452.000000	101.527082
1451.000000	101.528012
1450.000000	101.528828
1449.000000	101.527018
1448.000000	101.521897
1447.000000	101.515348
1446.000000	101.508994
1445.000000	101.502474
1444.000000	101.495597
1443.000000	101.490192
1442.000000	101.487773
1441.000000	101.487104
1440.000000	101.485707
1439.000000	101.483165
1438.000000	101.481131
1437.000000	101.479985
1436.000000	101.478466
1435.000000	101.477226
1434.000000	101.478417
1433.000000	101.481689
1432.000000	101.484093
1431.000000	101.483228
1430.000000	101.480890
1429.000000	101.480955
1428.000000	101.484049
1427.000000	101.487369
1426.000000	101.488746
1425.000000	101.488767
1424.000000	101.488387
1423.000000	101.487502
1422.000000	101.486013
1421.000000	101.484710
1420.000000	101.484106
1419.000000	101.484474
1418.000000	101.486571
1417.000000	101.489089
1416.000000	101.490468
1415.000000	101.491788
1414.000000	101.495034
1413.000000	101.500572
1412.000000	101.507062
1411.000000	101.513526
1410.000000	101.520556
1409.000000	101.528152
1408.000000	101.534730
1407.000000	101.538749
1406.000000	101.540411
1405.000000	101.541815
1404.000000	101.544482
1403.000000	101.548364
1402.000000	101.552839
1401.000000	101.556884
1400.000000	101.559191
1399.000000	101.559962
1398.000000	101.562262
1397.000000	101.568748
1396.000000	101.578011
1395.000000	101.584819
1394.000000	101.585413
1393.000000	101.581685
1392.000000	101.578175
1391.000000	101.578063
1390.000000	101.581823
1389.000000	101.587543
1388.000000	101.592390
1387.000000	101.594661
1386.000000	101.594982
1385.000000	101.595413
1384.000000	101.597500
1383.000000	101.601274
1382.000000	101.605250
1381.000000	101.607426
1380.000000	101.606876
1379.000000	101.604091
1378.000000	101.600353
1377.000000	101.596974
1376.000000	101.594635
1375.000000	101.592827
1374.000000	101.590058
1373.000000	101.584979
1372.000000	101.577911
1371.000000	101.571313
1370.000000	101.568236
1369.000000	101.570165
1368.000000	101.575529
1367.000000	101.581290
1366.000000	101.586073
1365.000000	101.590349
1364.000000	101.594213
1363.000000	101.596491
1362.000000	101.596117
1361.000000	101.593680
1360.000000	101.590703
1359.000000	101.587901
1358.000000	101.585196
1357.000000	101.583078
1356.000000	101.582804
1355.000000	101.585012
1354.000000	101.588654
1353.000000	101.591685
1352.000000	101.593063
1351.000000	101.593323
1350.000000	101.593459
1349.000000	101.594400
1348.000000	101.596513
1347.000000	101.599319
1346.000000	101.601669
1345.000000	101.602443
1344.000000	101.601241
1343.000000	101.598594
1342.000000	101.595658
1341.000000	101.593725
1340.000000	101.593637
1339.000000	101.595185
1338.000000	101.597330
1337.000000	101.599067
1336.000000	101.599772
1335.000000	101.599284
1334.000000	101.598259
1333.000000	101.598032
1332.000000	101.599407
1331.000000	101.601605
1330.000000	101.603214
1329.000000	101.604025
1328.000000	101.604864
1327.000000	101.605582
1326.000000	101.604702
1325.000000	101.601590
1324.000000	101.597590
1323.000000	101.594824
1322.000000	101.594459
1321.000000	101.596057
1320.000000	101.597844
1319.000000	101.597604
1318.000000	101.594503
1317.000000	101.590306
1316.000000	101.587926
1315.000000	101.588558
1314.000000	101.591002
1313.000000	101.593678
1312.000000	101.596129
1311.000000	101.598224
1310.000000	101.599527
1309.000000	101.600426
1308.000000	101.602412
1307.000000	101.605585
1306.000000	101.607193
1305.000000	101.604891
1304.000000	101.600187
1303.000000	101.596735
1302.000000	101.595541
1301.000000	101.594272
1300.000000	101.591375
1299.000000	101.588329
1298.000000	101.587168
1297.000000	101.587899
1296.000000	101.589415
1295.000000	101.590902
1294.000000	101.591129
1293.000000	101.588287
1292.000000	101.582246
1291.000000	101.575719
1290.000000	101.571303
1289.000000	101.568218
1288.000000	101.563756
1287.000000	101.557089
1286.000000	101.549808
1285.000000	101.543270
1284.000000	101.537427
1283.000000	101.532334
1282.000000	101.529018
1281.000000	101.528325
1280.000000	101.529622
1279.000000	101.530903
1278.000000	101.530174
1277.000000	101.527003
1276.000000	101.522830
1275.000000	101.519409
1274.000000	101.517142
1273.000000	101.515625
1272.000000	101.515220
1271.000000	101.516368
1270.000000	101.517459
1269.000000	101.515683
1268.000000	101.510735
1267.000000	101.505734
1266.000000	101.503443
1265.000000	101.503095
1264.000000	101.502040
1263.000000	101.498857
1262.000000	101.493615
1261.000000	101.486948
1260.000000	101.480401
1259.000000	101.475915
1258.000000	101.473292
1257.000000	101.469560
1256.000000	101.462525
1255.000000	101.453578
1254.000000	101.445309
1253.000000	101.437627
1252.000000	101.428174
1251.000000	101.415303
1250.000000	101.398547
1249.000000	101.377366
1248.000000	101.352093
1247.000000	101.325791
1246.000000	101.302756
1245.000000	101.284800
1244.000000	101.270508
1243.000000	101.257672
1242.000000	101.244719
1241.000000	101.230325
1240.000000	101.213618
1239.000000	101.194788
1238.000000	101.174156
1237.000000	101.151150
1236.000000	101.125663
1235.000000	101.099497
1234.000000	101.074366
1233.000000	101.048978
1232.000000	101.020246
1231.000000	100.987069
1230.000000	100.950817
1229.000000	100.912226
1228.000000	100.870204
1227.000000	100.823979
1226.000000	100.774035
1225.000000	100.719892
1224.000000	100.658785
1223.000000	100.588092
1222.000000	100.508396
1221.000000	100.423157
1220.000000	100.335467
1219.000000	100.245577
1218.000000	100.151755
1217.000000	100.053361
1216.000000	99.952097
1215.000000	99.849162
1214.000000	99.742232
1213.000000	99.627802
1212.000000	99.506605
1211.000000	99.384159
1210.000000	99.265257
1209.000000	99.150256
1208.000000	99.037066
1207.000000	98.923607
1206.000000	98.808107
1205.000000	98.690841
1204.000000	98.576077
1203.000000	98.468428
1202.000000	98.366824
1201.000000	98.266029
1200.000000	98.164011
1199.000000	98.062754
1198.000000	97.961664
1197.000000	97.856447
1196.000000	97.746115
1195.000000	97.635311
1194.000000	97.527586
1193.000000	97.421605
1192.000000	97.315863
1191.000000	97.211487
1190.000000	97.108033
1189.000000	97.002131
1188.000000	96.893128
1187.000000	96.784967
1186.000000	96.679527
1185.000000	96.572851
1184.000000	96.460585
1183.000000	96.342455
1182.000000	96.219367
1181.000000	96.091387
1180.000000	95.960794
1179.000000	95.831401
1178.000000	95.702146
1177.000000	95.567005
1176.000000	95.423753
1175.000000	95.276817
1174.000000	95.129103
1173.000000	94.977946
1172.000000	94.822405
1171.000000	94.667144
1170.000000	94.514789
1169.000000	94.361560
1168.000000	94.205784
1167.000000	94.055200
1166.000000	93.921782
1165.000000	93.815553
1164.000000	93.747025
1163.000000	93.727523
1162.000000	93.759965
1161.000000	93.832287
1160.000000	93.922028
1159.000000	94.003380
1158.000000	94.051522
1157.000000	94.050482
1156.000000	94.001995
1155.000000	93.922139
1154.000000	93.825805
1153.000000	93.717570
1152.000000	93.598257
1151.000000	93.472557
1150.000000	93.346200
1149.000000	93.221732
1148.000000	93.100786
1147.000000	92.984874
1146.000000	92.871167
1145.000000	92.753735
1144.000000	92.631616
1143.000000	92.509600
1142.000000	92.389403
1141.000000	92.267233
1140.000000	92.141733
1139.000000	92.016234
1138.000000	91.891091
1137.000000	91.762226
1136.000000	91.629592
1135.000000	91.498304
1134.000000	91.368880
1133.000000	91.235448
1132.000000	91.096034
1131.000000	90.955122
1130.000000	90.813786
1129.000000	90.667893
1128.000000	90.519009
1127.000000	90.375665
1126.000000	90.239604
1125.000000	90.101980
1124.000000	89.957883
1123.000000	89.813525
1122.000000	89.674107
1121.000000	89.535650
1120.000000	89.394130
1119.000000	89.251621
1118.000000	89.108135
1117.000000	88.959178
1116.000000	88.806959
1115.000000	88.662312
1114.000000	88.529487
1113.000000	88.400715
1112.000000	88.271212
1111.000000	88.146409
1110.000000	88.028870
1109.000000	87.911710
1108.000000	87.791060
1107.000000	87.672870
1106.000000	87.561401
1105.000000	87.452349
1104.000000	87.342159
1103.000000	87.232688
1102.000000	87.123252
1101.000000	87.010512
1100.000000	86.899375
1099.000000	86.800433
1098.000000	86.712552
1097.000000	86.622683
1096.000000	86.526003
1095.000000	86.431467
1094.000000	86.343877
1093.000000	86.256833
1092.000000	86.168307
1091.000000	86.086844
1090.000000	86.015785
1089.000000	85.946166
1088.000000	85.871726
1087.000000	85.797608
1086.000000	85.728951
1085.000000	85.663976
1084.000000	85.602562
1083.000000	85.548349
1082.000000	85.499123
1081.000000	85.448657
1080.000000	85.399768
1079.000000	85.360215
1078.000000	85.324284
1077.000000	85.275924
1076.000000	85.212622
1075.000000	85.147661
1074.000000	85.084365
1073.000000	85.006145
1072.000000	84.897773
1071.000000	84.759672
1070.000000	84.596333
1069.000000	84.406794
1068.000000	84.192734
1067.000000	83.961281
1066.000000	83.714540
1065.000000	83.451271
1064.000000	83.183476
1063.000000	82.934717
1062.000000	82.715749
1061.000000	82.517194
1060.000000	82.330454
1059.000000	82.158520
1058.000000	82.001955
1057.000000	81.852436
1056.000000	81.705476
1055.000000	81.562154
1054.000000	81.413578
1053.000000	81.241882
1052.000000	81.042470
1051.000000	80.827172
1050.000000	80.600036
1049.000000	80.350963
1048.000000	80.078800
1047.000000	79.797176
1046.000000	79.512004
1045.000000	79.215546
1044.000000	78.906614
1043.000000	78.595176
1042.000000	78.283504
1041.000000	77.964193
1040.000000	77.641327
1039.000000	77.332366
1038.000000	77.044690
1037.000000	76.771866
1036.000000	76.515808
1035.000000	76.287970
1034.000000	76.084806
1033.000000	75.888524
1032.000000	75.698221
1031.000000	75.533663
1030.000000	75.400722
1029.000000	75.279364
1028.000000	75.154614
1027.000000	75.034862
1026.000000	74.929748
1025.000000	74.833701
1024.000000	74.741113
1023.000000	74.655999
1022.000000	74.577708
1021.000000	74.497136
1020.000000	74.413766
1019.000000	74.336798
1018.000000	74.265278
1017.000000	74.188118
1016.000000	74.106683
1015.000000	74.034829
1014.000000	73.973755
1013.000000	73.910141
1012.000000	73.841771
1011.000000	73.780704
1010.000000	73.728434
1009.000000	73.673161
1008.000000	73.615061
1007.000000	73.568713
1006.000000	73.536477
1005.000000	73.504821
1004.000000	73.471040
1003.000000	73.448183
1002.000000	73.439441
1001.000000	73.433431
1000.000000	73.429111
999.000000	73.439196
998.000000	73.463824
997.000000	73.486644
996.000000	73.502500
995.000000	73.523963
994.000000	73.555680
993.000000	73.588103
992.000000	73.621748
991.000000	73.671476
990.000000	73.740491
989.000000	73.815314
988.000000	73.892826
987.000000	73.987607
986.000000	74.106261
985.000000	74.238989
984.000000	74.382551
983.000000	74.547384
982.000000	74.735458
981.000000	74.934597
980.000000	75.141061
979.000000	75.365418
978.000000	75.610869
977.000000	75.868326
976.000000	76.137276
975.000000	76.428312
974.000000	76.739972
973.000000	77.055845
972.000000	77.370018
971.000000	77.693455
970.000000	78.030134
969.000000	78.368568
968.000000	78.702018
967.000000	79.036027
966.000000	79.370785
965.000000	79.696592
964.000000	80.012067
963.000000	80.327298
962.000000	80.643919
961.000000	80.950958
960.000000	81.244892
959.000000	81.534697
958.000000	81.822322
957.000000	82.097131
956.000000	82.355257
955.000000	82.606197
954.000000	82.853878
953.000000	83.088186
952.000000	83.302218
951.000000	83.502858
950.000000	83.698209
949.000000	83.887725
948.000000	84.069517
947.000000	84.244536
946.000000	84.409859
945.000000	84.560550
944.000000	84.700652
943.000000	84.839834
942.000000	84.978174
941.000000	85.107931
940.000000	85.230763
939.000000	85.357946
938.000000	85.492525
937.000000	85.626632
936.000000	85.757445
935.000000	85.889870
934.000000	86.022605
933.000000	86.148464
932.000000	86.270274
931.000000	86.399645
930.000000	86.537833
929.000000	86.674586
928.000000	86.807746
927.000000	86.946099
926.000000	87.089765
925.000000	87.226046
924.000000	87.349874
923.000000	87.471751
922.000000	87.599686
921.000000	87.728113
920.000000	87.849872
919.000000	87.965391
918.000000	88.075721
917.000000	88.179963
916.000000	88.283307
915.000000	88.394460
914.000000	88.512646
913.000000	88.631432
912.000000	88.757326
911.000000	88.908234
910.000000	89.089866
909.000000	89.289393
908.000000	89.496628
907.000000	89.716398
906.000000	89.955571
905.000000	90.213433
904.000000	90.489389
903.000000	90.784839
902.000000	91.092038
901.000000	91.395098
900.000000	91.687795
899.000000	91.978221
898.000000	92.271412
897.000000	92.559453
896.000000	92.833129
895.000000	93.092531
894.000000	93.341960
893.000000	93.583991
892.000000	93.821862
891.000000	94.058767
890.000000	94.291954
889.000000	94.515308
888.000000	94.728538
887.000000	94.935808
886.000000	95.136359
885.000000	95.326381
884.000000	95.508975
883.000000	95.690738
882.000000	95.868851
881.000000	96.033873
880.000000	96.185609
879.000000	96.333660
878.000000	96.482314
877.000000	96.629300
876.000000	96.780294
875.000000	96.947471
874.000000	97.128859
873.000000	97.304781
872.000000	97.461418
871.000000	97.605696
870.000000	97.752211
869.000000	97.907170
868.000000	98.070175
867.000000	98.239886
866.000000	98.410560
865.000000	98.571441
864.000000	98.716607
863.000000	98.850790
862.000000	98.982332
861.000000	99.115346
860.000000	99.250123
859.000000	99.384096
858.000000	99.510097
857.000000	99.620773
856.000000	99.717774
855.000000	99.810828
854.000000	99.905362
853.000000	99.996276
852.000000	100.075295
851.000000	100.138642
850.000000	100.186748
849.000000	100.223056
848.000000	100.254490
847.000000	100.286567
846.000000	100.315864
845.000000	100.332624
844.000000	100.331567
843.000000	100.314634
842.000000	100.283521
841.000000	100.236519
840.000000	100.173048
839.000000	100.094747
838.000000	100.002681
837.000000	99.900789
836.000000	99.800761
835.000000	99.714153
834.000000	99.639821
833.000000	99.569305
832.000000	99.504606
831.000000	99.458873
830.000000	99.438589
829.000000	99.438718
828.000000	99.457558
827.000000	99.499377
826.000000	99.555619
825.000000	99.600820
824.000000	99.617917
823.000000	99.613963
822.000000	99.602845
821.000000	99.587794
820.000000	99.568005
819.000000	99.544393
818.000000	99.508543
817.000000	99.440173
816.000000	99.326224
815.000000	99.172703
814.000000	98.988088
813.000000	98.763497
812.000000	98.478853
811.000000	98.119748
810.000000	97.676962
809.000000	97.138041
808.000000	96.495323
807.000000	95.761131
806.000000	94.964445
805.000000	94.135586
804.000000	93.304227
803.000000	92.506378
802.000000	91.779755
801.000000	91.154492
800.000000	90.655008
799.000000	90.301532
798.000000	90.100450
797.000000	90.040756
796.000000	90.103918
795.000000	90.265858
794.000000	90.488454
793.000000	90.727062
792.000000	90.953414
791.000000	91.158895
790.000000	91.332353
789.000000	91.449117
788.000000	91.487083
787.000000	91.440963
786.000000	91.314904
785.000000	91.112758
784.000000	90.843575
783.000000	90.529063
782.000000	90.200460
781.000000	89.895475
780.000000	89.659393
779.000000	89.534161
778.000000	89.537348
777.000000	89.659113
776.000000	89.880020
775.000000	90.179110
774.000000	90.526339
773.000000	90.886595
772.000000	91.237218
771.000000	91.569704
770.000000	91.873709
769.000000	92.133936
768.000000	92.344590
767.000000	92.513178
766.000000	92.647959
765.000000	92.754718
764.000000	92.846943
763.000000	92.943106
762.000000	93.048925
761.000000	93.155785
760.000000	93.260744
759.000000	93.374247
758.000000	93.503937
757.000000	93.644951
756.000000	93.790713
755.000000	93.939004
754.000000	94.082720
753.000000	94.210276
752.000000	94.322823
751.000000	94.438273
750.000000	94.570340
749.000000	94.713927
748.000000	94.857465
747.000000	94.998943
746.000000	95.143150
745.000000	95.293284
744.000000	95.452331
743.000000	95.623956
742.000000	95.806392
741.000000	95.993974
740.000000	96.188243
739.000000	96.397117
738.000000	96.618658
737.000000	96.836054
736.000000	97.033651
735.000000	97.207997
734.000000	97.359445
733.000000	97.485062
732.000000	97.585262
731.000000	97.666133
730.000000	97.729036
729.000000	97.768837
728.000000	97.789323
727.000000	97.810082
726.000000	97.849150
725.000000	97.906169
724.000000	97.971350
723.000000	98.044496
722.000000	98.136392
721.000000	98.254855
720.000000	98.395394
719.000000	98.543205
718.000000	98.681391
717.000000	98.800350
716.000000	98.901456
715.000000	98.989881
714.000000	99.065670
713.000000	99.127454
712.000000	99.181395
711.000000	99.235282
710.000000	99.283796
709.000000	99.312494
708.000000	99.318467
707.000000	99.312992
706.000000	99.299015
705.000000	99.259429
704.000000	99.175280
703.000000	99.042284
702.000000	98.858211
701.000000	98.606241
700.000000	98.266861
699.000000	97.843718
698.000000	97.373069
697.000000	96.915750
696.000000	96.544694
695.000000	96.324348
694.000000	96.282134
693.000000	96.396898
692.000000	96.617290
691.000000	96.889640
690.000000	97.172348
689.000000	97.436854
688.000000	97.667154
687.000000	97.857651
686.000000	98.006091
685.000000	98.113899
684.000000	98.196253
683.000000	98.279709
682.000000	98.380475
681.000000	98.490185
680.000000	98.589302
679.000000	98.669293
678.000000	98.736136
677.000000	98.800587
676.000000	98.870979
675.000000	98.948002
674.000000	99.025633
673.000000	99.097495
672.000000	99.161856
671.000000	99.221656
670.000000	99.283541
669.000000	99.362732
668.000000	99.472999
667.000000	99.591136
666.000000	99.680938
665.000000	99.742727
664.000000	99.793620
663.000000	99.847290
662.000000	99.900772
661.000000	99.935640
660.000000	99.936244
659.000000	99.903854
658.000000	99.855379
657.000000	99.813046
656.000000	99.790465
655.000000	99.779513
654.000000	99.756858
653.000000	99.711135
652.000000	99.659760
651.000000	99.629829
650.000000	99.625429
