4000.000000	99.821194
3999.000000	99.821370
3998.000000	99.820381
3997.000000	99.818338
3996.000000	99.815926
3995.000000	99.813754
3994.000000	99.812039
3993.000000	99.810725
3992.000000	99.809638
3991.000000	99.808723
3990.000000	99.808154
3989.000000	99.808155
3988.000000	99.808687
3987.000000	99.809361
3986.000000	99.809765
3985.000000	99.809841
3984.000000	99.809879
3983.000000	99.810048
3982.000000	99.809999
3981.000000	99.809089
3980.000000	99.806966
3979.000000	99.803860
3978.000000	99.800415
3977.000000	99.797340
3976.000000	99.795162
3975.000000	99.794174
3974.000000	99.794425
3973.000000	99.795628
3972.000000	99.797114
3971.000000	99.797996
3970.000000	99.797581
3969.000000	99.795811
3968.000000	99.793454
3967.000000	99.791697
3966.000000	99.791296
3965.000000	99.792119
3964.000000	99.793321
3963.000000	99.794009
3962.000000	99.793788
3961.000000	99.792771
3960.000000	99.791353
3959.000000	99.790006
3958.000000	99.789120
3957.000000	99.788770
3956.000000	99.788540
3955.000000	99.787705
3954.000000	99.785800
3953.000000	99.783123
3952.000000	99.780701
3951.000000	99.779613
3950.000000	99.780176
3949.000000	99.781737
3948.000000	99.783227
3947.000000	99.783978
3946.000000	99.783988
3945.000000	99.783657
3944.000000	99.783502
3943.000000	99.783910
3942.000000	99.784948
3941.000000	99.786331
3940.000000	99.787605
3939.000000	99.788395
3938.000000	99.788581
3937.000000	99.788292
3936.000000	99.787741
3935.000000	99.787063
3934.000000	99.786311
3933.000000	99.785574
3932.000000	99.785002
3931.000000	99.784630
3930.000000	99.784256
3929.000000	99.783648
3928.000000	99.782890
3927.000000	99.782501
3926.000000	99.783144
3925.000000	99.785067
3924.000000	99.787621
3923.000000	99.789446
3922.000000	99.789583
3921.000000	99.788118
3920.000000	99.786042
3919.000000	99.784556
3918.000000	99.784096
3917.000000	99.784226
3916.000000	99.784217
3915.000000	99.783727
3914.000000	99.782940
3913.000000	99.782254
3912.000000	99.781917
3911.000000	99.781929
3910.000000	99.782111
3909.000000	99.782190
3908.000000	99.781900
3907.000000	99.781124
3906.000000	99.780024
3905.000000	99.778984
3904.000000	99.778260
3903.000000	99.777709
3902.000000	99.777094
3901.000000	99.776540
3900.000000	99.776426
3899.000000	99.776836
3898.000000	99.777379
3897.000000	99.777636
3896.000000	99.777553
3895.000000	99.777336
3894.000000	99.777173
3893.000000	99.777098
3892.000000	99.777043
3891.000000	99.776964
3890.000000	99.776839
3889.000000	99.776604
3888.000000	99.776131
3887.000000	99.775377
3886.000000	99.774520
3885.000000	99.773877
3884.000000	99.773598
3883.000000	99.773571
3882.000000	99.773503
3881.000000	99.773147
3880.000000	99.772488
3879.000000	99.771775
3878.000000	99.771344
3877.000000	99.771352
3876.000000	99.771642
3875.000000	99.771813
3874.000000	99.771656
3873.000000	99.771326
3872.000000	99.771123
3871.000000	99.771173
3870.000000	99.771284
3869.000000	99.771107
3868.000000	99.770490
3867.000000	99.769613
3866.000000	99.768848
3865.000000	99.768456
3864.000000	99.768346
3863.000000	99.768315
3862.000000	99.768392
3861.000000	99.768773
3860.000000	99.769526
3859.000000	99.770575
3858.000000	99.771687
3857.000000	99.772427
3856.000000	99.772107
3855.000000	99.770181
3854.000000	99.767038
3853.000000	99.764182
3852.000000	99.762768
3851.000000	99.763065
3850.000000	99.764855
3849.000000	99.767549
3848.000000	99.770236
3847.000000	99.772032
3846.000000	99.772561
3845.000000	99.771955
3844.000000	99.770489
3843.000000	99.768366
3842.000000	99.765499
3841.000000	99.761842
3840.000000	99.758092
3839.000000	99.755626
3838.000000	99.755137
3837.000000	99.755837
3836.000000	99.756519
3835.000000	99.757170
3834.000000	99.758793
3833.000000	99.762158
3832.000000	99.766687
3831.000000	99.770465
3830.000000	99.771914
3829.000000	99.771099
3828.000000	99.769392
3827.000000	99.768458
3826.000000	99.769127
3825.000000	99.770986
3824.000000	99.772919
3823.000000	99.774056
3822.000000	99.774134
3821.000000	99.773276
3820.000000	99.771480
3819.000000	99.768938
3818.000000	99.766326
3817.000000	99.764354
3816.000000	99.763379
3815.000000	99.763233
3814.000000	99.763798
3813.000000	99.765559
3812.000000	99.769013
3811.000000	99.773614
3810.000000	99.777664
3809.000000	99.779290
3808.000000	99.777936
3807.000000	99.774860
3806.000000	99.771747
3805.000000	99.769206
3804.000000	99.766789
3803.000000	99.764035
3802.000000	99.761286
3801.000000	99.759389
3800.000000	99.759038
3799.000000	99.760930
3798.000000	99.765248
3797.000000	99.770770
3796.000000	99.775248
3795.000000	99.777008
3794.000000	99.776283
3793.000000	99.774760
3792.000000	99.774118
3791.000000	99.775014
3790.000000	99.777294
3789.000000	99.780614
3788.000000	99.784675
3787.000000	99.788843
3786.000000	99.791999
3785.000000	99.793066
3784.000000	99.791745
3783.000000	99.788731
3782.000000	99.785321
3781.000000	99.782762
3780.000000	99.781664
3779.000000	99.781768
3778.000000	99.782171
3777.000000	99.782047
3776.000000	99.781178
3775.000000	99.780069
3774.000000	99.779439
3773.000000	99.779430
3772.000000	99.779280
3771.000000	99.777960
3770.000000	99.775073
3769.000000	99.771387
3768.000000	99.768602
3767.000000	99.768120
3766.000000	99.769957
3765.000000	99.772786
3764.000000	99.775056
3763.000000	99.776127
3762.000000	99.776344
3761.000000	99.776130
3760.000000	99.774956
3759.000000	99.771781
3758.000000	99.766858
3757.000000	99.762268
3756.000000	99.759920
3755.000000	99.759923
3754.000000	99.760948
3753.000000	99.761608
3752.000000	99.761444
3751.000000	99.760736
3750.000000	99.759853
3749.000000	99.759299
3748.000000	99.759425
3747.000000	99.759361
3746.000000	99.757461
3745.000000	99.752731
3744.000000	99.745464
3743.000000	99.737313
3742.000000	99.730763
3741.000000	99.727677
3740.000000	99.728402
3739.000000	99.731824
3738.000000	99.736255
3737.000000	99.740657
3736.000000	99.744576
3735.000000	99.747272
3734.000000	99.748167
3733.000000	99.748201
3732.000000	99.748690
3731.000000	99.749156
3730.000000	99.748038
3729.000000	99.744817
3728.000000	99.741291
3727.000000	99.740319
3726.000000	99.742746
3725.000000	99.746438
3724.000000	99.749051
3723.000000	99.750270
3722.000000	99.750692
3721.000000	99.750649
3720.000000	99.750285
3719.000000	99.749496
3718.000000	99.747869
3717.000000	99.744722
3716.000000	99.739278
3715.000000	99.731345
3714.000000	99.721861
3713.000000	99.713035
3712.000000	99.707050
3711.000000	99.704392
3710.000000	99.703632
3709.000000	99.702940
3708.000000	99.701561
3707.000000	99.699626
3706.000000	99.697456
3705.000000	99.695398
3704.000000	99.694116
3703.000000	99.694309
3702.000000	99.695716
3701.000000	99.697044
3700.000000	99.697444
3699.000000	99.697129
3698.000000	99.696427
3697.000000	99.694822
3696.000000	99.691008
3695.000000	99.684075
3694.000000	99.674847
3693.000000	99.665906
3692.000000	99.660032
3691.000000	99.658870
3690.000000	99.661584
3689.000000	99.664252
3688.000000	99.663011
3687.000000	99.658154
3686.000000	99.652367
3685.000000	99.646689
3684.000000	99.639910
3683.000000	99.630627
3682.000000	99.619259
3681.000000	99.607967
3680.000000	99.598649
3679.000000	99.590624
3678.000000	99.581617
3677.000000	99.571672
3676.000000	99.563933
3675.000000	99.558525
3674.000000	99.551027
3673.000000	99.539537
3672.000000	99.526835
3671.000000	99.517267
3670.000000	99.512398
3669.000000	99.509329
3668.000000	99.505119
3667.000000	99.500207
3666.000000	99.495554
3665.000000	99.490289
3664.000000	99.483139
3663.000000	99.474932
3662.000000	99.468738
3661.000000	99.466826
3660.000000	99.467943
3659.000000	99.467919
3658.000000	99.462958
3657.000000	99.452461
3656.000000	99.438948
3655.000000	99.425345
3654.000000	99.413125
3653.000000	99.402339
3652.000000	99.392256
3651.000000	99.382264
3650.000000	99.373023
3649.000000	99.366343
3648.000000	99.362791
3647.000000	99.360736
3646.000000	99.358546
3645.000000	99.356413
3644.000000	99.355486
3643.000000	99.355802
3642.000000	99.355863
3641.000000	99.354041
3640.000000	99.350209
3639.000000	99.345432
3638.000000	99.340172
3637.000000	99.333540
3636.000000	99.324641
3635.000000	99.314006
3634.000000	99.302881
3633.000000	99.291389
3632.000000	99.278881
3631.000000	99.266741
3630.000000	99.260011
3629.000000	99.262435
3628.000000	99.268883
3627.000000	99.271163
3626.000000	99.268563
3625.000000	99.265409
3624.000000	99.264759
3623.000000	99.266494
3622.000000	99.268635
3621.000000	99.270186
3620.000000	99.272139
3619.000000	99.275430
3618.000000	99.279152
3617.000000	99.281934
3616.000000	99.283344
3615.000000	99.283753
3614.000000	99.283718
3613.000000	99.283737
3612.000000	99.284663
3611.000000	99.288221
3610.000000	99.296191
3609.000000	99.308445
3608.000000	99.321640
3607.000000	99.331331
3606.000000	99.335974
3605.000000	99.337590
3604.000000	99.339152
3603.000000	99.342237
3602.000000	99.346748
3601.000000	99.351822
3600.000000	99.355981
3599.000000	99.357275
3598.000000	99.355024
3597.000000	99.351401
3596.000000	99.350511
3595.000000	99.355152
3594.000000	99.363863
3593.000000	99.371957
3592.000000	99.375865
3591.000000	99.375512
3590.000000	99.373747
3589.000000	99.374491
3588.000000	99.380020
3587.000000	99.388286
3586.000000	99.394314
3585.000000	99.394869
3584.000000	99.390346
3583.000000	99.383277
3582.000000	99.376787
3581.000000	99.373462
3580.000000	99.374352
3579.000000	99.378271
3578.000000	99.382179
3577.000000	99.382939
3576.000000	99.379203
3575.000000	99.372057
3574.000000	99.364260
3573.000000	99.358528
3572.000000	99.356206
3571.000000	99.357015
3570.000000	99.359503
3569.000000	99.361936
3568.000000	99.363233
3567.000000	99.363106
3566.000000	99.361529
3565.000000	99.358717
3564.000000	99.355391
3563.000000	99.352509
3562.000000	99.350818
3561.000000	99.350661
3560.000000	99.351897
3559.000000	99.353804
3558.000000	99.355307
3557.000000	99.355607
3556.000000	99.354670
3555.000000	99.353113
3554.000000	99.351731
3553.000000	99.351088
3552.000000	99.351360
3551.000000	99.352339
3550.000000	99.353458
3549.000000	99.353884
3548.000000	99.352944
3547.000000	99.350660
3546.000000	99.347907
3545.000000	99.345680
3544.000000	99.344224
3543.000000	99.343130
3542.000000	99.342047
3541.000000	99.341080
3540.000000	99.340705
3539.000000	99.341467
3538.000000	99.343725
3537.000000	99.347327
3536.000000	99.351288
3535.000000	99.354166
3534.000000	99.355090
3533.000000	99.354524
3532.000000	99.353883
3531.000000	99.354281
3530.000000	99.355621
3529.000000	99.356829
3528.000000	99.356777
3527.000000	99.354969
3526.000000	99.351740
3525.000000	99.348222
3524.000000	99.345820
3523.000000	99.345222
3522.000000	99.346024
3521.000000	99.347359
3520.000000	99.348844
3519.000000	99.350678
3518.000000	99.352973
3517.000000	99.355273
3516.000000	99.356794
3515.000000	99.357033
3514.000000	99.356063
3513.000000	99.354408
3512.000000	99.352697
3511.000000	99.351358
3510.000000	99.350539
3509.000000	99.350237
3508.000000	99.350429
3507.000000	99.351032
3506.000000	99.351791
3505.000000	99.352291
3504.000000	99.352177
3503.000000	99.351433
3502.000000	99.350481
3501.000000	99.349943
3500.000000	99.350160
3499.000000	99.350939
3498.000000	99.351683
3497.000000	99.351874
3496.000000	99.351471
3495.000000	99.350842
3494.000000	99.350396
3493.000000	99.350264
3492.000000	99.350318
3491.000000	99.350309
3490.000000	99.349952
3489.000000	99.349060
3488.000000	99.347773
3487.000000	99.346582
3486.000000	99.345936
3485.000000	99.345865
3484.000000	99.346038
3483.000000	99.346148
3482.000000	99.346125
3481.000000	99.345935
3480.000000	99.345368
3479.000000	99.344189
3478.000000	99.342423
3477.000000	99.340435
3476.000000	99.338783
3475.000000	99.337981
3474.000000	99.338255
3473.000000	99.339397
3472.000000	99.340785
3471.000000	99.341714
3470.000000	99.341853
3469.000000	99.341342
3468.000000	99.340543
3467.000000	99.339735
3466.000000	99.339083
3465.000000	99.338767
3464.000000	99.338901
3463.000000	99.339232
3462.000000	99.339118
3461.000000	99.338016
3460.000000	99.336001
3459.000000	99.333729
3458.000000	99.331876
3457.000000	99.330599
3456.000000	99.329519
3455.000000	99.328189
3454.000000	99.326620
3453.000000	99.325357
3452.000000	99.324926
3451.000000	99.325252
3450.000000	99.325634
3449.000000	99.325366
3448.000000	99.324390
3447.000000	99.323229
3446.000000	99.322385
3445.000000	99.321852
3444.000000	99.321291
3443.000000	99.320512
3442.000000	99.319669
3441.000000	99.319034
3440.000000	99.318704
3439.000000	99.318547
3438.000000	99.318329
3437.000000	99.317853
3436.000000	99.317068
3435.000000	99.316081
3434.000000	99.315096
3433.000000	99.314278
3432.000000	99.313648
3431.000000	99.313120
3430.000000	99.312587
3429.000000	99.312009
3428.000000	99.311417
3427.000000	99.310843
3426.000000	99.310285
3425.000000	99.309729
3424.000000	99.309179
3423.000000	99.308661
3422.000000	99.308191
3421.000000	99.307762
3420.000000	99.307344
3419.000000	99.306903
3418.000000	99.306418
3417.000000	99.305910
3416.000000	99.305445
3415.000000	99.305077
3414.000000	99.304782
3413.000000	99.304472
3412.000000	99.304116
3411.000000	99.303807
3410.000000	99.303671
3409.000000	99.303740
3408.000000	99.303918
3407.000000	99.304053
3406.000000	99.304023
3405.000000	99.303792
3404.000000	99.303436
3403.000000	99.303137
3402.000000	99.303082
3401.000000	99.303309
3400.000000	99.303627
3399.000000	99.303749
3398.000000	99.303523
3397.000000	99.303046
3396.000000	99.302597
3395.000000	99.302452
3394.000000	99.302757
3393.000000	99.303469
3392.000000	99.304353
3391.000000	99.305133
3390.000000	99.305727
3389.000000	99.306292
3388.000000	99.307015
3387.000000	99.307848
3386.000000	99.308519
3385.000000	99.308847
3384.000000	99.308950
3383.000000	99.309144
3382.000000	99.309631
3381.000000	99.310338
3380.000000	99.311041
3379.000000	99.311579
3378.000000	99.311977
3377.000000	99.312406
3376.000000	99.313044
3375.000000	99.313951
3374.000000	99.315060
3373.000000	99.316224
3372.000000	99.317270
3371.000000	99.318055
3370.000000	99.318553
3369.000000	99.318948
3368.000000	99.319538
3367.000000	99.320450
3366.000000	99.321487
3365.000000	99.322346
3364.000000	99.322949
3363.000000	99.323439
3362.000000	99.323901
3361.000000	99.324299
3360.000000	99.324742
3359.000000	99.325556
3358.000000	99.326901
3357.000000	99.328424
3356.000000	99.329484
3355.000000	99.329768
3354.000000	99.329493
3353.000000	99.329100
3352.000000	99.328898
3351.000000	99.329046
3350.000000	99.329688
3349.000000	99.330929
3348.000000	99.332683
3347.000000	99.334570
3346.000000	99.336031
3345.000000	99.336625
3344.000000	99.336307
3343.000000	99.335487
3342.000000	99.334714
3341.000000	99.334236
3340.000000	99.333963
3339.000000	99.333772
3338.000000	99.333734
3337.000000	99.334103
3336.000000	99.335184
3335.000000	99.337165
3334.000000	99.339919
3333.000000	99.342909
3332.000000	99.345424
3331.000000	99.346978
3330.000000	99.347412
3329.000000	99.346764
3328.000000	99.345334
3327.000000	99.343849
3326.000000	99.343139
3325.000000	99.343437
3324.000000	99.344189
3323.000000	99.344714
3322.000000	99.344969
3321.000000	99.345507
3320.000000	99.346748
3319.000000	99.348528
3318.000000	99.350286
3317.000000	99.351563
3316.000000	99.352256
3315.000000	99.352529
3314.000000	99.352606
3313.000000	99.352609
3312.000000	99.352584
3311.000000	99.352610
3310.000000	99.352835
3309.000000	99.353364
3308.000000	99.354094
3307.000000	99.354766
3306.000000	99.355242
3305.000000	99.355736
3304.000000	99.356660
3303.000000	99.358159
3302.000000	99.359821
3301.000000	99.360977
3300.000000	99.361369
3299.000000	99.361406
3298.000000	99.361764
3297.000000	99.362710
3296.000000	99.363956
3295.000000	99.365090
3294.000000	99.366025
3293.000000	99.366943
3292.000000	99.367951
3291.000000	99.368945
3290.000000	99.369777
3289.000000	99.370390
3288.000000	99.370779
3287.000000	99.370994
3286.000000	99.371294
3285.000000	99.372133
3284.000000	99.373857
3283.000000	99.376328
3282.000000	99.378810
3281.000000	99.380455
3280.000000	99.380939
3279.000000	99.380589
3278.000000	99.380040
3277.000000	99.379677
3276.000000	99.379495
3275.000000	99.379463
3274.000000	99.379758
3273.000000	99.380561
3272.000000	99.381818
3271.000000	99.383319
3270.000000	99.384916
3269.000000	99.386474
3268.000000	99.387751
3267.000000	99.388576
3266.000000	99.389121
3265.000000	99.389762
3264.000000	99.390647
3263.000000	99.391558
3262.000000	99.392260
3261.000000	99.392779
3260.000000	99.393259
3259.000000	99.393724
3258.000000	99.394181
3257.000000	99.394813
3256.000000	99.395855
3255.000000	99.397302
3254.000000	99.398898
3253.000000	99.400442
3252.000000	99.401982
3251.000000	99.403632
3250.000000	99.405307
3249.000000	99.406698
3248.000000	99.407551
3247.000000	99.407913
3246.000000	99.408140
3245.000000	99.408637
3244.000000	99.409522
3243.000000	99.410604
3242.000000	99.411621
3241.000000	99.412508
3240.000000	99.413415
3239.000000	99.414489
3238.000000	99.415706
3237.000000	99.416922
3236.000000	99.418021
3235.000000	99.419001
3234.000000	99.419938
3233.000000	99.420916
3232.000000	99.421952
3231.000000	99.423006
3230.000000	99.424029
3229.000000	99.425004
3228.000000	99.425956
3227.000000	99.426929
3226.000000	99.427956
3225.000000	99.429038
3224.000000	99.430137
3223.000000	99.431192
3222.000000	99.432166
3221.000000	99.433065
3220.000000	99.433928
3219.000000	99.434781
3218.000000	99.435628
3217.000000	99.436483
3216.000000	99.437385
3215.000000	99.438370
3214.000000	99.439419
3213.000000	99.440464
3212.000000	99.441449
3211.000000	99.442378
3210.000000	99.443311
3209.000000	99.444295
3208.000000	99.445305
3207.000000	99.446262
3206.000000	99.447113
3205.000000	99.447865
3204.000000	99.448574
3203.000000	99.449321
3202.000000	99.450208
3201.000000	99.451327
3200.000000	99.452667
3199.000000	99.454068
3198.000000	99.455279
3197.000000	99.456084
3196.000000	99.456406
3195.000000	99.456390
3194.000000	99.456435
3193.000000	99.456978
3192.000000	99.458114
3191.000000	99.459566
3190.000000	99.461113
3189.000000	99.462817
3188.000000	99.464698
3187.000000	99.466431
3186.000000	99.467622
3185.000000	99.468266
3184.000000	99.468622
3183.000000	99.468812
3182.000000	99.468876
3181.000000	99.469143
3180.000000	99.470101
3179.000000	99.471761
3178.000000	99.473532
3177.000000	99.474938
3176.000000	99.476142
3175.000000	99.477561
3174.000000	99.479185
3173.000000	99.480537
3172.000000	99.481244
3171.000000	99.481476
3170.000000	99.481824
3169.000000	99.482818
3168.000000	99.484589
3167.000000	99.486889
3166.000000	99.489336
3165.000000	99.491635
3164.000000	99.493594
3163.000000	99.495097
3162.000000	99.496181
3161.000000	99.497057
3160.000000	99.497853
3159.000000	99.498345
3158.000000	99.498212
3157.000000	99.497606
3156.000000	99.497277
3155.000000	99.497960
3154.000000	99.499718
3153.000000	99.501885
3152.000000	99.503597
3151.000000	99.504539
3150.000000	99.505059
3149.000000	99.505631
3148.000000	99.506275
3147.000000	99.506654
3146.000000	99.506678
3145.000000	99.506769
3144.000000	99.507389
3143.000000	99.508521
3142.000000	99.509743
3141.000000	99.510776
3140.000000	99.511722
3139.000000	99.512688
3138.000000	99.513536
3137.000000	99.514117
3136.000000	99.514536
3135.000000	99.515073
3134.000000	99.515873
3133.000000	99.516867
3132.000000	99.517940
3131.000000	99.519044
3130.000000	99.520144
3129.000000	99.521149
3128.000000	99.521984
3127.000000	99.522671
3126.000000	99.523310
3125.000000	99.524003
3124.000000	99.524782
3123.000000	99.525606
3122.000000	99.526412
3121.000000	99.527180
3120.000000	99.527941
3119.000000	99.528747
3118.000000	99.529619
3117.000000	99.530533
3116.000000	99.531438
3115.000000	99.532294
3114.000000	99.533095
3113.000000	99.533885
3112.000000	99.534729
3111.000000	99.535649
3110.000000	99.536598
3109.000000	99.537506
3108.000000	99.538353
3107.000000	99.539202
3106.000000	99.540127
3105.000000	99.541130
3104.000000	99.542101
3103.000000	99.542934
3102.000000	99.543682
3101.000000	99.544585
3100.000000	99.545816
3099.000000	99.547333
3098.000000	99.548867
3097.000000	99.550155
3096.000000	99.551135
3095.000000	99.551901
3094.000000	99.552552
3093.000000	99.553125
3092.000000	99.553690
3091.000000	99.554409
3090.000000	99.555415
3089.000000	99.556693
3088.000000	99.558079
3087.000000	99.559372
3086.000000	99.560440
3085.000000	99.561275
3084.000000	99.561984
3083.000000	99.562714
3082.000000	99.563516
3081.000000	99.564310
3080.000000	99.565017
3079.000000	99.565680
3078.000000	99.566460
3077.000000	99.567490
3076.000000	99.568766
3075.000000	99.570142
3074.000000	99.571420
3073.000000	99.572434
3072.000000	99.573074
3071.000000	99.573284
3070.000000	99.573117
3069.000000	99.572848
3068.000000	99.572892
3067.000000	99.573463
3066.000000	99.574350
3065.000000	99.575073
3064.000000	99.575337
3063.000000	99.575242
3062.000000	99.575090
3061.000000	99.575090
3060.000000	99.575284
3059.000000	99.575656
3058.000000	99.576221
3057.000000	99.576954
3056.000000	99.577706
3055.000000	99.578252
3054.000000	99.578427
3053.000000	99.578269
3052.000000	99.578034
3051.000000	99.578028
3050.000000	99.578354
3049.000000	99.578841
3048.000000	99.579188
3047.000000	99.579247
3046.000000	99.579104
3045.000000	99.578942
3044.000000	99.578864
3043.000000	99.578842
3042.000000	99.578781
3041.000000	99.578600
3040.000000	99.578279
3039.000000	99.577864
3038.000000	99.577450
3037.000000	99.577130
3036.000000	99.576925
3035.000000	99.576756
3034.000000	99.576503
3033.000000	99.576134
3032.000000	99.575758
3031.000000	99.575526
3030.000000	99.575469
3029.000000	99.575416
3028.000000	99.575111
3027.000000	99.574445
3026.000000	99.573635
3025.000000	99.573088
3024.000000	99.572996
3023.000000	99.573157
3022.000000	99.573176
3021.000000	99.572928
3020.000000	99.572783
3019.000000	99.573049
3018.000000	99.573205
3017.000000	99.572288
3016.000000	99.570237
3015.000000	99.568277
3014.000000	99.567556
3013.000000	99.567940
3012.000000	99.568636
3011.000000	99.569458
3010.000000	99.570680
3009.000000	99.571850
3008.000000	99.571625
3007.000000	99.569044
3006.000000	99.564593
3005.000000	99.559826
3004.000000	99.556205
3003.000000	99.554420
3002.000000	99.554502
3001.000000	99.556039
3000.000000	99.558144
2999.000000	99.559703
2998.000000	99.560264
2997.000000	99.560748
2996.000000	99.562740
2995.000000	99.566618
2994.000000	99.570665
2993.000000	99.572550
2992.000000	99.571583
2991.000000	99.569148
2990.000000	99.567096
2989.000000	99.566148
2988.000000	99.565768
2987.000000	99.564988
2986.000000	99.563375
2985.000000	99.561862
2984.000000	99.562709
2983.000000	99.567764
2982.000000	99.576171
2981.000000	99.584151
2980.000000	99.587733
2979.000000	99.585678
2978.000000	99.579951
2977.000000	99.573998
2976.000000	99.570352
2975.000000	99.569027
2974.000000	99.567723
2973.000000	99.563850
2972.000000	99.556689
2971.000000	99.547566
2970.000000	99.538199
2969.000000	99.529490
2968.000000	99.521787
2967.000000	99.515102
2966.000000	99.508540
2965.000000	99.500659
2964.000000	99.491422
2963.000000	99.482901
2962.000000	99.476918
2961.000000	99.472737
2960.000000	99.468481
2959.000000	99.464126
2958.000000	99.461242
2957.000000	99.459872
2956.000000	99.457726
2955.000000	99.453334
2954.000000	99.448706
2953.000000	99.447594
2952.000000	99.451503
2951.000000	99.458067
2950.000000	99.463175
2949.000000	99.464363
2948.000000	99.462246
2947.000000	99.459097
2946.000000	99.456208
2945.000000	99.452904
2944.000000	99.447919
2943.000000	99.440838
2942.000000	99.431669
2941.000000	99.419981
2940.000000	99.405804
2939.000000	99.390988
2938.000000	99.378048
2937.000000	99.367247
2936.000000	99.355840
2935.000000	99.340674
2934.000000	99.320908
2933.000000	99.298298
2932.000000	99.276021
2931.000000	99.257324
2930.000000	99.243784
2929.000000	99.233889
2928.000000	99.224232
2927.000000	99.213087
2926.000000	99.202165
2925.000000	99.194391
2924.000000	99.191021
2923.000000	99.191725
2922.000000	99.196463
2921.000000	99.206114
2920.000000	99.221632
2919.000000	99.243192
2918.000000	99.269463
2917.000000	99.297292
2916.000000	99.323230
2915.000000	99.346282
2914.000000	99.368181
2913.000000	99.390059
2912.000000	99.409964
2911.000000	99.425063
2910.000000	99.435319
2909.000000	99.443334
2908.000000	99.450949
2907.000000	99.457878
2906.000000	99.463603
2905.000000	99.468794
2904.000000	99.474279
2903.000000	99.480022
2902.000000	99.485689
2901.000000	99.491409
2900.000000	99.497340
2899.000000	99.503912
2898.000000	99.512113
2897.000000	99.522131
2896.000000	99.531479
2895.000000	99.536618
2894.000000	99.537409
2893.000000	99.538031
2892.000000	99.541859
2891.000000	99.546911
2890.000000	99.548580
2889.000000	99.545911
2888.000000	99.542922
2887.000000	99.543943
2886.000000	99.549711
2885.000000	99.557997
2884.000000	99.565934
2883.000000	99.571008
2882.000000	99.571808
2881.000000	99.569355
2880.000000	99.566959
2879.000000	99.567621
2878.000000	99.571831
2877.000000	99.578001
2876.000000	99.584010
2875.000000	99.587854
2874.000000	99.588154
2873.000000	99.585405
2872.000000	99.582044
2871.000000	99.579928
2870.000000	99.578064
2869.000000	99.573910
2868.000000	99.566760
2867.000000	99.558870
2866.000000	99.553273
2865.000000	99.551230
2864.000000	99.551595
2863.000000	99.551490
2862.000000	99.547426
2861.000000	99.537071
2860.000000	99.521001
2859.000000	99.502555
2858.000000	99.485407
2857.000000	99.471382
2856.000000	99.460653
2855.000000	99.453591
2854.000000	99.451748
2853.000000	99.456809
2852.000000	99.468691
2851.000000	99.484866
2850.000000	99.501922
2849.000000	99.517937
2848.000000	99.533025
2847.000000	99.547666
2846.000000	99.561313
2845.000000	99.573233
2844.000000	99.584066
2843.000000	99.595460
2842.000000	99.608068
2841.000000	99.620625
2840.000000	99.631179
2839.000000	99.638763
2838.000000	99.643819
2837.000000	99.647688
2836.000000	99.652005
2835.000000	99.657991
2834.000000	99.665606
2833.000000	99.673230
2832.000000	99.678428
2831.000000	99.679443
2830.000000	99.676697
2829.000000	99.673321
2828.000000	99.673675
2827.000000	99.680029
2826.000000	99.690190
2825.000000	99.698920
2824.000000	99.702217
2823.000000	99.700179
2822.000000	99.695981
2821.000000	99.693051
2820.000000	99.693377
2819.000000	99.697326
2818.000000	99.703551
2817.000000	99.709188
2816.000000	99.711553
2815.000000	99.710448
2814.000000	99.708365
2813.000000	99.708064
2812.000000	99.710166
2811.000000	99.713180
2810.000000	99.715242
2809.000000	99.715467
2808.000000	99.714224
2807.000000	99.712866
2806.000000	99.713035
2805.000000	99.715426
2804.000000	99.718988
2803.000000	99.721823
2802.000000	99.723158
2801.000000	99.723963
2800.000000	99.725369
2799.000000	99.727049
2798.000000	99.727829
2797.000000	99.727486
2796.000000	99.727088
2795.000000	99.727549
2794.000000	99.728585
2793.000000	99.729365
2792.000000	99.729615
2791.000000	99.729772
2790.000000	99.730350
2789.000000	99.731474
2788.000000	99.732899
2787.000000	99.734271
2786.000000	99.735394
2785.000000	99.736324
2784.000000	99.737211
2783.000000	99.738096
2782.000000	99.738961
2781.000000	99.739820
2780.000000	99.740684
2779.000000	99.741550
2778.000000	99.742418
2777.000000	99.743286
2776.000000	99.744149
2775.000000	99.745002
2774.000000	99.745842
2773.000000	99.746667
2772.000000	99.747484
2771.000000	99.748302
2770.000000	99.749128
2769.000000	99.749963
2768.000000	99.750798
2767.000000	99.751622
2766.000000	99.752422
2765.000000	99.753195
2764.000000	99.753943
2763.000000	99.754673
2762.000000	99.755393
2761.000000	99.756107
2760.000000	99.756818
2759.000000	99.757527
2758.000000	99.758235
2757.000000	99.758942
2756.000000	99.759647
2755.000000	99.760354
2754.000000	99.761056
2753.000000	99.761742
2752.000000	99.762396
2751.000000	99.762998
2750.000000	99.763546
2749.000000	99.764058
2748.000000	99.764552
2747.000000	99.765019
2746.000000	99.765476
2745.000000	99.766019
2744.000000	99.766779
2743.000000	99.767769
2742.000000	99.768789
2741.000000	99.769574
2740.000000	99.770042
2739.000000	99.770348
2738.000000	99.770675
2737.000000	99.771037
2736.000000	99.771398
2735.000000	99.771873
2734.000000	99.772662
2733.000000	99.773770
2732.000000	99.774893
2731.000000	99.775588
2730.000000	99.775581
2729.000000	99.774994
2728.000000	99.774263
2727.000000	99.773772
2726.000000	99.773468
2725.000000	99.772946
2724.000000	99.772087
2723.000000	99.771460
2722.000000	99.771783
2721.000000	99.773126
2720.000000	99.774861
2719.000000	99.776380
2718.000000	99.777586
2717.000000	99.778591
2716.000000	99.779297
2715.000000	99.779476
2714.000000	99.779110
2713.000000	99.778451
2712.000000	99.777782
2711.000000	99.777274
2710.000000	99.777079
2709.000000	99.777372
2708.000000	99.778129
2707.000000	99.778972
2706.000000	99.779396
2705.000000	99.779243
2704.000000	99.778816
2703.000000	99.778540
2702.000000	99.778589
2701.000000	99.778923
2700.000000	99.779525
2699.000000	99.780327
2698.000000	99.780979
2697.000000	99.780994
2696.000000	99.780252
2695.000000	99.779259
2694.000000	99.778718
2693.000000	99.778890
2692.000000	99.779470
2691.000000	99.779975
2690.000000	99.780138
2689.000000	99.779936
2688.000000	99.779414
2687.000000	99.778612
2686.000000	99.777637
2685.000000	99.776729
2684.000000	99.776227
2683.000000	99.776412
2682.000000	99.777319
2681.000000	99.778634
2680.000000	99.779821
2679.000000	99.780450
2678.000000	99.780460
2677.000000	99.780147
2676.000000	99.779951
2675.000000	99.780150
2674.000000	99.780722
2673.000000	99.781407
2672.000000	99.781879
2671.000000	99.781926
2670.000000	99.781546
2669.000000	99.780938
2668.000000	99.780376
2667.000000	99.780032
2666.000000	99.779873
2665.000000	99.779720
2664.000000	99.779420
2663.000000	99.778999
2662.000000	99.778668
2661.000000	99.778656
2660.000000	99.779014
2659.000000	99.779572
2658.000000	99.780022
2657.000000	99.780141
2656.000000	99.779950
2655.000000	99.779654
2654.000000	99.779509
2653.000000	99.779575
2652.000000	99.779710
2651.000000	99.779736
2650.000000	99.779631
2649.000000	99.779536
2648.000000	99.779582
2647.000000	99.779780
2646.000000	99.780047
2645.000000	99.780306
2644.000000	99.780522
2643.000000	99.780692
2642.000000	99.780833
2641.000000	99.780969
2640.000000	99.781118
2639.000000	99.781281
2638.000000	99.781438
2637.000000	99.781554
2636.000000	99.781609
2635.000000	99.781611
2634.000000	99.781603
2633.000000	99.781628
2632.000000	99.781699
2631.000000	99.781789
2630.000000	99.781875
2629.000000	99.781974
2628.000000	99.782134
2627.000000	99.782383
2626.000000	99.782680
2625.000000	99.782914
2624.000000	99.782999
2623.000000	99.782962
2622.000000	99.782928
2621.000000	99.782988
2620.000000	99.783114
2619.000000	99.783161
2618.000000	99.782979
2617.000000	99.782580
2616.000000	99.782199
2615.000000	99.782068
2614.000000	99.782175
2613.000000	99.782266
2612.000000	99.782212
2611.000000	99.782182
2610.000000	99.782377
2609.000000	99.782791
2608.000000	99.783290
2607.000000	99.783743
2606.000000	99.784051
2605.000000	99.784099
2604.000000	99.783825
2603.000000	99.783301
2602.000000	99.782692
2601.000000	99.782161
2600.000000	99.781801
2599.000000	99.781661
2598.000000	99.781736
2597.000000	99.781924
2596.000000	99.782036
2595.000000	99.781936
2594.000000	99.781677
2593.000000	99.781506
2592.000000	99.781641
2591.000000	99.782034
2590.000000	99.782364
2589.000000	99.782357
2588.000000	99.782052
2587.000000	99.781693
2586.000000	99.781382
2585.000000	99.781006
2584.000000	99.780549
2583.000000	99.780289
2582.000000	99.780502
2581.000000	99.781028
2580.000000	99.781335
2579.000000	99.781087
2578.000000	99.780464
2577.000000	99.779862
2576.000000	99.779413
2575.000000	99.778992
2574.000000	99.778596
2573.000000	99.778483
2572.000000	99.778872
2571.000000	99.779693
2570.000000	99.780717
2569.000000	99.781727
2568.000000	99.782497
2567.000000	99.782737
2566.000000	99.782296
2565.000000	99.781359
2564.000000	99.780290
2563.000000	99.779285
2562.000000	99.778401
2561.000000	99.777937
2560.000000	99.778399
2559.000000	99.779960
2558.000000	99.782114
2557.000000	99.784068
2556.000000	99.785430
2555.000000	99.786233
2554.000000	99.786505
2553.000000	99.786198
2552.000000	99.785509
2551.000000	99.784867
2550.000000	99.784467
2549.000000	99.784076
2548.000000	99.783439
2547.000000	99.782693
2546.000000	99.782235
2545.000000	99.782332
2544.000000	99.782962
2543.000000	99.783881
2542.000000	99.784702
2541.000000	99.785068
2540.000000	99.784950
2539.000000	99.784803
2538.000000	99.785231
2537.000000	99.786437
2536.000000	99.788032
2535.000000	99.789346
2534.000000	99.789962
2533.000000	99.789936
2532.000000	99.789638
2531.000000	99.789447
2530.000000	99.789515
2529.000000	99.789781
2528.000000	99.790125
2527.000000	99.790457
2526.000000	99.790736
2525.000000	99.790968
2524.000000	99.791224
2523.000000	99.791597
2522.000000	99.792108
2521.000000	99.792681
2520.000000	99.793244
2519.000000	99.793815
2518.000000	99.794469
2517.000000	99.795193
2516.000000	99.795817
2515.000000	99.796153
2514.000000	99.796195
2513.000000	99.796152
2512.000000	99.796276
2511.000000	99.796659
2510.000000	99.797196
2509.000000	99.797713
2508.000000	99.798115
2507.000000	99.798440
2506.000000	99.798781
2505.000000	99.799205
2504.000000	99.799704
2503.000000	99.800168
2502.000000	99.800406
2501.000000	99.800271
2500.000000	99.799830
2499.000000	99.799442
2498.000000	99.799520
2497.000000	99.800181
2496.000000	99.801154
2495.000000	99.801977
2494.000000	99.802419
2493.000000	99.802614
2492.000000	99.802845
2491.000000	99.803263
2490.000000	99.803854
2489.000000	99.804553
2488.000000	99.805258
2487.000000	99.805761
2486.000000	99.805826
2485.000000	99.805398
2484.000000	99.804645
2483.000000	99.803805
2482.000000	99.803076
2481.000000	99.802693
2480.000000	99.802879
2479.000000	99.803567
2478.000000	99.804382
2477.000000	99.805088
2476.000000	99.805893
2475.000000	99.807028
2474.000000	99.808186
2473.000000	99.808736
2472.000000	99.808503
2471.000000	99.808021
2470.000000	99.807938
2469.000000	99.808387
2468.000000	99.809114
2467.000000	99.809921
2466.000000	99.810715
2465.000000	99.811260
2464.000000	99.811274
2463.000000	99.810836
2462.000000	99.810484
2461.000000	99.810739
2460.000000	99.811638
2459.000000	99.812795
2458.000000	99.813814
2457.000000	99.814581
2456.000000	99.815171
2455.000000	99.815622
2454.000000	99.815923
2453.000000	99.816164
2452.000000	99.816535
2451.000000	99.817113
2450.000000	99.817751
2449.000000	99.818282
2448.000000	99.818748
2447.000000	99.819267
2446.000000	99.819708
2445.000000	99.819753
2444.000000	99.819307
2443.000000	99.818622
2442.000000	99.818004
2441.000000	99.817587
2440.000000	99.817416
2439.000000	99.817572
2438.000000	99.818094
2437.000000	99.818856
2436.000000	99.819594
2435.000000	99.820081
2434.000000	99.820235
2433.000000	99.820129
2432.000000	99.819954
2431.000000	99.819912
2430.000000	99.820038
2429.000000	99.820182
2428.000000	99.820177
2427.000000	99.820029
2426.000000	99.819887
2425.000000	99.819851
2424.000000	99.819863
2423.000000	99.819799
2422.000000	99.819614
2421.000000	99.819376
2420.000000	99.819188
2419.000000	99.819119
2418.000000	99.819171
2417.000000	99.819254
2416.000000	99.819215
2415.000000	99.818942
2414.000000	99.818457
2413.000000	99.817902
2412.000000	99.817410
2411.000000	99.817026
2410.000000	99.816731
2409.000000	99.816491
2408.000000	99.816261
2407.000000	99.815961
2406.000000	99.815513
2405.000000	99.814930
2404.000000	99.814334
2403.000000	99.813876
2402.000000	99.813620
2401.000000	99.813529
2400.000000	99.813464
2399.000000	99.813277
2398.000000	99.812880
2397.000000	99.812260
2396.000000	99.811483
2395.000000	99.810704
2394.000000	99.810100
2393.000000	99.809696
2392.000000	99.809283
2391.000000	99.808609
2390.000000	99.807651
2389.000000	99.806607
2388.000000	99.805654
2387.000000	99.804803
2386.000000	99.804024
2385.000000	99.803380
2384.000000	99.802952
2383.000000	99.802690
2382.000000	99.802444
2381.000000	99.802131
2380.000000	99.801776
2379.000000	99.801381
2378.000000	99.800882
2377.000000	99.800250
2376.000000	99.799556
2375.000000	99.798905
2374.000000	99.798321
2373.000000	99.797741
2372.000000	99.797076
2371.000000	99.796302
2370.000000	99.795532
2369.000000	99.794979
2368.000000	99.794767
2367.000000	99.794816
2366.000000	99.794881
2365.000000	99.794716
2364.000000	99.794211
2363.000000	99.793409
2362.000000	99.792468
2361.000000	99.791574
2360.000000	99.790862
2359.000000	99.790380
2358.000000	99.790173
2357.000000	99.790247
2356.000000	99.790447
2355.000000	99.790546
2354.000000	99.790474
2353.000000	99.790288
2352.000000	99.789991
2351.000000	99.789571
2350.000000	99.789114
2349.000000	99.788739
2348.000000	99.788487
2347.000000	99.788310
2346.000000	99.788121
2345.000000	99.787887
2344.000000	99.787665
2343.000000	99.787535
2342.000000	99.787472
2341.000000	99.787373
2340.000000	99.787175
2339.000000	99.786909
2338.000000	99.786700
2337.000000	99.786655
2336.000000	99.786777
2335.000000	99.786944
2334.000000	99.787035
2333.000000	99.787017
2332.000000	99.786912
2331.000000	99.786749
2330.000000	99.786577
2329.000000	99.786429
2328.000000	99.786322
2327.000000	99.786254
2326.000000	99.786249
2325.000000	99.786336
2324.000000	99.786471
2323.000000	99.786604
2322.000000	99.786713
2321.000000	99.786849
2320.000000	99.787046
2319.000000	99.787295
2318.000000	99.787592
2317.000000	99.788003
2316.000000	99.788603
2315.000000	99.789292
2314.000000	99.789789
2313.000000	99.789877
2312.000000	99.789704
2311.000000	99.789627
2310.000000	99.789812
2309.000000	99.790059
2308.000000	99.790142
2307.000000	99.790052
2306.000000	99.789912
2305.000000	99.789825
2304.000000	99.790032
2303.000000	99.790918
2302.000000	99.792624
2301.000000	99.794648
2300.000000	99.796175
2299.000000	99.796801
2298.000000	99.796649
2297.000000	99.795990
2296.000000	99.795085
2295.000000	99.794339
2294.000000	99.794278
2293.000000	99.795093
2292.000000	99.796433
2291.000000	99.797699
2290.000000	99.798465
2289.000000	99.798572
2288.000000	99.798071
2287.000000	99.797270
2286.000000	99.796650
2285.000000	99.796504
2284.000000	99.796696
2283.000000	99.796815
2282.000000	99.796560
2281.000000	99.795934
2280.000000	99.795184
2279.000000	99.794610
2278.000000	99.794384
2277.000000	99.794487
2276.000000	99.794762
2275.000000	99.795021
2274.000000	99.795122
2273.000000	99.795015
2272.000000	99.794795
2271.000000	99.794681
2270.000000	99.794811
2269.000000	99.795075
2268.000000	99.795236
2267.000000	99.795221
2266.000000	99.795138
2265.000000	99.794995
2264.000000	99.794629
2263.000000	99.793943
2262.000000	99.793066
2261.000000	99.792199
2260.000000	99.791452
2259.000000	99.790916
2258.000000	99.790708
2257.000000	99.790821
2256.000000	99.790976
2255.000000	99.790843
2254.000000	99.790373
2253.000000	99.789829
2252.000000	99.789491
2251.000000	99.789351
2250.000000	99.789170
2249.000000	99.788814
2248.000000	99.788403
2247.000000	99.788141
2246.000000	99.788087
2245.000000	99.788139
2244.000000	99.788160
2243.000000	99.788107
2242.000000	99.788028
2241.000000	99.787977
2240.000000	99.787971
2239.000000	99.787997
2238.000000	99.788042
2237.000000	99.788088
2236.000000	99.788110
2235.000000	99.788092
2234.000000	99.788044
2233.000000	99.787990
2232.000000	99.787950
2231.000000	99.787933
2230.000000	99.787956
2229.000000	99.788040
2228.000000	99.788187
2227.000000	99.788368
2226.000000	99.788538
2225.000000	99.788680
2224.000000	99.788808
2223.000000	99.788956
2222.000000	99.789143
2221.000000	99.789350
2220.000000	99.789539
2219.000000	99.789693
2218.000000	99.789838
2217.000000	99.790000
2216.000000	99.790191
2215.000000	99.790423
2214.000000	99.790711
2213.000000	99.791034
2212.000000	99.791331
2211.000000	99.791561
2210.000000	99.791722
2209.000000	99.791830
2208.000000	99.791916
2207.000000	99.792062
2206.000000	99.792357
2205.000000	99.792787
2204.000000	99.793205
2203.000000	99.793461
2202.000000	99.793543
2201.000000	99.793586
2200.000000	99.793758
2199.000000	99.794126
2198.000000	99.794585
2197.000000	99.794910
2196.000000	99.794976
2195.000000	99.794938
2194.000000	99.795163
2193.000000	99.795903
2192.000000	99.797077
2191.000000	99.798343
2190.000000	99.799341
2189.000000	99.799858
2188.000000	99.799813
2187.000000	99.799215
2186.000000	99.798170
2185.000000	99.796935
2184.000000	99.795934
2183.000000	99.795588
2182.000000	99.796004
2181.000000	99.796826
2180.000000	99.797507
2179.000000	99.797775
2178.000000	99.797743
2177.000000	99.797673
2176.000000	99.797776
2175.000000	99.798175
2174.000000	99.798816
2173.000000	99.799393
2172.000000	99.799577
2171.000000	99.799401
2170.000000	99.799254
2169.000000	99.799410
2168.000000	99.799714
2167.000000	99.799871
2166.000000	99.799873
2165.000000	99.799960
2164.000000	99.800252
2163.000000	99.800605
2162.000000	99.800830
2161.000000	99.800930
2160.000000	99.801099
2159.000000	99.801536
2158.000000	99.802223
2157.000000	99.802832
2156.000000	99.802976
2155.000000	99.802611
2154.000000	99.802114
2153.000000	99.801918
2152.000000	99.802096
2151.000000	99.802430
2150.000000	99.802740
2149.000000	99.802977
2148.000000	99.803068
2147.000000	99.802936
2146.000000	99.802695
2145.000000	99.802637
2144.000000	99.802925
2143.000000	99.803357
2142.000000	99.803524
2141.000000	99.803229
2140.000000	99.802661
2139.000000	99.802191
2138.000000	99.801975
2137.000000	99.801896
2136.000000	99.801802
2135.000000	99.801721
2134.000000	99.801795
2133.000000	99.802036
2132.000000	99.802256
2131.000000	99.802320
2130.000000	99.802339
2129.000000	99.802484
2128.000000	99.802705
2127.000000	99.802763
2126.000000	99.802566
2125.000000	99.802349
2124.000000	99.802476
2123.000000	99.803094
2122.000000	99.803982
2121.000000	99.804724
2120.000000	99.805074
2119.000000	99.805125
2118.000000	99.805081
2117.000000	99.804948
2116.000000	99.804602
2115.000000	99.804170
2114.000000	99.804101
2113.000000	99.804651
2112.000000	99.805482
2111.000000	99.805995
2110.000000	99.806031
2109.000000	99.806027
2108.000000	99.806494
2107.000000	99.807477
2106.000000	99.808504
2105.000000	99.809005
2104.000000	99.808827
2103.000000	99.808420
2102.000000	99.808435
2101.000000	99.809041
2100.000000	99.809804
2099.000000	99.810395
2098.000000	99.811184
2097.000000	99.812781
2096.000000	99.815060
2095.000000	99.817025
2094.000000	99.817754
2093.000000	99.817135
2092.000000	99.815767
2091.000000	99.814509
2090.000000	99.813973
2089.000000	99.814050
2088.000000	99.813942
2087.000000	99.813102
2086.000000	99.812107
2085.000000	99.812002
2084.000000	99.812744
2083.000000	99.813151
2082.000000	99.812630
2081.000000	99.812033
2080.000000	99.812124
2079.000000	99.812166
2078.000000	99.811119
2077.000000	99.809600
2076.000000	99.809267
2075.000000	99.810455
2074.000000	99.811775
2073.000000	99.812203
2072.000000	99.812463
2071.000000	99.813768
2070.000000	99.816172
2069.000000	99.818792
2068.000000	99.820960
2067.000000	99.822468
2066.000000	99.823092
2065.000000	99.822595
2064.000000	99.821170
2063.000000	99.819432
2062.000000	99.818001
2061.000000	99.817274
2060.000000	99.817285
2059.000000	99.817570
2058.000000	99.817479
2057.000000	99.816924
2056.000000	99.816543
2055.000000	99.816885
2054.000000	99.817704
2053.000000	99.818323
2052.000000	99.818431
2051.000000	99.818168
2050.000000	99.817680
2049.000000	99.816985
2048.000000	99.816129
2047.000000	99.815171
2046.000000	99.814097
2045.000000	99.812975
2044.000000	99.812091
2043.000000	99.811686
2042.000000	99.811649
2041.000000	99.811619
2040.000000	99.811308
2039.000000	99.810626
2038.000000	99.809671
2037.000000	99.808763
2036.000000	99.808297
2035.000000	99.808359
2034.000000	99.808589
2033.000000	99.808508
2032.000000	99.808011
2031.000000	99.807340
2030.000000	99.806702
2029.000000	99.806040
2028.000000	99.805226
2027.000000	99.804324
2026.000000	99.803540
2025.000000	99.802983
2024.000000	99.802591
2023.000000	99.802232
2022.000000	99.801810
2021.000000	99.801310
2020.000000	99.800759
2019.000000	99.800177
2018.000000	99.799551
2017.000000	99.798879
2016.000000	99.798205
2015.000000	99.797605
2014.000000	99.797118
2013.000000	99.796717
2012.000000	99.796352
2011.000000	99.796003
2010.000000	99.795665
2009.000000	99.795314
2008.000000	99.794932
2007.000000	99.794529
2006.000000	99.794156
2005.000000	99.793856
2004.000000	99.793633
2003.000000	99.793460
2002.000000	99.793291
2001.000000	99.793099
2000.000000	99.792880
1999.000000	99.792647
1998.000000	99.792428
1997.000000	99.792240
1996.000000	99.792091
1995.000000	99.791974
1994.000000	99.791874
1993.000000	99.791776
1992.000000	99.791682
1991.000000	99.791605
1990.000000	99.791561
1989.000000	99.791561
1988.000000	99.791604
1987.000000	99.791688
1986.000000	99.791805
1985.000000	99.791937
1984.000000	99.792072
1983.000000	99.792203
1982.000000	99.792330
1981.000000	99.792461
1980.000000	99.792600
1979.000000	99.792756
1978.000000	99.792930
1977.000000	99.793116
1976.000000	99.793300
1975.000000	99.793463
1974.000000	99.793599
1973.000000	99.793716
1972.000000	99.793829
1971.000000	99.793961
1970.000000	99.794120
1969.000000	99.794272
1968.000000	99.794346
1967.000000	99.794294
1966.000000	99.794157
1965.000000	99.794058
1964.000000	99.794078
1963.000000	99.794207
1962.000000	99.794365
1961.000000	99.794478
1960.000000	99.794505
1959.000000	99.794423
1958.000000	99.794225
1957.000000	99.793958
1956.000000	99.793702
1955.000000	99.793527
1954.000000	99.793487
1953.000000	99.793632
1952.000000	99.793987
1951.000000	99.794505
1950.000000	99.795041
1949.000000	99.795354
1948.000000	99.795173
1947.000000	99.794437
1946.000000	99.793532
1945.000000	99.793004
1944.000000	99.792954
1943.000000	99.792873
1942.000000	99.792249
1941.000000	99.791167
1940.000000	99.790062
1939.000000	99.789108
1938.000000	99.788109
1937.000000	99.786826
1936.000000	99.785231
1935.000000	99.783530
1934.000000	99.782079
1933.000000	99.781207
1932.000000	99.780902
1931.000000	99.780710
1930.000000	99.780141
1929.000000	99.779123
1928.000000	99.777914
1927.000000	99.776741
1926.000000	99.775728
1925.000000	99.775029
1924.000000	99.774785
1923.000000	99.774820
1922.000000	99.774619
1921.000000	99.773731
1920.000000	99.772152
1919.000000	99.770345
1918.000000	99.768981
1917.000000	99.768383
1916.000000	99.768115
1915.000000	99.767357
1914.000000	99.765647
1913.000000	99.763218
1912.000000	99.760803
1911.000000	99.759038
1910.000000	99.757931
1909.000000	99.756817
1908.000000	99.754879
1907.000000	99.751930
1906.000000	99.748734
1905.000000	99.746442
1904.000000	99.745648
1903.000000	99.745948
1902.000000	99.746277
1901.000000	99.745591
1900.000000	99.743438
1899.000000	99.740162
1898.000000	99.736741
1897.000000	99.734188
1896.000000	99.732946
1895.000000	99.732722
1894.000000	99.732743
1893.000000	99.732001
1892.000000	99.729614
1891.000000	99.725525
1890.000000	99.721043
1889.000000	99.718100
1888.000000	99.717393
1887.000000	99.717993
1886.000000	99.718702
1885.000000	99.718999
1884.000000	99.718730
1883.000000	99.717798
1882.000000	99.716422
1881.000000	99.715180
1880.000000	99.714547
1879.000000	99.714503
1878.000000	99.714677
1877.000000	99.714762
1876.000000	99.714761
1875.000000	99.714925
1874.000000	99.715468
1873.000000	99.716218
1872.000000	99.716459
1871.000000	99.715272
1870.000000	99.712416
1869.000000	99.709134
1868.000000	99.707466
1867.000000	99.708393
1866.000000	99.711299
1865.000000	99.714791
1864.000000	99.717877
1863.000000	99.720564
1862.000000	99.723258
1861.000000	99.725650
1860.000000	99.726665
1859.000000	99.725889
1858.000000	99.724656
1857.000000	99.725040
1856.000000	99.727979
1855.000000	99.732863
1854.000000	99.738345
1853.000000	99.743185
1852.000000	99.746765
1851.000000	99.749031
1850.000000	99.750188
1849.000000	99.750511
1848.000000	99.750639
1847.000000	99.751313
1846.000000	99.752424
1845.000000	99.752743
1844.000000	99.751666
1843.000000	99.750780
1842.000000	99.751779
1841.000000	99.754232
1840.000000	99.756836
1839.000000	99.759171
1838.000000	99.761646
1837.000000	99.763989
1836.000000	99.764886
1835.000000	99.763607
1834.000000	99.761163
1833.000000	99.759449
1832.000000	99.759679
1831.000000	99.761638
1830.000000	99.763883
1829.000000	99.765019
1828.000000	99.765070
1827.000000	99.764948
1826.000000	99.765306
1825.000000	99.765997
1824.000000	99.766361
1823.000000	99.766077
1822.000000	99.765397
1821.000000	99.764654
1820.000000	99.763905
1819.000000	99.763191
1818.000000	99.762938
1817.000000	99.763593
1816.000000	99.764940
1815.000000	99.766272
1814.000000	99.767243
1813.000000	99.767985
1812.000000	99.768442
1811.000000	99.768265
1810.000000	99.767564
1809.000000	99.767029
1808.000000	99.766885
1807.000000	99.766616
1806.000000	99.765991
1805.000000	99.765597
1804.000000	99.766027
1803.000000	99.767039
1802.000000	99.768029
1801.000000	99.769053
1800.000000	99.770337
1799.000000	99.771259
1798.000000	99.771107
1797.000000	99.770216
1796.000000	99.769527
1795.000000	99.769460
1794.000000	99.769565
1793.000000	99.769019
1792.000000	99.767321
1791.000000	99.764875
1790.000000	99.763015
1789.000000	99.762861
1788.000000	99.764202
1787.000000	99.765656
1786.000000	99.765974
1785.000000	99.765235
1784.000000	99.764467
1783.000000	99.764568
1782.000000	99.766041
1781.000000	99.768994
1780.000000	99.772361
1779.000000	99.774287
1778.000000	99.773835
1777.000000	99.771710
1776.000000	99.769220
1775.000000	99.767002
1774.000000	99.765186
1773.000000	99.764804
1772.000000	99.767945
1771.000000	99.774277
1770.000000	99.780147
1769.000000	99.782451
1768.000000	99.781116
1767.000000	99.778515
1766.000000	99.777206
1765.000000	99.777923
1764.000000	99.779320
1763.000000	99.778793
1762.000000	99.774587
1761.000000	99.768808
1760.000000	99.765464
1759.000000	99.765357
1758.000000	99.765378
1757.000000	99.761907
1756.000000	99.754940
1755.000000	99.747826
1754.000000	99.742528
1753.000000	99.738208
1752.000000	99.733716
1751.000000	99.729804
1750.000000	99.727623
1749.000000	99.726337
1748.000000	99.725044
1747.000000	99.724222
1746.000000	99.724556
1745.000000	99.725807
1744.000000	99.726742
1743.000000	99.725624
1742.000000	99.721742
1741.000000	99.717475
1740.000000	99.717173
1739.000000	99.722150
1738.000000	99.728848
1737.000000	99.734354
1736.000000	99.738802
1735.000000	99.742545
1734.000000	99.745076
1733.000000	99.746916
1732.000000	99.749671
1731.000000	99.754160
1730.000000	99.759453
1729.000000	99.763363
1728.000000	99.765819
1727.000000	99.768564
1726.000000	99.771751
1725.000000	99.773442
1724.000000	99.772446
1723.000000	99.770092
1722.000000	99.768177
1721.000000	99.767327
1720.000000	99.767428
1719.000000	99.768043
1718.000000	99.768423
1717.000000	99.769700
1716.000000	99.771992
1715.000000	99.773187
1714.000000	99.773404
1713.000000	99.773797
1712.000000	99.773722
1711.000000	99.772054
1710.000000	99.768990
1709.000000	99.766408
1708.000000	99.766167
1707.000000	99.768132
1706.000000	99.770569
1705.000000	99.772178
1704.000000	99.772960
1703.000000	99.772589
1702.000000	99.769868
1701.000000	99.763952
1700.000000	99.757092
1699.000000	99.751177
1698.000000	99.746473
1697.000000	99.743342
1696.000000	99.741837
1695.000000	99.740991
1694.000000	99.740222
1693.000000	99.740171
1692.000000	99.741621
1691.000000	99.743943
1690.000000	99.745061
1689.000000	99.743498
1688.000000	99.739790
1687.000000	99.735276
1686.000000	99.731089
1685.000000	99.728091
1684.000000	99.726769
1683.000000	99.726061
1682.000000	99.725251
1681.000000	99.723909
1680.000000	99.722253
1679.000000	99.720477
1678.000000	99.718947
1677.000000	99.717814
1676.000000	99.716705
1675.000000	99.715114
1674.000000	99.713053
1673.000000	99.711173
1672.000000	99.709942
1671.000000	99.709261
1670.000000	99.708635
1669.000000	99.707765
1668.000000	99.706789
1667.000000	99.705810
1666.000000	99.704724
1665.000000	99.703516
1664.000000	99.702305
1663.000000	99.701192
1662.000000	99.700174
1661.000000	99.699208
1660.000000	99.698292
1659.000000	99.697445
1658.000000	99.696660
1657.000000	99.695915
1656.000000	99.695194
1655.000000	99.694503
1654.000000	99.693846
1653.000000	99.693221
1652.000000	99.692621
1651.000000	99.692058
1650.000000	99.691551
1649.000000	99.691115
1648.000000	99.690744
1647.000000	99.690426
1646.000000	99.690142
1645.000000	99.689887
1644.000000	99.689664
1643.000000	99.689485
1642.000000	99.689363
1641.000000	99.689304
1640.000000	99.689304
1639.000000	99.689348
1638.000000	99.689423
1637.000000	99.689521
1636.000000	99.689637
1635.000000	99.689801
1634.000000	99.690060
1633.000000	99.690405
1632.000000	99.690776
1631.000000	99.691124
1630.000000	99.691426
1629.000000	99.691728
1628.000000	99.692119
1627.000000	99.692666
1626.000000	99.693370
1625.000000	99.694182
1624.000000	99.695023
1623.000000	99.695819
1622.000000	99.696540
1621.000000	99.697207
1620.000000	99.697863
1619.000000	99.698554
1618.000000	99.699286
1617.000000	99.700007
1616.000000	99.700688
1615.000000	99.701424
1614.000000	99.702299
1613.000000	99.703270
1612.000000	99.704259
1611.000000	99.705289
1610.000000	99.706495
1609.000000	99.707873
1608.000000	99.709194
1607.000000	99.710269
1606.000000	99.711107
1605.000000	99.711843
1604.000000	99.712658
1603.000000	99.713777
1602.000000	99.715283
1601.000000	99.716854
1600.000000	99.718033
1599.000000	99.718752
1598.000000	99.719360
1597.000000	99.720149
1596.000000	99.721034
1595.000000	99.721799
1594.000000	99.722430
1593.000000	99.723081
1592.000000	99.723853
1591.000000	99.724740
1590.000000	99.725669
1589.000000	99.726538
1588.000000	99.727291
1587.000000	99.727974
1586.000000	99.728658
1585.000000	99.729353
1584.000000	99.730018
1583.000000	99.730616
1582.000000	99.731157
1581.000000	99.731674
1580.000000	99.732189
1579.000000	99.732703
1578.000000	99.733214
1577.000000	99.733709
1576.000000	99.734172
1575.000000	99.734602
1574.000000	99.734998
1573.000000	99.735354
1572.000000	99.735701
1571.000000	99.736083
1570.000000	99.736482
1569.000000	99.736785
1568.000000	99.736952
1567.000000	99.737098
1566.000000	99.737289
1565.000000	99.737473
1564.000000	99.737640
1563.000000	99.737937
1562.000000	99.738490
1561.000000	99.739059
1560.000000	99.739164
1559.000000	99.738548
1558.000000	99.738118
1557.000000	99.738258
1556.000000	99.738429
1555.000000	99.738507
1554.000000	99.738619
1553.000000	99.738919
1552.000000	99.739450
1551.000000	99.740091
1550.000000	99.740575
1549.000000	99.740638
1548.000000	99.740331
1547.000000	99.739925
1546.000000	99.739745
1545.000000	99.740018
1544.000000	99.740702
1543.000000	99.741557
1542.000000	99.742499
1541.000000	99.743397
1540.000000	99.743453
1539.000000	99.742384
1538.000000	99.741263
1537.000000	99.740768
1536.000000	99.741255
1535.000000	99.742791
1534.000000	99.744925
1533.000000	99.746969
1532.000000	99.748404
1531.000000	99.749140
1530.000000	99.749500
1529.000000	99.750100
1528.000000	99.751301
1527.000000	99.752868
1526.000000	99.754181
1525.000000	99.754979
1524.000000	99.755511
1523.000000	99.756561
1522.000000	99.759231
1521.000000	99.763581
1520.000000	99.767035
1519.000000	99.767585
1518.000000	99.766259
1517.000000	99.765789
1516.000000	99.767351
1515.000000	99.769257
1514.000000	99.769744
1513.000000	99.769411
1512.000000	99.769825
1511.000000	99.770886
1510.000000	99.771275
1509.000000	99.771252
1508.000000	99.773449
1507.000000	99.777987
1506.000000	99.780919
1505.000000	99.781196
1504.000000	99.780638
1503.000000	99.780825
1502.000000	99.782150
1501.000000	99.783402
1500.000000	99.783913
1499.000000	99.783925
1498.000000	99.783164
1497.000000	99.781329
1496.000000	99.779079
1495.000000	99.776214
1494.000000	99.772453
1493.000000	99.769403
1492.000000	99.769100
1491.000000	99.771382
1490.000000	99.773409
1489.000000	99.773833
1488.000000	99.773999
1487.000000	99.774310
1486.000000	99.774616
1485.000000	99.775177
1484.000000	99.776098
1483.000000	99.776520
1482.000000	99.774762
1481.000000	99.770507
1480.000000	99.765846
1479.000000	99.762687
1478.000000	99.760851
1477.000000	99.758849
1476.000000	99.755212
1475.000000	99.748646
1474.000000	99.739000
1473.000000	99.728911
1472.000000	99.722562
1471.000000	99.719843
1470.000000	99.717433
1469.000000	99.714008
1468.000000	99.710670
1467.000000	99.708297
1466.000000	99.706518
1465.000000	99.704847
1464.000000	99.703776
1463.000000	99.704127
1462.000000	99.706041
1461.000000	99.709364
1460.000000	99.713335
1459.000000	99.715891
1458.000000	99.714212
1457.000000	99.709802
1456.000000	99.708675
1455.000000	99.710772
1454.000000	99.712246
1453.000000	99.712514
1452.000000	99.712360
1451.000000	99.712155
1450.000000	99.712022
1449.000000	99.712792
1448.000000	99.715074
1447.000000	99.717223
1446.000000	99.716657
1445.000000	99.713255
1444.000000	99.709363
1443.000000	99.707622
1442.000000	99.708773
1441.000000	99.711522
1440.000000	99.714186
1439.000000	99.715803
1438.000000	99.715999
1437.000000	99.715163
1436.000000	99.714545
1435.000000	99.714271
1434.000000	99.713447
1433.000000	99.712117
1432.000000	99.711236
1431.000000	99.711695
1430.000000	99.713490
1429.000000	99.715992
1428.000000	99.718755
1427.000000	99.721434
1426.000000	99.723563
1425.000000	99.724816
1424.000000	99.725442
1423.000000	99.726092
1422.000000	99.726901
1421.000000	99.727601
1420.000000	99.728290
1419.000000	99.729372
1418.000000	99.730452
1417.000000	99.731191
1416.000000	99.732348
1415.000000	99.734513
1414.000000	99.737232
1413.000000	99.739651
1412.000000	99.741648
1411.000000	99.743721
1410.000000	99.745865
1409.000000	99.747504
1408.000000	99.748250
1407.000000	99.748036
1406.000000	99.747089
1405.000000	99.746407
1404.000000	99.747699
1403.000000	99.751642
1402.000000	99.756790
1401.000000	99.761046
1400.000000	99.763382
1399.000000	99.764309
1398.000000	99.765002
1397.000000	99.766201
1396.000000	99.768297
1395.000000	99.771585
1394.000000	99.775769
1393.000000	99.780007
1392.000000	99.783941
1391.000000	99.787449
1390.000000	99.790058
1389.000000	99.791158
1388.000000	99.790634
1387.000000	99.789243
1386.000000	99.788196
1385.000000	99.788425
1384.000000	99.790218
1383.000000	99.792934
1382.000000	99.795103
1381.000000	99.795687
1380.000000	99.795067
1379.000000	99.794522
1378.000000	99.794846
1377.000000	99.795812
1376.000000	99.797018
1375.000000	99.798516
1374.000000	99.800306
1373.000000	99.801766
1372.000000	99.802291
1371.000000	99.802050
1370.000000	99.801758
1369.000000	99.801893
1368.000000	99.802641
1367.000000	99.804067
1366.000000	99.805915
1365.000000	99.807643
1364.000000	99.808870
1363.000000	99.809722
1362.000000	99.810588
1361.000000	99.811338
1360.000000	99.811479
1359.000000	99.811086
1358.000000	99.810852
1357.000000	99.811206
1356.000000	99.811985
1355.000000	99.813006
1354.000000	99.814527
1353.000000	99.816776
1352.000000	99.819058
1351.000000	99.819944
1350.000000	99.818777
1349.000000	99.816468
1348.000000	99.815095
1347.000000	99.816143
1346.000000	99.818921
1345.000000	99.821032
1344.000000	99.820934
1343.000000	99.819554
1342.000000	99.818981
1341.000000	99.819915
1340.000000	99.821285
1339.000000	99.822219
1338.000000	99.822821
1337.000000	99.822896
1336.000000	99.821791
1335.000000	99.819924
1334.000000	99.819110
1333.000000	99.820454
1332.000000	99.822575
1331.000000	99.823002
1330.000000	99.821144
1329.000000	99.818873
1328.000000	99.818119
1327.000000	99.818601
1326.000000	99.818347
1325.000000	99.815986
1324.000000	99.812530
1323.000000	99.810370
1322.000000	99.810534
1321.000000	99.811758
1320.000000	99.812495
1319.000000	99.812980
1318.000000	99.814561
1317.000000	99.817631
1316.000000	99.821225
1315.000000	99.824306
1314.000000	99.826417
1313.000000	99.827256
1312.000000	99.826484
1311.000000	99.824254
1310.000000	99.821431
1309.000000	99.818987
1308.000000	99.817277
1307.000000	99.815950
1306.000000	99.814585
1305.000000	99.813218
1304.000000	99.812468
1303.000000	99.812694
1302.000000	99.813157
1301.000000	99.812556
1300.000000	99.810598
1299.000000	99.808564
1298.000000	99.808085
1297.000000	99.809703
1296.000000	99.812701
1295.000000	99.815856
1294.000000	99.818015
1293.000000	99.818465
1292.000000	99.817246
1291.000000	99.814944
1290.000000	99.812091
1289.000000	99.809115
1288.000000	99.806892
1287.000000	99.806499
1286.000000	99.807756
1285.000000	99.808717
1284.000000	99.807493
1283.000000	99.804341
1282.000000	99.801436
1281.000000	99.800575
1280.000000	99.801503
1279.000000	99.802553
1278.000000	99.802403
1277.000000	99.801020
1276.000000	99.799031
1275.000000	99.796581
1274.000000	99.793215
1273.000000	99.788993
1272.000000	99.784898
1271.000000	99.781235
1270.000000	99.776223
1269.000000	99.767906
1268.000000	99.757644
1267.000000	99.749912
1266.000000	99.747626
1265.000000	99.749165
1264.000000	99.750962
1263.000000	99.751631
1262.000000	99.752238
1261.000000	99.753642
1260.000000	99.755305
1259.000000	99.756430
1258.000000	99.756650
1257.000000	99.755529
1256.000000	99.752318
1255.000000	99.746559
1254.000000	99.738611
1253.000000	99.729643
1252.000000	99.721232
1251.000000	99.714689
1250.000000	99.710353
1249.000000	99.707541
1248.000000	99.705030
1247.000000	99.701252
1246.000000	99.694615
1245.000000	99.684898
1244.000000	99.674210
1243.000000	99.665391
1242.000000	99.659393
1241.000000	99.655251
1240.000000	99.652060
1239.000000	99.649080
1238.000000	99.644139
1237.000000	99.634500
1236.000000	99.620032
1235.000000	99.603625
1234.000000	99.587608
1233.000000	99.571586
1232.000000	99.554853
1231.000000	99.538832
1230.000000	99.525389
1229.000000	99.514106
1228.000000	99.502675
1227.000000	99.488807
1226.000000	99.470686
1225.000000	99.447015
1224.000000	99.418162
1223.000000	99.386292
1222.000000	99.353050
1221.000000	99.317951
1220.000000	99.279995
1219.000000	99.239370
1218.000000	99.196233
1217.000000	99.149530
1216.000000	99.098798
1215.000000	99.045807
1214.000000	98.992635
1213.000000	98.939553
1212.000000	98.886809
1211.000000	98.836863
1210.000000	98.792056
1209.000000	98.750597
1208.000000	98.707221
1207.000000	98.658010
1206.000000	98.603658
1205.000000	98.548393
1204.000000	98.496212
1203.000000	98.447306
1202.000000	98.397633
1201.000000	98.343266
1200.000000	98.285789
1199.000000	98.231785
1198.000000	98.185934
1197.000000	98.146265
1196.000000	98.106965
1195.000000	98.063685
1194.000000	98.015229
1193.000000	97.962568
1192.000000	97.908188
1191.000000	97.854910
1190.000000	97.803558
1189.000000	97.752621
1188.000000	97.700902
1187.000000	97.648867
1186.000000	97.596772
1185.000000	97.543555
1184.000000	97.488579
1183.000000	97.432304
1182.000000	97.374117
1181.000000	97.311816
1180.000000	97.244810
1179.000000	97.175849
1178.000000	97.107849
1177.000000	97.040605
1176.000000	96.972028
1175.000000	96.900839
1174.000000	96.826800
1173.000000	96.750352
1172.000000	96.673711
1171.000000	96.600551
1170.000000	96.532779
1169.000000	96.468780
1168.000000	96.405909
1167.000000	96.343664
1166.000000	96.284596
1165.000000	96.234525
1164.000000	96.202006
1163.000000	96.194132
1162.000000	96.210802
1161.000000	96.244009
1160.000000	96.282515
1159.000000	96.315645
1158.000000	96.334383
1157.000000	96.333280
1156.000000	96.312413
1155.000000	96.275461
1154.000000	96.225718
1153.000000	96.165858
1152.000000	96.100827
1151.000000	96.037345
1150.000000	95.979457
1149.000000	95.926751
1148.000000	95.876916
1147.000000	95.827423
1146.000000	95.775550
1145.000000	95.720612
1144.000000	95.666109
1143.000000	95.616072
1142.000000	95.569281
1141.000000	95.520592
1140.000000	95.467232
1139.000000	95.409630
1138.000000	95.347263
1137.000000	95.279455
1136.000000	95.210397
1135.000000	95.147239
1134.000000	95.091293
1133.000000	95.035997
1132.000000	94.975079
1131.000000	94.908253
1130.000000	94.838168
1129.000000	94.766965
1128.000000	94.697357
1127.000000	94.632026
1126.000000	94.569771
1125.000000	94.506357
1124.000000	94.440533
1123.000000	94.375052
1122.000000	94.310912
1121.000000	94.245434
1120.000000	94.177229
1119.000000	94.108237
1118.000000	94.039782
1117.000000	93.971498
1116.000000	93.904917
1115.000000	93.842582
1114.000000	93.782496
1113.000000	93.719003
1112.000000	93.650616
1111.000000	93.582165
1110.000000	93.518683
1109.000000	93.461906
1108.000000	93.412100
1107.000000	93.367062
1106.000000	93.320155
1105.000000	93.266292
1104.000000	93.209622
1103.000000	93.158683
1102.000000	93.114850
1101.000000	93.072505
1100.000000	93.029528
1099.000000	92.988184
1098.000000	92.947557
1097.000000	92.903695
1096.000000	92.857880
1095.000000	92.815471
1094.000000	92.776110
1093.000000	92.734352
1092.000000	92.690739
1091.000000	92.652466
1090.000000	92.621366
1089.000000	92.590395
1088.000000	92.554197
1087.000000	92.514970
1086.000000	92.476587
1085.000000	92.441084
1084.000000	92.411792
1083.000000	92.391017
1082.000000	92.373195
1081.000000	92.348894
1080.000000	92.316782
1079.000000	92.283704
1078.000000	92.253178
1077.000000	92.222740
1076.000000	92.192296
1075.000000	92.164058
1074.000000	92.132784
1073.000000	92.086780
1072.000000	92.021188
1071.000000	91.942005
1070.000000	91.855844
1069.000000	91.763738
1068.000000	91.665478
1067.000000	91.560743
1066.000000	91.445511
1065.000000	91.317015
1064.000000	91.183061
1063.000000	91.056867
1062.000000	90.942084
1061.000000	90.833090
1060.000000	90.729415
1059.000000	90.637284
1058.000000	90.556058
1057.000000	90.476117
1056.000000	90.392092
1055.000000	90.305775
1054.000000	90.214366
1053.000000	90.109270
1052.000000	89.990211
1051.000000	89.867499
1050.000000	89.745891
1049.000000	89.619725
1048.000000	89.487340
1047.000000	89.354509
1046.000000	89.220773
1045.000000	89.078554
1044.000000	88.928939
1043.000000	88.783411
1042.000000	88.646465
1041.000000	88.510928
1040.000000	88.374608
1039.000000	88.246558
1038.000000	88.131109
1037.000000	88.020295
1036.000000	87.909138
1035.000000	87.805350
1034.000000	87.716803
1033.000000	87.641243
1032.000000	87.573939
1031.000000	87.513737
1030.000000	87.457049
1029.000000	87.398772
1028.000000	87.344391
1027.000000	87.308003
1026.000000	87.292476
1025.000000	87.283262
1024.000000	87.266770
1023.000000	87.242972
1022.000000	87.215409
1021.000000	87.182656
1020.000000	87.146341
1019.000000	87.115084
1018.000000	87.092869
1017.000000	87.073349
1016.000000	87.051072
1015.000000	87.028159
1014.000000	87.005414
1013.000000	86.978077
1012.000000	86.945837
1011.000000	86.916761
1010.000000	86.895987
1009.000000	86.879879
1008.000000	86.865553
1007.000000	86.856411
1006.000000	86.854109
1005.000000	86.854578
1004.000000	86.855870
1003.000000	86.861021
1002.000000	86.870244
1001.000000	86.879255
1000.000000	86.887340
999.000000	86.897891
998.000000	86.910105
997.000000	86.920688
996.000000	86.934594
995.000000	86.962073
994.000000	87.002799
993.000000	87.044277
992.000000	87.078703
991.000000	87.111022
990.000000	87.148254
989.000000	87.191903
988.000000	87.242894
987.000000	87.302959
986.000000	87.369151
985.000000	87.437567
984.000000	87.513384
983.000000	87.605657
982.000000	87.711661
981.000000	87.818908
980.000000	87.924091
979.000000	88.037171
978.000000	88.164631
977.000000	88.302070
976.000000	88.445824
975.000000	88.598200
974.000000	88.756943
973.000000	88.912737
972.000000	89.063130
971.000000	89.217937
970.000000	89.384794
969.000000	89.558281
968.000000	89.728188
967.000000	89.890355
966.000000	90.045363
965.000000	90.194632
964.000000	90.341886
963.000000	90.491332
962.000000	90.640977
961.000000	90.784166
960.000000	90.919583
959.000000	91.052558
958.000000	91.184874
957.000000	91.311063
956.000000	91.426953
955.000000	91.534417
954.000000	91.635767
953.000000	91.730860
952.000000	91.821809
951.000000	91.913281
950.000000	92.005760
949.000000	92.095077
948.000000	92.179653
947.000000	92.260912
946.000000	92.336221
945.000000	92.400219
944.000000	92.454840
943.000000	92.509464
942.000000	92.568597
941.000000	92.627480
940.000000	92.682195
939.000000	92.735214
938.000000	92.787974
937.000000	92.837152
936.000000	92.882967
935.000000	92.932941
934.000000	92.991717
933.000000	93.053297
932.000000	93.108597
931.000000	93.155850
930.000000	93.199972
929.000000	93.246609
928.000000	93.300019
927.000000	93.361703
926.000000	93.427499
925.000000	93.490054
924.000000	93.546566
923.000000	93.600274
922.000000	93.653413
921.000000	93.703741
920.000000	93.749246
919.000000	93.790926
918.000000	93.829325
917.000000	93.863196
916.000000	93.893191
915.000000	93.922864
914.000000	93.955842
913.000000	93.996070
912.000000	94.049010
911.000000	94.116213
910.000000	94.190348
909.000000	94.263675
908.000000	94.340471
907.000000	94.431682
906.000000	94.537901
905.000000	94.647779
904.000000	94.754308
903.000000	94.862623
902.000000	94.979607
901.000000	95.105793
900.000000	95.239749
899.000000	95.379942
898.000000	95.518968
897.000000	95.646166
896.000000	95.760895
895.000000	95.874126
894.000000	95.992059
893.000000	96.106990
892.000000	96.210382
891.000000	96.306295
890.000000	96.404086
889.000000	96.504131
888.000000	96.599033
887.000000	96.684595
886.000000	96.762127
885.000000	96.833446
884.000000	96.900644
883.000000	96.967930
882.000000	97.036891
881.000000	97.102510
880.000000	97.160691
879.000000	97.217325
878.000000	97.282267
877.000000	97.355374
876.000000	97.426813
875.000000	97.491678
874.000000	97.556718
873.000000	97.630198
872.000000	97.710921
871.000000	97.790698
870.000000	97.863918
869.000000	97.931403
868.000000	97.996974
867.000000	98.063537
866.000000	98.132109
865.000000	98.202092
864.000000	98.271220
863.000000	98.335946
862.000000	98.393529
861.000000	98.444908
860.000000	98.495274
859.000000	98.550390
858.000000	98.611077
857.000000	98.671110
856.000000	98.721160
855.000000	98.755926
854.000000	98.778763
853.000000	98.799309
852.000000	98.825022
851.000000	98.854745
850.000000	98.882211
849.000000	98.905818
848.000000	98.931386
847.000000	98.962899
846.000000	98.993694
845.000000	99.011689
844.000000	99.012461
843.000000	99.002573
842.000000	98.989588
841.000000	98.973294
840.000000	98.948933
839.000000	98.915352
838.000000	98.876341
837.000000	98.835251
836.000000	98.791559
835.000000	98.743573
834.000000	98.693354
833.000000	98.647953
832.000000	98.614887
831.000000	98.595914
830.000000	98.586547
829.000000	98.582977
828.000000	98.587012
827.000000	98.600947
826.000000	98.620355
825.000000	98.637858
824.000000	98.652926
823.000000	98.671054
822.000000	98.692906
821.000000	98.710970
820.000000	98.717465
819.000000	98.709570
818.000000	98.686854
817.000000	98.649252
816.000000	98.598541
815.000000	98.536890
814.000000	98.461720
813.000000	98.365331
812.000000	98.240852
811.000000	98.084692
810.000000	97.891765
809.000000	97.653651
808.000000	97.366227
807.000000	97.037152
806.000000	96.682603
805.000000	96.318532
804.000000	95.957863
803.000000	95.613025
802.000000	95.297534
801.000000	95.027375
800.000000	94.821561
799.000000	94.694876
798.000000	94.646591
797.000000	94.661494
796.000000	94.723301
795.000000	94.819874
794.000000	94.934941
793.000000	95.046229
792.000000	95.138430
791.000000	95.211872
790.000000	95.272913
789.000000	95.319748
788.000000	95.341578
787.000000	95.327925
786.000000	95.275163
785.000000	95.187312
784.000000	95.074579
783.000000	94.949532
782.000000	94.822375
781.000000	94.702105
780.000000	94.602886
779.000000	94.543515
778.000000	94.536285
777.000000	94.579393
776.000000	94.662669
775.000000	94.776817
774.000000	94.914355
773.000000	95.065277
772.000000	95.216061
771.000000	95.353684
770.000000	95.471064
769.000000	95.569232
768.000000	95.652781
767.000000	95.721971
766.000000	95.771561
765.000000	95.799753
764.000000	95.815459
763.000000	95.832759
762.000000	95.859789
761.000000	95.896651
760.000000	95.941581
759.000000	95.993291
758.000000	96.048469
757.000000	96.103203
756.000000	96.157129
755.000000	96.211560
754.000000	96.264354
753.000000	96.312230
752.000000	96.357803
751.000000	96.408060
750.000000	96.464776
749.000000	96.521752
748.000000	96.573163
747.000000	96.620411
746.000000	96.669801
745.000000	96.727847
744.000000	96.799654
743.000000	96.886803
742.000000	96.984458
741.000000	97.083724
740.000000	97.178396
739.000000	97.267507
738.000000	97.352089
737.000000	97.432960
736.000000	97.511216
735.000000	97.586875
734.000000	97.656868
733.000000	97.717576
732.000000	97.768653
731.000000	97.810519
730.000000	97.839388
729.000000	97.850400
728.000000	97.847373
727.000000	97.844032
726.000000	97.852165
725.000000	97.872743
724.000000	97.900576
723.000000	97.933092
722.000000	97.971820
721.000000	98.018507
720.000000	98.072179
719.000000	98.128185
718.000000	98.179654
717.000000	98.222918
716.000000	98.262010
715.000000	98.304572
714.000000	98.352023
713.000000	98.396500
712.000000	98.428928
711.000000	98.446914
710.000000	98.453550
709.000000	98.452541
708.000000	98.446756
707.000000	98.438638
706.000000	98.428462
705.000000	98.413835
704.000000	98.391614
703.000000	98.356275
702.000000	98.296341
701.000000	98.197700
700.000000	98.053723
699.000000	97.872639
698.000000	97.674752
697.000000	97.486578
696.000000	97.337932
695.000000	97.254807
694.000000	97.248333
693.000000	97.309027
692.000000	97.412574
691.000000	97.533743
690.000000	97.654487
689.000000	97.762192
688.000000	97.846448
687.000000	97.902162
686.000000	97.936950
685.000000	97.969553
684.000000	98.015845
683.000000	98.076936
682.000000	98.141740
681.000000	98.200038
680.000000	98.250471
679.000000	98.296615
678.000000	98.338968
677.000000	98.372222
676.000000	98.392896
675.000000	98.407682
674.000000	98.426843
673.000000	98.452811
672.000000	98.482359
671.000000	98.518670
670.000000	98.576492
669.000000	98.669436
668.000000	98.770106
667.000000	98.816968
666.000000	98.810646
665.000000	98.792496
664.000000	98.788194
663.000000	98.804539
662.000000	98.833868
661.000000	98.860798
660.000000	98.872724
659.000000	98.863828
658.000000	98.836671
657.000000	98.803023
656.000000	98.778807
655.000000	98.771277
654.000000	98.769385
653.000000	98.758729
652.000000	98.745615
651.000000	98.751577
650.000000	98.785603
