4000.000000	100.745950
3999.000000	100.745294
3998.000000	100.745194
3997.000000	100.745238
3996.000000	100.745080
3995.000000	100.744578
3994.000000	100.743659
3993.000000	100.742339
3992.000000	100.740992
3991.000000	100.740357
3990.000000	100.740905
3989.000000	100.742382
3988.000000	100.743941
3987.000000	100.744847
3986.000000	100.745035
3985.000000	100.744895
3984.000000	100.744783
3983.000000	100.744694
3982.000000	100.744301
3981.000000	100.743339
3980.000000	100.741985
3979.000000	100.740796
3978.000000	100.740142
3977.000000	100.739809
3976.000000	100.739270
3975.000000	100.738371
3974.000000	100.737545
3973.000000	100.737295
3972.000000	100.737625
3971.000000	100.738077
3970.000000	100.738186
3969.000000	100.737827
3968.000000	100.737157
3967.000000	100.736368
3966.000000	100.735509
3965.000000	100.734535
3964.000000	100.733494
3963.000000	100.732605
3962.000000	100.732106
3961.000000	100.732043
3960.000000	100.732240
3959.000000	100.732445
3958.000000	100.732485
3957.000000	100.732311
3956.000000	100.732005
3955.000000	100.731721
3954.000000	100.731550
3953.000000	100.731430
3952.000000	100.731238
3951.000000	100.730940
3950.000000	100.730626
3949.000000	100.730404
3948.000000	100.730288
3947.000000	100.730208
3946.000000	100.730086
3945.000000	100.729905
3944.000000	100.729698
3943.000000	100.729507
3942.000000	100.729352
3941.000000	100.729236
3940.000000	100.729168
3939.000000	100.729163
3938.000000	100.729223
3937.000000	100.729330
3936.000000	100.729445
3935.000000	100.729531
3934.000000	100.729569
3933.000000	100.729558
3932.000000	100.729513
3931.000000	100.729467
3930.000000	100.729457
3929.000000	100.729503
3928.000000	100.729596
3927.000000	100.729705
3926.000000	100.729820
3925.000000	100.729955
3924.000000	100.730125
3923.000000	100.730319
3922.000000	100.730518
3921.000000	100.730724
3920.000000	100.730962
3919.000000	100.731264
3918.000000	100.731646
3917.000000	100.732078
3916.000000	100.732479
3915.000000	100.732764
3914.000000	100.732906
3913.000000	100.732973
3912.000000	100.733081
3911.000000	100.733302
3910.000000	100.733632
3909.000000	100.733993
3908.000000	100.734292
3907.000000	100.734511
3906.000000	100.734763
3905.000000	100.735240
3904.000000	100.736002
3903.000000	100.736817
3902.000000	100.737359
3901.000000	100.737542
3900.000000	100.737543
3899.000000	100.737559
3898.000000	100.737612
3897.000000	100.737650
3896.000000	100.737645
3895.000000	100.737548
3894.000000	100.737291
3893.000000	100.736938
3892.000000	100.736819
3891.000000	100.737205
3890.000000	100.737989
3889.000000	100.738829
3888.000000	100.739515
3887.000000	100.740092
3886.000000	100.740644
3885.000000	100.741058
3884.000000	100.741195
3883.000000	100.741169
3882.000000	100.741296
3881.000000	100.741806
3880.000000	100.742596
3879.000000	100.743316
3878.000000	100.743687
3877.000000	100.743628
3876.000000	100.743235
3875.000000	100.742778
3874.000000	100.742514
3873.000000	100.742506
3872.000000	100.742800
3871.000000	100.743559
3870.000000	100.744775
3869.000000	100.745904
3868.000000	100.746378
3867.000000	100.746219
3866.000000	100.745929
3865.000000	100.745879
3864.000000	100.745931
3863.000000	100.745816
3862.000000	100.745526
3861.000000	100.745192
3860.000000	100.744921
3859.000000	100.744786
3858.000000	100.744846
3857.000000	100.745052
3856.000000	100.745285
3855.000000	100.745462
3854.000000	100.745556
3853.000000	100.745529
3852.000000	100.745429
3851.000000	100.745352
3850.000000	100.745317
3849.000000	100.745285
3848.000000	100.745221
3847.000000	100.745113
3846.000000	100.744965
3845.000000	100.744776
3844.000000	100.744544
3843.000000	100.744274
3842.000000	100.743975
3841.000000	100.743652
3840.000000	100.743310
3839.000000	100.742952
3838.000000	100.742578
3837.000000	100.742185
3836.000000	100.741770
3835.000000	100.741334
3834.000000	100.740882
3833.000000	100.740423
3832.000000	100.739963
3831.000000	100.739496
3830.000000	100.739014
3829.000000	100.738507
3828.000000	100.737976
3827.000000	100.737427
3826.000000	100.736872
3825.000000	100.736316
3824.000000	100.735760
3823.000000	100.735212
3822.000000	100.734680
3821.000000	100.734166
3820.000000	100.733650
3819.000000	100.733109
3818.000000	100.732535
3817.000000	100.731945
3816.000000	100.731365
3815.000000	100.730810
3814.000000	100.730280
3813.000000	100.729767
3812.000000	100.729268
3811.000000	100.728778
3810.000000	100.728298
3809.000000	100.727825
3808.000000	100.727354
3807.000000	100.726885
3806.000000	100.726412
3805.000000	100.725935
3804.000000	100.725453
3803.000000	100.724979
3802.000000	100.724523
3801.000000	100.724088
3800.000000	100.723663
3799.000000	100.723235
3798.000000	100.722809
3797.000000	100.722395
3796.000000	100.721991
3795.000000	100.721590
3794.000000	100.721182
3793.000000	100.720769
3792.000000	100.720392
3791.000000	100.720101
3790.000000	100.719897
3789.000000	100.719674
3788.000000	100.719172
3787.000000	100.718140
3786.000000	100.716744
3785.000000	100.715678
3784.000000	100.715486
3783.000000	100.715886
3782.000000	100.716216
3781.000000	100.716477
3780.000000	100.717484
3779.000000	100.719434
3778.000000	100.721083
3777.000000	100.721117
3776.000000	100.719792
3775.000000	100.718443
3774.000000	100.717607
3773.000000	100.716563
3772.000000	100.715136
3771.000000	100.715002
3770.000000	100.717891
3769.000000	100.722774
3768.000000	100.726552
3767.000000	100.727234
3766.000000	100.725246
3765.000000	100.721979
3764.000000	100.718068
3763.000000	100.713890
3762.000000	100.710891
3761.000000	100.710596
3760.000000	100.712415
3759.000000	100.713939
3758.000000	100.714626
3757.000000	100.716645
3756.000000	100.721693
3755.000000	100.729080
3754.000000	100.736864
3753.000000	100.743676
3752.000000	100.749015
3751.000000	100.752683
3750.000000	100.754443
3749.000000	100.753839
3748.000000	100.749631
3747.000000	100.741198
3746.000000	100.731688
3745.000000	100.727641
3744.000000	100.729394
3743.000000	100.730433
3742.000000	100.728614
3741.000000	100.727215
3740.000000	100.728378
3739.000000	100.730315
3738.000000	100.730251
3737.000000	100.727982
3736.000000	100.724553
3735.000000	100.719214
3734.000000	100.710946
3733.000000	100.701705
3732.000000	100.694533
3731.000000	100.689940
3730.000000	100.686226
3729.000000	100.682490
3728.000000	100.680152
3727.000000	100.681383
3726.000000	100.685781
3725.000000	100.689780
3724.000000	100.689787
3723.000000	100.684902
3722.000000	100.677183
3721.000000	100.669991
3720.000000	100.665888
3719.000000	100.665230
3718.000000	100.666580
3717.000000	100.667832
3716.000000	100.667287
3715.000000	100.664537
3714.000000	100.660194
3713.000000	100.654712
3712.000000	100.647571
3711.000000	100.637730
3710.000000	100.625962
3709.000000	100.614984
3708.000000	100.606819
3707.000000	100.601225
3706.000000	100.596254
3705.000000	100.590321
3704.000000	100.583847
3703.000000	100.578878
3702.000000	100.576786
3701.000000	100.576452
3700.000000	100.575722
3699.000000	100.574089
3698.000000	100.572981
3697.000000	100.573560
3696.000000	100.574465
3695.000000	100.573024
3694.000000	100.568517
3693.000000	100.562810
3692.000000	100.558237
3691.000000	100.555225
3690.000000	100.552071
3689.000000	100.546381
3688.000000	100.537721
3687.000000	100.528272
3686.000000	100.520121
3685.000000	100.513473
3684.000000	100.506626
3683.000000	100.497392
3682.000000	100.485706
3681.000000	100.474975
3680.000000	100.468167
3679.000000	100.462944
3678.000000	100.453654
3677.000000	100.439827
3676.000000	100.428201
3675.000000	100.420428
3674.000000	100.409697
3673.000000	100.391353
3672.000000	100.367998
3671.000000	100.346571
3670.000000	100.330853
3669.000000	100.316319
3668.000000	100.297704
3667.000000	100.275569
3666.000000	100.253072
3665.000000	100.232037
3664.000000	100.212681
3663.000000	100.195496
3662.000000	100.182032
3661.000000	100.172810
3660.000000	100.164688
3659.000000	100.152668
3658.000000	100.135186
3657.000000	100.117599
3656.000000	100.106573
3655.000000	100.101805
3654.000000	100.096968
3653.000000	100.086132
3652.000000	100.067248
3651.000000	100.042206
3650.000000	100.015434
3649.000000	99.992181
3648.000000	99.976794
3647.000000	99.969156
3646.000000	99.963851
3645.000000	99.955039
3644.000000	99.941390
3643.000000	99.925785
3642.000000	99.911290
3641.000000	99.898062
3640.000000	99.884870
3639.000000	99.872476
3638.000000	99.862902
3637.000000	99.856279
3636.000000	99.850668
3635.000000	99.845099
3634.000000	99.840476
3633.000000	99.836886
3632.000000	99.831903
3631.000000	99.822950
3630.000000	99.811365
3629.000000	99.800255
3628.000000	99.788516
3627.000000	99.774214
3626.000000	99.759280
3625.000000	99.747407
3624.000000	99.740858
3623.000000	99.739026
3622.000000	99.739465
3621.000000	99.740782
3620.000000	99.744648
3619.000000	99.753695
3618.000000	99.767644
3617.000000	99.783105
3616.000000	99.796657
3615.000000	99.807217
3614.000000	99.815316
3613.000000	99.821157
3612.000000	99.825088
3611.000000	99.829852
3610.000000	99.839701
3609.000000	99.855997
3608.000000	99.874450
3607.000000	99.888797
3606.000000	99.896688
3605.000000	99.900034
3604.000000	99.901587
3603.000000	99.903502
3602.000000	99.907743
3601.000000	99.915572
3600.000000	99.925526
3599.000000	99.933818
3598.000000	99.937514
3597.000000	99.937504
3596.000000	99.938332
3595.000000	99.945289
3594.000000	99.959897
3593.000000	99.978293
3592.000000	99.994194
3591.000000	100.003157
3590.000000	100.005126
3589.000000	100.004491
3588.000000	100.006339
3587.000000	100.010873
3586.000000	100.014160
3585.000000	100.013967
3584.000000	100.011329
3583.000000	100.007909
3582.000000	100.004013
3581.000000	99.999492
3580.000000	99.995192
3579.000000	99.992681
3578.000000	99.992591
3577.000000	99.993982
3576.000000	99.995480
3575.000000	99.996172
3574.000000	99.995340
3573.000000	99.992128
3572.000000	99.986535
3571.000000	99.980263
3570.000000	99.976071
3569.000000	99.975690
3568.000000	99.977616
3567.000000	99.977449
3566.000000	99.972325
3565.000000	99.964075
3564.000000	99.956739
3563.000000	99.952832
3562.000000	99.952324
3561.000000	99.953587
3560.000000	99.954713
3559.000000	99.954337
3558.000000	99.951912
3557.000000	99.947662
3556.000000	99.942712
3555.000000	99.939131
3554.000000	99.939115
3553.000000	99.943100
3552.000000	99.948568
3551.000000	99.951740
3550.000000	99.950891
3549.000000	99.947431
3548.000000	99.944120
3547.000000	99.942678
3546.000000	99.942878
3545.000000	99.943494
3544.000000	99.943678
3543.000000	99.943450
3542.000000	99.943245
3541.000000	99.943375
3540.000000	99.943893
3539.000000	99.944727
3538.000000	99.945702
3537.000000	99.946422
3536.000000	99.946388
3535.000000	99.945486
3534.000000	99.944206
3533.000000	99.943226
3532.000000	99.942774
3531.000000	99.942561
3530.000000	99.942273
3529.000000	99.941959
3528.000000	99.941852
3527.000000	99.941963
3526.000000	99.942035
3525.000000	99.941845
3524.000000	99.941393
3523.000000	99.940864
3522.000000	99.940540
3521.000000	99.940664
3520.000000	99.941263
3519.000000	99.942008
3518.000000	99.942334
3517.000000	99.941966
3516.000000	99.941118
3515.000000	99.940350
3514.000000	99.939995
3513.000000	99.939938
3512.000000	99.939874
3511.000000	99.939586
3510.000000	99.939031
3509.000000	99.938276
3508.000000	99.937445
3507.000000	99.936710
3506.000000	99.936193
3505.000000	99.935842
3504.000000	99.935402
3503.000000	99.934602
3502.000000	99.933447
3501.000000	99.932289
3500.000000	99.931544
3499.000000	99.931336
3498.000000	99.931421
3497.000000	99.931488
3496.000000	99.931529
3495.000000	99.931821
3494.000000	99.932505
3493.000000	99.933274
3492.000000	99.933545
3491.000000	99.932909
3490.000000	99.931423
3489.000000	99.929572
3488.000000	99.927979
3487.000000	99.927040
3486.000000	99.926690
3485.000000	99.926511
3484.000000	99.926136
3483.000000	99.925544
3482.000000	99.924900
3481.000000	99.924227
3480.000000	99.923409
3479.000000	99.922452
3478.000000	99.921523
3477.000000	99.920689
3476.000000	99.919799
3475.000000	99.918631
3474.000000	99.917091
3473.000000	99.915221
3472.000000	99.913169
3471.000000	99.911301
3470.000000	99.910074
3469.000000	99.909722
3468.000000	99.910151
3467.000000	99.911102
3466.000000	99.912235
3465.000000	99.912911
3464.000000	99.912236
3463.000000	99.909776
3462.000000	99.906170
3461.000000	99.902800
3460.000000	99.900551
3459.000000	99.899175
3458.000000	99.897894
3457.000000	99.896250
3456.000000	99.894202
3455.000000	99.891758
3454.000000	99.888985
3453.000000	99.886416
3452.000000	99.884876
3451.000000	99.884659
3450.000000	99.885085
3449.000000	99.884980
3448.000000	99.883725
3447.000000	99.881621
3446.000000	99.879446
3445.000000	99.877776
3444.000000	99.876667
3443.000000	99.875835
3442.000000	99.874981
3441.000000	99.873990
3440.000000	99.872881
3439.000000	99.871667
3438.000000	99.870336
3437.000000	99.868971
3436.000000	99.867762
3435.000000	99.866831
3434.000000	99.866080
3433.000000	99.865320
3432.000000	99.864511
3431.000000	99.863683
3430.000000	99.862622
3429.000000	99.860916
3428.000000	99.858503
3427.000000	99.855972
3426.000000	99.854040
3425.000000	99.852866
3424.000000	99.852048
3423.000000	99.851149
3422.000000	99.849917
3421.000000	99.848110
3420.000000	99.845611
3419.000000	99.842897
3418.000000	99.841039
3417.000000	99.840928
3416.000000	99.842490
3415.000000	99.844794
3414.000000	99.846766
3413.000000	99.847711
3412.000000	99.847412
3411.000000	99.846040
3410.000000	99.844033
3409.000000	99.841893
3408.000000	99.840025
3407.000000	99.838826
3406.000000	99.838776
3405.000000	99.839987
3404.000000	99.841701
3403.000000	99.842673
3402.000000	99.842138
3401.000000	99.840318
3400.000000	99.837871
3399.000000	99.835071
3398.000000	99.831712
3397.000000	99.827747
3396.000000	99.823829
3395.000000	99.821094
3394.000000	99.820397
3393.000000	99.821724
3392.000000	99.824288
3391.000000	99.827282
3390.000000	99.830394
3389.000000	99.833546
3388.000000	99.836579
3387.000000	99.839563
3386.000000	99.842992
3385.000000	99.847115
3384.000000	99.851045
3383.000000	99.853247
3382.000000	99.853160
3381.000000	99.851907
3380.000000	99.851211
3379.000000	99.851961
3378.000000	99.854088
3377.000000	99.857194
3376.000000	99.860591
3375.000000	99.863055
3374.000000	99.863515
3373.000000	99.862178
3372.000000	99.860489
3371.000000	99.859724
3370.000000	99.859965
3369.000000	99.860710
3368.000000	99.862021
3367.000000	99.864545
3366.000000	99.868445
3365.000000	99.872624
3364.000000	99.875275
3363.000000	99.875296
3362.000000	99.873165
3361.000000	99.870651
3360.000000	99.869407
3359.000000	99.869722
3358.000000	99.870728
3357.000000	99.871600
3356.000000	99.872339
3355.000000	99.873476
3354.000000	99.875409
3353.000000	99.878158
3352.000000	99.881336
3351.000000	99.884171
3350.000000	99.885959
3349.000000	99.886840
3348.000000	99.887933
3347.000000	99.890310
3346.000000	99.893865
3345.000000	99.897435
3344.000000	99.900034
3343.000000	99.901638
3342.000000	99.902694
3341.000000	99.903293
3340.000000	99.903149
3339.000000	99.902303
3338.000000	99.901473
3337.000000	99.901634
3336.000000	99.903287
3335.000000	99.906131
3334.000000	99.909285
3333.000000	99.911909
3332.000000	99.913664
3331.000000	99.914686
3330.000000	99.915390
3329.000000	99.916315
3328.000000	99.917848
3327.000000	99.919787
3326.000000	99.921318
3325.000000	99.921783
3324.000000	99.921470
3323.000000	99.921343
3322.000000	99.921876
3321.000000	99.922604
3320.000000	99.922991
3319.000000	99.923374
3318.000000	99.924623
3317.000000	99.927023
3316.000000	99.929925
3315.000000	99.932503
3314.000000	99.934554
3313.000000	99.936400
3312.000000	99.938296
3311.000000	99.940117
3310.000000	99.941556
3309.000000	99.942482
3308.000000	99.943055
3307.000000	99.943560
3306.000000	99.944221
3305.000000	99.945181
3304.000000	99.946526
3303.000000	99.948179
3302.000000	99.949789
3301.000000	99.950905
3300.000000	99.951374
3299.000000	99.951462
3298.000000	99.951649
3297.000000	99.952274
3296.000000	99.953388
3295.000000	99.954865
3294.000000	99.956531
3293.000000	99.958155
3292.000000	99.959466
3291.000000	99.960295
3290.000000	99.960804
3289.000000	99.961469
3288.000000	99.962690
3287.000000	99.964348
3286.000000	99.965815
3285.000000	99.966503
3284.000000	99.966397
3283.000000	99.966094
3282.000000	99.966326
3281.000000	99.967428
3280.000000	99.969230
3279.000000	99.971276
3278.000000	99.973099
3277.000000	99.974499
3276.000000	99.975738
3275.000000	99.977430
3274.000000	99.979977
3273.000000	99.983050
3272.000000	99.985757
3271.000000	99.987430
3270.000000	99.988132
3269.000000	99.988436
3268.000000	99.988858
3267.000000	99.989616
3266.000000	99.990739
3265.000000	99.992147
3264.000000	99.993598
3263.000000	99.994765
3262.000000	99.995511
3261.000000	99.996014
3260.000000	99.996479
3259.000000	99.996746
3258.000000	99.996420
3257.000000	99.995641
3256.000000	99.995561
3255.000000	99.997552
3254.000000	100.001674
3253.000000	100.006078
3252.000000	100.008449
3251.000000	100.008276
3250.000000	100.007409
3249.000000	100.008232
3248.000000	100.011485
3247.000000	100.016198
3246.000000	100.021394
3245.000000	100.027145
3244.000000	100.033549
3243.000000	100.039341
3242.000000	100.042646
3241.000000	100.043186
3240.000000	100.042944
3239.000000	100.044130
3238.000000	100.046761
3237.000000	100.049082
3236.000000	100.050091
3235.000000	100.050780
3234.000000	100.052640
3233.000000	100.055550
3232.000000	100.057691
3231.000000	100.057430
3230.000000	100.054910
3229.000000	100.052005
3228.000000	100.050825
3227.000000	100.052065
3226.000000	100.054685
3225.000000	100.057097
3224.000000	100.058723
3223.000000	100.060156
3222.000000	100.061954
3221.000000	100.063912
3220.000000	100.065828
3219.000000	100.068351
3218.000000	100.072382
3217.000000	100.077858
3216.000000	100.083651
3215.000000	100.088513
3214.000000	100.091765
3213.000000	100.093270
3212.000000	100.093411
3211.000000	100.093173
3210.000000	100.093617
3209.000000	100.095024
3208.000000	100.096851
3207.000000	100.098562
3206.000000	100.100099
3205.000000	100.101450
3204.000000	100.102369
3203.000000	100.102917
3202.000000	100.103915
3201.000000	100.106250
3200.000000	100.109870
3199.000000	100.113825
3198.000000	100.117293
3197.000000	100.120280
3196.000000	100.123192
3195.000000	100.126116
3194.000000	100.128717
3193.000000	100.130618
3192.000000	100.131705
3191.000000	100.132161
3190.000000	100.132374
3189.000000	100.132820
3188.000000	100.133894
3187.000000	100.135710
3186.000000	100.138109
3185.000000	100.140834
3184.000000	100.143586
3183.000000	100.145971
3182.000000	100.147641
3181.000000	100.148673
3180.000000	100.149736
3179.000000	100.151579
3178.000000	100.154293
3177.000000	100.157211
3176.000000	100.159574
3175.000000	100.161166
3174.000000	100.162244
3173.000000	100.163121
3172.000000	100.164038
3171.000000	100.165293
3170.000000	100.167145
3169.000000	100.169547
3168.000000	100.172186
3167.000000	100.174806
3166.000000	100.177343
3165.000000	100.179771
3164.000000	100.182085
3163.000000	100.184442
3162.000000	100.186991
3161.000000	100.189404
3160.000000	100.190967
3159.000000	100.191322
3158.000000	100.190892
3157.000000	100.190513
3156.000000	100.190691
3155.000000	100.191470
3154.000000	100.192843
3153.000000	100.194879
3152.000000	100.197447
3151.000000	100.200045
3150.000000	100.202090
3149.000000	100.203397
3148.000000	100.204295
3147.000000	100.205325
3146.000000	100.206744
3145.000000	100.208394
3144.000000	100.210028
3143.000000	100.211672
3142.000000	100.213510
3141.000000	100.215511
3140.000000	100.217355
3139.000000	100.218812
3138.000000	100.220009
3137.000000	100.221310
3136.000000	100.222928
3135.000000	100.224765
3134.000000	100.226595
3133.000000	100.228323
3132.000000	100.230017
3131.000000	100.231747
3130.000000	100.233494
3129.000000	100.235205
3128.000000	100.236889
3127.000000	100.238600
3126.000000	100.240344
3125.000000	100.242031
3124.000000	100.243586
3123.000000	100.245053
3122.000000	100.246573
3121.000000	100.248228
3120.000000	100.249961
3119.000000	100.251648
3118.000000	100.253231
3117.000000	100.254792
3116.000000	100.256491
3115.000000	100.258436
3114.000000	100.260608
3113.000000	100.262861
3112.000000	100.265020
3111.000000	100.266975
3110.000000	100.268699
3109.000000	100.270252
3108.000000	100.271776
3107.000000	100.273440
3106.000000	100.275348
3105.000000	100.277444
3104.000000	100.279524
3103.000000	100.281421
3102.000000	100.283167
3101.000000	100.284942
3100.000000	100.286839
3099.000000	100.288776
3098.000000	100.290661
3097.000000	100.292501
3096.000000	100.294303
3095.000000	100.295981
3094.000000	100.297448
3093.000000	100.298737
3092.000000	100.299977
3091.000000	100.301291
3090.000000	100.302758
3089.000000	100.304387
3088.000000	100.306080
3087.000000	100.307691
3086.000000	100.309159
3085.000000	100.310562
3084.000000	100.311998
3083.000000	100.313468
3082.000000	100.314905
3081.000000	100.316295
3080.000000	100.317690
3079.000000	100.319099
3078.000000	100.320454
3077.000000	100.321715
3076.000000	100.322933
3075.000000	100.324197
3074.000000	100.325517
3073.000000	100.326802
3072.000000	100.327947
3071.000000	100.328931
3070.000000	100.329838
3069.000000	100.330825
3068.000000	100.331990
3067.000000	100.333315
3066.000000	100.334705
3065.000000	100.336069
3064.000000	100.337356
3063.000000	100.338543
3062.000000	100.339645
3061.000000	100.340722
3060.000000	100.341844
3059.000000	100.343023
3058.000000	100.344212
3057.000000	100.345354
3056.000000	100.346444
3055.000000	100.347529
3054.000000	100.348656
3053.000000	100.349841
3052.000000	100.351081
3051.000000	100.352379
3050.000000	100.353698
3049.000000	100.354935
3048.000000	100.355986
3047.000000	100.356904
3046.000000	100.357921
3045.000000	100.359215
3044.000000	100.360728
3043.000000	100.362275
3042.000000	100.363811
3041.000000	100.365426
3040.000000	100.367129
3039.000000	100.368814
3038.000000	100.370450
3037.000000	100.372134
3036.000000	100.373918
3035.000000	100.375750
3034.000000	100.377646
3033.000000	100.379690
3032.000000	100.381735
3031.000000	100.383350
3030.000000	100.384303
3029.000000	100.385001
3028.000000	100.386239
3027.000000	100.388430
3026.000000	100.391228
3025.000000	100.393748
3024.000000	100.395206
3023.000000	100.395536
3022.000000	100.395667
3021.000000	100.396792
3020.000000	100.398878
3019.000000	100.400474
3018.000000	100.400788
3017.000000	100.401271
3016.000000	100.403861
3015.000000	100.408164
3014.000000	100.411785
3013.000000	100.413258
3012.000000	100.413300
3011.000000	100.413366
3010.000000	100.414542
3009.000000	100.417826
3008.000000	100.423779
3007.000000	100.431305
3006.000000	100.437987
3005.000000	100.442413
3004.000000	100.445471
3003.000000	100.448868
3002.000000	100.453011
3001.000000	100.456669
3000.000000	100.458254
2999.000000	100.457187
2998.000000	100.454463
2997.000000	100.452152
2996.000000	100.452005
2995.000000	100.454318
2994.000000	100.458042
2993.000000	100.461749
2992.000000	100.464557
2991.000000	100.466764
2990.000000	100.469883
2989.000000	100.475294
2988.000000	100.482285
2987.000000	100.488240
2986.000000	100.491527
2985.000000	100.493389
2984.000000	100.495958
2983.000000	100.499102
2982.000000	100.500760
2981.000000	100.500175
2980.000000	100.499281
2979.000000	100.500455
2978.000000	100.503832
2977.000000	100.507236
2976.000000	100.508166
2975.000000	100.505676
2974.000000	100.500725
2973.000000	100.494613
2972.000000	100.486799
2971.000000	100.474992
2970.000000	100.458380
2969.000000	100.440185
2968.000000	100.425556
2967.000000	100.416673
2966.000000	100.411009
2965.000000	100.404464
2964.000000	100.395128
2963.000000	100.383879
2962.000000	100.372747
2961.000000	100.363615
2960.000000	100.357777
2959.000000	100.355651
2958.000000	100.356665
2957.000000	100.359395
2956.000000	100.361571
2955.000000	100.360488
2954.000000	100.354752
2953.000000	100.346203
2952.000000	100.339413
2951.000000	100.338442
2950.000000	100.343862
2949.000000	100.352662
2948.000000	100.360513
2947.000000	100.364211
2946.000000	100.362661
2945.000000	100.356250
2944.000000	100.345765
2943.000000	100.332277
2942.000000	100.317644
2941.000000	100.303823
2940.000000	100.291004
2939.000000	100.277426
2938.000000	100.261930
2937.000000	100.245723
2936.000000	100.230473
2935.000000	100.215681
2934.000000	100.199592
2933.000000	100.181917
2932.000000	100.163859
2931.000000	100.146114
2930.000000	100.129132
2929.000000	100.115108
2928.000000	100.107235
2927.000000	100.106379
2926.000000	100.110315
2925.000000	100.116524
2924.000000	100.123880
2923.000000	100.131556
2922.000000	100.139087
2921.000000	100.148591
2920.000000	100.164207
2919.000000	100.187090
2918.000000	100.212273
2917.000000	100.232610
2916.000000	100.245553
2915.000000	100.254719
2914.000000	100.265575
2913.000000	100.281043
2912.000000	100.300423
2911.000000	100.320804
2910.000000	100.339322
2909.000000	100.355084
2908.000000	100.369146
2907.000000	100.382393
2906.000000	100.394073
2905.000000	100.403182
2904.000000	100.410468
2903.000000	100.417712
2902.000000	100.424919
2901.000000	100.429842
2900.000000	100.430611
2899.000000	100.428258
2898.000000	100.426279
2897.000000	100.427912
2896.000000	100.433954
2895.000000	100.442723
2894.000000	100.451725
2893.000000	100.459281
2892.000000	100.464667
2891.000000	100.467284
2890.000000	100.466668
2889.000000	100.463783
2888.000000	100.461689
2887.000000	100.463851
2886.000000	100.471436
2885.000000	100.482298
2884.000000	100.492514
2883.000000	100.498869
2882.000000	100.500318
2881.000000	100.497885
2880.000000	100.493374
2879.000000	100.487924
2878.000000	100.481768
2877.000000	100.475326
2876.000000	100.470114
2875.000000	100.467895
2874.000000	100.468839
2873.000000	100.470956
2872.000000	100.471728
2871.000000	100.470215
2870.000000	100.467284
2869.000000	100.463940
2868.000000	100.460056
2867.000000	100.455181
2866.000000	100.450071
2865.000000	100.446278
2864.000000	100.443854
2863.000000	100.440376
2862.000000	100.433067
2861.000000	100.421355
2860.000000	100.406562
2859.000000	100.389773
2858.000000	100.371432
2857.000000	100.353006
2856.000000	100.337476
2855.000000	100.327575
2854.000000	100.324518
2853.000000	100.328726
2852.000000	100.340359
2851.000000	100.357914
2850.000000	100.377341
2849.000000	100.394572
2848.000000	100.409220
2847.000000	100.424193
2846.000000	100.441138
2845.000000	100.457743
2844.000000	100.470580
2843.000000	100.479525
2842.000000	100.487525
2841.000000	100.496152
2840.000000	100.503393
2839.000000	100.506887
2838.000000	100.507960
2837.000000	100.510717
2836.000000	100.517498
2835.000000	100.526753
2834.000000	100.535535
2833.000000	100.542484
2832.000000	100.547708
2831.000000	100.551136
2830.000000	100.552489
2829.000000	100.552505
2828.000000	100.552883
2827.000000	100.554590
2826.000000	100.556744
2825.000000	100.557370
2824.000000	100.555080
2823.000000	100.550308
2822.000000	100.545442
2821.000000	100.543610
2820.000000	100.546567
2819.000000	100.553303
2818.000000	100.560836
2817.000000	100.566635
2816.000000	100.570406
2815.000000	100.573571
2814.000000	100.577233
2813.000000	100.580973
2812.000000	100.583815
2811.000000	100.585856
2810.000000	100.588124
2809.000000	100.590743
2808.000000	100.592216
2807.000000	100.591215
2806.000000	100.588420
2805.000000	100.585743
2804.000000	100.584082
2803.000000	100.583037
2802.000000	100.582784
2801.000000	100.584692
2800.000000	100.589363
2799.000000	100.595093
2798.000000	100.599241
2797.000000	100.600670
2796.000000	100.600163
2795.000000	100.599034
2794.000000	100.597971
2793.000000	100.597024
2792.000000	100.596164
2791.000000	100.595731
2790.000000	100.596323
2789.000000	100.598089
2788.000000	100.600286
2787.000000	100.601878
2786.000000	100.602618
2785.000000	100.603146
2784.000000	100.604070
2783.000000	100.605309
2782.000000	100.606450
2781.000000	100.607367
2780.000000	100.608263
2779.000000	100.609290
2778.000000	100.610398
2777.000000	100.611485
2776.000000	100.612497
2775.000000	100.613393
2774.000000	100.614153
2773.000000	100.614840
2772.000000	100.615557
2771.000000	100.616340
2770.000000	100.617161
2769.000000	100.617993
2768.000000	100.618834
2767.000000	100.619688
2766.000000	100.620557
2765.000000	100.621445
2764.000000	100.622349
2763.000000	100.623254
2762.000000	100.624146
2761.000000	100.625014
2760.000000	100.625861
2759.000000	100.626693
2758.000000	100.627523
2757.000000	100.628360
2756.000000	100.629209
2755.000000	100.630065
2754.000000	100.630924
2753.000000	100.631782
2752.000000	100.632644
2751.000000	100.633514
2750.000000	100.634391
2749.000000	100.635271
2748.000000	100.636141
2747.000000	100.636979
2746.000000	100.637781
2745.000000	100.638565
2744.000000	100.639374
2743.000000	100.640262
2742.000000	100.641252
2741.000000	100.642315
2740.000000	100.643362
2739.000000	100.644266
2738.000000	100.644929
2737.000000	100.645381
2736.000000	100.645816
2735.000000	100.646428
2734.000000	100.647227
2733.000000	100.648046
2732.000000	100.648752
2731.000000	100.649411
2730.000000	100.650211
2729.000000	100.651214
2728.000000	100.652230
2727.000000	100.653005
2726.000000	100.653508
2725.000000	100.653928
2724.000000	100.654363
2723.000000	100.654642
2722.000000	100.654581
2721.000000	100.654283
2720.000000	100.654002
2719.000000	100.653852
2718.000000	100.653865
2717.000000	100.654192
2716.000000	100.654940
2715.000000	100.655902
2714.000000	100.656796
2713.000000	100.657743
2712.000000	100.659083
2711.000000	100.660737
2710.000000	100.662172
2709.000000	100.663016
2708.000000	100.663196
2707.000000	100.662609
2706.000000	100.661192
2705.000000	100.659444
2704.000000	100.658349
2703.000000	100.658384
2702.000000	100.659058
2701.000000	100.659482
2700.000000	100.659259
2699.000000	100.658712
2698.000000	100.658402
2697.000000	100.658608
2696.000000	100.659164
2695.000000	100.659616
2694.000000	100.659623
2693.000000	100.659256
2692.000000	100.658882
2691.000000	100.658735
2690.000000	100.658725
2689.000000	100.658692
2688.000000	100.658654
2687.000000	100.658683
2686.000000	100.658689
2685.000000	100.658527
2684.000000	100.658241
2683.000000	100.658051
2682.000000	100.658100
2681.000000	100.658315
2680.000000	100.658521
2679.000000	100.658618
2678.000000	100.658637
2677.000000	100.658666
2676.000000	100.658740
2675.000000	100.658775
2674.000000	100.658634
2673.000000	100.658279
2672.000000	100.657833
2671.000000	100.657478
2670.000000	100.657278
2669.000000	100.657162
2668.000000	100.657039
2667.000000	100.656902
2666.000000	100.656814
2665.000000	100.656804
2664.000000	100.656829
2663.000000	100.656796
2662.000000	100.656640
2661.000000	100.656359
2660.000000	100.656014
2659.000000	100.655699
2658.000000	100.655498
2657.000000	100.655455
2656.000000	100.655534
2655.000000	100.655636
2654.000000	100.655678
2653.000000	100.655650
2652.000000	100.655583
2651.000000	100.655497
2650.000000	100.655393
2649.000000	100.655279
2648.000000	100.655178
2647.000000	100.655107
2646.000000	100.655063
2645.000000	100.655042
2644.000000	100.655049
2643.000000	100.655081
2642.000000	100.655123
2641.000000	100.655154
2640.000000	100.655172
2639.000000	100.655200
2638.000000	100.655271
2637.000000	100.655401
2636.000000	100.655594
2635.000000	100.655838
2634.000000	100.656090
2633.000000	100.656281
2632.000000	100.656356
2631.000000	100.656301
2630.000000	100.656163
2629.000000	100.656044
2628.000000	100.656055
2627.000000	100.656259
2626.000000	100.656632
2625.000000	100.657030
2624.000000	100.657252
2623.000000	100.657165
2622.000000	100.656837
2621.000000	100.656560
2620.000000	100.656615
2619.000000	100.657076
2618.000000	100.657822
2617.000000	100.658691
2616.000000	100.659521
2615.000000	100.660094
2614.000000	100.660251
2613.000000	100.660056
2612.000000	100.659718
2611.000000	100.659355
2610.000000	100.659014
2609.000000	100.658898
2608.000000	100.659282
2607.000000	100.660137
2606.000000	100.661093
2605.000000	100.661901
2604.000000	100.662708
2603.000000	100.663711
2602.000000	100.664846
2601.000000	100.665936
2600.000000	100.666815
2599.000000	100.667115
2598.000000	100.666372
2597.000000	100.664715
2596.000000	100.663143
2595.000000	100.662559
2594.000000	100.662671
2593.000000	100.662278
2592.000000	100.660690
2591.000000	100.658626
2590.000000	100.657607
2589.000000	100.658518
2588.000000	100.660905
2587.000000	100.663382
2586.000000	100.664823
2585.000000	100.665264
2584.000000	100.665580
2583.000000	100.666388
2582.000000	100.667476
2581.000000	100.668300
2580.000000	100.668677
2579.000000	100.668793
2578.000000	100.668824
2577.000000	100.668808
2576.000000	100.668670
2575.000000	100.668207
2574.000000	100.667264
2573.000000	100.666093
2572.000000	100.665281
2571.000000	100.665161
2570.000000	100.665554
2569.000000	100.666201
2568.000000	100.667115
2567.000000	100.668318
2566.000000	100.669587
2565.000000	100.670713
2564.000000	100.671748
2563.000000	100.672736
2562.000000	100.673468
2561.000000	100.673770
2560.000000	100.673827
2559.000000	100.673904
2558.000000	100.673917
2557.000000	100.673593
2556.000000	100.672953
2555.000000	100.672386
2554.000000	100.672237
2553.000000	100.672494
2552.000000	100.672841
2551.000000	100.672916
2550.000000	100.672594
2549.000000	100.672157
2548.000000	100.672153
2547.000000	100.672936
2546.000000	100.674315
2545.000000	100.675609
2544.000000	100.676183
2543.000000	100.675889
2542.000000	100.675098
2541.000000	100.674425
2540.000000	100.674309
2539.000000	100.674791
2538.000000	100.675591
2537.000000	100.676376
2536.000000	100.677002
2535.000000	100.677449
2534.000000	100.677601
2533.000000	100.677288
2532.000000	100.676568
2531.000000	100.675812
2530.000000	100.675364
2529.000000	100.675168
2528.000000	100.674883
2527.000000	100.674370
2526.000000	100.673967
2525.000000	100.674134
2524.000000	100.674898
2523.000000	100.675769
2522.000000	100.676264
2521.000000	100.676380
2520.000000	100.676409
2519.000000	100.676436
2518.000000	100.676271
2517.000000	100.675855
2516.000000	100.675471
2515.000000	100.675407
2514.000000	100.675680
2513.000000	100.676205
2512.000000	100.676992
2511.000000	100.677979
2510.000000	100.678947
2509.000000	100.679873
2508.000000	100.681130
2507.000000	100.682964
2506.000000	100.684892
2505.000000	100.685981
2504.000000	100.685786
2503.000000	100.684842
2502.000000	100.684181
2501.000000	100.684456
2500.000000	100.685522
2499.000000	100.686649
2498.000000	100.687178
2497.000000	100.687076
2496.000000	100.686907
2495.000000	100.687195
2494.000000	100.687920
2493.000000	100.688703
2492.000000	100.689356
2491.000000	100.690050
2490.000000	100.690964
2489.000000	100.691928
2488.000000	100.692554
2487.000000	100.692751
2486.000000	100.693034
2485.000000	100.694159
2484.000000	100.696348
2483.000000	100.698957
2482.000000	100.701050
2481.000000	100.702310
2480.000000	100.703112
2479.000000	100.703804
2478.000000	100.704215
2477.000000	100.704016
2476.000000	100.703266
2475.000000	100.702412
2474.000000	100.701916
2473.000000	100.701966
2472.000000	100.702425
2471.000000	100.702955
2470.000000	100.703308
2469.000000	100.703535
2468.000000	100.703845
2467.000000	100.704331
2466.000000	100.704986
2465.000000	100.705906
2464.000000	100.707189
2463.000000	100.708599
2462.000000	100.709567
2461.000000	100.709753
2460.000000	100.709368
2459.000000	100.708927
2458.000000	100.708776
2457.000000	100.708942
2456.000000	100.709329
2455.000000	100.709862
2454.000000	100.710482
2453.000000	100.711146
2452.000000	100.711842
2451.000000	100.712535
2450.000000	100.713093
2449.000000	100.713376
2448.000000	100.713405
2447.000000	100.713378
2446.000000	100.713488
2445.000000	100.713746
2444.000000	100.714020
2443.000000	100.714223
2442.000000	100.714411
2441.000000	100.714703
2440.000000	100.715119
2439.000000	100.715551
2438.000000	100.715869
2437.000000	100.716041
2436.000000	100.716154
2435.000000	100.716353
2434.000000	100.716710
2433.000000	100.717176
2432.000000	100.717630
2431.000000	100.718005
2430.000000	100.718362
2429.000000	100.718781
2428.000000	100.719194
2427.000000	100.719407
2426.000000	100.719335
2425.000000	100.719171
2424.000000	100.719238
2423.000000	100.719687
2422.000000	100.720424
2421.000000	100.721255
2420.000000	100.722028
2419.000000	100.722656
2418.000000	100.723152
2417.000000	100.723632
2416.000000	100.724121
2415.000000	100.724364
2414.000000	100.724051
2413.000000	100.723225
2412.000000	100.722384
2411.000000	100.722094
2410.000000	100.722603
2409.000000	100.723817
2408.000000	100.725324
2407.000000	100.726532
2406.000000	100.727132
2405.000000	100.727437
2404.000000	100.728043
2403.000000	100.729106
2402.000000	100.730217
2401.000000	100.731022
2400.000000	100.731647
2399.000000	100.732361
2398.000000	100.733097
2397.000000	100.733538
2396.000000	100.733550
2395.000000	100.733351
2394.000000	100.733328
2393.000000	100.733715
2392.000000	100.734410
2391.000000	100.735022
2390.000000	100.735223
2389.000000	100.735046
2388.000000	100.734802
2387.000000	100.734751
2386.000000	100.734909
2385.000000	100.735158
2384.000000	100.735393
2383.000000	100.735565
2382.000000	100.735699
2381.000000	100.735870
2380.000000	100.736094
2379.000000	100.736272
2378.000000	100.736299
2377.000000	100.736215
2376.000000	100.736147
2375.000000	100.736146
2374.000000	100.736179
2373.000000	100.736236
2372.000000	100.736329
2371.000000	100.736412
2370.000000	100.736409
2369.000000	100.736317
2368.000000	100.736187
2367.000000	100.736062
2366.000000	100.735949
2365.000000	100.735844
2364.000000	100.735742
2363.000000	100.735632
2362.000000	100.735496
2361.000000	100.735326
2360.000000	100.735133
2359.000000	100.734936
2358.000000	100.734743
2357.000000	100.734555
2356.000000	100.734370
2355.000000	100.734193
2354.000000	100.734037
2353.000000	100.733916
2352.000000	100.733837
2351.000000	100.733795
2350.000000	100.733771
2349.000000	100.733736
2348.000000	100.733672
2347.000000	100.733590
2346.000000	100.733529
2345.000000	100.733510
2344.000000	100.733502
2343.000000	100.733462
2342.000000	100.733397
2341.000000	100.733351
2340.000000	100.733329
2339.000000	100.733256
2338.000000	100.733040
2337.000000	100.732678
2336.000000	100.732278
2335.000000	100.731983
2334.000000	100.731860
2333.000000	100.731884
2332.000000	100.731939
2331.000000	100.731879
2330.000000	100.731629
2329.000000	100.731284
2328.000000	100.731068
2327.000000	100.731087
2326.000000	100.731164
2325.000000	100.731012
2324.000000	100.730572
2323.000000	100.730057
2322.000000	100.729628
2321.000000	100.729206
2320.000000	100.728738
2319.000000	100.728492
2318.000000	100.728825
2317.000000	100.729736
2316.000000	100.730739
2315.000000	100.731267
2314.000000	100.731164
2313.000000	100.730686
2312.000000	100.730102
2311.000000	100.729398
2310.000000	100.728529
2309.000000	100.727678
2308.000000	100.727055
2307.000000	100.726576
2306.000000	100.725970
2305.000000	100.725182
2304.000000	100.724467
2303.000000	100.724009
2302.000000	100.723692
2301.000000	100.723356
2300.000000	100.723052
2299.000000	100.722868
2298.000000	100.722662
2297.000000	100.722184
2296.000000	100.721417
2295.000000	100.720618
2294.000000	100.720066
2293.000000	100.719816
2292.000000	100.719718
2291.000000	100.719532
2290.000000	100.719078
2289.000000	100.718366
2288.000000	100.717592
2287.000000	100.716921
2286.000000	100.716295
2285.000000	100.715554
2284.000000	100.714698
2283.000000	100.713918
2282.000000	100.713366
2281.000000	100.712996
2280.000000	100.712654
2279.000000	100.712238
2278.000000	100.711742
2277.000000	100.711191
2276.000000	100.710609
2275.000000	100.710011
2274.000000	100.709413
2273.000000	100.708829
2272.000000	100.708270
2271.000000	100.707744
2270.000000	100.707244
2269.000000	100.706746
2268.000000	100.706221
2267.000000	100.705649
2266.000000	100.705058
2265.000000	100.704534
2264.000000	100.704137
2263.000000	100.703849
2262.000000	100.703584
2261.000000	100.703272
2260.000000	100.702904
2259.000000	100.702504
2258.000000	100.702109
2257.000000	100.701742
2256.000000	100.701404
2255.000000	100.701076
2254.000000	100.700746
2253.000000	100.700415
2252.000000	100.700092
2251.000000	100.699782
2250.000000	100.699478
2249.000000	100.699165
2248.000000	100.698818
2247.000000	100.698417
2246.000000	100.697973
2245.000000	100.697555
2244.000000	100.697238
2243.000000	100.697032
2242.000000	100.696858
2241.000000	100.696625
2240.000000	100.696347
2239.000000	100.696118
2238.000000	100.696003
2237.000000	100.695978
2236.000000	100.695968
2235.000000	100.695894
2234.000000	100.695711
2233.000000	100.695430
2232.000000	100.695144
2231.000000	100.694966
2230.000000	100.694916
2229.000000	100.694898
2228.000000	100.694789
2227.000000	100.694527
2226.000000	100.694153
2225.000000	100.693831
2224.000000	100.693753
2223.000000	100.693976
2222.000000	100.694397
2221.000000	100.694830
2220.000000	100.695126
2219.000000	100.695237
2218.000000	100.695239
2217.000000	100.695278
2216.000000	100.695366
2215.000000	100.695293
2214.000000	100.694893
2213.000000	100.694359
2212.000000	100.694062
2211.000000	100.694091
2210.000000	100.694192
2209.000000	100.694225
2208.000000	100.694417
2207.000000	100.695041
2206.000000	100.696051
2205.000000	100.697131
2204.000000	100.697978
2203.000000	100.698489
2202.000000	100.698765
2201.000000	100.699010
2200.000000	100.699342
2199.000000	100.699677
2198.000000	100.699897
2197.000000	100.700072
2196.000000	100.700368
2195.000000	100.700782
2194.000000	100.701114
2193.000000	100.701172
2192.000000	100.700889
2191.000000	100.700321
2190.000000	100.699731
2189.000000	100.699578
2188.000000	100.700145
2187.000000	100.701247
2186.000000	100.702327
2185.000000	100.702931
2184.000000	100.702988
2183.000000	100.702635
2182.000000	100.702050
2181.000000	100.701487
2180.000000	100.701230
2179.000000	100.701344
2178.000000	100.701623
2177.000000	100.701901
2176.000000	100.702293
2175.000000	100.702949
2174.000000	100.703750
2173.000000	100.704419
2172.000000	100.704826
2171.000000	100.705041
2170.000000	100.705184
2169.000000	100.705338
2168.000000	100.705535
2167.000000	100.705755
2166.000000	100.705941
2165.000000	100.706083
2164.000000	100.706251
2163.000000	100.706493
2162.000000	100.706772
2161.000000	100.707052
2160.000000	100.707386
2159.000000	100.707812
2158.000000	100.708233
2157.000000	100.708501
2156.000000	100.708628
2155.000000	100.708805
2154.000000	100.709214
2153.000000	100.709862
2152.000000	100.710584
2151.000000	100.711148
2150.000000	100.711412
2149.000000	100.711393
2148.000000	100.711287
2147.000000	100.711326
2146.000000	100.711577
2145.000000	100.711911
2144.000000	100.712174
2143.000000	100.712390
2142.000000	100.712733
2141.000000	100.713320
2140.000000	100.714092
2139.000000	100.714872
2138.000000	100.715495
2137.000000	100.715882
2136.000000	100.716033
2135.000000	100.715993
2134.000000	100.715862
2133.000000	100.715808
2132.000000	100.715986
2131.000000	100.716430
2130.000000	100.717020
2129.000000	100.717589
2128.000000	100.718031
2127.000000	100.718329
2126.000000	100.718534
2125.000000	100.718768
2124.000000	100.719146
2123.000000	100.719677
2122.000000	100.720261
2121.000000	100.720846
2120.000000	100.721477
2119.000000	100.722165
2118.000000	100.722786
2117.000000	100.723229
2116.000000	100.723605
2115.000000	100.724211
2114.000000	100.725234
2113.000000	100.726502
2112.000000	100.727583
2111.000000	100.728168
2110.000000	100.728331
2109.000000	100.728345
2108.000000	100.728341
2107.000000	100.728280
2106.000000	100.728249
2105.000000	100.728555
2104.000000	100.729413
2103.000000	100.730626
2102.000000	100.731768
2101.000000	100.732614
2100.000000	100.733229
2099.000000	100.733754
2098.000000	100.734332
2097.000000	100.735129
2096.000000	100.736143
2095.000000	100.737017
2094.000000	100.737368
2093.000000	100.737348
2092.000000	100.737616
2091.000000	100.738558
2090.000000	100.739760
2089.000000	100.740450
2088.000000	100.740329
2087.000000	100.739727
2086.000000	100.739179
2085.000000	100.738999
2084.000000	100.739193
2083.000000	100.739584
2082.000000	100.740020
2081.000000	100.740568
2080.000000	100.741391
2079.000000	100.742444
2078.000000	100.743497
2077.000000	100.744507
2076.000000	100.745643
2075.000000	100.746843
2074.000000	100.747644
2073.000000	100.747605
2072.000000	100.746725
2071.000000	100.745428
2070.000000	100.744351
2069.000000	100.743992
2068.000000	100.744291
2067.000000	100.744636
2066.000000	100.744609
2065.000000	100.744601
2064.000000	100.745187
2063.000000	100.746063
2062.000000	100.746310
2061.000000	100.745698
2060.000000	100.745013
2059.000000	100.744968
2058.000000	100.745434
2057.000000	100.745937
2056.000000	100.746255
2055.000000	100.746263
2054.000000	100.745844
2053.000000	100.745280
2052.000000	100.745134
2051.000000	100.745393
2050.000000	100.745337
2049.000000	100.744578
2048.000000	100.743620
2047.000000	100.743007
2046.000000	100.742479
2045.000000	100.741541
2044.000000	100.740333
2043.000000	100.739382
2042.000000	100.738782
2041.000000	100.738115
2040.000000	100.737020
2039.000000	100.735557
2038.000000	100.734184
2037.000000	100.733527
2036.000000	100.733908
2035.000000	100.734884
2034.000000	100.735424
2033.000000	100.734884
2032.000000	100.733484
2031.000000	100.731811
2030.000000	100.730200
2029.000000	100.728855
2028.000000	100.728147
2027.000000	100.728233
2026.000000	100.728577
2025.000000	100.728424
2024.000000	100.727704
2023.000000	100.726969
2022.000000	100.726587
2021.000000	100.726505
2020.000000	100.726698
2019.000000	100.727260
2018.000000	100.727919
2017.000000	100.728029
2016.000000	100.727302
2015.000000	100.726188
2014.000000	100.725322
2013.000000	100.724843
2012.000000	100.724430
2011.000000	100.723761
2010.000000	100.722770
2009.000000	100.721640
2008.000000	100.720650
2007.000000	100.719902
2006.000000	100.719222
2005.000000	100.718381
2004.000000	100.717341
2003.000000	100.716255
2002.000000	100.715348
2001.000000	100.714866
2000.000000	100.714907
1999.000000	100.715153
1998.000000	100.715070
1997.000000	100.714569
1996.000000	100.714147
1995.000000	100.714155
1994.000000	100.714286
1993.000000	100.714101
1992.000000	100.713771
1991.000000	100.713662
1990.000000	100.713452
1989.000000	100.712480
1988.000000	100.710820
1987.000000	100.709366
1986.000000	100.708707
1985.000000	100.708466
1984.000000	100.707947
1983.000000	100.707084
1982.000000	100.706403
1981.000000	100.706252
1980.000000	100.706473
1979.000000	100.706704
1978.000000	100.706728
1977.000000	100.706534
1976.000000	100.706200
1975.000000	100.705852
1974.000000	100.705673
1973.000000	100.705844
1972.000000	100.706371
1971.000000	100.706927
1970.000000	100.706947
1969.000000	100.706052
1968.000000	100.704423
1967.000000	100.702786
1966.000000	100.701789
1965.000000	100.701554
1964.000000	100.701881
1963.000000	100.702549
1962.000000	100.703308
1961.000000	100.703906
1960.000000	100.704327
1959.000000	100.704810
1958.000000	100.705499
1957.000000	100.706238
1956.000000	100.706824
1955.000000	100.707207
1954.000000	100.707382
1953.000000	100.707320
1952.000000	100.707108
1951.000000	100.706902
1950.000000	100.706598
1949.000000	100.706024
1948.000000	100.705405
1947.000000	100.705017
1946.000000	100.704400
1945.000000	100.702729
1944.000000	100.700268
1943.000000	100.698722
1942.000000	100.699376
1941.000000	100.701527
1940.000000	100.703451
1939.000000	100.704290
1938.000000	100.704287
1937.000000	100.703844
1936.000000	100.703201
1935.000000	100.703006
1934.000000	100.704254
1933.000000	100.707067
1932.000000	100.710097
1931.000000	100.711717
1930.000000	100.711471
1929.000000	100.710236
1928.000000	100.708861
1927.000000	100.707009
1926.000000	100.703884
1925.000000	100.699847
1924.000000	100.696772
1923.000000	100.696141
1922.000000	100.697181
1921.000000	100.697885
1920.000000	100.697323
1919.000000	100.696080
1918.000000	100.694729
1917.000000	100.692625
1916.000000	100.688773
1915.000000	100.683151
1914.000000	100.676980
1913.000000	100.672101
1912.000000	100.669648
1911.000000	100.669189
1910.000000	100.669232
1909.000000	100.668670
1908.000000	100.667275
1907.000000	100.664999
1906.000000	100.661675
1905.000000	100.657721
1904.000000	100.654490
1903.000000	100.652898
1902.000000	100.652208
1901.000000	100.650874
1900.000000	100.648061
1899.000000	100.644110
1898.000000	100.640099
1897.000000	100.637167
1896.000000	100.635762
1895.000000	100.634904
1894.000000	100.632800
1893.000000	100.628879
1892.000000	100.624507
1891.000000	100.621610
1890.000000	100.621203
1889.000000	100.622921
1888.000000	100.625289
1887.000000	100.626177
1886.000000	100.623912
1885.000000	100.618994
1884.000000	100.614123
1883.000000	100.611412
1882.000000	100.610486
1881.000000	100.610224
1880.000000	100.610748
1879.000000	100.612486
1878.000000	100.614579
1877.000000	100.615554
1876.000000	100.615186
1875.000000	100.614379
1874.000000	100.613436
1873.000000	100.611996
1872.000000	100.610508
1871.000000	100.610428
1870.000000	100.612846
1869.000000	100.617128
1868.000000	100.621310
1867.000000	100.623837
1866.000000	100.624426
1865.000000	100.624303
1864.000000	100.625607
1863.000000	100.629040
1862.000000	100.632469
1861.000000	100.633305
1860.000000	100.631922
1859.000000	100.630959
1858.000000	100.631733
1857.000000	100.633566
1856.000000	100.636159
1855.000000	100.640298
1854.000000	100.645915
1853.000000	100.651521
1852.000000	100.656030
1851.000000	100.659966
1850.000000	100.664577
1849.000000	100.670156
1848.000000	100.675806
1847.000000	100.680358
1846.000000	100.683183
1845.000000	100.684341
1844.000000	100.684187
1843.000000	100.683110
1842.000000	100.681766
1841.000000	100.680908
1840.000000	100.680911
1839.000000	100.681439
1838.000000	100.681285
1837.000000	100.679739
1836.000000	100.678182
1835.000000	100.678713
1834.000000	100.681287
1833.000000	100.683442
1832.000000	100.682836
1831.000000	100.679723
1830.000000	100.676760
1829.000000	100.675829
1828.000000	100.676465
1827.000000	100.677386
1826.000000	100.677888
1825.000000	100.677794
1824.000000	100.677100
1823.000000	100.676350
1822.000000	100.676440
1821.000000	100.677957
1820.000000	100.680810
1819.000000	100.684196
1818.000000	100.686783
1817.000000	100.687475
1816.000000	100.686493
1815.000000	100.685182
1814.000000	100.684660
1813.000000	100.684945
1812.000000	100.685418
1811.000000	100.685674
1810.000000	100.685554
1809.000000	100.685175
1808.000000	100.685114
1807.000000	100.685733
1806.000000	100.686558
1805.000000	100.686843
1804.000000	100.686549
1803.000000	100.686323
1802.000000	100.686694
1801.000000	100.687430
1800.000000	100.687787
1799.000000	100.687375
1798.000000	100.686458
1797.000000	100.685800
1796.000000	100.686295
1795.000000	100.688231
1794.000000	100.691017
1793.000000	100.693638
1792.000000	100.695550
1791.000000	100.697062
1790.000000	100.698388
1789.000000	100.699117
1788.000000	100.698940
1787.000000	100.698146
1786.000000	100.697408
1785.000000	100.697474
1784.000000	100.698820
1783.000000	100.700990
1782.000000	100.702847
1781.000000	100.703828
1780.000000	100.704652
1779.000000	100.706534
1778.000000	100.709428
1777.000000	100.711841
1776.000000	100.712159
1775.000000	100.709827
1774.000000	100.706188
1773.000000	100.704399
1772.000000	100.706375
1771.000000	100.710402
1770.000000	100.713603
1769.000000	100.714532
1768.000000	100.713695
1767.000000	100.713013
1766.000000	100.713804
1765.000000	100.715768
1764.000000	100.717960
1763.000000	100.719921
1762.000000	100.721335
1761.000000	100.721477
1760.000000	100.720267
1759.000000	100.718564
1758.000000	100.717061
1757.000000	100.716038
1756.000000	100.715117
1755.000000	100.713912
1754.000000	100.712243
1753.000000	100.709450
1752.000000	100.704679
1751.000000	100.698302
1750.000000	100.692706
1749.000000	100.690048
1748.000000	100.689627
1747.000000	100.688853
1746.000000	100.686789
1745.000000	100.685024
1744.000000	100.685158
1743.000000	100.686501
1742.000000	100.686649
1741.000000	100.684508
1740.000000	100.682395
1739.000000	100.683487
1738.000000	100.687775
1737.000000	100.692451
1736.000000	100.695328
1735.000000	100.696745
1734.000000	100.697340
1733.000000	100.696513
1732.000000	100.694979
1731.000000	100.693584
1730.000000	100.692006
1729.000000	100.690530
1728.000000	100.689573
1727.000000	100.689423
1726.000000	100.690109
1725.000000	100.691504
1724.000000	100.693023
1723.000000	100.693868
1722.000000	100.693388
1721.000000	100.691762
1720.000000	100.690185
1719.000000	100.690848
1718.000000	100.694633
1717.000000	100.698031
1716.000000	100.698274
1715.000000	100.696734
1714.000000	100.694660
1713.000000	100.692601
1712.000000	100.691568
1711.000000	100.691975
1710.000000	100.692764
1709.000000	100.692358
1708.000000	100.690407
1707.000000	100.688102
1706.000000	100.686576
1705.000000	100.685358
1704.000000	100.683772
1703.000000	100.681420
1702.000000	100.677583
1701.000000	100.672479
1700.000000	100.668469
1699.000000	100.667566
1698.000000	100.668481
1697.000000	100.668376
1696.000000	100.666501
1695.000000	100.664419
1694.000000	100.662860
1693.000000	100.660950
1692.000000	100.658006
1691.000000	100.654751
1690.000000	100.652287
1689.000000	100.650751
1688.000000	100.649198
1687.000000	100.646311
1686.000000	100.641078
1685.000000	100.633835
1684.000000	100.627110
1683.000000	100.622963
1682.000000	100.620874
1681.000000	100.619089
1680.000000	100.616603
1679.000000	100.614006
1678.000000	100.611544
1677.000000	100.608626
1676.000000	100.604506
1675.000000	100.599699
1674.000000	100.595728
1673.000000	100.593150
1672.000000	100.590819
1671.000000	100.587579
1670.000000	100.583201
1669.000000	100.578362
1668.000000	100.574050
1667.000000	100.570566
1666.000000	100.567348
1665.000000	100.563443
1664.000000	100.558512
1663.000000	100.553401
1662.000000	100.549424
1661.000000	100.547344
1660.000000	100.546178
1659.000000	100.544066
1658.000000	100.540014
1657.000000	100.534905
1656.000000	100.529336
1655.000000	100.523117
1654.000000	100.517959
1653.000000	100.515473
1652.000000	100.514291
1651.000000	100.513572
1650.000000	100.511303
1649.000000	100.504899
1648.000000	100.497691
1647.000000	100.494880
1646.000000	100.497785
1645.000000	100.502262
1644.000000	100.506106
1643.000000	100.508555
1642.000000	100.508534
1641.000000	100.504955
1640.000000	100.498431
1639.000000	100.491272
1638.000000	100.485316
1637.000000	100.481676
1636.000000	100.480732
1635.000000	100.481032
1634.000000	100.482469
1633.000000	100.486044
1632.000000	100.490948
1631.000000	100.495538
1630.000000	100.498415
1629.000000	100.499759
1628.000000	100.501037
1627.000000	100.502816
1626.000000	100.504231
1625.000000	100.504685
1624.000000	100.504807
1623.000000	100.505170
1622.000000	100.505773
1621.000000	100.507355
1620.000000	100.509931
1619.000000	100.511683
1618.000000	100.510800
1617.000000	100.508921
1616.000000	100.510578
1615.000000	100.516752
1614.000000	100.524072
1613.000000	100.529826
1612.000000	100.534348
1611.000000	100.538720
1610.000000	100.542559
1609.000000	100.545197
1608.000000	100.547356
1607.000000	100.549938
1606.000000	100.552681
1605.000000	100.555141
1604.000000	100.557773
1603.000000	100.561691
1602.000000	100.567649
1601.000000	100.575432
1600.000000	100.583688
1599.000000	100.590206
1598.000000	100.593278
1597.000000	100.593130
1596.000000	100.591821
1595.000000	100.591532
1594.000000	100.593110
1593.000000	100.596389
1592.000000	100.600864
1591.000000	100.605499
1590.000000	100.608975
1589.000000	100.611069
1588.000000	100.613001
1587.000000	100.615771
1586.000000	100.618778
1585.000000	100.620770
1584.000000	100.621353
1583.000000	100.621216
1582.000000	100.621738
1581.000000	100.624155
1580.000000	100.628337
1579.000000	100.632473
1578.000000	100.634707
1577.000000	100.635328
1576.000000	100.636603
1575.000000	100.639282
1574.000000	100.642188
1573.000000	100.644470
1572.000000	100.646024
1571.000000	100.647362
1570.000000	100.648352
1569.000000	100.648598
1568.000000	100.648752
1567.000000	100.649614
1566.000000	100.650645
1565.000000	100.651174
1564.000000	100.651321
1563.000000	100.651604
1562.000000	100.652003
1561.000000	100.651899
1560.000000	100.652132
1559.000000	100.652137
1558.000000	100.649370
1557.000000	100.646943
1556.000000	100.647213
1555.000000	100.648333
1554.000000	100.649860
1553.000000	100.650779
1552.000000	100.650952
1551.000000	100.650568
1550.000000	100.650066
1549.000000	100.649190
1548.000000	100.647668
1547.000000	100.645819
1546.000000	100.644445
1545.000000	100.644125
1544.000000	100.644610
1543.000000	100.645041
1542.000000	100.644640
1541.000000	100.642765
1540.000000	100.639431
1539.000000	100.636254
1538.000000	100.634870
1537.000000	100.634902
1536.000000	100.635048
1535.000000	100.634879
1534.000000	100.634677
1533.000000	100.634522
1532.000000	100.634040
1531.000000	100.633300
1530.000000	100.632363
1529.000000	100.631221
1528.000000	100.630111
1527.000000	100.629343
1526.000000	100.629020
1525.000000	100.629021
1524.000000	100.629313
1523.000000	100.630083
1522.000000	100.631021
1521.000000	100.630614
1520.000000	100.628183
1519.000000	100.624885
1518.000000	100.621731
1517.000000	100.619151
1516.000000	100.617509
1515.000000	100.616845
1514.000000	100.616687
1513.000000	100.616230
1512.000000	100.615250
1511.000000	100.614203
1510.000000	100.613335
1509.000000	100.612285
1508.000000	100.611621
1507.000000	100.612619
1506.000000	100.612996
1505.000000	100.611216
1504.000000	100.609368
1503.000000	100.608245
1502.000000	100.607592
1501.000000	100.605997
1500.000000	100.602128
1499.000000	100.596438
1498.000000	100.591544
1497.000000	100.588972
1496.000000	100.587608
1495.000000	100.586485
1494.000000	100.585687
1493.000000	100.584746
1492.000000	100.582438
1491.000000	100.577878
1490.000000	100.571462
1489.000000	100.565006
1488.000000	100.560912
1487.000000	100.559916
1486.000000	100.559766
1485.000000	100.558029
1484.000000	100.554497
1483.000000	100.550754
1482.000000	100.548454
1481.000000	100.547241
1480.000000	100.544937
1479.000000	100.539804
1478.000000	100.532089
1477.000000	100.523995
1476.000000	100.518357
1475.000000	100.515772
1474.000000	100.513330
1473.000000	100.506671
1472.000000	100.494541
1471.000000	100.481166
1470.000000	100.470790
1469.000000	100.464060
1468.000000	100.460331
1467.000000	100.459006
1466.000000	100.459135
1465.000000	100.459290
1464.000000	100.458240
1463.000000	100.455764
1462.000000	100.451799
1461.000000	100.446109
1460.000000	100.439724
1459.000000	100.435348
1458.000000	100.436214
1457.000000	100.440302
1456.000000	100.440708
1455.000000	100.436342
1454.000000	100.430276
1453.000000	100.423586
1452.000000	100.417388
1451.000000	100.413174
1450.000000	100.411761
1449.000000	100.411839
1448.000000	100.411370
1447.000000	100.409687
1446.000000	100.407707
1445.000000	100.406051
1444.000000	100.403952
1443.000000	100.400810
1442.000000	100.397519
1441.000000	100.395799
1440.000000	100.395890
1439.000000	100.395814
1438.000000	100.393336
1437.000000	100.388627
1436.000000	100.384868
1435.000000	100.384731
1434.000000	100.386932
1433.000000	100.387797
1432.000000	100.385728
1431.000000	100.382937
1430.000000	100.383644
1429.000000	100.389287
1428.000000	100.396658
1427.000000	100.401259
1426.000000	100.401708
1425.000000	100.401262
1424.000000	100.403792
1423.000000	100.409296
1422.000000	100.414875
1421.000000	100.418763
1420.000000	100.421723
1419.000000	100.425022
1418.000000	100.428494
1417.000000	100.431536
1416.000000	100.434546
1415.000000	100.438494
1414.000000	100.444683
1413.000000	100.453907
1412.000000	100.465214
1411.000000	100.475831
1410.000000	100.483775
1409.000000	100.489827
1408.000000	100.496503
1407.000000	100.504983
1406.000000	100.513792
1405.000000	100.521080
1404.000000	100.526316
1403.000000	100.529652
1402.000000	100.530866
1401.000000	100.530673
1400.000000	100.532789
1399.000000	100.541248
1398.000000	100.555294
1397.000000	100.570228
1396.000000	100.582705
1395.000000	100.591997
1394.000000	100.598511
1393.000000	100.603186
1392.000000	100.607254
1391.000000	100.612073
1390.000000	100.618479
1389.000000	100.626504
1388.000000	100.635835
1387.000000	100.645678
1386.000000	100.654471
1385.000000	100.660905
1384.000000	100.664716
1383.000000	100.666703
1382.000000	100.668234
1381.000000	100.670488
1380.000000	100.674079
1379.000000	100.678352
1378.000000	100.681500
1377.000000	100.682453
1376.000000	100.682542
1375.000000	100.684371
1374.000000	100.688887
1373.000000	100.694589
1372.000000	100.699935
1371.000000	100.704398
1370.000000	100.707248
1369.000000	100.707804
1368.000000	100.706762
1367.000000	100.706332
1366.000000	100.707855
1365.000000	100.710128
1364.000000	100.711161
1363.000000	100.710965
1362.000000	100.711540
1361.000000	100.714016
1360.000000	100.717140
1359.000000	100.719021
1358.000000	100.719401
1357.000000	100.719750
1356.000000	100.721427
1355.000000	100.724286
1354.000000	100.727381
1353.000000	100.730397
1352.000000	100.733840
1351.000000	100.737488
1350.000000	100.739687
1349.000000	100.739434
1348.000000	100.737885
1347.000000	100.737290
1346.000000	100.738782
1345.000000	100.741870
1344.000000	100.745398
1343.000000	100.748231
1342.000000	100.749406
1341.000000	100.748659
1340.000000	100.746931
1339.000000	100.745714
1338.000000	100.745842
1337.000000	100.747189
1336.000000	100.748997
1335.000000	100.749914
1334.000000	100.748367
1333.000000	100.744072
1332.000000	100.739194
1331.000000	100.736912
1330.000000	100.738471
1329.000000	100.742357
1328.000000	100.746236
1327.000000	100.748786
1326.000000	100.749877
1325.000000	100.750157
1324.000000	100.750336
1323.000000	100.750270
1322.000000	100.748794
1321.000000	100.745213
1320.000000	100.740961
1319.000000	100.738823
1318.000000	100.739942
1317.000000	100.742559
1316.000000	100.744304
1315.000000	100.744672
1314.000000	100.744856
1313.000000	100.746067
1312.000000	100.748540
1311.000000	100.751440
1310.000000	100.753162
1309.000000	100.752288
1308.000000	100.748923
1307.000000	100.744772
1306.000000	100.741606
1305.000000	100.740159
1304.000000	100.740449
1303.000000	100.742203
1302.000000	100.744407
1301.000000	100.745483
1300.000000	100.744768
1299.000000	100.743388
1298.000000	100.743066
1297.000000	100.744410
1296.000000	100.746767
1295.000000	100.749035
1294.000000	100.750174
1293.000000	100.749694
1292.000000	100.748311
1291.000000	100.747429
1290.000000	100.747247
1289.000000	100.746192
1288.000000	100.743028
1287.000000	100.738583
1286.000000	100.734393
1285.000000	100.730891
1284.000000	100.728348
1283.000000	100.728207
1282.000000	100.731176
1281.000000	100.734666
1280.000000	100.734730
1279.000000	100.730924
1278.000000	100.727276
1277.000000	100.727598
1276.000000	100.731467
1275.000000	100.735581
1274.000000	100.737673
1273.000000	100.737866
1272.000000	100.736989
1271.000000	100.735071
1270.000000	100.731849
1269.000000	100.728180
1268.000000	100.726338
1267.000000	100.728484
1266.000000	100.734576
1265.000000	100.742028
1264.000000	100.747897
1263.000000	100.751130
1262.000000	100.752284
1261.000000	100.751671
1260.000000	100.748880
1259.000000	100.744075
1258.000000	100.738736
1257.000000	100.734534
1256.000000	100.731989
1255.000000	100.730428
1254.000000	100.728675
1253.000000	100.725578
1252.000000	100.720475
1251.000000	100.713604
1250.000000	100.705755
1249.000000	100.697240
1248.000000	100.687680
1247.000000	100.677387
1246.000000	100.668310
1245.000000	100.662242
1244.000000	100.657936
1243.000000	100.651456
1242.000000	100.640470
1241.000000	100.627166
1240.000000	100.615375
1239.000000	100.605384
1238.000000	100.593800
1237.000000	100.579038
1236.000000	100.564618
1235.000000	100.555216
1234.000000	100.550590
1233.000000	100.545299
1232.000000	100.533859
1231.000000	100.514889
1230.000000	100.491229
1229.000000	100.467648
1228.000000	100.447587
1227.000000	100.429891
1226.000000	100.408693
1225.000000	100.378331
1224.000000	100.338742
1223.000000	100.295064
1222.000000	100.252027
1221.000000	100.209828
1220.000000	100.165211
1219.000000	100.114904
1218.000000	100.058066
1217.000000	99.996845
1216.000000	99.934736
1215.000000	99.873465
1214.000000	99.811952
1213.000000	99.749243
1212.000000	99.686792
1211.000000	99.625892
1210.000000	99.564663
1209.000000	99.500569
1208.000000	99.434392
1207.000000	99.368445
1206.000000	99.302743
1205.000000	99.237017
1204.000000	99.174294
1203.000000	99.116908
1202.000000	99.060461
1201.000000	98.998081
1200.000000	98.930154
1199.000000	98.863411
1198.000000	98.800269
1197.000000	98.736168
1196.000000	98.668683
1195.000000	98.601854
1194.000000	98.538743
1193.000000	98.475991
1192.000000	98.409121
1191.000000	98.338140
1190.000000	98.264881
1189.000000	98.189729
1188.000000	98.114169
1187.000000	98.041900
1186.000000	97.973643
1185.000000	97.904369
1184.000000	97.828657
1183.000000	97.745737
1182.000000	97.657725
1181.000000	97.567175
1180.000000	97.478150
1179.000000	97.394602
1178.000000	97.314616
1177.000000	97.230630
1176.000000	97.138274
1175.000000	97.041245
1174.000000	96.945467
1173.000000	96.852863
1172.000000	96.762705
1171.000000	96.673599
1170.000000	96.581546
1169.000000	96.482003
1168.000000	96.377722
1167.000000	96.279973
1166.000000	96.199038
1165.000000	96.138331
1164.000000	96.099856
1163.000000	96.088445
1162.000000	96.105728
1161.000000	96.144121
1160.000000	96.190029
1159.000000	96.229569
1158.000000	96.250206
1157.000000	96.243028
1156.000000	96.207474
1155.000000	96.151120
1154.000000	96.082672
1153.000000	96.007587
1152.000000	95.930654
1151.000000	95.857003
1150.000000	95.787777
1149.000000	95.719498
1148.000000	95.650017
1147.000000	95.580729
1146.000000	95.511722
1145.000000	95.440281
1144.000000	95.365980
1143.000000	95.291733
1142.000000	95.218062
1141.000000	95.142039
1140.000000	95.063383
1139.000000	94.985310
1138.000000	94.907655
1137.000000	94.825891
1136.000000	94.738952
1135.000000	94.651385
1134.000000	94.565824
1133.000000	94.480272
1132.000000	94.394632
1131.000000	94.312113
1130.000000	94.231871
1129.000000	94.148142
1128.000000	94.059209
1127.000000	93.969468
1126.000000	93.880445
1125.000000	93.788327
1124.000000	93.692866
1123.000000	93.599362
1122.000000	93.508485
1121.000000	93.413844
1120.000000	93.313853
1119.000000	93.216264
1118.000000	93.126103
1117.000000	93.038929
1116.000000	92.950929
1115.000000	92.865659
1114.000000	92.785125
1113.000000	92.704157
1112.000000	92.619792
1111.000000	92.536628
1110.000000	92.457201
1109.000000	92.377051
1108.000000	92.294939
1107.000000	92.217535
1106.000000	92.147172
1105.000000	92.074988
1104.000000	91.993797
1103.000000	91.909065
1102.000000	91.829952
1101.000000	91.757335
1100.000000	91.687296
1099.000000	91.618813
1098.000000	91.551321
1097.000000	91.482076
1096.000000	91.410848
1095.000000	91.340664
1094.000000	91.270475
1093.000000	91.195448
1092.000000	91.117652
1091.000000	91.046687
1090.000000	90.985285
1089.000000	90.923956
1088.000000	90.854900
1087.000000	90.782418
1086.000000	90.715311
1085.000000	90.657547
1084.000000	90.609754
1083.000000	90.570288
1082.000000	90.531078
1081.000000	90.481986
1080.000000	90.422757
1079.000000	90.361969
1078.000000	90.302472
1077.000000	90.238089
1076.000000	90.166133
1075.000000	90.090682
1074.000000	90.010813
1073.000000	89.918463
1072.000000	89.811780
1071.000000	89.697859
1070.000000	89.577773
1069.000000	89.441391
1068.000000	89.282853
1067.000000	89.109908
1066.000000	88.932265
1065.000000	88.751043
1064.000000	88.565740
1063.000000	88.381825
1062.000000	88.205544
1061.000000	88.039297
1060.000000	87.885060
1059.000000	87.742917
1058.000000	87.604738
1057.000000	87.460110
1056.000000	87.309198
1055.000000	87.158047
1054.000000	87.002012
1053.000000	86.828961
1052.000000	86.639949
1051.000000	86.448848
1050.000000	86.257488
1049.000000	86.051146
1048.000000	85.824304
1047.000000	85.590491
1046.000000	85.361557
1045.000000	85.136294
1044.000000	84.912836
1043.000000	84.693120
1042.000000	84.471598
1041.000000	84.238731
1040.000000	84.000780
1039.000000	83.777802
1038.000000	83.577115
1037.000000	83.387463
1036.000000	83.203693
1035.000000	83.035972
1034.000000	82.887779
1033.000000	82.746667
1032.000000	82.606365
1031.000000	82.478508
1030.000000	82.372024
1029.000000	82.278580
1028.000000	82.188082
1027.000000	82.102664
1026.000000	82.026388
1025.000000	81.956054
1024.000000	81.889729
1023.000000	81.830055
1022.000000	81.773399
1021.000000	81.710641
1020.000000	81.643084
1019.000000	81.581467
1018.000000	81.525301
1017.000000	81.460707
1016.000000	81.383645
1015.000000	81.307805
1014.000000	81.243762
1013.000000	81.187058
1012.000000	81.131985
1011.000000	81.080606
1010.000000	81.032987
1009.000000	80.984606
1008.000000	80.938176
1007.000000	80.902750
1006.000000	80.877848
1005.000000	80.854003
1004.000000	80.831014
1003.000000	80.818698
1002.000000	80.817634
1001.000000	80.816943
1000.000000	80.813106
999.000000	80.812978
998.000000	80.816656
997.000000	80.816869
996.000000	80.817750
995.000000	80.833747
994.000000	80.866079
993.000000	80.899891
992.000000	80.928941
991.000000	80.963609
990.000000	81.009436
989.000000	81.057400
988.000000	81.101610
987.000000	81.149172
986.000000	81.206744
985.000000	81.273869
984.000000	81.353689
983.000000	81.453350
982.000000	81.569756
981.000000	81.691516
980.000000	81.818367
979.000000	81.961781
978.000000	82.123909
977.000000	82.293916
976.000000	82.467913
975.000000	82.653813
974.000000	82.852298
973.000000	83.051466
972.000000	83.245902
971.000000	83.444287
970.000000	83.652269
969.000000	83.863102
968.000000	84.070424
967.000000	84.276423
966.000000	84.483092
965.000000	84.688443
964.000000	84.893996
963.000000	85.102471
962.000000	85.306079
961.000000	85.491741
960.000000	85.660926
959.000000	85.830852
958.000000	86.012764
957.000000	86.200792
956.000000	86.383710
955.000000	86.554720
954.000000	86.709028
953.000000	86.845963
952.000000	86.975427
951.000000	87.109173
950.000000	87.244159
949.000000	87.367467
948.000000	87.477382
947.000000	87.584639
946.000000	87.692131
945.000000	87.789174
944.000000	87.868693
943.000000	87.935609
942.000000	87.996063
941.000000	88.052237
940.000000	88.110037
939.000000	88.177307
938.000000	88.251228
937.000000	88.321142
936.000000	88.386020
935.000000	88.455238
934.000000	88.530629
933.000000	88.603052
932.000000	88.669038
931.000000	88.735030
930.000000	88.802329
929.000000	88.864057
928.000000	88.921127
927.000000	88.985272
926.000000	89.060851
925.000000	89.138111
924.000000	89.209438
923.000000	89.278160
922.000000	89.346549
921.000000	89.409308
920.000000	89.464255
919.000000	89.516561
918.000000	89.567879
917.000000	89.614078
916.000000	89.657284
915.000000	89.706644
914.000000	89.763843
913.000000	89.822324
912.000000	89.884271
911.000000	89.962761
910.000000	90.062645
909.000000	90.175085
908.000000	90.295725
907.000000	90.431952
906.000000	90.586483
905.000000	90.750828
904.000000	90.922400
903.000000	91.111704
902.000000	91.323253
901.000000	91.543163
900.000000	91.754732
899.000000	91.955084
898.000000	92.149134
897.000000	92.339292
896.000000	92.528432
895.000000	92.721011
894.000000	92.912780
893.000000	93.089890
892.000000	93.246369
891.000000	93.393331
890.000000	93.543828
889.000000	93.697524
888.000000	93.847677
887.000000	93.993694
886.000000	94.137669
885.000000	94.275658
884.000000	94.401314
883.000000	94.513653
882.000000	94.615381
881.000000	94.709286
880.000000	94.801885
879.000000	94.903776
878.000000	95.019232
877.000000	95.141067
876.000000	95.261867
875.000000	95.384525
874.000000	95.516063
873.000000	95.656922
872.000000	95.802245
871.000000	95.948808
870.000000	96.095337
869.000000	96.239926
868.000000	96.381688
867.000000	96.522710
866.000000	96.665782
865.000000	96.811578
864.000000	96.958057
863.000000	97.100083
862.000000	97.230714
861.000000	97.346872
860.000000	97.453045
859.000000	97.555775
858.000000	97.655964
857.000000	97.750402
856.000000	97.837952
855.000000	97.918526
854.000000	97.989249
853.000000	98.049405
852.000000	98.107150
851.000000	98.172851
850.000000	98.246368
849.000000	98.318781
848.000000	98.385149
847.000000	98.445908
846.000000	98.496553
845.000000	98.527589
844.000000	98.537449
843.000000	98.535895
842.000000	98.530866
841.000000	98.519916
840.000000	98.497815
839.000000	98.463900
838.000000	98.417474
837.000000	98.354050
836.000000	98.273095
835.000000	98.185810
834.000000	98.110021
833.000000	98.058187
832.000000	98.030579
831.000000	98.015960
830.000000	97.999940
829.000000	97.979685
828.000000	97.970231
827.000000	97.988359
826.000000	98.030580
825.000000	98.076730
824.000000	98.114073
823.000000	98.144902
822.000000	98.171958
821.000000	98.192734
820.000000	98.209322
819.000000	98.228447
818.000000	98.248460
817.000000	98.256947
816.000000	98.242186
815.000000	98.197181
814.000000	98.113557
813.000000	97.984484
812.000000	97.815273
811.000000	97.617367
810.000000	97.387285
809.000000	97.104842
808.000000	96.758856
807.000000	96.362675
806.000000	95.937422
805.000000	95.493058
804.000000	95.036393
803.000000	94.585929
802.000000	94.166709
801.000000	93.799302
800.000000	93.502281
799.000000	93.292981
798.000000	93.174980
797.000000	93.134808
796.000000	93.158024
795.000000	93.236456
794.000000	93.354398
793.000000	93.483857
792.000000	93.603311
791.000000	93.709286
790.000000	93.801891
789.000000	93.870908
788.000000	93.903697
787.000000	93.895160
786.000000	93.841951
785.000000	93.738341
784.000000	93.587692
783.000000	93.409623
782.000000	93.228003
781.000000	93.060587
780.000000	92.925956
779.000000	92.846310
778.000000	92.832129
777.000000	92.874680
776.000000	92.962830
775.000000	93.095521
774.000000	93.267544
773.000000	93.455102
772.000000	93.629097
771.000000	93.776691
770.000000	93.900613
769.000000	94.004600
768.000000	94.089997
767.000000	94.161071
766.000000	94.222386
765.000000	94.272684
764.000000	94.308967
763.000000	94.334684
762.000000	94.358391
761.000000	94.387477
760.000000	94.427476
759.000000	94.482173
758.000000	94.548521
757.000000	94.616297
756.000000	94.678828
755.000000	94.740607
754.000000	94.810050
753.000000	94.888691
752.000000	94.971158
751.000000	95.051314
750.000000	95.124836
749.000000	95.190274
748.000000	95.251500
747.000000	95.316051
746.000000	95.388890
745.000000	95.471463
744.000000	95.567026
743.000000	95.680136
742.000000	95.809168
741.000000	95.946363
740.000000	96.087211
739.000000	96.232481
738.000000	96.378977
737.000000	96.516749
736.000000	96.639480
735.000000	96.750379
734.000000	96.853555
733.000000	96.946335
732.000000	97.024466
731.000000	97.088595
730.000000	97.140769
729.000000	97.180066
728.000000	97.207299
727.000000	97.229902
726.000000	97.256685
725.000000	97.290526
724.000000	97.330250
723.000000	97.376923
722.000000	97.434526
721.000000	97.505789
720.000000	97.588888
719.000000	97.676646
718.000000	97.759474
717.000000	97.832253
716.000000	97.897366
715.000000	97.957335
714.000000	98.007005
713.000000	98.040201
712.000000	98.063229
711.000000	98.092237
710.000000	98.133753
709.000000	98.175334
708.000000	98.200091
707.000000	98.204645
706.000000	98.198007
705.000000	98.186913
704.000000	98.166400
703.000000	98.121163
702.000000	98.032744
701.000000	97.888876
700.000000	97.690223
699.000000	97.449384
698.000000	97.186082
697.000000	96.928601
696.000000	96.716953
695.000000	96.591271
694.000000	96.569363
693.000000	96.636955
692.000000	96.759280
691.000000	96.900731
690.000000	97.038104
689.000000	97.163879
688.000000	97.280179
687.000000	97.387580
686.000000	97.481901
685.000000	97.563882
684.000000	97.644047
683.000000	97.730265
682.000000	97.816405
681.000000	97.892476
680.000000	97.961194
679.000000	98.032985
678.000000	98.107429
677.000000	98.172941
676.000000	98.224935
675.000000	98.272047
674.000000	98.321616
673.000000	98.371112
672.000000	98.417492
671.000000	98.464270
670.000000	98.515881
669.000000	98.574012
668.000000	98.639539
667.000000	98.709300
666.000000	98.774922
665.000000	98.831013
664.000000	98.878822
663.000000	98.919877
662.000000	98.950179
661.000000	98.969289
660.000000	98.991196
659.000000	99.030459
658.000000	99.074832
657.000000	99.090830
656.000000	99.064434
655.000000	99.020071
654.000000	98.990237
653.000000	98.980722
652.000000	98.979104
651.000000	98.980119
650.000000	98.986316
