4000.000000	101.282376
3999.000000	101.280539
3998.000000	101.279250
3997.000000	101.278876
3996.000000	101.279373
3995.000000	101.280417
3994.000000	101.281483
3993.000000	101.281998
3992.000000	101.281615
3991.000000	101.280377
3990.000000	101.278707
3989.000000	101.277247
3988.000000	101.276642
3987.000000	101.277366
3986.000000	101.279417
3985.000000	101.281970
3984.000000	101.283687
3983.000000	101.283734
3982.000000	101.282419
3981.000000	101.281005
3980.000000	101.280599
3979.000000	101.281132
3978.000000	101.281471
3977.000000	101.280536
3976.000000	101.278372
3975.000000	101.276101
3974.000000	101.274786
3973.000000	101.274386
3972.000000	101.273977
3971.000000	101.272833
3970.000000	101.271148
3969.000000	101.269733
3968.000000	101.269211
3967.000000	101.269492
3966.000000	101.269851
3965.000000	101.269474
3964.000000	101.268015
3963.000000	101.265682
3962.000000	101.262861
3961.000000	101.259852
3960.000000	101.257118
3959.000000	101.255499
3958.000000	101.255778
3957.000000	101.257847
3956.000000	101.260502
3955.000000	101.262355
3954.000000	101.262988
3953.000000	101.263194
3952.000000	101.264187
3951.000000	101.266568
3950.000000	101.269804
3949.000000	101.272584
3948.000000	101.273938
3947.000000	101.273906
3946.000000	101.273047
3945.000000	101.271684
3944.000000	101.269620
3943.000000	101.266474
3942.000000	101.262335
3941.000000	101.258184
3940.000000	101.255328
3939.000000	101.254197
3938.000000	101.254019
3937.000000	101.253699
3936.000000	101.253104
3935.000000	101.253298
3934.000000	101.255287
3933.000000	101.258744
3932.000000	101.262067
3931.000000	101.263882
3930.000000	101.264053
3929.000000	101.263189
3928.000000	101.261960
3927.000000	101.261051
3926.000000	101.261249
3925.000000	101.262758
3924.000000	101.264762
3923.000000	101.266517
3922.000000	101.268483
3921.000000	101.271562
3920.000000	101.275486
3919.000000	101.278411
3918.000000	101.278464
3917.000000	101.275334
3916.000000	101.270323
3915.000000	101.265259
3914.000000	101.261583
3913.000000	101.259934
3912.000000	101.260009
3911.000000	101.260704
3910.000000	101.261052
3909.000000	101.261096
3908.000000	101.262022
3907.000000	101.265364
3906.000000	101.271816
3905.000000	101.280215
3904.000000	101.287345
3903.000000	101.290119
3902.000000	101.288270
3901.000000	101.284267
3900.000000	101.280491
3899.000000	101.276792
3898.000000	101.271609
3897.000000	101.264892
3896.000000	101.258768
3895.000000	101.255566
3894.000000	101.256054
3893.000000	101.259180
3892.000000	101.263033
3891.000000	101.265938
3890.000000	101.267194
3889.000000	101.266768
3888.000000	101.264838
3887.000000	101.262351
3886.000000	101.260985
3885.000000	101.261367
3884.000000	101.262263
3883.000000	101.261986
3882.000000	101.260082
3881.000000	101.257752
3880.000000	101.256451
3879.000000	101.256372
3878.000000	101.256635
3877.000000	101.256439
3876.000000	101.256107
3875.000000	101.256998
3874.000000	101.259583
3873.000000	101.262146
3872.000000	101.262623
3871.000000	101.261303
3870.000000	101.260298
3869.000000	101.260357
3868.000000	101.260251
3867.000000	101.258594
3866.000000	101.255194
3865.000000	101.251387
3864.000000	101.249428
3863.000000	101.250891
3862.000000	101.255227
3861.000000	101.259820
3860.000000	101.262572
3859.000000	101.263819
3858.000000	101.265481
3857.000000	101.268507
3856.000000	101.271714
3855.000000	101.273842
3854.000000	101.276047
3853.000000	101.278058
3852.000000	101.277782
3851.000000	101.275559
3850.000000	101.273245
3849.000000	101.271704
3848.000000	101.270593
3847.000000	101.269327
3846.000000	101.268095
3845.000000	101.267749
3844.000000	101.269069
3843.000000	101.271903
3842.000000	101.274887
3841.000000	101.276291
3840.000000	101.275676
3839.000000	101.274237
3838.000000	101.273956
3837.000000	101.276144
3836.000000	101.280481
3835.000000	101.285360
3834.000000	101.288910
3833.000000	101.289836
3832.000000	101.287567
3831.000000	101.281975
3830.000000	101.273461
3829.000000	101.263372
3828.000000	101.254354
3827.000000	101.249459
3826.000000	101.249965
3825.000000	101.254140
3824.000000	101.258641
3823.000000	101.261487
3822.000000	101.264151
3821.000000	101.268561
3820.000000	101.273261
3819.000000	101.275868
3818.000000	101.275993
3817.000000	101.275058
3816.000000	101.274023
3815.000000	101.271907
3814.000000	101.268048
3813.000000	101.263955
3812.000000	101.261692
3811.000000	101.261674
3810.000000	101.262374
3809.000000	101.262005
3808.000000	101.260727
3807.000000	101.260254
3806.000000	101.261251
3805.000000	101.262375
3804.000000	101.261662
3803.000000	101.258611
3802.000000	101.255151
3801.000000	101.252602
3800.000000	101.249925
3799.000000	101.246059
3798.000000	101.241354
3797.000000	101.237273
3796.000000	101.235109
3795.000000	101.235052
3794.000000	101.236416
3793.000000	101.238353
3792.000000	101.240122
3791.000000	101.241287
3790.000000	101.241774
3789.000000	101.241542
3788.000000	101.240412
3787.000000	101.238688
3786.000000	101.237763
3785.000000	101.239484
3784.000000	101.244493
3783.000000	101.251374
3782.000000	101.257565
3781.000000	101.260862
3780.000000	101.260675
3779.000000	101.258009
3778.000000	101.254538
3777.000000	101.251253
3776.000000	101.247955
3775.000000	101.243976
3774.000000	101.239519
3773.000000	101.236281
3772.000000	101.236742
3771.000000	101.241809
3770.000000	101.248373
3769.000000	101.250848
3768.000000	101.246722
3767.000000	101.238817
3766.000000	101.232012
3765.000000	101.228571
3764.000000	101.226961
3763.000000	101.225004
3762.000000	101.222942
3761.000000	101.223067
3760.000000	101.227057
3759.000000	101.234061
3758.000000	101.242301
3757.000000	101.250838
3756.000000	101.259545
3755.000000	101.268597
3754.000000	101.278091
3753.000000	101.287191
3752.000000	101.293020
3751.000000	101.292433
3750.000000	101.286561
3749.000000	101.280920
3748.000000	101.278349
3747.000000	101.276075
3746.000000	101.270883
3745.000000	101.264292
3744.000000	101.258607
3743.000000	101.254275
3742.000000	101.252352
3741.000000	101.253657
3740.000000	101.256869
3739.000000	101.258495
3738.000000	101.255869
3737.000000	101.249901
3736.000000	101.243710
3735.000000	101.238751
3734.000000	101.234213
3733.000000	101.229990
3732.000000	101.226887
3731.000000	101.225294
3730.000000	101.224893
3729.000000	101.224967
3728.000000	101.224655
3727.000000	101.222864
3726.000000	101.217899
3725.000000	101.208503
3724.000000	101.195630
3723.000000	101.182601
3722.000000	101.172825
3721.000000	101.167283
3720.000000	101.164592
3719.000000	101.163122
3718.000000	101.163065
3717.000000	101.165399
3716.000000	101.169346
3715.000000	101.171876
3714.000000	101.169755
3713.000000	101.162798
3712.000000	101.154963
3711.000000	101.150040
3710.000000	101.147765
3709.000000	101.145498
3708.000000	101.141507
3707.000000	101.135512
3706.000000	101.127261
3705.000000	101.116242
3704.000000	101.103005
3703.000000	101.090340
3702.000000	101.081807
3701.000000	101.078190
3700.000000	101.076727
3699.000000	101.074071
3698.000000	101.069263
3697.000000	101.064377
3696.000000	101.062695
3695.000000	101.066417
3694.000000	101.074789
3693.000000	101.083173
3692.000000	101.085177
3691.000000	101.077828
3690.000000	101.065763
3689.000000	101.057080
3688.000000	101.054577
3687.000000	101.054516
3686.000000	101.052157
3685.000000	101.045746
3684.000000	101.035696
3683.000000	101.022227
3682.000000	101.005748
3681.000000	100.988994
3680.000000	100.975886
3679.000000	100.967320
3678.000000	100.960001
3677.000000	100.952198
3676.000000	100.947008
3675.000000	100.944093
3674.000000	100.938607
3673.000000	100.927952
3672.000000	100.912468
3671.000000	100.893659
3670.000000	100.872156
3669.000000	100.846297
3668.000000	100.817028
3667.000000	100.789340
3666.000000	100.766740
3665.000000	100.748263
3664.000000	100.730312
3663.000000	100.710823
3662.000000	100.691826
3661.000000	100.676703
3660.000000	100.665077
3659.000000	100.652369
3658.000000	100.635002
3657.000000	100.616108
3656.000000	100.602261
3655.000000	100.595192
3654.000000	100.590244
3653.000000	100.581244
3652.000000	100.565914
3651.000000	100.548731
3650.000000	100.536462
3649.000000	100.528024
3648.000000	100.516214
3647.000000	100.498645
3646.000000	100.478548
3645.000000	100.459173
3644.000000	100.441812
3643.000000	100.426302
3642.000000	100.411160
3641.000000	100.393624
3640.000000	100.371919
3639.000000	100.348145
3638.000000	100.327062
3637.000000	100.311892
3636.000000	100.302294
3635.000000	100.296146
3634.000000	100.291470
3633.000000	100.286381
3632.000000	100.279071
3631.000000	100.269948
3630.000000	100.264030
3629.000000	100.264220
3628.000000	100.262778
3627.000000	100.252808
3626.000000	100.237956
3625.000000	100.225028
3624.000000	100.216803
3623.000000	100.211634
3622.000000	100.207491
3621.000000	100.206557
3620.000000	100.214889
3619.000000	100.235024
3618.000000	100.261120
3617.000000	100.284596
3616.000000	100.301482
3615.000000	100.313690
3614.000000	100.325279
3613.000000	100.337598
3612.000000	100.348354
3611.000000	100.355682
3610.000000	100.360991
3609.000000	100.367299
3608.000000	100.375256
3607.000000	100.382196
3606.000000	100.386004
3605.000000	100.387683
3604.000000	100.390123
3603.000000	100.395888
3602.000000	100.405483
3601.000000	100.416612
3600.000000	100.425351
3599.000000	100.429692
3598.000000	100.431822
3597.000000	100.436247
3596.000000	100.445332
3595.000000	100.457194
3594.000000	100.467309
3593.000000	100.472725
3592.000000	100.474074
3591.000000	100.473822
3590.000000	100.474096
3589.000000	100.476396
3588.000000	100.480508
3587.000000	100.482757
3586.000000	100.479276
3585.000000	100.470852
3584.000000	100.461606
3583.000000	100.454879
3582.000000	100.451095
3581.000000	100.448754
3580.000000	100.446276
3579.000000	100.443143
3578.000000	100.439684
3577.000000	100.436436
3576.000000	100.433873
3575.000000	100.432193
3574.000000	100.430932
3573.000000	100.428662
3572.000000	100.423922
3571.000000	100.416674
3570.000000	100.409242
3569.000000	100.405628
3568.000000	100.408314
3567.000000	100.414320
3566.000000	100.417070
3565.000000	100.413425
3564.000000	100.405237
3563.000000	100.395455
3562.000000	100.385624
3561.000000	100.376235
3560.000000	100.367924
3559.000000	100.361812
3558.000000	100.358923
3557.000000	100.359244
3556.000000	100.361373
3555.000000	100.363364
3554.000000	100.364380
3553.000000	100.365061
3552.000000	100.365888
3551.000000	100.365990
3550.000000	100.364253
3549.000000	100.361025
3548.000000	100.358010
3547.000000	100.356532
3546.000000	100.356289
3545.000000	100.356137
3544.000000	100.355634
3543.000000	100.355235
3542.000000	100.355349
3541.000000	100.355566
3540.000000	100.354773
3539.000000	100.351991
3538.000000	100.347304
3537.000000	100.342184
3536.000000	100.338464
3535.000000	100.336692
3534.000000	100.335594
3533.000000	100.333352
3532.000000	100.329456
3531.000000	100.325290
3530.000000	100.322866
3529.000000	100.322972
3528.000000	100.324581
3527.000000	100.325956
3526.000000	100.326283
3525.000000	100.325946
3524.000000	100.325479
3523.000000	100.324851
3522.000000	100.323902
3521.000000	100.322960
3520.000000	100.322533
3519.000000	100.322631
3518.000000	100.322774
3517.000000	100.322672
3516.000000	100.322486
3515.000000	100.322373
3514.000000	100.322103
3513.000000	100.321419
3512.000000	100.320546
3511.000000	100.319999
3510.000000	100.319794
3509.000000	100.319177
3508.000000	100.317382
3507.000000	100.314497
3506.000000	100.311528
3505.000000	100.309618
3504.000000	100.309150
3503.000000	100.309565
3502.000000	100.309894
3501.000000	100.309580
3500.000000	100.308719
3499.000000	100.307716
3498.000000	100.306953
3497.000000	100.306567
3496.000000	100.306255
3495.000000	100.305376
3494.000000	100.303562
3493.000000	100.301278
3492.000000	100.299539
3491.000000	100.298867
3490.000000	100.298757
3489.000000	100.298284
3488.000000	100.297165
3487.000000	100.295904
3486.000000	100.295004
3485.000000	100.294378
3484.000000	100.293623
3483.000000	100.292559
3482.000000	100.291335
3481.000000	100.290183
3480.000000	100.289194
3479.000000	100.288142
3478.000000	100.286429
3477.000000	100.283501
3476.000000	100.279555
3475.000000	100.275726
3474.000000	100.273310
3473.000000	100.272679
3472.000000	100.272908
3471.000000	100.272375
3470.000000	100.270015
3469.000000	100.266068
3468.000000	100.261823
3467.000000	100.258409
3466.000000	100.255779
3465.000000	100.253124
3464.000000	100.250013
3463.000000	100.246869
3462.000000	100.244313
3461.000000	100.242386
3460.000000	100.240551
3459.000000	100.238284
3458.000000	100.235522
3457.000000	100.232700
3456.000000	100.230310
3455.000000	100.228313
3454.000000	100.225991
3453.000000	100.222617
3452.000000	100.218188
3451.000000	100.213383
3450.000000	100.208845
3449.000000	100.204867
3448.000000	100.201717
3447.000000	100.199641
3446.000000	100.198345
3445.000000	100.196932
3444.000000	100.194777
3443.000000	100.192154
3442.000000	100.189716
3441.000000	100.187689
3440.000000	100.185887
3439.000000	100.184257
3438.000000	100.182921
3437.000000	100.181682
3436.000000	100.179864
3435.000000	100.176835
3434.000000	100.172560
3433.000000	100.167689
3432.000000	100.163209
3431.000000	100.159932
3430.000000	100.158076
3429.000000	100.157168
3428.000000	100.156419
3427.000000	100.155251
3426.000000	100.153468
3425.000000	100.151037
3424.000000	100.147993
3423.000000	100.144654
3422.000000	100.141689
3421.000000	100.139755
3420.000000	100.139073
3419.000000	100.139304
3418.000000	100.139613
3417.000000	100.138902
3416.000000	100.136379
3415.000000	100.132229
3414.000000	100.127703
3413.000000	100.124190
3412.000000	100.122162
3411.000000	100.121243
3410.000000	100.121038
3409.000000	100.121502
3408.000000	100.122559
3407.000000	100.123793
3406.000000	100.124691
3405.000000	100.124908
3404.000000	100.124140
3403.000000	100.122027
3402.000000	100.118556
3401.000000	100.114545
3400.000000	100.111400
3399.000000	100.110173
3398.000000	100.110870
3397.000000	100.112524
3396.000000	100.113931
3395.000000	100.114445
3394.000000	100.114285
3393.000000	100.114224
3392.000000	100.114939
3391.000000	100.116552
3390.000000	100.118694
3389.000000	100.120820
3388.000000	100.122361
3387.000000	100.122813
3386.000000	100.121966
3385.000000	100.120106
3384.000000	100.117821
3383.000000	100.115618
3382.000000	100.113965
3381.000000	100.113617
3380.000000	100.115370
3379.000000	100.119186
3378.000000	100.123809
3377.000000	100.127642
3376.000000	100.129897
3375.000000	100.130515
3374.000000	100.129477
3373.000000	100.126909
3372.000000	100.123762
3371.000000	100.121519
3370.000000	100.120911
3369.000000	100.121413
3368.000000	100.122195
3367.000000	100.123028
3366.000000	100.123989
3365.000000	100.124931
3364.000000	100.125927
3363.000000	100.127747
3362.000000	100.131048
3361.000000	100.135239
3360.000000	100.138772
3359.000000	100.140720
3358.000000	100.141665
3357.000000	100.142970
3356.000000	100.145456
3355.000000	100.148756
3354.000000	100.151719
3353.000000	100.153460
3352.000000	100.154123
3351.000000	100.154558
3350.000000	100.155154
3349.000000	100.155346
3348.000000	100.154618
3347.000000	100.153699
3346.000000	100.154121
3345.000000	100.156634
3344.000000	100.160599
3343.000000	100.164798
3342.000000	100.168454
3341.000000	100.171367
3340.000000	100.173612
3339.000000	100.175492
3338.000000	100.177413
3337.000000	100.179403
3336.000000	100.180984
3335.000000	100.181833
3334.000000	100.182354
3333.000000	100.183355
3332.000000	100.185206
3331.000000	100.187596
3330.000000	100.189999
3329.000000	100.192185
3328.000000	100.194305
3327.000000	100.196626
3326.000000	100.199224
3325.000000	100.201847
3324.000000	100.204081
3323.000000	100.205729
3322.000000	100.206962
3321.000000	100.208115
3320.000000	100.209379
3319.000000	100.210774
3318.000000	100.212362
3317.000000	100.214304
3316.000000	100.216633
3315.000000	100.219096
3314.000000	100.221350
3313.000000	100.223292
3312.000000	100.225101
3311.000000	100.226974
3310.000000	100.228902
3309.000000	100.230739
3308.000000	100.232420
3307.000000	100.234035
3306.000000	100.235722
3305.000000	100.237564
3304.000000	100.239598
3303.000000	100.241842
3302.000000	100.244258
3301.000000	100.246724
3300.000000	100.249058
3299.000000	100.251136
3298.000000	100.252947
3297.000000	100.254585
3296.000000	100.256216
3295.000000	100.258011
3294.000000	100.260045
3293.000000	100.262258
3292.000000	100.264473
3291.000000	100.266549
3290.000000	100.268506
3289.000000	100.270508
3288.000000	100.272699
3287.000000	100.275048
3286.000000	100.277388
3285.000000	100.279600
3284.000000	100.281745
3283.000000	100.283988
3282.000000	100.286419
3281.000000	100.289003
3280.000000	100.291648
3279.000000	100.294271
3278.000000	100.296819
3277.000000	100.299244
3276.000000	100.301525
3275.000000	100.303690
3274.000000	100.305813
3273.000000	100.307966
3272.000000	100.310184
3271.000000	100.312477
3270.000000	100.314873
3269.000000	100.317406
3268.000000	100.320068
3267.000000	100.322772
3266.000000	100.325379
3265.000000	100.327787
3264.000000	100.330000
3263.000000	100.332169
3262.000000	100.334530
3261.000000	100.337252
3260.000000	100.340295
3259.000000	100.343328
3258.000000	100.345955
3257.000000	100.348059
3256.000000	100.349962
3255.000000	100.352203
3254.000000	100.355020
3253.000000	100.358182
3252.000000	100.361308
3251.000000	100.364304
3250.000000	100.367327
3249.000000	100.370351
3248.000000	100.373041
3247.000000	100.375166
3246.000000	100.376981
3245.000000	100.379056
3244.000000	100.381665
3243.000000	100.384427
3242.000000	100.386629
3241.000000	100.387890
3240.000000	100.388504
3239.000000	100.389243
3238.000000	100.390789
3237.000000	100.393367
3236.000000	100.396813
3235.000000	100.400780
3234.000000	100.404860
3233.000000	100.408652
3232.000000	100.411936
3231.000000	100.414781
3230.000000	100.417367
3229.000000	100.419692
3228.000000	100.421592
3227.000000	100.423076
3226.000000	100.424463
3225.000000	100.426096
3224.000000	100.428052
3223.000000	100.430286
3222.000000	100.432973
3221.000000	100.436470
3220.000000	100.440914
3219.000000	100.445866
3218.000000	100.450371
3217.000000	100.453453
3216.000000	100.454696
3215.000000	100.454632
3214.000000	100.454642
3213.000000	100.456057
3212.000000	100.459287
3211.000000	100.463801
3210.000000	100.468847
3209.000000	100.474016
3208.000000	100.479087
3207.000000	100.483724
3206.000000	100.487630
3205.000000	100.490741
3204.000000	100.492931
3203.000000	100.493799
3202.000000	100.493292
3201.000000	100.492441
3200.000000	100.492786
3199.000000	100.494837
3198.000000	100.497655
3197.000000	100.500110
3196.000000	100.502057
3195.000000	100.503927
3194.000000	100.505772
3193.000000	100.507404
3192.000000	100.509167
3191.000000	100.511854
3190.000000	100.515871
3189.000000	100.520880
3188.000000	100.526093
3187.000000	100.530498
3186.000000	100.533169
3185.000000	100.534076
3184.000000	100.534568
3183.000000	100.536315
3182.000000	100.539628
3181.000000	100.543426
3180.000000	100.546766
3179.000000	100.549779
3178.000000	100.552933
3177.000000	100.556146
3176.000000	100.558970
3175.000000	100.561090
3174.000000	100.562454
3173.000000	100.563510
3172.000000	100.565480
3171.000000	100.569607
3170.000000	100.575755
3169.000000	100.582296
3168.000000	100.587895
3167.000000	100.592715
3166.000000	100.597292
3165.000000	100.601130
3164.000000	100.603334
3163.000000	100.604092
3162.000000	100.604570
3161.000000	100.605532
3160.000000	100.606895
3159.000000	100.608573
3158.000000	100.610871
3157.000000	100.613938
3156.000000	100.617485
3155.000000	100.621182
3154.000000	100.624795
3153.000000	100.627834
3152.000000	100.629611
3151.000000	100.629917
3150.000000	100.629392
3149.000000	100.629123
3148.000000	100.629953
3147.000000	100.632072
3146.000000	100.634903
3145.000000	100.637407
3144.000000	100.639044
3143.000000	100.640550
3142.000000	100.643300
3141.000000	100.647735
3140.000000	100.652753
3139.000000	100.656751
3138.000000	100.659232
3137.000000	100.661074
3136.000000	100.663478
3135.000000	100.666764
3134.000000	100.670189
3133.000000	100.672789
3132.000000	100.674344
3131.000000	100.675499
3130.000000	100.677027
3129.000000	100.679087
3128.000000	100.681325
3127.000000	100.683500
3126.000000	100.685732
3125.000000	100.688150
3124.000000	100.690586
3123.000000	100.692806
3122.000000	100.694902
3121.000000	100.697249
3120.000000	100.700079
3119.000000	100.703195
3118.000000	100.706089
3117.000000	100.708372
3116.000000	100.710118
3115.000000	100.711845
3114.000000	100.714141
3113.000000	100.717255
3112.000000	100.720963
3111.000000	100.724765
3110.000000	100.728213
3109.000000	100.731068
3108.000000	100.733315
3107.000000	100.735052
3106.000000	100.736402
3105.000000	100.737587
3104.000000	100.738979
3103.000000	100.740948
3102.000000	100.743626
3101.000000	100.746753
3100.000000	100.749808
3099.000000	100.752308
3098.000000	100.754049
3097.000000	100.755139
3096.000000	100.755913
3095.000000	100.756811
3094.000000	100.758185
3093.000000	100.760085
3092.000000	100.762255
3091.000000	100.764402
3090.000000	100.766510
3089.000000	100.768813
3088.000000	100.771385
3087.000000	100.773853
3086.000000	100.775678
3085.000000	100.776697
3084.000000	100.777220
3083.000000	100.777645
3082.000000	100.778161
3081.000000	100.778912
3080.000000	100.780200
3079.000000	100.782251
3078.000000	100.784831
3077.000000	100.787301
3076.000000	100.789169
3075.000000	100.790514
3074.000000	100.791810
3073.000000	100.793446
3072.000000	100.795365
3071.000000	100.797090
3070.000000	100.798122
3069.000000	100.798409
3068.000000	100.798558
3067.000000	100.799416
3066.000000	100.801337
3065.000000	100.803975
3064.000000	100.806659
3063.000000	100.808966
3062.000000	100.810846
3061.000000	100.812373
3060.000000	100.813629
3059.000000	100.814743
3058.000000	100.815902
3057.000000	100.817323
3056.000000	100.819282
3055.000000	100.822022
3054.000000	100.825409
3053.000000	100.828797
3052.000000	100.831509
3051.000000	100.833432
3050.000000	100.834993
3049.000000	100.836580
3048.000000	100.838142
3047.000000	100.839435
3046.000000	100.840407
3045.000000	100.841263
3044.000000	100.842322
3043.000000	100.843886
3042.000000	100.846094
3041.000000	100.848791
3040.000000	100.851613
3039.000000	100.854272
3038.000000	100.856659
3037.000000	100.858712
3036.000000	100.860464
3035.000000	100.862385
3034.000000	100.865302
3033.000000	100.869535
3032.000000	100.874138
3031.000000	100.877465
3030.000000	100.878700
3029.000000	100.878555
3028.000000	100.878432
3027.000000	100.879054
3026.000000	100.880199
3025.000000	100.881484
3024.000000	100.882961
3023.000000	100.884884
3022.000000	100.887364
3021.000000	100.890544
3020.000000	100.894873
3019.000000	100.900800
3018.000000	100.907903
3017.000000	100.914355
3016.000000	100.917805
3015.000000	100.917141
3014.000000	100.913707
3013.000000	100.910770
3012.000000	100.911005
3011.000000	100.914531
3010.000000	100.919329
3009.000000	100.923334
3008.000000	100.925978
3007.000000	100.927980
3006.000000	100.930415
3005.000000	100.934085
3004.000000	100.938989
3003.000000	100.943947
3002.000000	100.947323
3001.000000	100.948610
3000.000000	100.948834
2999.000000	100.948974
2998.000000	100.948716
2997.000000	100.947609
2996.000000	100.946663
2995.000000	100.947397
2994.000000	100.949573
2993.000000	100.951467
2992.000000	100.952408
2991.000000	100.953458
2990.000000	100.955068
2989.000000	100.955601
2988.000000	100.953260
2987.000000	100.948422
2986.000000	100.943023
2985.000000	100.938374
2984.000000	100.934602
2983.000000	100.931458
2982.000000	100.928538
2981.000000	100.925316
2980.000000	100.922202
2979.000000	100.921183
2978.000000	100.923970
2977.000000	100.929432
2976.000000	100.933786
2975.000000	100.933895
2974.000000	100.930009
2973.000000	100.925372
2972.000000	100.923648
2971.000000	100.926369
2970.000000	100.931982
2969.000000	100.936829
2968.000000	100.937952
2967.000000	100.935364
2966.000000	100.931518
2965.000000	100.928915
2964.000000	100.928546
2963.000000	100.930076
2962.000000	100.932369
2961.000000	100.933954
2960.000000	100.934200
2959.000000	100.934171
2958.000000	100.935292
2957.000000	100.937300
2956.000000	100.938837
2955.000000	100.940071
2954.000000	100.942913
2953.000000	100.947843
2952.000000	100.952070
2951.000000	100.952199
2950.000000	100.947969
2949.000000	100.942426
2948.000000	100.938771
2947.000000	100.937544
2946.000000	100.936577
2945.000000	100.933315
2944.000000	100.927466
2943.000000	100.921443
2942.000000	100.917596
2941.000000	100.915069
2940.000000	100.910443
2939.000000	100.901731
2938.000000	100.890802
2937.000000	100.881561
2936.000000	100.876715
2935.000000	100.876411
2934.000000	100.878447
2933.000000	100.879144
2932.000000	100.875612
2931.000000	100.868394
2930.000000	100.860936
2929.000000	100.855615
2928.000000	100.851390
2927.000000	100.846388
2926.000000	100.841438
2925.000000	100.839402
2924.000000	100.842029
2923.000000	100.849239
2922.000000	100.860542
2921.000000	100.875072
2920.000000	100.890393
2919.000000	100.903155
2918.000000	100.911600
2917.000000	100.916608
2916.000000	100.920276
2915.000000	100.924368
2914.000000	100.930020
2913.000000	100.937805
2912.000000	100.947451
2911.000000	100.957956
2910.000000	100.968112
2909.000000	100.976748
2908.000000	100.982890
2907.000000	100.986565
2906.000000	100.989350
2905.000000	100.993249
2904.000000	100.998647
2903.000000	101.003815
2902.000000	101.006352
2901.000000	101.005114
2900.000000	101.000780
2899.000000	100.995474
2898.000000	100.992020
2897.000000	100.992515
2896.000000	100.997038
2895.000000	101.003707
2894.000000	101.010043
2893.000000	101.014249
2892.000000	101.015652
2891.000000	101.014988
2890.000000	101.014420
2889.000000	101.016148
2888.000000	101.020069
2887.000000	101.023255
2886.000000	101.022678
2885.000000	101.018369
2884.000000	101.013247
2883.000000	101.009940
2882.000000	101.008630
2881.000000	101.008187
2880.000000	101.008239
2879.000000	101.009198
2878.000000	101.010804
2877.000000	101.011874
2876.000000	101.011646
2875.000000	101.010513
2874.000000	101.009106
2873.000000	101.007385
2872.000000	101.005211
2871.000000	101.003231
2870.000000	101.002485
2869.000000	101.003338
2868.000000	101.005335
2867.000000	101.007875
2866.000000	101.010497
2865.000000	101.012723
2864.000000	101.014264
2863.000000	101.015279
2862.000000	101.015809
2861.000000	101.015055
2860.000000	101.011928
2859.000000	101.006321
2858.000000	100.999235
2857.000000	100.991835
2856.000000	100.985195
2855.000000	100.980816
2854.000000	100.980024
2853.000000	100.982386
2852.000000	100.985907
2851.000000	100.989597
2850.000000	100.994852
2849.000000	101.003249
2848.000000	101.013630
2847.000000	101.022467
2846.000000	101.027134
2845.000000	101.028153
2844.000000	101.028505
2843.000000	101.031358
2842.000000	101.037966
2841.000000	101.046656
2840.000000	101.053706
2839.000000	101.056260
2838.000000	101.054831
2837.000000	101.052793
2836.000000	101.053346
2835.000000	101.057224
2834.000000	101.063178
2833.000000	101.069559
2832.000000	101.075038
2831.000000	101.078617
2830.000000	101.079928
2829.000000	101.079458
2828.000000	101.078102
2827.000000	101.076618
2826.000000	101.075764
2825.000000	101.076418
2824.000000	101.078841
2823.000000	101.081942
2822.000000	101.084004
2821.000000	101.084344
2820.000000	101.083872
2819.000000	101.083965
2818.000000	101.085178
2817.000000	101.087124
2816.000000	101.089115
2815.000000	101.090626
2814.000000	101.091549
2813.000000	101.092352
2812.000000	101.093804
2811.000000	101.096236
2810.000000	101.099141
2809.000000	101.101634
2808.000000	101.103209
2807.000000	101.103979
2806.000000	101.104354
2805.000000	101.104673
2804.000000	101.105091
2803.000000	101.105683
2802.000000	101.106544
2801.000000	101.107815
2800.000000	101.109530
2799.000000	101.111360
2798.000000	101.112733
2797.000000	101.113382
2796.000000	101.113745
2795.000000	101.114566
2794.000000	101.116090
2793.000000	101.117883
2792.000000	101.119351
2791.000000	101.120369
2790.000000	101.121254
2789.000000	101.122331
2788.000000	101.123672
2787.000000	101.125157
2786.000000	101.126607
2785.000000	101.127891
2784.000000	101.129031
2783.000000	101.130185
2782.000000	101.131481
2781.000000	101.132817
2780.000000	101.133946
2779.000000	101.134751
2778.000000	101.135373
2777.000000	101.136085
2776.000000	101.137028
2775.000000	101.138128
2774.000000	101.139214
2773.000000	101.140186
2772.000000	101.141107
2771.000000	101.142100
2770.000000	101.143176
2769.000000	101.144169
2768.000000	101.144924
2767.000000	101.145498
2766.000000	101.146107
2765.000000	101.146875
2764.000000	101.147706
2763.000000	101.148452
2762.000000	101.149146
2761.000000	101.149964
2760.000000	101.150936
2759.000000	101.151814
2758.000000	101.152336
2757.000000	101.152502
2756.000000	101.152569
2755.000000	101.152800
2754.000000	101.153232
2753.000000	101.153759
2752.000000	101.154298
2751.000000	101.154872
2750.000000	101.155537
2749.000000	101.156263
2748.000000	101.156902
2747.000000	101.157299
2746.000000	101.157453
2745.000000	101.157583
2744.000000	101.157966
2743.000000	101.158674
2742.000000	101.159525
2741.000000	101.160284
2740.000000	101.160917
2739.000000	101.161541
2738.000000	101.162152
2737.000000	101.162562
2736.000000	101.162670
2735.000000	101.162656
2734.000000	101.162797
2733.000000	101.163149
2732.000000	101.163555
2731.000000	101.163922
2730.000000	101.164308
2729.000000	101.164738
2728.000000	101.165094
2727.000000	101.165280
2726.000000	101.165344
2725.000000	101.165398
2724.000000	101.165512
2723.000000	101.165786
2722.000000	101.166368
2721.000000	101.167283
2720.000000	101.168329
2719.000000	101.169231
2718.000000	101.169862
2717.000000	101.170226
2716.000000	101.170383
2715.000000	101.170526
2714.000000	101.171016
2713.000000	101.172085
2712.000000	101.173500
2711.000000	101.174686
2710.000000	101.175342
2709.000000	101.175692
2708.000000	101.176063
2707.000000	101.176364
2706.000000	101.176228
2705.000000	101.175590
2704.000000	101.174940
2703.000000	101.174915
2702.000000	101.175702
2701.000000	101.176920
2700.000000	101.177977
2699.000000	101.178644
2698.000000	101.179150
2697.000000	101.179706
2696.000000	101.180132
2695.000000	101.180126
2694.000000	101.179776
2693.000000	101.179504
2692.000000	101.179446
2691.000000	101.179270
2690.000000	101.178737
2689.000000	101.178219
2688.000000	101.178351
2687.000000	101.179195
2686.000000	101.180062
2685.000000	101.180433
2684.000000	101.180698
2683.000000	101.181539
2682.000000	101.182886
2681.000000	101.183971
2680.000000	101.184326
2679.000000	101.184229
2678.000000	101.184161
2677.000000	101.184206
2676.000000	101.184092
2675.000000	101.183576
2674.000000	101.182746
2673.000000	101.182166
2672.000000	101.182619
2671.000000	101.184341
2670.000000	101.186453
2669.000000	101.187574
2668.000000	101.187144
2667.000000	101.185827
2666.000000	101.184589
2665.000000	101.183632
2664.000000	101.182457
2663.000000	101.180731
2662.000000	101.178976
2661.000000	101.178455
2660.000000	101.180133
2659.000000	101.183365
2658.000000	101.185802
2657.000000	101.185427
2656.000000	101.182771
2655.000000	101.180498
2654.000000	101.180331
2653.000000	101.180988
2652.000000	101.179743
2651.000000	101.175592
2650.000000	101.170288
2649.000000	101.166541
2648.000000	101.165788
2647.000000	101.167602
2646.000000	101.170368
2645.000000	101.172563
2644.000000	101.174009
2643.000000	101.175871
2642.000000	101.179110
2641.000000	101.183162
2640.000000	101.186588
2639.000000	101.188786
2638.000000	101.190428
2637.000000	101.192347
2636.000000	101.194736
2635.000000	101.197426
2634.000000	101.200115
2633.000000	101.202040
2632.000000	101.202238
2631.000000	101.200691
2630.000000	101.198810
2629.000000	101.198167
2628.000000	101.198808
2627.000000	101.199287
2626.000000	101.198311
2625.000000	101.195989
2624.000000	101.193589
2623.000000	101.192407
2622.000000	101.192951
2621.000000	101.194860
2620.000000	101.197133
2619.000000	101.198464
2618.000000	101.197851
2617.000000	101.195392
2616.000000	101.192528
2615.000000	101.190981
2614.000000	101.191173
2613.000000	101.192013
2612.000000	101.192364
2611.000000	101.192320
2610.000000	101.192641
2609.000000	101.193449
2608.000000	101.194211
2607.000000	101.194791
2606.000000	101.195670
2605.000000	101.196984
2604.000000	101.198063
2603.000000	101.198258
2602.000000	101.197837
2601.000000	101.197755
2600.000000	101.198652
2599.000000	101.200293
2598.000000	101.201832
2597.000000	101.202470
2596.000000	101.201926
2595.000000	101.200448
2594.000000	101.198614
2593.000000	101.197098
2592.000000	101.196457
2591.000000	101.197005
2590.000000	101.198638
2589.000000	101.200704
2588.000000	101.202303
2587.000000	101.203008
2586.000000	101.203217
2585.000000	101.203671
2584.000000	101.204632
2583.000000	101.205708
2582.000000	101.206424
2581.000000	101.206624
2580.000000	101.206315
2579.000000	101.205556
2578.000000	101.204684
2577.000000	101.204277
2576.000000	101.204589
2575.000000	101.205222
2574.000000	101.205605
2573.000000	101.205674
2572.000000	101.205746
2571.000000	101.205811
2570.000000	101.205389
2569.000000	101.204284
2568.000000	101.203176
2567.000000	101.203069
2566.000000	101.204093
2565.000000	101.205171
2564.000000	101.205074
2563.000000	101.203650
2562.000000	101.201739
2561.000000	101.200048
2560.000000	101.198574
2559.000000	101.197297
2558.000000	101.196840
2557.000000	101.197812
2556.000000	101.199736
2555.000000	101.201296
2554.000000	101.201740
2553.000000	101.201522
2552.000000	101.201458
2551.000000	101.201856
2550.000000	101.202740
2549.000000	101.204369
2548.000000	101.206879
2547.000000	101.209619
2546.000000	101.211444
2545.000000	101.211794
2544.000000	101.211149
2543.000000	101.210452
2542.000000	101.210263
2541.000000	101.210658
2540.000000	101.211622
2539.000000	101.213107
2538.000000	101.214688
2537.000000	101.215563
2536.000000	101.215196
2535.000000	101.213869
2534.000000	101.212512
2533.000000	101.211902
2532.000000	101.212125
2531.000000	101.212769
2530.000000	101.213358
2529.000000	101.213562
2528.000000	101.213207
2527.000000	101.212386
2526.000000	101.211593
2525.000000	101.211475
2524.000000	101.212275
2523.000000	101.213647
2522.000000	101.215016
2521.000000	101.216091
2520.000000	101.216911
2519.000000	101.217556
2518.000000	101.217994
2517.000000	101.218173
2516.000000	101.218139
2515.000000	101.218037
2514.000000	101.218053
2513.000000	101.218337
2512.000000	101.218902
2511.000000	101.219549
2510.000000	101.219954
2509.000000	101.219922
2508.000000	101.219520
2507.000000	101.219031
2506.000000	101.218772
2505.000000	101.218918
2504.000000	101.219475
2503.000000	101.220266
2502.000000	101.220980
2501.000000	101.221361
2500.000000	101.221366
2499.000000	101.221150
2498.000000	101.220934
2497.000000	101.220896
2496.000000	101.221142
2495.000000	101.221655
2494.000000	101.222225
2493.000000	101.222583
2492.000000	101.222741
2491.000000	101.223054
2490.000000	101.223809
2489.000000	101.224827
2488.000000	101.225660
2487.000000	101.226119
2486.000000	101.226417
2485.000000	101.226844
2484.000000	101.227431
2483.000000	101.227948
2482.000000	101.228144
2481.000000	101.227985
2480.000000	101.227747
2479.000000	101.227825
2478.000000	101.228332
2477.000000	101.228951
2476.000000	101.229380
2475.000000	101.229861
2474.000000	101.230983
2473.000000	101.232973
2472.000000	101.235384
2471.000000	101.237519
2470.000000	101.238986
2469.000000	101.239717
2468.000000	101.239702
2467.000000	101.239022
2466.000000	101.238138
2465.000000	101.237717
2464.000000	101.238038
2463.000000	101.238789
2462.000000	101.239413
2461.000000	101.239619
2460.000000	101.239530
2459.000000	101.239462
2458.000000	101.239640
2457.000000	101.240083
2456.000000	101.240709
2455.000000	101.241481
2454.000000	101.242389
2453.000000	101.243305
2452.000000	101.243956
2451.000000	101.244140
2450.000000	101.243958
2449.000000	101.243813
2448.000000	101.244084
2447.000000	101.244814
2446.000000	101.245731
2445.000000	101.246473
2444.000000	101.246877
2443.000000	101.247004
2442.000000	101.247022
2441.000000	101.247100
2440.000000	101.247348
2439.000000	101.247775
2438.000000	101.248269
2437.000000	101.248677
2436.000000	101.248952
2435.000000	101.249191
2434.000000	101.249495
2433.000000	101.249856
2432.000000	101.250197
2431.000000	101.250508
2430.000000	101.250865
2429.000000	101.251306
2428.000000	101.251767
2427.000000	101.252172
2426.000000	101.252533
2425.000000	101.252939
2424.000000	101.253473
2423.000000	101.254145
2422.000000	101.254859
2421.000000	101.255472
2420.000000	101.255895
2419.000000	101.256125
2418.000000	101.256236
2417.000000	101.256331
2416.000000	101.256486
2415.000000	101.256717
2414.000000	101.257001
2413.000000	101.257301
2412.000000	101.257597
2411.000000	101.257888
2410.000000	101.258171
2409.000000	101.258448
2408.000000	101.258730
2407.000000	101.259035
2406.000000	101.259353
2405.000000	101.259643
2404.000000	101.259875
2403.000000	101.260070
2402.000000	101.260270
2401.000000	101.260484
2400.000000	101.260699
2399.000000	101.260910
2398.000000	101.261113
2397.000000	101.261305
2396.000000	101.261487
2395.000000	101.261662
2394.000000	101.261833
2393.000000	101.262000
2392.000000	101.262157
2391.000000	101.262298
2390.000000	101.262418
2389.000000	101.262516
2388.000000	101.262593
2387.000000	101.262650
2386.000000	101.262691
2385.000000	101.262716
2384.000000	101.262729
2383.000000	101.262733
2382.000000	101.262727
2381.000000	101.262713
2380.000000	101.262691
2379.000000	101.262658
2378.000000	101.262613
2377.000000	101.262553
2376.000000	101.262478
2375.000000	101.262392
2374.000000	101.262300
2373.000000	101.262211
2372.000000	101.262129
2371.000000	101.262056
2370.000000	101.261986
2369.000000	101.261906
2368.000000	101.261809
2367.000000	101.261692
2366.000000	101.261566
2365.000000	101.261441
2364.000000	101.261320
2363.000000	101.261198
2362.000000	101.261069
2361.000000	101.260931
2360.000000	101.260782
2359.000000	101.260626
2358.000000	101.260467
2357.000000	101.260310
2356.000000	101.260152
2355.000000	101.259988
2354.000000	101.259816
2353.000000	101.259633
2352.000000	101.259441
2351.000000	101.259245
2350.000000	101.259051
2349.000000	101.258862
2348.000000	101.258677
2347.000000	101.258489
2346.000000	101.258298
2345.000000	101.258105
2344.000000	101.257917
2343.000000	101.257734
2342.000000	101.257559
2341.000000	101.257397
2340.000000	101.257231
2339.000000	101.257014
2338.000000	101.256688
2337.000000	101.256249
2336.000000	101.255787
2335.000000	101.255444
2334.000000	101.255308
2333.000000	101.255394
2332.000000	101.255627
2331.000000	101.255903
2330.000000	101.256166
2329.000000	101.256360
2328.000000	101.256494
2327.000000	101.256536
2326.000000	101.256505
2325.000000	101.256421
2324.000000	101.256248
2323.000000	101.256007
2322.000000	101.255793
2321.000000	101.255859
2320.000000	101.256187
2319.000000	101.256442
2318.000000	101.256204
2317.000000	101.255420
2316.000000	101.254428
2315.000000	101.253607
2314.000000	101.253124
2313.000000	101.252908
2312.000000	101.252913
2311.000000	101.253202
2310.000000	101.253865
2309.000000	101.254729
2308.000000	101.255323
2307.000000	101.255248
2306.000000	101.254633
2305.000000	101.254049
2304.000000	101.253826
2303.000000	101.253720
2302.000000	101.253314
2301.000000	101.252589
2300.000000	101.251915
2299.000000	101.251607
2298.000000	101.251756
2297.000000	101.252298
2296.000000	101.253108
2295.000000	101.253935
2294.000000	101.254485
2293.000000	101.254449
2292.000000	101.253653
2291.000000	101.252252
2290.000000	101.250827
2289.000000	101.249991
2288.000000	101.249764
2287.000000	101.249601
2286.000000	101.249103
2285.000000	101.248426
2284.000000	101.247774
2283.000000	101.246925
2282.000000	101.245618
2281.000000	101.244129
2280.000000	101.242975
2279.000000	101.242297
2278.000000	101.241976
2277.000000	101.242145
2276.000000	101.242958
2275.000000	101.243969
2274.000000	101.244448
2273.000000	101.244355
2272.000000	101.244323
2271.000000	101.244584
2270.000000	101.244584
2269.000000	101.243920
2268.000000	101.242980
2267.000000	101.242299
2266.000000	101.241763
2265.000000	101.240966
2264.000000	101.239996
2263.000000	101.239308
2262.000000	101.238995
2261.000000	101.238630
2260.000000	101.237783
2259.000000	101.236465
2258.000000	101.235087
2257.000000	101.234189
2256.000000	101.234004
2255.000000	101.234138
2254.000000	101.233836
2253.000000	101.232846
2252.000000	101.231837
2251.000000	101.231671
2250.000000	101.232418
2249.000000	101.233316
2248.000000	101.233597
2247.000000	101.233237
2246.000000	101.232799
2245.000000	101.232770
2244.000000	101.233127
2243.000000	101.233472
2242.000000	101.233491
2241.000000	101.233252
2240.000000	101.233057
2239.000000	101.233075
2238.000000	101.233239
2237.000000	101.233432
2236.000000	101.233593
2235.000000	101.233650
2234.000000	101.233514
2233.000000	101.233220
2232.000000	101.232913
2231.000000	101.232648
2230.000000	101.232315
2229.000000	101.231864
2228.000000	101.231462
2227.000000	101.231304
2226.000000	101.231391
2225.000000	101.231609
2224.000000	101.231941
2223.000000	101.232424
2222.000000	101.232951
2221.000000	101.233264
2220.000000	101.233222
2219.000000	101.232996
2218.000000	101.232956
2217.000000	101.233367
2216.000000	101.234159
2215.000000	101.234956
2214.000000	101.235358
2213.000000	101.235262
2212.000000	101.234879
2211.000000	101.234482
2210.000000	101.234204
2209.000000	101.234085
2208.000000	101.234125
2207.000000	101.234183
2206.000000	101.234063
2205.000000	101.233805
2204.000000	101.233724
2203.000000	101.233951
2202.000000	101.234173
2201.000000	101.234109
2200.000000	101.234070
2199.000000	101.234650
2198.000000	101.235910
2197.000000	101.237165
2196.000000	101.237691
2195.000000	101.237393
2194.000000	101.236671
2193.000000	101.235895
2192.000000	101.235165
2191.000000	101.234454
2190.000000	101.233764
2189.000000	101.233162
2188.000000	101.232797
2187.000000	101.232908
2186.000000	101.233722
2185.000000	101.235240
2184.000000	101.237097
2183.000000	101.238711
2182.000000	101.239684
2181.000000	101.240028
2180.000000	101.239918
2179.000000	101.239303
2178.000000	101.238018
2177.000000	101.236298
2176.000000	101.234856
2175.000000	101.234258
2174.000000	101.234488
2173.000000	101.235234
2172.000000	101.236288
2171.000000	101.237447
2170.000000	101.238301
2169.000000	101.238554
2168.000000	101.238442
2167.000000	101.238523
2166.000000	101.239036
2165.000000	101.239716
2164.000000	101.240145
2163.000000	101.240033
2162.000000	101.239248
2161.000000	101.237962
2160.000000	101.236768
2159.000000	101.236275
2158.000000	101.236528
2157.000000	101.237078
2156.000000	101.237592
2155.000000	101.238107
2154.000000	101.238650
2153.000000	101.239054
2152.000000	101.239326
2151.000000	101.239805
2150.000000	101.240742
2149.000000	101.241950
2148.000000	101.243017
2147.000000	101.243613
2146.000000	101.243519
2145.000000	101.242674
2144.000000	101.241432
2143.000000	101.240519
2142.000000	101.240456
2141.000000	101.241147
2140.000000	101.242079
2139.000000	101.242759
2138.000000	101.242994
2137.000000	101.243021
2136.000000	101.243398
2135.000000	101.244384
2134.000000	101.245375
2133.000000	101.245430
2132.000000	101.244520
2131.000000	101.243722
2130.000000	101.243875
2129.000000	101.244635
2128.000000	101.245216
2127.000000	101.245558
2126.000000	101.246192
2125.000000	101.247371
2124.000000	101.249021
2123.000000	101.251266
2122.000000	101.254285
2121.000000	101.257652
2120.000000	101.260376
2119.000000	101.261720
2118.000000	101.261650
2117.000000	101.260660
2116.000000	101.259456
2115.000000	101.258593
2114.000000	101.258166
2113.000000	101.257942
2112.000000	101.257909
2111.000000	101.258426
2110.000000	101.259669
2109.000000	101.261239
2108.000000	101.262630
2107.000000	101.263783
2106.000000	101.264830
2105.000000	101.265622
2104.000000	101.265982
2103.000000	101.266136
2102.000000	101.266387
2101.000000	101.266504
2100.000000	101.266052
2099.000000	101.265251
2098.000000	101.264922
2097.000000	101.265478
2096.000000	101.266509
2095.000000	101.267467
2094.000000	101.268326
2093.000000	101.269346
2092.000000	101.270559
2091.000000	101.271803
2090.000000	101.272988
2089.000000	101.274073
2088.000000	101.274984
2087.000000	101.275785
2086.000000	101.276737
2085.000000	101.277910
2084.000000	101.278818
2083.000000	101.278726
2082.000000	101.277360
2081.000000	101.275236
2080.000000	101.273370
2079.000000	101.272629
2078.000000	101.273272
2077.000000	101.274840
2076.000000	101.276447
2075.000000	101.277488
2074.000000	101.278135
2073.000000	101.278983
2072.000000	101.280170
2071.000000	101.281079
2070.000000	101.281091
2069.000000	101.280428
2068.000000	101.280001
2067.000000	101.280497
2066.000000	101.281785
2065.000000	101.283170
2064.000000	101.283945
2063.000000	101.283705
2062.000000	101.282483
2061.000000	101.280909
2060.000000	101.280007
2059.000000	101.280427
2058.000000	101.281819
2057.000000	101.283076
2056.000000	101.283295
2055.000000	101.282402
2054.000000	101.280927
2053.000000	101.279409
2052.000000	101.278119
2051.000000	101.277335
2050.000000	101.277562
2049.000000	101.279098
2048.000000	101.281266
2047.000000	101.282501
2046.000000	101.281708
2045.000000	101.279382
2044.000000	101.277145
2043.000000	101.275982
2042.000000	101.275339
2041.000000	101.274166
2040.000000	101.272205
2039.000000	101.269873
2038.000000	101.267439
2037.000000	101.265001
2036.000000	101.263007
2035.000000	101.261964
2034.000000	101.261685
2033.000000	101.261448
2032.000000	101.260963
2031.000000	101.260560
2030.000000	101.260261
2029.000000	101.259356
2028.000000	101.257365
2027.000000	101.254941
2026.000000	101.253276
2025.000000	101.252721
2024.000000	101.252521
2023.000000	101.251850
2022.000000	101.250673
2021.000000	101.249404
2020.000000	101.248270
2019.000000	101.247390
2018.000000	101.247157
2017.000000	101.247923
2016.000000	101.249182
2015.000000	101.249595
2014.000000	101.248226
2013.000000	101.245485
2012.000000	101.242731
2011.000000	101.240822
2010.000000	101.239348
2009.000000	101.237448
2008.000000	101.234955
2007.000000	101.232447
2006.000000	101.230506
2005.000000	101.229343
2004.000000	101.229005
2003.000000	101.229330
2002.000000	101.229740
2001.000000	101.229597
2000.000000	101.228786
1999.000000	101.227733
1998.000000	101.226917
1997.000000	101.226605
1996.000000	101.226828
1995.000000	101.227189
1994.000000	101.226852
1993.000000	101.225255
1992.000000	101.223002
1991.000000	101.221440
1990.000000	101.221088
1989.000000	101.221143
1988.000000	101.220706
1987.000000	101.219834
1986.000000	101.219090
1985.000000	101.218681
1984.000000	101.218593
1983.000000	101.219052
1982.000000	101.220314
1981.000000	101.222254
1980.000000	101.224400
1979.000000	101.226212
1978.000000	101.227183
1977.000000	101.227012
1976.000000	101.225976
1975.000000	101.224944
1974.000000	101.224569
1973.000000	101.224595
1972.000000	101.224302
1971.000000	101.223502
1970.000000	101.222724
1969.000000	101.222514
1968.000000	101.222925
1967.000000	101.223683
1966.000000	101.224490
1965.000000	101.225077
1964.000000	101.225236
1963.000000	101.224992
1962.000000	101.224654
1961.000000	101.224616
1960.000000	101.225139
1959.000000	101.226256
1958.000000	101.227644
1957.000000	101.228584
1956.000000	101.228434
1955.000000	101.227268
1954.000000	101.225933
1953.000000	101.225186
1952.000000	101.224920
1951.000000	101.224487
1950.000000	101.223570
1949.000000	101.222541
1948.000000	101.222082
1947.000000	101.222558
1946.000000	101.223609
1945.000000	101.224205
1944.000000	101.223365
1943.000000	101.221108
1942.000000	101.218756
1941.000000	101.217712
1940.000000	101.218035
1939.000000	101.218737
1938.000000	101.219081
1937.000000	101.219088
1936.000000	101.218851
1935.000000	101.218010
1934.000000	101.216218
1933.000000	101.213744
1932.000000	101.211306
1931.000000	101.209399
1930.000000	101.208012
1929.000000	101.206917
1928.000000	101.206055
1927.000000	101.205572
1926.000000	101.205558
1925.000000	101.205886
1924.000000	101.206219
1923.000000	101.206306
1922.000000	101.206370
1921.000000	101.206882
1920.000000	101.207626
1919.000000	101.207113
1918.000000	101.203565
1917.000000	101.197092
1916.000000	101.190129
1915.000000	101.185050
1914.000000	101.182364
1913.000000	101.181026
1912.000000	101.179512
1911.000000	101.176754
1910.000000	101.172718
1909.000000	101.168556
1908.000000	101.165746
1907.000000	101.164485
1906.000000	101.163193
1905.000000	101.160212
1904.000000	101.155741
1903.000000	101.151507
1902.000000	101.148659
1901.000000	101.146620
1900.000000	101.144065
1899.000000	101.140570
1898.000000	101.136974
1897.000000	101.134238
1896.000000	101.132358
1895.000000	101.130542
1894.000000	101.128192
1893.000000	101.125359
1892.000000	101.122070
1891.000000	101.117847
1890.000000	101.112544
1889.000000	101.107357
1888.000000	101.103800
1887.000000	101.101821
1886.000000	101.100379
1885.000000	101.099451
1884.000000	101.100061
1883.000000	101.102270
1882.000000	101.104285
1881.000000	101.104158
1880.000000	101.101574
1879.000000	101.097780
1878.000000	101.094510
1877.000000	101.093029
1876.000000	101.093364
1875.000000	101.094135
1874.000000	101.093943
1873.000000	101.093374
1872.000000	101.094518
1871.000000	101.097879
1870.000000	101.100559
1869.000000	101.099383
1868.000000	101.096361
1867.000000	101.096417
1866.000000	101.100097
1865.000000	101.103578
1864.000000	101.104295
1863.000000	101.103786
1862.000000	101.105230
1861.000000	101.109721
1860.000000	101.115995
1859.000000	101.122744
1858.000000	101.129731
1857.000000	101.136984
1856.000000	101.144244
1855.000000	101.151270
1854.000000	101.158222
1853.000000	101.165018
1852.000000	101.170402
1851.000000	101.172728
1850.000000	101.171831
1849.000000	101.169803
1848.000000	101.169304
1847.000000	101.171243
1846.000000	101.174772
1845.000000	101.178880
1844.000000	101.183379
1843.000000	101.188222
1842.000000	101.192812
1841.000000	101.196773
1840.000000	101.200234
1839.000000	101.203135
1838.000000	101.205031
1837.000000	101.205805
1836.000000	101.205955
1835.000000	101.205810
1834.000000	101.205263
1833.000000	101.204368
1832.000000	101.203833
1831.000000	101.204851
1830.000000	101.207940
1829.000000	101.211908
1828.000000	101.214481
1827.000000	101.213919
1826.000000	101.209712
1825.000000	101.203030
1824.000000	101.196963
1823.000000	101.194305
1822.000000	101.195078
1821.000000	101.197065
1820.000000	101.198057
1819.000000	101.197542
1818.000000	101.196330
1817.000000	101.195299
1816.000000	101.195070
1815.000000	101.196156
1814.000000	101.198463
1813.000000	101.200715
1812.000000	101.201186
1811.000000	101.199367
1810.000000	101.196481
1809.000000	101.194403
1808.000000	101.194367
1807.000000	101.196041
1806.000000	101.197728
1805.000000	101.198084
1804.000000	101.197398
1803.000000	101.196859
1802.000000	101.197061
1801.000000	101.197736
1800.000000	101.198791
1799.000000	101.200271
1798.000000	101.201498
1797.000000	101.201836
1796.000000	101.201961
1795.000000	101.203153
1794.000000	101.205649
1793.000000	101.208045
1792.000000	101.209060
1791.000000	101.209467
1790.000000	101.210663
1789.000000	101.212769
1788.000000	101.215117
1787.000000	101.217092
1786.000000	101.218380
1785.000000	101.219104
1784.000000	101.219762
1783.000000	101.220751
1782.000000	101.222126
1781.000000	101.223869
1780.000000	101.226204
1779.000000	101.229254
1778.000000	101.232634
1777.000000	101.235691
1776.000000	101.237969
1775.000000	101.239342
1774.000000	101.239970
1773.000000	101.240411
1772.000000	101.241650
1771.000000	101.244219
1770.000000	101.247384
1769.000000	101.249843
1768.000000	101.251130
1767.000000	101.252114
1766.000000	101.253952
1765.000000	101.256715
1764.000000	101.259531
1763.000000	101.261513
1762.000000	101.262578
1761.000000	101.263553
1760.000000	101.265224
1759.000000	101.267517
1758.000000	101.269697
1757.000000	101.271069
1756.000000	101.271839
1755.000000	101.273130
1754.000000	101.275570
1753.000000	101.278322
1752.000000	101.279631
1751.000000	101.278662
1750.000000	101.276922
1749.000000	101.276649
1748.000000	101.278184
1747.000000	101.280488
1746.000000	101.282560
1745.000000	101.283630
1744.000000	101.283241
1743.000000	101.281973
1742.000000	101.281200
1741.000000	101.281306
1740.000000	101.281088
1739.000000	101.279859
1738.000000	101.278837
1737.000000	101.278960
1736.000000	101.279806
1735.000000	101.280384
1734.000000	101.280508
1733.000000	101.281132
1732.000000	101.281790
1731.000000	101.281019
1730.000000	101.278895
1729.000000	101.276788
1728.000000	101.275281
1727.000000	101.273970
1726.000000	101.272638
1725.000000	101.271589
1724.000000	101.270689
1723.000000	101.269203
1722.000000	101.266934
1721.000000	101.264714
1720.000000	101.263519
1719.000000	101.263729
1718.000000	101.264459
1717.000000	101.263812
1716.000000	101.261372
1715.000000	101.258000
1714.000000	101.253966
1713.000000	101.249805
1712.000000	101.246235
1711.000000	101.242949
1710.000000	101.239138
1709.000000	101.234761
1708.000000	101.230770
1707.000000	101.228065
1706.000000	101.226380
1705.000000	101.224700
1704.000000	101.222672
1703.000000	101.220145
1702.000000	101.216561
1701.000000	101.211204
1700.000000	101.205487
1699.000000	101.201610
1698.000000	101.198005
1697.000000	101.192280
1696.000000	101.185327
1695.000000	101.180180
1694.000000	101.177087
1693.000000	101.173780
1692.000000	101.169251
1691.000000	101.163981
1690.000000	101.158864
1689.000000	101.154359
1688.000000	101.150320
1687.000000	101.146287
1686.000000	101.141777
1685.000000	101.136528
1684.000000	101.131445
1683.000000	101.127754
1682.000000	101.125004
1681.000000	101.122131
1680.000000	101.118740
1679.000000	101.114977
1678.000000	101.111027
1677.000000	101.106919
1676.000000	101.102663
1675.000000	101.098487
1674.000000	101.094634
1673.000000	101.091015
1672.000000	101.087406
1671.000000	101.083697
1670.000000	101.079934
1669.000000	101.076277
1668.000000	101.072827
1667.000000	101.069529
1666.000000	101.066266
1665.000000	101.062946
1664.000000	101.059525
1663.000000	101.056036
1662.000000	101.052616
1661.000000	101.049412
1660.000000	101.046462
1659.000000	101.043681
1658.000000	101.040882
1657.000000	101.037854
1656.000000	101.034418
1655.000000	101.030640
1654.000000	101.027048
1653.000000	101.024610
1652.000000	101.023609
1651.000000	101.022818
1650.000000	101.021515
1649.000000	101.019703
1648.000000	101.017272
1647.000000	101.014125
1646.000000	101.011238
1645.000000	101.009587
1644.000000	101.008552
1643.000000	101.006939
1642.000000	101.004419
1641.000000	101.001471
1640.000000	100.999019
1639.000000	100.997546
1638.000000	100.996754
1637.000000	100.995996
1636.000000	100.994876
1635.000000	100.993726
1634.000000	100.992706
1633.000000	100.991022
1632.000000	100.988305
1631.000000	100.985343
1630.000000	100.983366
1629.000000	100.983553
1628.000000	100.986193
1627.000000	100.990238
1626.000000	100.993860
1625.000000	100.995228
1624.000000	100.992786
1623.000000	100.986504
1622.000000	100.979612
1621.000000	100.976164
1620.000000	100.977481
1619.000000	100.982728
1618.000000	100.989760
1617.000000	100.995669
1616.000000	100.999439
1615.000000	101.002054
1614.000000	101.004020
1613.000000	101.005171
1612.000000	101.005570
1611.000000	101.005713
1610.000000	101.006293
1609.000000	101.007778
1608.000000	101.010408
1607.000000	101.014290
1606.000000	101.019529
1605.000000	101.025710
1604.000000	101.031728
1603.000000	101.036911
1602.000000	101.041851
1601.000000	101.047328
1600.000000	101.052631
1599.000000	101.056328
1598.000000	101.058596
1597.000000	101.061453
1596.000000	101.066559
1595.000000	101.073584
1594.000000	101.080957
1593.000000	101.087671
1592.000000	101.093644
1591.000000	101.098899
1590.000000	101.103560
1589.000000	101.108404
1588.000000	101.114399
1587.000000	101.121515
1586.000000	101.128716
1585.000000	101.134865
1584.000000	101.139144
1583.000000	101.141423
1582.000000	101.142617
1581.000000	101.144224
1580.000000	101.147214
1579.000000	101.151715
1578.000000	101.157488
1577.000000	101.163492
1576.000000	101.167453
1575.000000	101.168466
1574.000000	101.168939
1573.000000	101.171533
1572.000000	101.176578
1571.000000	101.182344
1570.000000	101.186126
1569.000000	101.187282
1568.000000	101.187476
1567.000000	101.188017
1566.000000	101.189303
1565.000000	101.191561
1564.000000	101.194057
1563.000000	101.195816
1562.000000	101.196789
1561.000000	101.198444
1560.000000	101.202742
1559.000000	101.206755
1558.000000	101.207603
1557.000000	101.209168
1556.000000	101.212868
1555.000000	101.216693
1554.000000	101.219879
1553.000000	101.221542
1552.000000	101.221891
1551.000000	101.221526
1550.000000	101.221837
1549.000000	101.223743
1548.000000	101.226598
1547.000000	101.228765
1546.000000	101.229367
1545.000000	101.228834
1544.000000	101.228552
1543.000000	101.229348
1542.000000	101.230423
1541.000000	101.229592
1540.000000	101.226471
1539.000000	101.224802
1538.000000	101.226494
1537.000000	101.229346
1536.000000	101.231353
1535.000000	101.232259
1534.000000	101.232703
1533.000000	101.233503
1532.000000	101.234573
1531.000000	101.235009
1530.000000	101.234146
1529.000000	101.232692
1528.000000	101.232230
1527.000000	101.233618
1526.000000	101.236254
1525.000000	101.239071
1524.000000	101.241863
1523.000000	101.245006
1522.000000	101.247909
1521.000000	101.249357
1520.000000	101.249677
1519.000000	101.249953
1518.000000	101.250554
1517.000000	101.251753
1516.000000	101.254153
1515.000000	101.257653
1514.000000	101.260811
1513.000000	101.262002
1512.000000	101.260925
1511.000000	101.258896
1510.000000	101.257409
1509.000000	101.256872
1508.000000	101.256936
1507.000000	101.257069
1506.000000	101.257277
1505.000000	101.257425
1504.000000	101.256904
1503.000000	101.256088
1502.000000	101.255888
1501.000000	101.256201
1500.000000	101.256482
1499.000000	101.256523
1498.000000	101.256376
1497.000000	101.255153
1496.000000	101.252497
1495.000000	101.250074
1494.000000	101.248872
1493.000000	101.247673
1492.000000	101.245229
1491.000000	101.242374
1490.000000	101.241521
1489.000000	101.242926
1488.000000	101.243960
1487.000000	101.242799
1486.000000	101.240073
1485.000000	101.237596
1484.000000	101.236374
1483.000000	101.236081
1482.000000	101.236033
1481.000000	101.235813
1480.000000	101.235123
1479.000000	101.233557
1478.000000	101.230885
1477.000000	101.227586
1476.000000	101.224841
1475.000000	101.223347
1474.000000	101.222216
1473.000000	101.219564
1472.000000	101.214979
1471.000000	101.210375
1470.000000	101.207203
1469.000000	101.205188
1468.000000	101.203483
1467.000000	101.201259
1466.000000	101.197974
1465.000000	101.193877
1464.000000	101.190311
1463.000000	101.188333
1462.000000	101.187442
1461.000000	101.186531
1460.000000	101.185047
1459.000000	101.183023
1458.000000	101.180273
1457.000000	101.176417
1456.000000	101.172636
1455.000000	101.170449
1454.000000	101.169450
1453.000000	101.168589
1452.000000	101.167961
1451.000000	101.168498
1450.000000	101.170166
1449.000000	101.170578
1448.000000	101.167447
1447.000000	101.162419
1446.000000	101.159702
1445.000000	101.160353
1444.000000	101.161548
1443.000000	101.160394
1442.000000	101.157051
1441.000000	101.154150
1440.000000	101.153641
1439.000000	101.155186
1438.000000	101.156806
1437.000000	101.155716
1436.000000	101.150780
1435.000000	101.144622
1434.000000	101.140077
1433.000000	101.137719
1432.000000	101.137534
1431.000000	101.139170
1430.000000	101.141573
1429.000000	101.143583
1428.000000	101.144911
1427.000000	101.145890
1426.000000	101.146545
1425.000000	101.146659
1424.000000	101.146390
1423.000000	101.146543
1422.000000	101.147264
1421.000000	101.147152
1420.000000	101.144945
1419.000000	101.142938
1418.000000	101.145691
1417.000000	101.152703
1416.000000	101.159411
1415.000000	101.164224
1414.000000	101.169030
1413.000000	101.175037
1412.000000	101.180771
1411.000000	101.184626
1410.000000	101.187559
1409.000000	101.191015
1408.000000	101.194675
1407.000000	101.198176
1406.000000	101.203144
1405.000000	101.211099
1404.000000	101.219961
1403.000000	101.226159
1402.000000	101.229222
1401.000000	101.231457
1400.000000	101.234756
1399.000000	101.238946
1398.000000	101.243286
1397.000000	101.247867
1396.000000	101.252815
1395.000000	101.257611
1394.000000	101.262048
1393.000000	101.266184
1392.000000	101.269210
1391.000000	101.270702
1390.000000	101.271812
1389.000000	101.274367
1388.000000	101.279179
1387.000000	101.284862
1386.000000	101.288798
1385.000000	101.289142
1384.000000	101.285756
1383.000000	101.280275
1382.000000	101.275192
1381.000000	101.272101
1380.000000	101.271318
1379.000000	101.272889
1378.000000	101.276804
1377.000000	101.282051
1376.000000	101.286340
1375.000000	101.287404
1374.000000	101.284999
1373.000000	101.281230
1372.000000	101.278407
1371.000000	101.277583
1370.000000	101.278975
1369.000000	101.281890
1368.000000	101.284129
1367.000000	101.283823
1366.000000	101.281878
1365.000000	101.281029
1364.000000	101.282625
1363.000000	101.284902
1362.000000	101.285195
1361.000000	101.283484
1360.000000	101.281664
1359.000000	101.280472
1358.000000	101.279189
1357.000000	101.277518
1356.000000	101.276339
1355.000000	101.276567
1354.000000	101.277886
1353.000000	101.279005
1352.000000	101.279162
1351.000000	101.278692
1350.000000	101.278320
1349.000000	101.278701
1348.000000	101.280005
1347.000000	101.281748
1346.000000	101.283177
1345.000000	101.283960
1344.000000	101.284283
1343.000000	101.284326
1342.000000	101.283986
1341.000000	101.283279
1340.000000	101.282644
1339.000000	101.282534
1338.000000	101.282867
1337.000000	101.283018
1336.000000	101.282353
1335.000000	101.280847
1334.000000	101.279238
1333.000000	101.278708
1332.000000	101.280124
1331.000000	101.282971
1330.000000	101.285235
1329.000000	101.285113
1328.000000	101.282882
1327.000000	101.280563
1326.000000	101.279891
1325.000000	101.281150
1324.000000	101.283580
1323.000000	101.286148
1322.000000	101.287611
1321.000000	101.286652
1320.000000	101.283064
1319.000000	101.278796
1318.000000	101.276713
1317.000000	101.277626
1316.000000	101.279468
1315.000000	101.279854
1314.000000	101.278806
1313.000000	101.278488
1312.000000	101.280495
1311.000000	101.283944
1310.000000	101.286470
1309.000000	101.286746
1308.000000	101.285646
1307.000000	101.284902
1306.000000	101.284780
1305.000000	101.283691
1304.000000	101.280218
1303.000000	101.275156
1302.000000	101.271267
1301.000000	101.271096
1300.000000	101.275172
1299.000000	101.281769
1298.000000	101.287754
1297.000000	101.290178
1296.000000	101.287992
1295.000000	101.282747
1294.000000	101.277488
1293.000000	101.274475
1292.000000	101.273756
1291.000000	101.273435
1290.000000	101.271100
1289.000000	101.265836
1288.000000	101.259529
1287.000000	101.255355
1286.000000	101.253979
1285.000000	101.252103
1284.000000	101.246127
1283.000000	101.236711
1282.000000	101.228231
1281.000000	101.223971
1280.000000	101.223451
1279.000000	101.224196
1278.000000	101.224288
1277.000000	101.222928
1276.000000	101.220416
1275.000000	101.218516
1274.000000	101.219457
1273.000000	101.223393
1272.000000	101.227483
1271.000000	101.228486
1270.000000	101.226227
1269.000000	101.223934
1268.000000	101.225063
1267.000000	101.229812
1266.000000	101.234690
1265.000000	101.235883
1264.000000	101.233364
1263.000000	101.230986
1262.000000	101.231762
1261.000000	101.233890
1260.000000	101.232744
1259.000000	101.226156
1258.000000	101.216342
1257.000000	101.206992
1256.000000	101.200190
1255.000000	101.195891
1254.000000	101.192381
1253.000000	101.186894
1252.000000	101.177344
1251.000000	101.164111
1250.000000	101.149402
1249.000000	101.134778
1248.000000	101.120124
1247.000000	101.104805
1246.000000	101.088736
1245.000000	101.072482
1244.000000	101.057283
1243.000000	101.044406
1242.000000	101.033189
1241.000000	101.020574
1240.000000	101.004436
1239.000000	100.986727
1238.000000	100.971313
1237.000000	100.958944
1236.000000	100.946355
1235.000000	100.930031
1234.000000	100.908805
1233.000000	100.883077
1232.000000	100.853917
1231.000000	100.823250
1230.000000	100.792694
1229.000000	100.761699
1228.000000	100.728540
1227.000000	100.692797
1226.000000	100.654527
1225.000000	100.611434
1224.000000	100.560165
1223.000000	100.501106
1222.000000	100.438884
1221.000000	100.376727
1220.000000	100.312601
1219.000000	100.242393
1218.000000	100.165060
1217.000000	100.083206
1216.000000	99.999796
1215.000000	99.915326
1214.000000	99.827678
1213.000000	99.734682
1212.000000	99.637363
1211.000000	99.539745
1210.000000	99.444448
1209.000000	99.350303
1208.000000	99.256316
1207.000000	99.165641
1206.000000	99.082090
1205.000000	99.003856
1204.000000	98.924544
1203.000000	98.840278
1202.000000	98.752866
1201.000000	98.666043
1200.000000	98.581151
1199.000000	98.496836
1198.000000	98.411247
1197.000000	98.324195
1196.000000	98.237946
1195.000000	98.155215
1194.000000	98.075467
1193.000000	97.994244
1192.000000	97.907213
1191.000000	97.813999
1190.000000	97.717536
1189.000000	97.621186
1188.000000	97.527297
1187.000000	97.436520
1186.000000	97.346822
1185.000000	97.254451
1184.000000	97.157128
1183.000000	97.055445
1182.000000	96.950955
1181.000000	96.844470
1180.000000	96.736338
1179.000000	96.626323
1178.000000	96.513088
1177.000000	96.395973
1176.000000	96.276814
1175.000000	96.157152
1174.000000	96.034369
1173.000000	95.904650
1172.000000	95.769451
1171.000000	95.634506
1170.000000	95.502706
1169.000000	95.373373
1168.000000	95.248845
1167.000000	95.135474
1166.000000	95.036973
1165.000000	94.953787
1164.000000	94.891607
1163.000000	94.863667
1162.000000	94.879763
1161.000000	94.935365
1160.000000	95.011592
1159.000000	95.082142
1158.000000	95.122543
1157.000000	95.120482
1156.000000	95.080203
1155.000000	95.014485
1154.000000	94.932164
1153.000000	94.836436
1152.000000	94.732716
1151.000000	94.629662
1150.000000	94.530831
1149.000000	94.432750
1148.000000	94.333404
1147.000000	94.235778
1146.000000	94.141230
1145.000000	94.046928
1144.000000	93.952383
1143.000000	93.860946
1142.000000	93.771982
1141.000000	93.679196
1140.000000	93.579987
1139.000000	93.479076
1138.000000	93.379717
1137.000000	93.279244
1136.000000	93.177127
1135.000000	93.078942
1134.000000	92.986963
1133.000000	92.894093
1132.000000	92.792736
1131.000000	92.683436
1130.000000	92.570207
1129.000000	92.454016
1128.000000	92.336063
1127.000000	92.221009
1126.000000	92.111097
1125.000000	92.002324
1124.000000	91.891120
1123.000000	91.779272
1122.000000	91.668194
1121.000000	91.554839
1120.000000	91.438297
1119.000000	91.324158
1118.000000	91.216884
1117.000000	91.113597
1116.000000	91.010331
1115.000000	90.908551
1114.000000	90.810831
1113.000000	90.715610
1112.000000	90.620060
1111.000000	90.522676
1110.000000	90.420873
1109.000000	90.312836
1108.000000	90.203709
1107.000000	90.102473
1106.000000	90.010261
1105.000000	89.918986
1104.000000	89.823040
1103.000000	89.724067
1102.000000	89.623355
1101.000000	89.519334
1100.000000	89.414742
1099.000000	89.316256
1098.000000	89.223359
1097.000000	89.127974
1096.000000	89.027919
1095.000000	88.931617
1094.000000	88.846647
1093.000000	88.772830
1092.000000	88.708281
1091.000000	88.652178
1090.000000	88.599839
1089.000000	88.545531
1088.000000	88.491686
1087.000000	88.444917
1086.000000	88.402468
1085.000000	88.354606
1084.000000	88.301438
1083.000000	88.254495
1082.000000	88.219444
1081.000000	88.189490
1080.000000	88.158059
1079.000000	88.125580
1078.000000	88.091616
1077.000000	88.052746
1076.000000	88.010117
1075.000000	87.966289
1074.000000	87.912893
1073.000000	87.835042
1072.000000	87.730284
1071.000000	87.610159
1070.000000	87.480323
1069.000000	87.332106
1068.000000	87.157418
1067.000000	86.959393
1066.000000	86.744950
1065.000000	86.519101
1064.000000	86.290155
1063.000000	86.068225
1062.000000	85.854966
1061.000000	85.646646
1060.000000	85.448427
1059.000000	85.270959
1058.000000	85.111031
1057.000000	84.951859
1056.000000	84.785666
1055.000000	84.620089
1054.000000	84.459140
1053.000000	84.294570
1052.000000	84.121137
1051.000000	83.943467
1050.000000	83.761680
1049.000000	83.567974
1048.000000	83.363154
1047.000000	83.157719
1046.000000	82.952547
1045.000000	82.737711
1044.000000	82.513543
1043.000000	82.293576
1042.000000	82.082311
1041.000000	81.868693
1040.000000	81.647316
1039.000000	81.428430
1038.000000	81.220975
1037.000000	81.023426
1036.000000	80.837212
1035.000000	80.670779
1034.000000	80.523326
1033.000000	80.382048
1032.000000	80.242590
1031.000000	80.116031
1030.000000	80.009556
1029.000000	79.916347
1028.000000	79.829503
1027.000000	79.749469
1026.000000	79.673240
1025.000000	79.593240
1024.000000	79.511427
1023.000000	79.438157
1022.000000	79.373813
1021.000000	79.308142
1020.000000	79.239411
1019.000000	79.175649
1018.000000	79.115147
1017.000000	79.046001
1016.000000	78.968281
1015.000000	78.896511
1014.000000	78.836190
1013.000000	78.777144
1012.000000	78.713614
1011.000000	78.651442
1010.000000	78.591985
1009.000000	78.528914
1008.000000	78.464882
1007.000000	78.412029
1006.000000	78.372683
1005.000000	78.338685
1004.000000	78.311310
1003.000000	78.300145
1002.000000	78.299672
1001.000000	78.290053
1000.000000	78.266051
999.000000	78.243174
998.000000	78.230569
997.000000	78.220958
996.000000	78.212924
995.000000	78.218975
994.000000	78.242397
993.000000	78.268062
992.000000	78.286538
991.000000	78.308464
990.000000	78.345344
989.000000	78.393793
988.000000	78.447220
987.000000	78.506499
986.000000	78.571768
985.000000	78.640156
984.000000	78.718099
983.000000	78.819454
982.000000	78.945329
981.000000	79.081551
980.000000	79.220949
979.000000	79.371635
978.000000	79.538954
977.000000	79.717391
976.000000	79.905711
975.000000	80.112058
974.000000	80.337083
973.000000	80.567978
972.000000	80.795656
971.000000	81.023781
970.000000	81.256382
969.000000	81.491526
968.000000	81.731230
967.000000	81.981920
966.000000	82.240018
965.000000	82.491600
964.000000	82.730956
963.000000	82.965654
962.000000	83.199713
961.000000	83.426465
960.000000	83.642489
959.000000	83.854285
958.000000	84.065859
957.000000	84.272393
956.000000	84.470731
955.000000	84.663910
954.000000	84.851689
953.000000	85.028966
952.000000	85.197080
951.000000	85.364161
950.000000	85.530422
949.000000	85.685283
948.000000	85.822682
947.000000	85.947106
946.000000	86.061770
945.000000	86.163998
944.000000	86.256742
943.000000	86.351848
942.000000	86.455556
941.000000	86.560721
940.000000	86.658307
939.000000	86.747581
938.000000	86.832343
937.000000	86.917087
936.000000	87.009088
935.000000	87.113382
934.000000	87.222998
933.000000	87.324720
932.000000	87.416507
931.000000	87.508722
930.000000	87.607392
929.000000	87.708429
928.000000	87.809450
927.000000	87.913260
926.000000	88.016692
925.000000	88.110166
924.000000	88.193389
923.000000	88.279336
922.000000	88.377395
921.000000	88.483069
920.000000	88.587754
919.000000	88.687101
918.000000	88.776221
917.000000	88.849524
916.000000	88.911549
915.000000	88.977546
914.000000	89.057533
913.000000	89.148731
912.000000	89.247224
911.000000	89.356158
910.000000	89.477671
909.000000	89.608175
908.000000	89.748595
907.000000	89.910043
906.000000	90.102086
905.000000	90.321346
904.000000	90.555292
903.000000	90.791587
902.000000	91.022607
901.000000	91.248141
900.000000	91.475445
899.000000	91.710416
898.000000	91.948284
897.000000	92.179131
896.000000	92.400302
895.000000	92.615151
894.000000	92.822238
893.000000	93.016321
892.000000	93.198894
891.000000	93.377035
890.000000	93.552289
889.000000	93.721591
888.000000	93.888469
887.000000	94.060393
886.000000	94.233525
885.000000	94.393457
884.000000	94.535294
883.000000	94.671756
882.000000	94.817056
881.000000	94.972849
880.000000	95.134083
879.000000	95.297203
878.000000	95.456929
877.000000	95.606029
876.000000	95.745621
875.000000	95.887142
874.000000	96.037910
873.000000	96.192671
872.000000	96.344594
871.000000	96.495951
870.000000	96.652323
869.000000	96.813978
868.000000	96.978445
867.000000	97.144106
866.000000	97.305331
865.000000	97.451004
864.000000	97.575456
863.000000	97.687535
862.000000	97.803120
861.000000	97.930373
860.000000	98.065794
859.000000	98.200763
858.000000	98.326915
857.000000	98.438659
856.000000	98.536996
855.000000	98.630918
854.000000	98.730398
853.000000	98.836344
852.000000	98.938942
851.000000	99.025534
850.000000	99.089061
849.000000	99.130866
848.000000	99.158641
847.000000	99.182046
846.000000	99.207513
845.000000	99.234519
844.000000	99.255982
843.000000	99.263028
842.000000	99.251378
841.000000	99.223950
840.000000	99.185871
839.000000	99.136805
838.000000	99.071220
837.000000	98.987359
836.000000	98.892437
835.000000	98.797108
834.000000	98.709071
833.000000	98.635663
832.000000	98.586937
831.000000	98.567806
830.000000	98.569373
829.000000	98.576614
828.000000	98.583628
827.000000	98.593103
826.000000	98.603649
825.000000	98.610337
824.000000	98.617882
823.000000	98.638300
822.000000	98.671375
821.000000	98.700133
820.000000	98.708859
819.000000	98.694496
818.000000	98.658944
817.000000	98.601175
816.000000	98.520536
815.000000	98.419115
814.000000	98.295227
813.000000	98.138488
812.000000	97.933398
811.000000	97.663494
810.000000	97.312911
809.000000	96.873147
808.000000	96.352324
807.000000	95.771826
806.000000	95.151773
805.000000	94.507983
804.000000	93.864202
803.000000	93.252943
802.000000	92.697839
801.000000	92.209290
800.000000	91.804575
799.000000	91.514546
798.000000	91.357181
797.000000	91.316624
796.000000	91.358768
795.000000	91.456587
794.000000	91.592424
793.000000	91.748675
792.000000	91.907780
791.000000	92.054251
790.000000	92.170117
789.000000	92.236748
788.000000	92.247383
787.000000	92.209926
786.000000	92.131199
785.000000	92.005847
784.000000	91.827175
783.000000	91.602871
782.000000	91.355820
781.000000	91.117657
780.000000	90.926244
779.000000	90.817700
778.000000	90.809449
777.000000	90.894099
776.000000	91.052362
775.000000	91.264625
774.000000	91.509835
773.000000	91.766483
772.000000	92.020894
771.000000	92.266176
770.000000	92.490279
769.000000	92.676140
768.000000	92.819233
767.000000	92.935395
766.000000	93.043793
765.000000	93.148329
764.000000	93.241554
763.000000	93.320168
762.000000	93.389993
761.000000	93.460585
760.000000	93.540388
759.000000	93.632720
758.000000	93.732017
757.000000	93.828573
756.000000	93.920672
755.000000	94.017253
754.000000	94.125422
753.000000	94.240553
752.000000	94.351981
751.000000	94.453627
750.000000	94.546496
749.000000	94.636174
748.000000	94.731245
747.000000	94.839147
746.000000	94.959443
745.000000	95.084243
744.000000	95.207852
743.000000	95.333632
742.000000	95.470997
741.000000	95.628930
740.000000	95.810785
739.000000	96.008788
738.000000	96.203759
737.000000	96.377763
736.000000	96.528690
735.000000	96.666877
734.000000	96.798079
733.000000	96.917124
732.000000	97.017676
731.000000	97.098782
730.000000	97.160098
729.000000	97.200524
728.000000	97.226077
727.000000	97.251089
726.000000	97.285749
725.000000	97.328067
724.000000	97.373155
723.000000	97.425222
722.000000	97.495143
721.000000	97.589143
720.000000	97.702647
719.000000	97.822032
718.000000	97.931213
717.000000	98.021467
716.000000	98.098141
715.000000	98.174663
714.000000	98.257083
713.000000	98.337235
712.000000	98.402542
711.000000	98.447981
710.000000	98.476880
709.000000	98.495908
708.000000	98.511818
707.000000	98.526464
706.000000	98.530655
705.000000	98.507298
704.000000	98.444012
703.000000	98.338131
702.000000	98.186998
701.000000	97.980877
700.000000	97.711676
699.000000	97.385685
698.000000	97.027459
697.000000	96.678927
696.000000	96.395403
695.000000	96.228178
694.000000	96.198701
693.000000	96.289900
692.000000	96.463114
691.000000	96.679334
690.000000	96.905099
689.000000	97.110561
688.000000	97.276770
687.000000	97.405806
686.000000	97.514222
685.000000	97.615897
684.000000	97.716104
683.000000	97.816216
682.000000	97.914827
681.000000	98.006248
680.000000	98.086285
679.000000	98.159947
678.000000	98.237552
677.000000	98.322960
676.000000	98.409301
675.000000	98.486796
674.000000	98.549849
673.000000	98.597888
672.000000	98.635503
671.000000	98.673909
670.000000	98.729801
669.000000	98.820208
668.000000	98.939354
667.000000	99.044701
666.000000	99.113589
665.000000	99.163313
664.000000	99.206083
663.000000	99.239625
662.000000	99.258365
661.000000	99.264375
660.000000	99.268532
659.000000	99.282928
658.000000	99.310552
657.000000	99.339392
656.000000	99.347908
655.000000	99.320385
654.000000	99.260567
653.000000	99.190220
652.000000	99.134627
651.000000	99.110690
650.000000	99.123238
