4000.000000	100.521529
3999.000000	100.520966
3998.000000	100.519266
3997.000000	100.516425
3996.000000	100.513085
3995.000000	100.510236
3994.000000	100.508524
3993.000000	100.507894
3992.000000	100.507735
3991.000000	100.507537
3990.000000	100.507381
3989.000000	100.507628
3988.000000	100.508277
3987.000000	100.508852
3986.000000	100.508921
3985.000000	100.508564
3984.000000	100.508305
3983.000000	100.508575
3982.000000	100.509243
3981.000000	100.509651
3980.000000	100.509170
3979.000000	100.507708
3978.000000	100.505748
3977.000000	100.504040
3976.000000	100.503101
3975.000000	100.503001
3974.000000	100.503435
3973.000000	100.503915
3972.000000	100.504095
3971.000000	100.503886
3970.000000	100.503374
3969.000000	100.502698
3968.000000	100.501987
3967.000000	100.501375
3966.000000	100.500957
3965.000000	100.500683
3964.000000	100.500408
3963.000000	100.500123
3962.000000	100.500061
3961.000000	100.500514
3960.000000	100.501558
3959.000000	100.502904
3958.000000	100.503947
3957.000000	100.504097
3956.000000	100.503118
3955.000000	100.501362
3954.000000	100.499646
3953.000000	100.498669
3952.000000	100.498572
3951.000000	100.499003
3950.000000	100.499644
3949.000000	100.500511
3948.000000	100.501588
3947.000000	100.502425
3946.000000	100.502424
3945.000000	100.501605
3944.000000	100.500928
3943.000000	100.501511
3942.000000	100.503283
3941.000000	100.504769
3940.000000	100.504751
3939.000000	100.503734
3938.000000	100.503421
3937.000000	100.504889
3936.000000	100.507522
3935.000000	100.509838
3934.000000	100.510861
3933.000000	100.510345
3932.000000	100.508151
3931.000000	100.504303
3930.000000	100.499859
3929.000000	100.496553
3928.000000	100.495284
3927.000000	100.495540
3926.000000	100.496429
3925.000000	100.498056
3924.000000	100.501296
3923.000000	100.506312
3922.000000	100.512205
3921.000000	100.517515
3920.000000	100.520828
3919.000000	100.521402
3918.000000	100.519495
3917.000000	100.516165
3916.000000	100.512479
3915.000000	100.509031
3914.000000	100.506185
3913.000000	100.504222
3912.000000	100.503129
3911.000000	100.502717
3910.000000	100.503013
3909.000000	100.504335
3908.000000	100.506429
3907.000000	100.508130
3906.000000	100.508231
3905.000000	100.506959
3904.000000	100.505753
3903.000000	100.504949
3902.000000	100.503139
3901.000000	100.499636
3900.000000	100.495964
3899.000000	100.494358
3898.000000	100.495428
3897.000000	100.498028
3896.000000	100.500866
3895.000000	100.503288
3894.000000	100.505090
3893.000000	100.506686
3892.000000	100.509083
3891.000000	100.512662
3890.000000	100.515927
3889.000000	100.516984
3888.000000	100.515240
3887.000000	100.511492
3886.000000	100.507575
3885.000000	100.504922
3884.000000	100.503438
3883.000000	100.502758
3882.000000	100.503357
3881.000000	100.505848
3880.000000	100.509522
3879.000000	100.512443
3878.000000	100.513498
3877.000000	100.513186
3876.000000	100.512428
3875.000000	100.511926
3874.000000	100.512050
3873.000000	100.512705
3872.000000	100.513599
3871.000000	100.514828
3870.000000	100.516658
3869.000000	100.518480
3868.000000	100.519170
3867.000000	100.518626
3866.000000	100.517744
3865.000000	100.517298
3864.000000	100.517326
3863.000000	100.517435
3862.000000	100.517556
3861.000000	100.517931
3860.000000	100.518515
3859.000000	100.518984
3858.000000	100.519200
3857.000000	100.519321
3856.000000	100.519484
3855.000000	100.519522
3854.000000	100.519535
3853.000000	100.519746
3852.000000	100.519838
3851.000000	100.519645
3850.000000	100.519456
3849.000000	100.519430
3848.000000	100.519487
3847.000000	100.519510
3846.000000	100.519476
3845.000000	100.519442
3844.000000	100.519451
3843.000000	100.519481
3842.000000	100.519480
3841.000000	100.519418
3840.000000	100.519289
3839.000000	100.519103
3838.000000	100.518883
3837.000000	100.518647
3836.000000	100.518388
3835.000000	100.518086
3834.000000	100.517765
3833.000000	100.517500
3832.000000	100.517345
3831.000000	100.517273
3830.000000	100.517186
3829.000000	100.517031
3828.000000	100.516830
3827.000000	100.516640
3826.000000	100.516483
3825.000000	100.516321
3824.000000	100.516101
3823.000000	100.515795
3822.000000	100.515444
3821.000000	100.515174
3820.000000	100.514950
3819.000000	100.514611
3818.000000	100.514138
3817.000000	100.513666
3816.000000	100.513319
3815.000000	100.513054
3814.000000	100.512740
3813.000000	100.512382
3812.000000	100.512117
3811.000000	100.512013
3810.000000	100.511970
3809.000000	100.511806
3808.000000	100.511489
3807.000000	100.511211
3806.000000	100.511081
3805.000000	100.510938
3804.000000	100.510599
3803.000000	100.510053
3802.000000	100.509513
3801.000000	100.509180
3800.000000	100.508914
3799.000000	100.508602
3798.000000	100.508499
3797.000000	100.508803
3796.000000	100.509370
3795.000000	100.509835
3794.000000	100.510028
3793.000000	100.510048
3792.000000	100.510057
3791.000000	100.510100
3790.000000	100.510114
3789.000000	100.510053
3788.000000	100.509948
3787.000000	100.509890
3786.000000	100.509968
3785.000000	100.510200
3784.000000	100.510508
3783.000000	100.510793
3782.000000	100.511025
3781.000000	100.511259
3780.000000	100.511553
3779.000000	100.511909
3778.000000	100.512247
3777.000000	100.512494
3776.000000	100.512717
3775.000000	100.513092
3774.000000	100.513716
3773.000000	100.514521
3772.000000	100.515323
3771.000000	100.516001
3770.000000	100.516530
3769.000000	100.516883
3768.000000	100.517018
3767.000000	100.517079
3766.000000	100.517340
3765.000000	100.517842
3764.000000	100.518269
3763.000000	100.518304
3762.000000	100.518041
3761.000000	100.517948
3760.000000	100.518407
3759.000000	100.519305
3758.000000	100.520046
3757.000000	100.520194
3756.000000	100.519853
3755.000000	100.519468
3754.000000	100.519484
3753.000000	100.519976
3752.000000	100.520419
3751.000000	100.520158
3750.000000	100.519044
3749.000000	100.517531
3748.000000	100.516192
3747.000000	100.515299
3746.000000	100.514856
3745.000000	100.515145
3744.000000	100.516122
3743.000000	100.516393
3742.000000	100.515370
3741.000000	100.514576
3740.000000	100.515501
3739.000000	100.517927
3738.000000	100.519598
3737.000000	100.518408
3736.000000	100.514743
3735.000000	100.511030
3734.000000	100.508790
3733.000000	100.507509
3732.000000	100.506119
3731.000000	100.503770
3730.000000	100.499956
3729.000000	100.495028
3728.000000	100.490204
3727.000000	100.486805
3726.000000	100.485268
3725.000000	100.485022
3724.000000	100.485758
3723.000000	100.487703
3722.000000	100.490435
3721.000000	100.492053
3720.000000	100.490616
3719.000000	100.486040
3718.000000	100.479613
3717.000000	100.472781
3716.000000	100.466882
3715.000000	100.463181
3714.000000	100.461911
3713.000000	100.461189
3712.000000	100.459260
3711.000000	100.456485
3710.000000	100.453456
3709.000000	100.450307
3708.000000	100.447312
3707.000000	100.444955
3706.000000	100.442975
3705.000000	100.439758
3704.000000	100.433790
3703.000000	100.426089
3702.000000	100.420771
3701.000000	100.420175
3700.000000	100.421000
3699.000000	100.418759
3698.000000	100.413413
3697.000000	100.408642
3696.000000	100.407640
3695.000000	100.410473
3694.000000	100.415255
3693.000000	100.419693
3692.000000	100.420761
3691.000000	100.415266
3690.000000	100.403402
3689.000000	100.390187
3688.000000	100.379354
3687.000000	100.369759
3686.000000	100.359604
3685.000000	100.349230
3684.000000	100.340183
3683.000000	100.332618
3682.000000	100.324624
3681.000000	100.315259
3680.000000	100.306671
3679.000000	100.301059
3678.000000	100.296990
3677.000000	100.289704
3676.000000	100.278873
3675.000000	100.268347
3674.000000	100.255376
3673.000000	100.236172
3672.000000	100.214571
3671.000000	100.196161
3670.000000	100.185141
3669.000000	100.180109
3668.000000	100.174267
3667.000000	100.164298
3666.000000	100.151433
3665.000000	100.136627
3664.000000	100.119742
3663.000000	100.101566
3662.000000	100.084280
3661.000000	100.070126
3660.000000	100.059769
3659.000000	100.052212
3658.000000	100.046159
3657.000000	100.041281
3656.000000	100.037060
3655.000000	100.030651
3654.000000	100.020352
3653.000000	100.008299
3652.000000	99.996881
3651.000000	99.983377
3650.000000	99.962306
3649.000000	99.933266
3648.000000	99.904503
3647.000000	99.885137
3646.000000	99.875300
3645.000000	99.868453
3644.000000	99.859725
3643.000000	99.849602
3642.000000	99.840251
3641.000000	99.832051
3640.000000	99.823648
3639.000000	99.814980
3638.000000	99.807479
3637.000000	99.801140
3636.000000	99.794225
3635.000000	99.785900
3634.000000	99.777680
3633.000000	99.770643
3632.000000	99.763115
3631.000000	99.752161
3630.000000	99.738375
3629.000000	99.729316
3628.000000	99.726992
3627.000000	99.722953
3626.000000	99.715424
3625.000000	99.711149
3624.000000	99.714696
3623.000000	99.724547
3622.000000	99.735925
3621.000000	99.744635
3620.000000	99.749875
3619.000000	99.753296
3618.000000	99.754837
3617.000000	99.753428
3616.000000	99.751693
3615.000000	99.754377
3614.000000	99.764570
3613.000000	99.781289
3612.000000	99.799949
3611.000000	99.816171
3610.000000	99.828720
3609.000000	99.838847
3608.000000	99.848432
3607.000000	99.857711
3606.000000	99.864485
3605.000000	99.866394
3604.000000	99.862948
3603.000000	99.856463
3602.000000	99.852223
3601.000000	99.855210
3600.000000	99.865923
3599.000000	99.879688
3598.000000	99.890411
3597.000000	99.894642
3596.000000	99.893154
3595.000000	99.889909
3594.000000	99.889636
3593.000000	99.893849
3592.000000	99.899735
3591.000000	99.903334
3590.000000	99.903031
3589.000000	99.901348
3588.000000	99.902939
3587.000000	99.908211
3586.000000	99.911248
3585.000000	99.908361
3584.000000	99.902724
3583.000000	99.899285
3582.000000	99.899049
3581.000000	99.899363
3580.000000	99.897616
3579.000000	99.893298
3578.000000	99.887379
3577.000000	99.881208
3576.000000	99.876650
3575.000000	99.875692
3574.000000	99.878704
3573.000000	99.883479
3572.000000	99.886369
3571.000000	99.884708
3570.000000	99.877893
3569.000000	99.867196
3568.000000	99.855807
3567.000000	99.847993
3566.000000	99.845637
3565.000000	99.847171
3564.000000	99.850310
3563.000000	99.853706
3562.000000	99.856839
3561.000000	99.859647
3560.000000	99.862078
3559.000000	99.863914
3558.000000	99.864804
3557.000000	99.864371
3556.000000	99.862048
3555.000000	99.857386
3554.000000	99.851048
3553.000000	99.845401
3552.000000	99.842806
3551.000000	99.843300
3550.000000	99.844781
3549.000000	99.845331
3548.000000	99.844738
3547.000000	99.843927
3546.000000	99.843460
3545.000000	99.843115
3544.000000	99.842626
3543.000000	99.842195
3542.000000	99.842109
3541.000000	99.842333
3540.000000	99.842656
3539.000000	99.843200
3538.000000	99.844486
3537.000000	99.846912
3536.000000	99.850026
3535.000000	99.852436
3534.000000	99.852827
3533.000000	99.850892
3532.000000	99.847483
3531.000000	99.844046
3530.000000	99.841838
3529.000000	99.841522
3528.000000	99.843059
3527.000000	99.845667
3526.000000	99.848224
3525.000000	99.849910
3524.000000	99.850480
3523.000000	99.850117
3522.000000	99.849221
3521.000000	99.848422
3520.000000	99.848486
3519.000000	99.849894
3518.000000	99.852395
3517.000000	99.855129
3516.000000	99.857387
3515.000000	99.859080
3514.000000	99.860464
3513.000000	99.861525
3512.000000	99.861940
3511.000000	99.861597
3510.000000	99.860889
3509.000000	99.860156
3508.000000	99.859148
3507.000000	99.857519
3506.000000	99.855824
3505.000000	99.855543
3504.000000	99.857807
3503.000000	99.862216
3502.000000	99.867120
3501.000000	99.871246
3500.000000	99.874573
3499.000000	99.877446
3498.000000	99.879496
3497.000000	99.879729
3496.000000	99.877701
3495.000000	99.874366
3494.000000	99.871732
3493.000000	99.871430
3492.000000	99.873441
3491.000000	99.876020
3490.000000	99.876971
3489.000000	99.875299
3488.000000	99.871711
3487.000000	99.867914
3486.000000	99.865304
3485.000000	99.864123
3484.000000	99.863695
3483.000000	99.863238
3482.000000	99.862609
3481.000000	99.862215
3480.000000	99.862229
3479.000000	99.862195
3478.000000	99.861617
3477.000000	99.860699
3476.000000	99.860132
3475.000000	99.860152
3474.000000	99.860248
3473.000000	99.859983
3472.000000	99.859666
3471.000000	99.859786
3470.000000	99.860049
3469.000000	99.859507
3468.000000	99.857709
3467.000000	99.855304
3466.000000	99.853312
3465.000000	99.852131
3464.000000	99.851463
3463.000000	99.850868
3462.000000	99.850065
3461.000000	99.848852
3460.000000	99.847152
3459.000000	99.845201
3458.000000	99.843430
3457.000000	99.842033
3456.000000	99.840755
3455.000000	99.839227
3454.000000	99.837452
3453.000000	99.835813
3452.000000	99.834619
3451.000000	99.833683
3450.000000	99.832512
3449.000000	99.830923
3448.000000	99.829264
3447.000000	99.827942
3446.000000	99.826835
3445.000000	99.825426
3444.000000	99.823529
3443.000000	99.821656
3442.000000	99.820527
3441.000000	99.820368
3440.000000	99.820829
3439.000000	99.821349
3438.000000	99.821393
3437.000000	99.820407
3436.000000	99.817946
3435.000000	99.814099
3434.000000	99.809830
3433.000000	99.806476
3432.000000	99.804815
3431.000000	99.804750
3430.000000	99.805731
3429.000000	99.807209
3428.000000	99.808589
3427.000000	99.809082
3426.000000	99.808045
3425.000000	99.805482
3424.000000	99.802078
3423.000000	99.798781
3422.000000	99.796420
3421.000000	99.795492
3420.000000	99.795937
3419.000000	99.797170
3418.000000	99.798667
3417.000000	99.800407
3416.000000	99.802458
3415.000000	99.804362
3414.000000	99.805380
3413.000000	99.805302
3412.000000	99.804434
3411.000000	99.802770
3410.000000	99.799854
3409.000000	99.795812
3408.000000	99.791945
3407.000000	99.789760
3406.000000	99.789593
3405.000000	99.790566
3404.000000	99.791752
3403.000000	99.793098
3402.000000	99.795136
3401.000000	99.798006
3400.000000	99.801078
3399.000000	99.803522
3398.000000	99.805132
3397.000000	99.806335
3396.000000	99.807419
3395.000000	99.808092
3394.000000	99.808009
3393.000000	99.807385
3392.000000	99.806614
3391.000000	99.805568
3390.000000	99.803920
3389.000000	99.802005
3388.000000	99.800758
3387.000000	99.800757
3386.000000	99.801751
3385.000000	99.803208
3384.000000	99.804936
3383.000000	99.806934
3382.000000	99.808936
3381.000000	99.810486
3380.000000	99.811401
3379.000000	99.811872
3378.000000	99.812199
3377.000000	99.812566
3376.000000	99.813083
3375.000000	99.813867
3374.000000	99.814936
3373.000000	99.816107
3372.000000	99.817102
3371.000000	99.817803
3370.000000	99.818341
3369.000000	99.818968
3368.000000	99.819866
3367.000000	99.821018
3366.000000	99.822271
3365.000000	99.823482
3364.000000	99.824610
3363.000000	99.825696
3362.000000	99.826764
3361.000000	99.827819
3360.000000	99.828870
3359.000000	99.829924
3358.000000	99.830985
3357.000000	99.832050
3356.000000	99.833111
3355.000000	99.834165
3354.000000	99.835215
3353.000000	99.836275
3352.000000	99.837360
3351.000000	99.838479
3350.000000	99.839626
3349.000000	99.840787
3348.000000	99.841949
3347.000000	99.843106
3346.000000	99.844258
3345.000000	99.845406
3344.000000	99.846544
3343.000000	99.847669
3342.000000	99.848777
3341.000000	99.849876
3340.000000	99.850970
3339.000000	99.852067
3338.000000	99.853165
3337.000000	99.854259
3336.000000	99.855350
3335.000000	99.856438
3334.000000	99.857532
3333.000000	99.858636
3332.000000	99.859753
3331.000000	99.860889
3330.000000	99.862040
3329.000000	99.863191
3328.000000	99.864332
3327.000000	99.865488
3326.000000	99.866699
3325.000000	99.867978
3324.000000	99.869250
3323.000000	99.870323
3322.000000	99.870999
3321.000000	99.871326
3320.000000	99.871727
3319.000000	99.872603
3318.000000	99.873892
3317.000000	99.875085
3316.000000	99.875855
3315.000000	99.876511
3314.000000	99.877711
3313.000000	99.879838
3312.000000	99.882676
3311.000000	99.885487
3310.000000	99.887498
3309.000000	99.888378
3308.000000	99.888446
3307.000000	99.888442
3306.000000	99.888871
3305.000000	99.889617
3304.000000	99.890182
3303.000000	99.890280
3302.000000	99.890192
3301.000000	99.890478
3300.000000	99.891390
3299.000000	99.892740
3298.000000	99.894379
3297.000000	99.896580
3296.000000	99.899693
3295.000000	99.903484
3294.000000	99.907107
3293.000000	99.909771
3292.000000	99.911302
3291.000000	99.912098
3290.000000	99.912850
3289.000000	99.914231
3288.000000	99.916294
3287.000000	99.917964
3286.000000	99.917657
3285.000000	99.914892
3284.000000	99.911204
3283.000000	99.909049
3282.000000	99.909635
3281.000000	99.912143
3280.000000	99.914834
3279.000000	99.916701
3278.000000	99.918044
3277.000000	99.919669
3276.000000	99.921891
3275.000000	99.924328
3274.000000	99.926519
3273.000000	99.928495
3272.000000	99.930692
3271.000000	99.933320
3270.000000	99.935930
3269.000000	99.937663
3268.000000	99.937904
3267.000000	99.936776
3266.000000	99.935172
3265.000000	99.934138
3264.000000	99.934089
3263.000000	99.934631
3262.000000	99.935178
3261.000000	99.935697
3260.000000	99.936654
3259.000000	99.938319
3258.000000	99.940412
3257.000000	99.942474
3256.000000	99.944335
3255.000000	99.946084
3254.000000	99.947792
3253.000000	99.949475
3252.000000	99.951228
3251.000000	99.953220
3250.000000	99.955553
3249.000000	99.958122
3248.000000	99.960517
3247.000000	99.962081
3246.000000	99.962363
3245.000000	99.961651
3244.000000	99.961031
3243.000000	99.961549
3242.000000	99.963246
3241.000000	99.965138
3240.000000	99.966159
3239.000000	99.966187
3238.000000	99.966110
3237.000000	99.966987
3236.000000	99.969177
3235.000000	99.972271
3234.000000	99.975496
3233.000000	99.978248
3232.000000	99.980298
3231.000000	99.981625
3230.000000	99.982305
3229.000000	99.982592
3228.000000	99.982971
3227.000000	99.983905
3226.000000	99.985439
3225.000000	99.987114
3224.000000	99.988395
3223.000000	99.989198
3222.000000	99.989948
3221.000000	99.991102
3220.000000	99.992699
3219.000000	99.994439
3218.000000	99.996089
3217.000000	99.997710
3216.000000	99.999491
3215.000000	100.001469
3214.000000	100.003469
3213.000000	100.005239
3212.000000	100.006635
3211.000000	100.007676
3210.000000	100.008512
3209.000000	100.009337
3208.000000	100.010295
3207.000000	100.011423
3206.000000	100.012685
3205.000000	100.014046
3204.000000	100.015492
3203.000000	100.017014
3202.000000	100.018597
3201.000000	100.020257
3200.000000	100.021991
3199.000000	100.023698
3198.000000	100.025245
3197.000000	100.026642
3196.000000	100.028072
3195.000000	100.029693
3194.000000	100.031475
3193.000000	100.033236
3192.000000	100.034819
3191.000000	100.036214
3190.000000	100.037537
3189.000000	100.038965
3188.000000	100.040623
3187.000000	100.042526
3186.000000	100.044519
3185.000000	100.046338
3184.000000	100.047844
3183.000000	100.049158
3182.000000	100.050504
3181.000000	100.051971
3180.000000	100.053507
3179.000000	100.055097
3178.000000	100.056846
3177.000000	100.058839
3176.000000	100.060955
3175.000000	100.062925
3174.000000	100.064591
3173.000000	100.066101
3172.000000	100.067788
3171.000000	100.069819
3170.000000	100.072053
3169.000000	100.074263
3168.000000	100.076416
3167.000000	100.078551
3166.000000	100.080465
3165.000000	100.081812
3164.000000	100.082575
3163.000000	100.083175
3162.000000	100.084003
3161.000000	100.085052
3160.000000	100.086156
3159.000000	100.087369
3158.000000	100.088890
3157.000000	100.090791
3156.000000	100.093015
3155.000000	100.095540
3154.000000	100.098375
3153.000000	100.101520
3152.000000	100.104980
3151.000000	100.108618
3150.000000	100.111949
3149.000000	100.114336
3148.000000	100.115540
3147.000000	100.115869
3146.000000	100.115683
3145.000000	100.115179
3144.000000	100.114813
3143.000000	100.115478
3142.000000	100.117870
3141.000000	100.121780
3140.000000	100.126158
3139.000000	100.129837
3138.000000	100.132140
3137.000000	100.133018
3136.000000	100.133000
3135.000000	100.132889
3134.000000	100.133134
3133.000000	100.133589
3132.000000	100.134044
3131.000000	100.134720
3130.000000	100.135937
3129.000000	100.137563
3128.000000	100.139213
3127.000000	100.140898
3126.000000	100.142992
3125.000000	100.145537
3124.000000	100.148033
3123.000000	100.150035
3122.000000	100.151623
3121.000000	100.153114
3120.000000	100.154595
3119.000000	100.155981
3118.000000	100.157327
3117.000000	100.158820
3116.000000	100.160481
3115.000000	100.162117
3114.000000	100.163637
3113.000000	100.165288
3112.000000	100.167421
3111.000000	100.170013
3110.000000	100.172491
3109.000000	100.174185
3108.000000	100.174947
3107.000000	100.175273
3106.000000	100.175906
3105.000000	100.177253
3104.000000	100.179246
3103.000000	100.181596
3102.000000	100.184059
3101.000000	100.186495
3100.000000	100.188785
3099.000000	100.190795
3098.000000	100.192443
3097.000000	100.193780
3096.000000	100.195010
3095.000000	100.196416
3094.000000	100.198190
3093.000000	100.200307
3092.000000	100.202522
3091.000000	100.204479
3090.000000	100.205871
3089.000000	100.206605
3088.000000	100.206902
3087.000000	100.207242
3086.000000	100.208063
3085.000000	100.209478
3084.000000	100.211273
3083.000000	100.213105
3082.000000	100.214771
3081.000000	100.216307
3080.000000	100.217845
3079.000000	100.219393
3078.000000	100.220781
3077.000000	100.221824
3076.000000	100.222563
3075.000000	100.223271
3074.000000	100.224186
3073.000000	100.225268
3072.000000	100.226334
3071.000000	100.227370
3070.000000	100.228566
3069.000000	100.230027
3068.000000	100.231567
3067.000000	100.232864
3066.000000	100.233759
3065.000000	100.234385
3064.000000	100.235098
3063.000000	100.236292
3062.000000	100.238130
3061.000000	100.240327
3060.000000	100.242260
3059.000000	100.243497
3058.000000	100.244166
3057.000000	100.244790
3056.000000	100.245813
3055.000000	100.247337
3054.000000	100.249164
3053.000000	100.250834
3052.000000	100.251835
3051.000000	100.252087
3050.000000	100.252186
3049.000000	100.252836
3048.000000	100.254024
3047.000000	100.255086
3046.000000	100.255606
3045.000000	100.255887
3044.000000	100.256421
3043.000000	100.257365
3042.000000	100.258734
3041.000000	100.260631
3040.000000	100.262889
3039.000000	100.264849
3038.000000	100.265915
3037.000000	100.266207
3036.000000	100.266400
3035.000000	100.267159
3034.000000	100.269010
3033.000000	100.272386
3032.000000	100.277214
3031.000000	100.282402
3030.000000	100.286385
3029.000000	100.288528
3028.000000	100.289666
3027.000000	100.291126
3026.000000	100.293210
3025.000000	100.294942
3024.000000	100.295323
3023.000000	100.294543
3022.000000	100.293797
3021.000000	100.294121
3020.000000	100.295714
3019.000000	100.298357
3018.000000	100.301991
3017.000000	100.306484
3016.000000	100.311178
3015.000000	100.315318
3014.000000	100.318721
3013.000000	100.321454
3012.000000	100.323002
3011.000000	100.322640
3010.000000	100.320857
3009.000000	100.319636
3008.000000	100.320845
3007.000000	100.324774
3006.000000	100.330385
3005.000000	100.336386
3004.000000	100.341818
3003.000000	100.346258
3002.000000	100.350023
3001.000000	100.353773
3000.000000	100.357395
2999.000000	100.359639
2998.000000	100.359389
2997.000000	100.357093
2996.000000	100.354541
2995.000000	100.353556
2994.000000	100.355280
2993.000000	100.360223
2992.000000	100.368072
2991.000000	100.377356
2990.000000	100.386015
2989.000000	100.392807
2988.000000	100.398130
2987.000000	100.403462
2986.000000	100.409937
2985.000000	100.417239
2984.000000	100.423837
2983.000000	100.428685
2982.000000	100.432673
2981.000000	100.437678
2980.000000	100.443701
2979.000000	100.447794
2978.000000	100.447051
2977.000000	100.442313
2976.000000	100.437831
2975.000000	100.436833
2974.000000	100.438234
2973.000000	100.438504
2972.000000	100.435974
2971.000000	100.432312
2970.000000	100.429877
2969.000000	100.428506
2968.000000	100.425593
2967.000000	100.418973
2966.000000	100.409062
2965.000000	100.398207
2964.000000	100.388629
2963.000000	100.381496
2962.000000	100.377407
2961.000000	100.376520
2960.000000	100.377876
2959.000000	100.379397
2958.000000	100.379472
2957.000000	100.378446
2956.000000	100.378007
2955.000000	100.379114
2954.000000	100.380962
2953.000000	100.381987
2952.000000	100.381245
2951.000000	100.378555
2950.000000	100.373872
2949.000000	100.367439
2948.000000	100.360585
2947.000000	100.355580
2946.000000	100.353968
2945.000000	100.355292
2944.000000	100.357893
2943.000000	100.360805
2942.000000	100.364188
2941.000000	100.367899
2940.000000	100.370623
2939.000000	100.371039
2938.000000	100.369253
2937.000000	100.366434
2936.000000	100.363466
2935.000000	100.360661
2934.000000	100.358454
2933.000000	100.357422
2932.000000	100.357517
2931.000000	100.357981
2930.000000	100.358303
2929.000000	100.358728
2928.000000	100.359764
2927.000000	100.361638
2926.000000	100.364203
2925.000000	100.366792
2924.000000	100.368199
2923.000000	100.367696
2922.000000	100.366398
2921.000000	100.366910
2920.000000	100.371158
2919.000000	100.378913
2918.000000	100.388173
2917.000000	100.396416
2916.000000	100.401574
2915.000000	100.402815
2914.000000	100.401165
2913.000000	100.399080
2912.000000	100.398768
2911.000000	100.401027
2910.000000	100.405610
2909.000000	100.411693
2908.000000	100.417688
2907.000000	100.421695
2906.000000	100.423204
2905.000000	100.423880
2904.000000	100.425761
2903.000000	100.428852
2902.000000	100.431413
2901.000000	100.432087
2900.000000	100.431516
2899.000000	100.431129
2898.000000	100.431843
2897.000000	100.433655
2896.000000	100.435865
2895.000000	100.437663
2894.000000	100.439099
2893.000000	100.441385
2892.000000	100.445451
2891.000000	100.450267
2890.000000	100.453623
2889.000000	100.454764
2888.000000	100.455138
2887.000000	100.456205
2886.000000	100.457504
2885.000000	100.457540
2884.000000	100.455867
2883.000000	100.453445
2882.000000	100.451375
2881.000000	100.450079
2880.000000	100.449560
2879.000000	100.449682
2878.000000	100.450074
2877.000000	100.450187
2876.000000	100.449605
2875.000000	100.448189
2874.000000	100.446098
2873.000000	100.443960
2872.000000	100.442824
2871.000000	100.443521
2870.000000	100.445898
2869.000000	100.448774
2868.000000	100.450705
2867.000000	100.450797
2866.000000	100.449063
2865.000000	100.446339
2864.000000	100.443865
2863.000000	100.442578
2862.000000	100.442449
2861.000000	100.442453
2860.000000	100.441362
2859.000000	100.438770
2858.000000	100.435476
2857.000000	100.432810
2856.000000	100.431521
2855.000000	100.431345
2854.000000	100.431577
2853.000000	100.431988
2852.000000	100.433076
2851.000000	100.435397
2850.000000	100.438669
2849.000000	100.441516
2848.000000	100.442429
2847.000000	100.441185
2846.000000	100.439258
2845.000000	100.438588
2844.000000	100.439745
2843.000000	100.441594
2842.000000	100.442696
2841.000000	100.442843
2840.000000	100.442973
2839.000000	100.443890
2838.000000	100.445538
2837.000000	100.447430
2836.000000	100.449325
2835.000000	100.451227
2834.000000	100.452931
2833.000000	100.453869
2832.000000	100.453528
2831.000000	100.451973
2830.000000	100.450035
2829.000000	100.448903
2828.000000	100.449277
2827.000000	100.450950
2826.000000	100.453074
2825.000000	100.454849
2824.000000	100.456043
2823.000000	100.456866
2822.000000	100.457583
2821.000000	100.458298
2820.000000	100.458993
2819.000000	100.459629
2818.000000	100.460206
2817.000000	100.460773
2816.000000	100.461356
2815.000000	100.461886
2814.000000	100.462252
2813.000000	100.462438
2812.000000	100.462582
2811.000000	100.462893
2810.000000	100.463494
2809.000000	100.464334
2808.000000	100.465207
2807.000000	100.465895
2806.000000	100.466353
2805.000000	100.466768
2804.000000	100.467392
2803.000000	100.468318
2802.000000	100.469439
2801.000000	100.470535
2800.000000	100.471414
2799.000000	100.472011
2798.000000	100.472431
2797.000000	100.472908
2796.000000	100.473626
2795.000000	100.474575
2794.000000	100.475554
2793.000000	100.476353
2792.000000	100.476922
2791.000000	100.477359
2790.000000	100.477773
2789.000000	100.478182
2788.000000	100.478546
2787.000000	100.478904
2786.000000	100.479470
2785.000000	100.480465
2784.000000	100.481807
2783.000000	100.483094
2782.000000	100.483962
2781.000000	100.484395
2780.000000	100.484651
2779.000000	100.484961
2778.000000	100.485430
2777.000000	100.486177
2776.000000	100.487300
2775.000000	100.488652
2774.000000	100.489905
2773.000000	100.490966
2772.000000	100.492118
2771.000000	100.493554
2770.000000	100.494975
2769.000000	100.495890
2768.000000	100.496199
2767.000000	100.496335
2766.000000	100.496888
2765.000000	100.498194
2764.000000	100.500123
2763.000000	100.502079
2762.000000	100.503422
2761.000000	100.504010
2760.000000	100.504200
2759.000000	100.504216
2758.000000	100.503899
2757.000000	100.503342
2756.000000	100.503262
2755.000000	100.504201
2754.000000	100.505652
2753.000000	100.506466
2752.000000	100.506136
2751.000000	100.505266
2750.000000	100.504851
2749.000000	100.505355
2748.000000	100.506488
2747.000000	100.507541
2746.000000	100.507877
2745.000000	100.507374
2744.000000	100.506513
2743.000000	100.505898
2742.000000	100.505600
2741.000000	100.505140
2740.000000	100.504232
2739.000000	100.503339
2738.000000	100.503241
2737.000000	100.504174
2736.000000	100.505642
2735.000000	100.507012
2734.000000	100.508111
2733.000000	100.509093
2732.000000	100.509982
2731.000000	100.510611
2730.000000	100.510942
2729.000000	100.511209
2728.000000	100.511631
2727.000000	100.512079
2726.000000	100.512181
2725.000000	100.511763
2724.000000	100.511088
2723.000000	100.510690
2722.000000	100.510900
2721.000000	100.511566
2720.000000	100.512220
2719.000000	100.512515
2718.000000	100.512503
2717.000000	100.512464
2716.000000	100.512577
2715.000000	100.512804
2714.000000	100.513091
2713.000000	100.513491
2712.000000	100.514021
2711.000000	100.514522
2710.000000	100.514798
2709.000000	100.514831
2708.000000	100.514741
2707.000000	100.514595
2706.000000	100.514388
2705.000000	100.514201
2704.000000	100.514195
2703.000000	100.514439
2702.000000	100.514852
2701.000000	100.515312
2700.000000	100.515741
2699.000000	100.516055
2698.000000	100.516142
2697.000000	100.515979
2696.000000	100.515699
2695.000000	100.515505
2694.000000	100.515525
2693.000000	100.515761
2692.000000	100.516098
2691.000000	100.516346
2690.000000	100.516361
2689.000000	100.516195
2688.000000	100.516086
2687.000000	100.516229
2686.000000	100.516562
2685.000000	100.516822
2684.000000	100.516780
2683.000000	100.516375
2682.000000	100.515704
2681.000000	100.514945
2680.000000	100.514263
2679.000000	100.513749
2678.000000	100.513449
2677.000000	100.513462
2676.000000	100.513862
2675.000000	100.514488
2674.000000	100.514946
2673.000000	100.514941
2672.000000	100.514520
2671.000000	100.513924
2670.000000	100.513342
2669.000000	100.512912
2668.000000	100.512783
2667.000000	100.513013
2666.000000	100.513470
2665.000000	100.513963
2664.000000	100.514292
2663.000000	100.514127
2662.000000	100.513177
2661.000000	100.511767
2660.000000	100.510867
2659.000000	100.511099
2658.000000	100.512031
2657.000000	100.512816
2656.000000	100.513383
2655.000000	100.514386
2654.000000	100.516056
2653.000000	100.517732
2652.000000	100.518578
2651.000000	100.518272
2650.000000	100.516977
2649.000000	100.515154
2648.000000	100.513519
2647.000000	100.512658
2646.000000	100.512482
2645.000000	100.512438
2644.000000	100.512396
2643.000000	100.512859
2642.000000	100.514081
2641.000000	100.515473
2640.000000	100.516373
2639.000000	100.517046
2638.000000	100.518336
2637.000000	100.520403
2636.000000	100.522269
2635.000000	100.522793
2634.000000	100.521721
2633.000000	100.519696
2632.000000	100.517539
2631.000000	100.515597
2630.000000	100.513705
2629.000000	100.511664
2628.000000	100.509740
2627.000000	100.508614
2626.000000	100.508768
2625.000000	100.509959
2624.000000	100.511376
2623.000000	100.512355
2622.000000	100.512828
2621.000000	100.513021
2620.000000	100.512953
2619.000000	100.512417
2618.000000	100.511372
2617.000000	100.510197
2616.000000	100.509482
2615.000000	100.509590
2614.000000	100.510406
2613.000000	100.511380
2612.000000	100.511909
2611.000000	100.511822
2610.000000	100.511469
2609.000000	100.511278
2608.000000	100.511265
2607.000000	100.511116
2606.000000	100.510705
2605.000000	100.510286
2604.000000	100.510097
2603.000000	100.510029
2602.000000	100.509829
2601.000000	100.509497
2600.000000	100.509283
2599.000000	100.509337
2598.000000	100.509502
2597.000000	100.509474
2596.000000	100.509113
2595.000000	100.508554
2594.000000	100.508059
2593.000000	100.507780
2592.000000	100.507669
2591.000000	100.507583
2590.000000	100.507416
2589.000000	100.507158
2588.000000	100.506871
2587.000000	100.506642
2586.000000	100.506542
2585.000000	100.506585
2584.000000	100.506705
2583.000000	100.506790
2582.000000	100.506776
2581.000000	100.506680
2580.000000	100.506543
2579.000000	100.506378
2578.000000	100.506183
2577.000000	100.505996
2576.000000	100.505869
2575.000000	100.505803
2574.000000	100.505762
2573.000000	100.505736
2572.000000	100.505745
2571.000000	100.505779
2570.000000	100.505785
2569.000000	100.505715
2568.000000	100.505565
2567.000000	100.505358
2566.000000	100.505133
2565.000000	100.504951
2564.000000	100.504853
2563.000000	100.504825
2562.000000	100.504822
2561.000000	100.504812
2560.000000	100.504796
2559.000000	100.504788
2558.000000	100.504794
2557.000000	100.504815
2556.000000	100.504846
2555.000000	100.504879
2554.000000	100.504900
2553.000000	100.504916
2552.000000	100.504946
2551.000000	100.504994
2550.000000	100.505047
2549.000000	100.505094
2548.000000	100.505139
2547.000000	100.505192
2546.000000	100.505255
2545.000000	100.505323
2544.000000	100.505388
2543.000000	100.505448
2542.000000	100.505504
2541.000000	100.505560
2540.000000	100.505618
2539.000000	100.505676
2538.000000	100.505732
2537.000000	100.505783
2536.000000	100.505831
2535.000000	100.505883
2534.000000	100.505941
2533.000000	100.506008
2532.000000	100.506083
2531.000000	100.506162
2530.000000	100.506242
2529.000000	100.506320
2528.000000	100.506400
2527.000000	100.506489
2526.000000	100.506587
2525.000000	100.506697
2524.000000	100.506831
2523.000000	100.507003
2522.000000	100.507206
2521.000000	100.507388
2520.000000	100.507499
2519.000000	100.507549
2518.000000	100.507603
2517.000000	100.507684
2516.000000	100.507745
2515.000000	100.507739
2514.000000	100.507675
2513.000000	100.507620
2512.000000	100.507631
2511.000000	100.507711
2510.000000	100.507798
2509.000000	100.507810
2508.000000	100.507715
2507.000000	100.507549
2506.000000	100.507395
2505.000000	100.507307
2504.000000	100.507290
2503.000000	100.507318
2502.000000	100.507380
2501.000000	100.507463
2500.000000	100.507500
2499.000000	100.507373
2498.000000	100.507012
2497.000000	100.506521
2496.000000	100.506161
2495.000000	100.506149
2494.000000	100.506501
2493.000000	100.507045
2492.000000	100.507570
2491.000000	100.507944
2490.000000	100.508137
2489.000000	100.508221
2488.000000	100.508313
2487.000000	100.508454
2486.000000	100.508546
2485.000000	100.508455
2484.000000	100.508167
2483.000000	100.507834
2482.000000	100.507682
2481.000000	100.507853
2480.000000	100.508215
2479.000000	100.508397
2478.000000	100.508133
2477.000000	100.507594
2476.000000	100.507219
2475.000000	100.507155
2474.000000	100.507130
2473.000000	100.506952
2472.000000	100.506890
2471.000000	100.507280
2470.000000	100.507914
2469.000000	100.508166
2468.000000	100.507702
2467.000000	100.506736
2466.000000	100.505652
2465.000000	100.504654
2464.000000	100.503897
2463.000000	100.503688
2462.000000	100.504265
2461.000000	100.505477
2460.000000	100.506837
2459.000000	100.507906
2458.000000	100.508603
2457.000000	100.509136
2456.000000	100.509710
2455.000000	100.510286
2454.000000	100.510639
2453.000000	100.510586
2452.000000	100.510145
2451.000000	100.509544
2450.000000	100.509150
2449.000000	100.509289
2448.000000	100.509962
2447.000000	100.510758
2446.000000	100.511187
2445.000000	100.511172
2444.000000	100.511087
2443.000000	100.511331
2442.000000	100.511955
2441.000000	100.512709
2440.000000	100.513278
2439.000000	100.513443
2438.000000	100.513149
2437.000000	100.512584
2436.000000	100.512115
2435.000000	100.512015
2434.000000	100.512294
2433.000000	100.512835
2432.000000	100.513535
2431.000000	100.514237
2430.000000	100.514702
2429.000000	100.514859
2428.000000	100.514932
2427.000000	100.515086
2426.000000	100.515138
2425.000000	100.514913
2424.000000	100.514722
2423.000000	100.515101
2422.000000	100.516201
2421.000000	100.517719
2420.000000	100.519279
2419.000000	100.520542
2418.000000	100.521096
2417.000000	100.520742
2416.000000	100.519897
2415.000000	100.519318
2414.000000	100.519357
2413.000000	100.519823
2412.000000	100.520421
2411.000000	100.520807
2410.000000	100.520409
2409.000000	100.518881
2408.000000	100.516879
2407.000000	100.515760
2406.000000	100.516055
2405.000000	100.516909
2404.000000	100.517123
2403.000000	100.516494
2402.000000	100.515760
2401.000000	100.515679
2400.000000	100.516492
2399.000000	100.517957
2398.000000	100.519517
2397.000000	100.520493
2396.000000	100.520485
2395.000000	100.519714
2394.000000	100.518841
2393.000000	100.518336
2392.000000	100.517989
2391.000000	100.517169
2390.000000	100.515562
2389.000000	100.513567
2388.000000	100.511805
2387.000000	100.510488
2386.000000	100.509441
2385.000000	100.508491
2384.000000	100.507630
2383.000000	100.506851
2382.000000	100.506063
2381.000000	100.505193
2380.000000	100.504228
2379.000000	100.503154
2378.000000	100.501960
2377.000000	100.500714
2376.000000	100.499516
2375.000000	100.498394
2374.000000	100.497286
2373.000000	100.496143
2372.000000	100.494983
2371.000000	100.493836
2370.000000	100.492695
2369.000000	100.491529
2368.000000	100.490329
2367.000000	100.489125
2366.000000	100.487973
2365.000000	100.486904
2364.000000	100.485890
2363.000000	100.484849
2362.000000	100.483725
2361.000000	100.482523
2360.000000	100.481278
2359.000000	100.480034
2358.000000	100.478825
2357.000000	100.477689
2356.000000	100.476648
2355.000000	100.475695
2354.000000	100.474820
2353.000000	100.473997
2352.000000	100.473187
2351.000000	100.472372
2350.000000	100.471557
2349.000000	100.470769
2348.000000	100.470042
2347.000000	100.469413
2346.000000	100.468879
2345.000000	100.468375
2344.000000	100.467829
2343.000000	100.467259
2342.000000	100.466789
2341.000000	100.466503
2340.000000	100.466396
2339.000000	100.466407
2338.000000	100.466486
2337.000000	100.466573
2336.000000	100.466586
2335.000000	100.466514
2334.000000	100.466482
2333.000000	100.466640
2332.000000	100.466960
2331.000000	100.467338
2330.000000	100.467715
2329.000000	100.468146
2328.000000	100.468561
2327.000000	100.468948
2326.000000	100.469393
2325.000000	100.470045
2324.000000	100.470845
2323.000000	100.471561
2322.000000	100.471957
2321.000000	100.471939
2320.000000	100.471608
2319.000000	100.471431
2318.000000	100.471907
2317.000000	100.473252
2316.000000	100.475080
2315.000000	100.476885
2314.000000	100.478262
2313.000000	100.479253
2312.000000	100.479947
2311.000000	100.480715
2310.000000	100.481884
2309.000000	100.483699
2308.000000	100.485814
2307.000000	100.487654
2306.000000	100.488730
2305.000000	100.489162
2304.000000	100.489387
2303.000000	100.489861
2302.000000	100.490434
2301.000000	100.490911
2300.000000	100.491424
2299.000000	100.492569
2298.000000	100.494353
2297.000000	100.496182
2296.000000	100.497265
2295.000000	100.497633
2294.000000	100.497728
2293.000000	100.497937
2292.000000	100.498215
2291.000000	100.498563
2290.000000	100.499041
2289.000000	100.499587
2288.000000	100.500016
2287.000000	100.500294
2286.000000	100.500554
2285.000000	100.500735
2284.000000	100.500685
2283.000000	100.500406
2282.000000	100.500128
2281.000000	100.499922
2280.000000	100.499671
2279.000000	100.499350
2278.000000	100.499252
2277.000000	100.499681
2276.000000	100.500534
2275.000000	100.501257
2274.000000	100.501249
2273.000000	100.500361
2272.000000	100.498960
2271.000000	100.497730
2270.000000	100.497089
2269.000000	100.496866
2268.000000	100.496601
2267.000000	100.496144
2266.000000	100.495794
2265.000000	100.495844
2264.000000	100.496175
2263.000000	100.496415
2262.000000	100.496390
2261.000000	100.496211
2260.000000	100.495940
2259.000000	100.495424
2258.000000	100.494564
2257.000000	100.493585
2256.000000	100.492892
2255.000000	100.492611
2254.000000	100.492551
2253.000000	100.492478
2252.000000	100.492291
2251.000000	100.491969
2250.000000	100.491481
2249.000000	100.490864
2248.000000	100.490251
2247.000000	100.489776
2246.000000	100.489462
2245.000000	100.489250
2244.000000	100.489073
2243.000000	100.488896
2242.000000	100.488704
2241.000000	100.488498
2240.000000	100.488291
2239.000000	100.488085
2238.000000	100.487874
2237.000000	100.487657
2236.000000	100.487444
2235.000000	100.487247
2234.000000	100.487071
2233.000000	100.486915
2232.000000	100.486782
2231.000000	100.486667
2230.000000	100.486566
2229.000000	100.486473
2228.000000	100.486386
2227.000000	100.486304
2226.000000	100.486230
2225.000000	100.486166
2224.000000	100.486115
2223.000000	100.486077
2222.000000	100.486054
2221.000000	100.486044
2220.000000	100.486047
2219.000000	100.486063
2218.000000	100.486091
2217.000000	100.486128
2216.000000	100.486173
2215.000000	100.486218
2214.000000	100.486262
2213.000000	100.486307
2212.000000	100.486359
2211.000000	100.486429
2210.000000	100.486520
2209.000000	100.486627
2208.000000	100.486742
2207.000000	100.486858
2206.000000	100.486979
2205.000000	100.487104
2204.000000	100.487234
2203.000000	100.487364
2202.000000	100.487493
2201.000000	100.487623
2200.000000	100.487762
2199.000000	100.487911
2198.000000	100.488070
2197.000000	100.488235
2196.000000	100.488403
2195.000000	100.488572
2194.000000	100.488745
2193.000000	100.488921
2192.000000	100.489099
2191.000000	100.489274
2190.000000	100.489443
2189.000000	100.489608
2188.000000	100.489773
2187.000000	100.489949
2186.000000	100.490143
2185.000000	100.490335
2184.000000	100.490503
2183.000000	100.490654
2182.000000	100.490832
2181.000000	100.491058
2180.000000	100.491287
2179.000000	100.491443
2178.000000	100.491489
2177.000000	100.491458
2176.000000	100.491423
2175.000000	100.491456
2174.000000	100.491610
2173.000000	100.491900
2172.000000	100.492274
2171.000000	100.492594
2170.000000	100.492688
2169.000000	100.492454
2168.000000	100.491996
2167.000000	100.491651
2166.000000	100.491747
2165.000000	100.492331
2164.000000	100.493099
2163.000000	100.493694
2162.000000	100.494114
2161.000000	100.494654
2160.000000	100.495503
2159.000000	100.496440
2158.000000	100.497005
2157.000000	100.496931
2156.000000	100.496313
2155.000000	100.495466
2154.000000	100.494741
2153.000000	100.494451
2152.000000	100.494796
2151.000000	100.495711
2150.000000	100.496810
2149.000000	100.497636
2148.000000	100.498021
2147.000000	100.498145
2146.000000	100.498330
2145.000000	100.498772
2144.000000	100.499413
2143.000000	100.499991
2142.000000	100.500273
2141.000000	100.500301
2140.000000	100.500322
2139.000000	100.500416
2138.000000	100.500302
2137.000000	100.499657
2136.000000	100.498545
2135.000000	100.497428
2134.000000	100.496781
2133.000000	100.496816
2132.000000	100.497555
2131.000000	100.498857
2130.000000	100.500304
2129.000000	100.501337
2128.000000	100.501636
2127.000000	100.501387
2126.000000	100.501121
2125.000000	100.501228
2124.000000	100.501686
2123.000000	100.502240
2122.000000	100.502772
2121.000000	100.503419
2120.000000	100.504273
2119.000000	100.505122
2118.000000	100.505634
2117.000000	100.505765
2116.000000	100.505803
2115.000000	100.506008
2114.000000	100.506359
2113.000000	100.506658
2112.000000	100.506679
2111.000000	100.506222
2110.000000	100.505271
2109.000000	100.504233
2108.000000	100.503733
2107.000000	100.503988
2106.000000	100.504620
2105.000000	100.505201
2104.000000	100.505817
2103.000000	100.506788
2102.000000	100.508021
2101.000000	100.508969
2100.000000	100.509220
2099.000000	100.508900
2098.000000	100.508537
2097.000000	100.508624
2096.000000	100.509238
2095.000000	100.509952
2094.000000	100.510277
2093.000000	100.510391
2092.000000	100.511150
2091.000000	100.512966
2090.000000	100.514842
2089.000000	100.515215
2088.000000	100.513686
2087.000000	100.511370
2086.000000	100.509587
2085.000000	100.508526
2084.000000	100.507681
2083.000000	100.506901
2082.000000	100.506507
2081.000000	100.506725
2080.000000	100.507554
2079.000000	100.508968
2078.000000	100.510727
2077.000000	100.512171
2076.000000	100.512656
2075.000000	100.512141
2074.000000	100.511161
2073.000000	100.510343
2072.000000	100.510035
2071.000000	100.510215
2070.000000	100.510512
2069.000000	100.510533
2068.000000	100.510416
2067.000000	100.510828
2066.000000	100.512134
2065.000000	100.513901
2064.000000	100.515555
2063.000000	100.517106
2062.000000	100.518687
2061.000000	100.519841
2060.000000	100.520083
2059.000000	100.519923
2058.000000	100.520362
2057.000000	100.521239
2056.000000	100.521154
2055.000000	100.519471
2054.000000	100.517507
2053.000000	100.517068
2052.000000	100.518169
2051.000000	100.519158
2050.000000	100.518833
2049.000000	100.517469
2048.000000	100.515915
2047.000000	100.514637
2046.000000	100.513892
2045.000000	100.513992
2044.000000	100.514773
2043.000000	100.515258
2042.000000	100.514519
2041.000000	100.512785
2040.000000	100.511268
2039.000000	100.510841
2038.000000	100.511177
2037.000000	100.511234
2036.000000	100.510307
2035.000000	100.508491
2034.000000	100.506384
2033.000000	100.504581
2032.000000	100.503347
2031.000000	100.502542
2030.000000	100.501822
2029.000000	100.500989
2028.000000	100.500161
2027.000000	100.499580
2026.000000	100.499246
2025.000000	100.498799
2024.000000	100.497836
2023.000000	100.496417
2022.000000	100.495093
2021.000000	100.494198
2020.000000	100.493293
2019.000000	100.491649
2018.000000	100.489275
2017.000000	100.487137
2016.000000	100.486075
2015.000000	100.485788
2014.000000	100.485228
2013.000000	100.483876
2012.000000	100.482167
2011.000000	100.480667
2010.000000	100.479325
2009.000000	100.477867
2008.000000	100.476502
2007.000000	100.475643
2006.000000	100.475158
2005.000000	100.474551
2004.000000	100.473787
2003.000000	100.473401
2002.000000	100.473682
2001.000000	100.474304
2000.000000	100.474798
1999.000000	100.474936
1998.000000	100.474737
1997.000000	100.474335
1996.000000	100.473774
1995.000000	100.472896
1994.000000	100.471459
1993.000000	100.469442
1992.000000	100.467284
1991.000000	100.465728
1990.000000	100.465301
1989.000000	100.465992
1988.000000	100.467224
1987.000000	100.468118
1986.000000	100.468031
1985.000000	100.466933
1984.000000	100.465331
1983.000000	100.463851
1982.000000	100.462873
1981.000000	100.462516
1980.000000	100.462706
1979.000000	100.463107
1978.000000	100.463310
1977.000000	100.463136
1976.000000	100.462628
1975.000000	100.461886
1974.000000	100.461097
1973.000000	100.460527
1972.000000	100.460224
1971.000000	100.459945
1970.000000	100.459590
1969.000000	100.459466
1968.000000	100.459832
1967.000000	100.460392
1966.000000	100.460609
1965.000000	100.460474
1964.000000	100.460667
1963.000000	100.461963
1962.000000	100.464462
1961.000000	100.467276
1960.000000	100.469024
1959.000000	100.469009
1958.000000	100.467848
1957.000000	100.466698
1956.000000	100.465836
1955.000000	100.464717
1954.000000	100.463466
1953.000000	100.463184
1952.000000	100.464328
1951.000000	100.465719
1950.000000	100.465698
1949.000000	100.463954
1948.000000	100.461553
1947.000000	100.459311
1946.000000	100.457093
1945.000000	100.454933
1944.000000	100.453666
1943.000000	100.453850
1942.000000	100.454776
1941.000000	100.455364
1940.000000	100.455296
1939.000000	100.454715
1938.000000	100.453679
1937.000000	100.452546
1936.000000	100.452169
1935.000000	100.452985
1934.000000	100.454284
1933.000000	100.454871
1932.000000	100.454468
1931.000000	100.453765
1930.000000	100.452830
1929.000000	100.451113
1928.000000	100.448953
1927.000000	100.447447
1926.000000	100.446817
1925.000000	100.445972
1924.000000	100.444312
1923.000000	100.442550
1922.000000	100.441138
1921.000000	100.439497
1920.000000	100.437354
1919.000000	100.435269
1918.000000	100.433451
1917.000000	100.431311
1916.000000	100.428878
1915.000000	100.426971
1914.000000	100.425729
1913.000000	100.424016
1912.000000	100.420722
1911.000000	100.416112
1910.000000	100.411470
1909.000000	100.408152
1908.000000	100.406860
1907.000000	100.407129
1906.000000	100.407455
1905.000000	100.406148
1904.000000	100.402739
1903.000000	100.397932
1902.000000	100.392497
1901.000000	100.387445
1900.000000	100.384169
1899.000000	100.383158
1898.000000	100.383251
1897.000000	100.382816
1896.000000	100.381781
1895.000000	100.381177
1894.000000	100.380887
1893.000000	100.379823
1892.000000	100.377869
1891.000000	100.375752
1890.000000	100.373555
1889.000000	100.370988
1888.000000	100.368861
1887.000000	100.368146
1886.000000	100.368167
1885.000000	100.367266
1884.000000	100.364943
1883.000000	100.361909
1882.000000	100.358285
1881.000000	100.353963
1880.000000	100.350125
1879.000000	100.348599
1878.000000	100.350124
1877.000000	100.353918
1876.000000	100.358677
1875.000000	100.363131
1874.000000	100.365614
1873.000000	100.364946
1872.000000	100.362233
1871.000000	100.360106
1870.000000	100.359526
1869.000000	100.358715
1868.000000	100.356767
1867.000000	100.355352
1866.000000	100.355418
1865.000000	100.356389
1864.000000	100.357789
1863.000000	100.359394
1862.000000	100.360408
1861.000000	100.360399
1860.000000	100.361161
1859.000000	100.365213
1858.000000	100.372052
1857.000000	100.378091
1856.000000	100.381000
1855.000000	100.381922
1854.000000	100.383181
1853.000000	100.385847
1852.000000	100.389629
1851.000000	100.393284
1850.000000	100.395355
1849.000000	100.395111
1848.000000	100.393219
1847.000000	100.391201
1846.000000	100.390333
1845.000000	100.391398
1844.000000	100.394620
1843.000000	100.399131
1842.000000	100.403087
1841.000000	100.405696
1840.000000	100.407520
1839.000000	100.409062
1838.000000	100.409986
1837.000000	100.409840
1836.000000	100.409451
1835.000000	100.410131
1834.000000	100.411902
1833.000000	100.413678
1832.000000	100.414456
1831.000000	100.414004
1830.000000	100.413095
1829.000000	100.412711
1828.000000	100.413015
1827.000000	100.413821
1826.000000	100.414817
1825.000000	100.415117
1824.000000	100.414393
1823.000000	100.413784
1822.000000	100.414232
1821.000000	100.415196
1820.000000	100.415726
1819.000000	100.416147
1818.000000	100.417262
1817.000000	100.418530
1816.000000	100.419104
1815.000000	100.419352
1814.000000	100.419662
1813.000000	100.419124
1812.000000	100.416984
1811.000000	100.414918
1810.000000	100.414671
1809.000000	100.414896
1808.000000	100.413881
1807.000000	100.412540
1806.000000	100.412467
1805.000000	100.413547
1804.000000	100.415048
1803.000000	100.417213
1802.000000	100.420202
1801.000000	100.422631
1800.000000	100.423120
1799.000000	100.422508
1798.000000	100.422128
1797.000000	100.422042
1796.000000	100.422057
1795.000000	100.422601
1794.000000	100.424008
1793.000000	100.425509
1792.000000	100.426060
1791.000000	100.426481
1790.000000	100.427780
1789.000000	100.429652
1788.000000	100.431754
1787.000000	100.434240
1786.000000	100.436750
1785.000000	100.438115
1784.000000	100.438073
1783.000000	100.437912
1782.000000	100.438804
1781.000000	100.440565
1780.000000	100.442030
1779.000000	100.442796
1778.000000	100.443416
1777.000000	100.444447
1776.000000	100.445944
1775.000000	100.447684
1774.000000	100.449676
1773.000000	100.451830
1772.000000	100.453332
1771.000000	100.454235
1770.000000	100.455640
1769.000000	100.457570
1768.000000	100.458966
1767.000000	100.459597
1766.000000	100.460477
1765.000000	100.462159
1764.000000	100.463984
1763.000000	100.465067
1762.000000	100.465408
1761.000000	100.465637
1760.000000	100.465976
1759.000000	100.466868
1758.000000	100.468984
1757.000000	100.472196
1756.000000	100.474920
1755.000000	100.476256
1754.000000	100.477723
1753.000000	100.480967
1752.000000	100.484441
1751.000000	100.484431
1750.000000	100.480901
1749.000000	100.478054
1748.000000	100.477753
1747.000000	100.477708
1746.000000	100.476392
1745.000000	100.474756
1744.000000	100.473407
1743.000000	100.471933
1742.000000	100.470667
1741.000000	100.470605
1740.000000	100.471601
1739.000000	100.472655
1738.000000	100.473520
1737.000000	100.474466
1736.000000	100.475595
1735.000000	100.476156
1734.000000	100.474129
1733.000000	100.470698
1732.000000	100.468787
1731.000000	100.468186
1730.000000	100.467520
1729.000000	100.466663
1728.000000	100.465942
1727.000000	100.465191
1726.000000	100.464513
1725.000000	100.464383
1724.000000	100.464706
1723.000000	100.465048
1722.000000	100.464912
1721.000000	100.463719
1720.000000	100.461527
1719.000000	100.460093
1718.000000	100.461423
1717.000000	100.462828
1716.000000	100.461442
1715.000000	100.459177
1714.000000	100.457430
1713.000000	100.455476
1712.000000	100.453310
1711.000000	100.451456
1710.000000	100.449430
1709.000000	100.445945
1708.000000	100.440903
1707.000000	100.436501
1706.000000	100.434501
1705.000000	100.432975
1704.000000	100.429177
1703.000000	100.423576
1702.000000	100.418878
1701.000000	100.416636
1700.000000	100.414740
1699.000000	100.412751
1698.000000	100.411148
1697.000000	100.409203
1696.000000	100.406712
1695.000000	100.404568
1694.000000	100.402785
1693.000000	100.400424
1692.000000	100.397327
1691.000000	100.394089
1690.000000	100.391252
1689.000000	100.388757
1688.000000	100.386024
1687.000000	100.382684
1686.000000	100.378991
1685.000000	100.374879
1684.000000	100.369993
1683.000000	100.366087
1682.000000	100.363319
1681.000000	100.360937
1680.000000	100.358527
1679.000000	100.356045
1678.000000	100.353582
1677.000000	100.351413
1676.000000	100.349156
1675.000000	100.345458
1674.000000	100.340718
1673.000000	100.337073
1672.000000	100.335348
1671.000000	100.334558
1670.000000	100.332366
1669.000000	100.328071
1668.000000	100.323591
1667.000000	100.319901
1666.000000	100.316946
1665.000000	100.314640
1664.000000	100.312676
1663.000000	100.309866
1662.000000	100.305155
1661.000000	100.300312
1660.000000	100.297675
1659.000000	100.296511
1658.000000	100.294231
1657.000000	100.289248
1656.000000	100.282977
1655.000000	100.278604
1654.000000	100.277917
1653.000000	100.273524
1652.000000	100.265769
1651.000000	100.259895
1650.000000	100.257585
1649.000000	100.257041
1648.000000	100.258517
1647.000000	100.260329
1646.000000	100.260678
1645.000000	100.260638
1644.000000	100.261886
1643.000000	100.264333
1642.000000	100.266274
1641.000000	100.266993
1640.000000	100.267291
1639.000000	100.267860
1638.000000	100.268527
1637.000000	100.268471
1636.000000	100.266458
1635.000000	100.261970
1634.000000	100.258540
1633.000000	100.258236
1632.000000	100.260228
1631.000000	100.261896
1630.000000	100.260977
1629.000000	100.258133
1628.000000	100.257079
1627.000000	100.259454
1626.000000	100.262925
1625.000000	100.265622
1624.000000	100.268022
1623.000000	100.270472
1622.000000	100.272493
1621.000000	100.274946
1620.000000	100.278277
1619.000000	100.280850
1618.000000	100.280043
1617.000000	100.275716
1616.000000	100.273481
1615.000000	100.276759
1614.000000	100.282796
1613.000000	100.289445
1612.000000	100.296841
1611.000000	100.304257
1610.000000	100.309453
1609.000000	100.312824
1608.000000	100.317012
1607.000000	100.322145
1606.000000	100.326180
1605.000000	100.329036
1604.000000	100.331788
1603.000000	100.333974
1602.000000	100.335015
1601.000000	100.335937
1600.000000	100.338054
1599.000000	100.340951
1598.000000	100.343970
1597.000000	100.347215
1596.000000	100.350643
1595.000000	100.353653
1594.000000	100.356047
1593.000000	100.358508
1592.000000	100.361533
1591.000000	100.364802
1590.000000	100.367868
1589.000000	100.370758
1588.000000	100.373632
1587.000000	100.376480
1586.000000	100.379274
1585.000000	100.382067
1584.000000	100.384872
1583.000000	100.387651
1582.000000	100.390392
1581.000000	100.393096
1580.000000	100.395772
1579.000000	100.398421
1578.000000	100.401041
1577.000000	100.403629
1576.000000	100.406178
1575.000000	100.408673
1574.000000	100.411100
1573.000000	100.413451
1572.000000	100.415732
1571.000000	100.417953
1570.000000	100.420122
1569.000000	100.422245
1568.000000	100.424323
1567.000000	100.426350
1566.000000	100.428314
1565.000000	100.430215
1564.000000	100.432063
1563.000000	100.433868
1562.000000	100.435637
1561.000000	100.437375
1560.000000	100.439080
1559.000000	100.440713
1558.000000	100.442233
1557.000000	100.443645
1556.000000	100.444972
1555.000000	100.446232
1554.000000	100.447435
1553.000000	100.448588
1552.000000	100.449696
1551.000000	100.450758
1550.000000	100.451769
1549.000000	100.452727
1548.000000	100.453637
1547.000000	100.454508
1546.000000	100.455346
1545.000000	100.456153
1544.000000	100.456930
1543.000000	100.457680
1542.000000	100.458404
1541.000000	100.459104
1540.000000	100.459786
1539.000000	100.460457
1538.000000	100.461111
1537.000000	100.461734
1536.000000	100.462320
1535.000000	100.462873
1534.000000	100.463405
1533.000000	100.463928
1532.000000	100.464460
1531.000000	100.465021
1530.000000	100.465620
1529.000000	100.466246
1528.000000	100.466883
1527.000000	100.467527
1526.000000	100.468163
1525.000000	100.468736
1524.000000	100.469213
1523.000000	100.469677
1522.000000	100.470233
1521.000000	100.470763
1520.000000	100.471180
1519.000000	100.471652
1518.000000	100.472351
1517.000000	100.473143
1516.000000	100.473858
1515.000000	100.474762
1514.000000	100.476091
1513.000000	100.477770
1512.000000	100.479202
1511.000000	100.479907
1510.000000	100.479924
1509.000000	100.479667
1508.000000	100.479489
1507.000000	100.479863
1506.000000	100.481215
1505.000000	100.482916
1504.000000	100.484319
1503.000000	100.485626
1502.000000	100.487086
1501.000000	100.488836
1500.000000	100.490377
1499.000000	100.491151
1498.000000	100.491565
1497.000000	100.491823
1496.000000	100.491364
1495.000000	100.490957
1494.000000	100.491701
1493.000000	100.493499
1492.000000	100.495872
1491.000000	100.498531
1490.000000	100.500696
1489.000000	100.500849
1488.000000	100.499077
1487.000000	100.497998
1486.000000	100.498357
1485.000000	100.498737
1484.000000	100.498539
1483.000000	100.498171
1482.000000	100.498238
1481.000000	100.498356
1480.000000	100.498204
1479.000000	100.498627
1478.000000	100.500269
1477.000000	100.501782
1476.000000	100.501502
1475.000000	100.500725
1474.000000	100.501234
1473.000000	100.501384
1472.000000	100.498209
1471.000000	100.493912
1470.000000	100.491399
1469.000000	100.489696
1468.000000	100.486682
1467.000000	100.482722
1466.000000	100.479849
1465.000000	100.478700
1464.000000	100.478256
1463.000000	100.478282
1462.000000	100.479208
1461.000000	100.479569
1460.000000	100.477189
1459.000000	100.472016
1458.000000	100.468475
1457.000000	100.469459
1456.000000	100.471379
1455.000000	100.472122
1454.000000	100.473565
1453.000000	100.475082
1452.000000	100.473604
1451.000000	100.468136
1450.000000	100.462040
1449.000000	100.458198
1448.000000	100.454606
1447.000000	100.448768
1446.000000	100.442184
1445.000000	100.437654
1444.000000	100.435005
1443.000000	100.432487
1442.000000	100.429951
1441.000000	100.428639
1440.000000	100.428114
1439.000000	100.426645
1438.000000	100.424833
1437.000000	100.423366
1436.000000	100.420321
1435.000000	100.415599
1434.000000	100.411916
1433.000000	100.410159
1432.000000	100.409651
1431.000000	100.409283
1430.000000	100.409962
1429.000000	100.413350
1428.000000	100.418009
1427.000000	100.420735
1426.000000	100.420104
1425.000000	100.418137
1424.000000	100.416131
1423.000000	100.413430
1422.000000	100.411630
1421.000000	100.414199
1420.000000	100.421517
1419.000000	100.428556
1418.000000	100.434453
1417.000000	100.441087
1416.000000	100.445836
1415.000000	100.446640
1414.000000	100.445457
1413.000000	100.445575
1412.000000	100.447046
1411.000000	100.447859
1410.000000	100.448959
1409.000000	100.452165
1408.000000	100.455855
1407.000000	100.457671
1406.000000	100.458596
1405.000000	100.462261
1404.000000	100.468223
1403.000000	100.472461
1402.000000	100.475004
1401.000000	100.479632
1400.000000	100.487790
1399.000000	100.495403
1398.000000	100.499528
1397.000000	100.502507
1396.000000	100.506738
1395.000000	100.510202
1394.000000	100.510435
1393.000000	100.509431
1392.000000	100.508968
1391.000000	100.508918
1390.000000	100.509281
1389.000000	100.511061
1388.000000	100.514869
1387.000000	100.519429
1386.000000	100.522620
1385.000000	100.523484
1384.000000	100.522234
1383.000000	100.519950
1382.000000	100.518609
1381.000000	100.519449
1380.000000	100.521782
1379.000000	100.523260
1378.000000	100.522167
1377.000000	100.519375
1376.000000	100.516985
1375.000000	100.515457
1374.000000	100.513627
1373.000000	100.511514
1372.000000	100.510281
1371.000000	100.510268
1370.000000	100.510489
1369.000000	100.510758
1368.000000	100.511565
1367.000000	100.512860
1366.000000	100.514124
1365.000000	100.514928
1364.000000	100.515106
1363.000000	100.514919
1362.000000	100.515287
1361.000000	100.517454
1360.000000	100.521369
1359.000000	100.524870
1358.000000	100.525354
1357.000000	100.522475
1356.000000	100.518518
1355.000000	100.516247
1354.000000	100.516515
1353.000000	100.518026
1352.000000	100.519077
1351.000000	100.519089
1350.000000	100.518246
1349.000000	100.517705
1348.000000	100.518420
1347.000000	100.519990
1346.000000	100.521122
1345.000000	100.521164
1344.000000	100.520267
1343.000000	100.518546
1342.000000	100.516191
1341.000000	100.514479
1340.000000	100.515105
1339.000000	100.517806
1338.000000	100.520375
1337.000000	100.521717
1336.000000	100.522722
1335.000000	100.523937
1334.000000	100.524222
1333.000000	100.522571
1332.000000	100.520011
1331.000000	100.518432
1330.000000	100.518262
1329.000000	100.518764
1328.000000	100.519630
1327.000000	100.520844
1326.000000	100.521632
1325.000000	100.521499
1324.000000	100.520851
1323.000000	100.520296
1322.000000	100.519899
1321.000000	100.519378
1320.000000	100.518430
1319.000000	100.516817
1318.000000	100.514788
1317.000000	100.513221
1316.000000	100.512859
1315.000000	100.513656
1314.000000	100.515420
1313.000000	100.518438
1312.000000	100.522487
1311.000000	100.525696
1310.000000	100.525898
1309.000000	100.523105
1308.000000	100.519693
1307.000000	100.517803
1306.000000	100.517074
1305.000000	100.516364
1304.000000	100.515804
1303.000000	100.516568
1302.000000	100.519053
1301.000000	100.522208
1300.000000	100.524471
1299.000000	100.525058
1298.000000	100.524387
1297.000000	100.523434
1296.000000	100.522731
1295.000000	100.521772
1294.000000	100.519885
1293.000000	100.517371
1292.000000	100.515236
1291.000000	100.513932
1290.000000	100.512939
1289.000000	100.511755
1288.000000	100.510691
1287.000000	100.510290
1286.000000	100.510471
1285.000000	100.510702
1284.000000	100.510644
1283.000000	100.510211
1282.000000	100.509195
1281.000000	100.507388
1280.000000	100.505227
1279.000000	100.503456
1278.000000	100.502342
1277.000000	100.501566
1276.000000	100.501239
1275.000000	100.502271
1274.000000	100.505362
1273.000000	100.509770
1272.000000	100.513572
1271.000000	100.515381
1270.000000	100.515688
1269.000000	100.516217
1268.000000	100.517951
1267.000000	100.520186
1266.000000	100.521751
1265.000000	100.522320
1264.000000	100.522383
1263.000000	100.522529
1262.000000	100.522908
1261.000000	100.522945
1260.000000	100.521568
1259.000000	100.518094
1258.000000	100.513421
1257.000000	100.509300
1256.000000	100.506170
1255.000000	100.502546
1254.000000	100.497037
1253.000000	100.489954
1252.000000	100.482189
1251.000000	100.473347
1250.000000	100.462541
1249.000000	100.450589
1248.000000	100.439646
1247.000000	100.430425
1246.000000	100.421573
1245.000000	100.412115
1244.000000	100.403014
1243.000000	100.395313
1242.000000	100.387867
1241.000000	100.378438
1240.000000	100.366563
1239.000000	100.354013
1238.000000	100.342604
1237.000000	100.332890
1236.000000	100.324719
1235.000000	100.317118
1234.000000	100.307295
1233.000000	100.292012
1232.000000	100.271271
1231.000000	100.249117
1230.000000	100.229042
1229.000000	100.209475
1228.000000	100.185860
1227.000000	100.156451
1226.000000	100.123801
1225.000000	100.090635
1224.000000	100.056308
1223.000000	100.017738
1222.000000	99.972239
1221.000000	99.919197
1220.000000	99.860436
1219.000000	99.799027
1218.000000	99.736259
1217.000000	99.669994
1216.000000	99.598065
1215.000000	99.523176
1214.000000	99.451945
1213.000000	99.388071
1212.000000	99.328096
1211.000000	99.264814
1210.000000	99.193671
1209.000000	99.115637
1208.000000	99.035540
1207.000000	98.958311
1206.000000	98.885559
1205.000000	98.815068
1204.000000	98.743962
1203.000000	98.671834
1202.000000	98.600316
1201.000000	98.530627
1200.000000	98.462582
1199.000000	98.395231
1198.000000	98.327547
1197.000000	98.259165
1196.000000	98.191120
1195.000000	98.124810
1194.000000	98.059419
1193.000000	97.991688
1192.000000	97.919017
1191.000000	97.841690
1190.000000	97.761708
1189.000000	97.681116
1188.000000	97.601969
1187.000000	97.525458
1186.000000	97.449514
1185.000000	97.369400
1184.000000	97.282480
1183.000000	97.191049
1182.000000	97.099417
1181.000000	97.010087
1180.000000	96.923569
1179.000000	96.838738
1178.000000	96.751434
1177.000000	96.655821
1176.000000	96.550163
1175.000000	96.439588
1174.000000	96.330717
1173.000000	96.225185
1172.000000	96.120481
1171.000000	96.014922
1170.000000	95.909044
1169.000000	95.803763
1168.000000	95.700219
1167.000000	95.601361
1166.000000	95.512673
1165.000000	95.442116
1164.000000	95.398974
1163.000000	95.389569
1162.000000	95.412124
1161.000000	95.456748
1160.000000	95.510064
1159.000000	95.558216
1158.000000	95.588042
1157.000000	95.590585
1156.000000	95.564533
1155.000000	95.514470
1154.000000	95.446491
1153.000000	95.367444
1152.000000	95.286037
1151.000000	95.208976
1150.000000	95.134968
1149.000000	95.056926
1148.000000	94.971355
1147.000000	94.882152
1146.000000	94.795084
1145.000000	94.712790
1144.000000	94.635443
1143.000000	94.560970
1142.000000	94.483635
1141.000000	94.397932
1140.000000	94.305762
1139.000000	94.214967
1138.000000	94.128961
1137.000000	94.042798
1136.000000	93.951596
1135.000000	93.857469
1134.000000	93.765021
1133.000000	93.674325
1132.000000	93.581782
1131.000000	93.484759
1130.000000	93.382943
1129.000000	93.278067
1128.000000	93.174047
1127.000000	93.074371
1126.000000	92.977980
1125.000000	92.880564
1124.000000	92.780192
1123.000000	92.678122
1122.000000	92.574778
1121.000000	92.470010
1120.000000	92.367164
1119.000000	92.270810
1118.000000	92.179604
1117.000000	92.087107
1116.000000	91.990603
1115.000000	91.893841
1114.000000	91.800474
1113.000000	91.710204
1112.000000	91.621642
1111.000000	91.533630
1110.000000	91.444369
1109.000000	91.354557
1108.000000	91.269036
1107.000000	91.189852
1106.000000	91.110855
1105.000000	91.026949
1104.000000	90.944940
1103.000000	90.875145
1102.000000	90.815122
1101.000000	90.752787
1100.000000	90.682960
1099.000000	90.611124
1098.000000	90.539843
1097.000000	90.465741
1096.000000	90.389396
1095.000000	90.316081
1094.000000	90.245675
1093.000000	90.173454
1092.000000	90.101565
1091.000000	90.037854
1090.000000	89.982518
1089.000000	89.927956
1088.000000	89.872544
1087.000000	89.821966
1086.000000	89.776065
1085.000000	89.727892
1084.000000	89.677615
1083.000000	89.633619
1082.000000	89.596661
1081.000000	89.556152
1080.000000	89.506293
1079.000000	89.453946
1078.000000	89.406525
1077.000000	89.362783
1076.000000	89.318746
1075.000000	89.271244
1074.000000	89.212199
1073.000000	89.130716
1072.000000	89.024876
1071.000000	88.902502
1070.000000	88.768098
1069.000000	88.618517
1068.000000	88.453367
1067.000000	88.279230
1066.000000	88.101266
1065.000000	87.920872
1064.000000	87.743307
1063.000000	87.576163
1062.000000	87.418307
1061.000000	87.261825
1060.000000	87.106155
1059.000000	86.958186
1058.000000	86.818007
1057.000000	86.678474
1056.000000	86.539794
1055.000000	86.408930
1054.000000	86.281350
1053.000000	86.138745
1052.000000	85.970541
1051.000000	85.784357
1050.000000	85.590462
1049.000000	85.390522
1048.000000	85.186295
1047.000000	84.982584
1046.000000	84.776778
1045.000000	84.561076
1044.000000	84.338127
1043.000000	84.119823
1042.000000	83.908626
1041.000000	83.695605
1040.000000	83.479551
1039.000000	83.271495
1038.000000	83.076684
1037.000000	82.889210
1036.000000	82.709016
1035.000000	82.546931
1034.000000	82.407048
1033.000000	82.280291
1032.000000	82.161001
1031.000000	82.054739
1030.000000	81.964802
1029.000000	81.886214
1028.000000	81.817147
1027.000000	81.760654
1026.000000	81.711117
1025.000000	81.654941
1024.000000	81.589236
1023.000000	81.524923
1022.000000	81.467951
1021.000000	81.412673
1020.000000	81.356532
1019.000000	81.305229
1018.000000	81.259852
1017.000000	81.214319
1016.000000	81.168618
1015.000000	81.129231
1014.000000	81.093904
1013.000000	81.051695
1012.000000	81.000990
1011.000000	80.952542
1010.000000	80.912643
1009.000000	80.877917
1008.000000	80.847390
1007.000000	80.824021
1006.000000	80.803716
1005.000000	80.779148
1004.000000	80.755058
1003.000000	80.743387
1002.000000	80.743439
1001.000000	80.743847
1000.000000	80.743443
999.000000	80.751337
998.000000	80.766448
997.000000	80.777047
996.000000	80.782288
995.000000	80.794585
994.000000	80.818438
993.000000	80.846238
992.000000	80.877122
991.000000	80.920021
990.000000	80.974820
989.000000	81.030142
988.000000	81.083726
987.000000	81.146269
986.000000	81.221518
985.000000	81.301850
984.000000	81.387577
983.000000	81.491101
982.000000	81.616426
981.000000	81.752831
980.000000	81.894435
979.000000	82.048590
978.000000	82.219000
977.000000	82.397638
976.000000	82.579788
975.000000	82.771746
974.000000	82.977328
973.000000	83.190565
972.000000	83.406904
971.000000	83.628613
970.000000	83.854952
969.000000	84.079740
968.000000	84.302199
967.000000	84.527885
966.000000	84.756097
965.000000	84.978472
964.000000	85.192131
963.000000	85.402096
962.000000	85.609290
961.000000	85.808635
960.000000	86.000387
959.000000	86.190643
958.000000	86.379177
957.000000	86.559506
956.000000	86.732251
955.000000	86.905254
954.000000	87.078622
953.000000	87.242893
952.000000	87.394290
951.000000	87.538689
950.000000	87.677947
949.000000	87.805240
948.000000	87.917751
947.000000	88.022450
946.000000	88.125815
945.000000	88.228106
944.000000	88.330078
943.000000	88.434011
942.000000	88.535670
941.000000	88.626539
940.000000	88.706618
939.000000	88.784442
938.000000	88.862781
937.000000	88.936028
936.000000	89.003933
935.000000	89.075254
934.000000	89.154132
933.000000	89.234603
932.000000	89.312413
931.000000	89.390638
930.000000	89.469764
929.000000	89.544268
928.000000	89.614383
927.000000	89.690395
926.000000	89.779097
925.000000	89.874692
924.000000	89.967998
923.000000	90.056137
922.000000	90.138847
921.000000	90.214026
920.000000	90.282220
919.000000	90.348600
918.000000	90.416029
917.000000	90.481955
916.000000	90.544521
915.000000	90.605214
914.000000	90.664005
913.000000	90.719942
912.000000	90.779186
911.000000	90.854738
910.000000	90.955142
909.000000	91.079477
908.000000	91.223825
907.000000	91.384494
906.000000	91.554119
905.000000	91.724043
904.000000	91.893322
903.000000	92.068255
902.000000	92.252070
901.000000	92.442330
900.000000	92.638252
899.000000	92.841625
898.000000	93.048751
897.000000	93.250199
896.000000	93.440825
895.000000	93.623950
894.000000	93.804713
893.000000	93.984919
892.000000	94.163833
891.000000	94.337193
890.000000	94.496171
889.000000	94.635595
888.000000	94.764266
887.000000	94.899754
886.000000	95.050511
885.000000	95.208622
884.000000	95.361068
883.000000	95.501549
882.000000	95.630455
881.000000	95.750571
880.000000	95.865915
879.000000	95.979743
878.000000	96.091230
877.000000	96.198365
876.000000	96.305294
875.000000	96.421665
874.000000	96.552410
873.000000	96.691791
872.000000	96.829031
871.000000	96.957306
870.000000	97.077609
869.000000	97.196859
868.000000	97.322043
867.000000	97.453815
866.000000	97.585972
865.000000	97.712064
864.000000	97.830502
863.000000	97.942682
862.000000	98.050281
861.000000	98.156243
860.000000	98.263388
859.000000	98.368605
858.000000	98.463106
857.000000	98.542601
856.000000	98.613073
855.000000	98.682597
854.000000	98.752018
853.000000	98.818251
852.000000	98.881412
851.000000	98.942512
850.000000	98.998957
849.000000	99.049604
848.000000	99.100313
847.000000	99.156193
846.000000	99.210675
845.000000	99.250379
844.000000	99.269483
843.000000	99.272138
842.000000	99.262329
841.000000	99.239583
840.000000	99.204604
839.000000	99.160701
838.000000	99.107968
837.000000	99.043373
836.000000	98.969457
835.000000	98.897025
834.000000	98.835761
833.000000	98.786408
832.000000	98.744701
831.000000	98.708708
830.000000	98.679928
829.000000	98.661278
828.000000	98.656297
827.000000	98.666689
826.000000	98.688700
825.000000	98.715141
824.000000	98.741418
823.000000	98.765751
822.000000	98.784743
821.000000	98.794427
820.000000	98.794721
819.000000	98.787540
818.000000	98.771403
817.000000	98.742086
816.000000	98.696578
815.000000	98.631106
814.000000	98.536684
813.000000	98.402661
812.000000	98.224627
811.000000	98.003100
810.000000	97.733979
809.000000	97.407026
808.000000	97.016770
807.000000	96.570274
806.000000	96.082283
805.000000	95.569376
804.000000	95.053207
803.000000	94.562424
802.000000	94.123818
801.000000	93.754537
800.000000	93.465833
799.000000	93.266852
798.000000	93.159318
797.000000	93.134223
796.000000	93.177333
795.000000	93.273034
794.000000	93.402863
793.000000	93.547858
792.000000	93.693381
791.000000	93.826425
790.000000	93.930810
789.000000	93.992913
788.000000	94.010388
787.000000	93.987414
786.000000	93.922752
785.000000	93.811035
784.000000	93.656007
783.000000	93.474764
782.000000	93.288882
781.000000	93.118960
780.000000	92.987187
779.000000	92.914334
778.000000	92.910037
777.000000	92.971913
776.000000	93.093462
775.000000	93.264147
774.000000	93.463432
773.000000	93.666916
772.000000	93.860981
771.000000	94.043796
770.000000	94.212268
769.000000	94.356541
768.000000	94.467976
767.000000	94.545645
766.000000	94.595573
765.000000	94.630170
764.000000	94.666056
763.000000	94.713026
762.000000	94.765036
761.000000	94.810546
760.000000	94.851148
759.000000	94.900717
758.000000	94.966804
757.000000	95.043595
756.000000	95.124101
755.000000	95.208040
754.000000	95.294813
753.000000	95.378958
752.000000	95.457300
751.000000	95.533228
750.000000	95.609712
749.000000	95.684094
748.000000	95.753094
747.000000	95.818173
746.000000	95.884472
745.000000	95.959878
744.000000	96.055806
743.000000	96.181258
742.000000	96.332567
741.000000	96.494346
740.000000	96.652997
739.000000	96.804395
738.000000	96.947623
737.000000	97.078779
736.000000	97.195144
735.000000	97.300390
734.000000	97.400460
733.000000	97.495851
732.000000	97.581229
731.000000	97.651834
730.000000	97.707737
729.000000	97.751239
728.000000	97.784053
727.000000	97.808076
726.000000	97.827009
725.000000	97.848441
724.000000	97.882534
723.000000	97.935291
722.000000	98.003392
721.000000	98.078336
720.000000	98.155672
719.000000	98.237081
718.000000	98.323060
717.000000	98.407764
716.000000	98.482482
715.000000	98.543273
714.000000	98.595552
713.000000	98.650455
712.000000	98.714339
711.000000	98.779894
710.000000	98.830383
709.000000	98.854501
708.000000	98.855858
707.000000	98.847370
706.000000	98.836438
705.000000	98.819603
704.000000	98.788335
703.000000	98.730672
702.000000	98.630668
701.000000	98.474313
700.000000	98.257812
699.000000	97.992563
698.000000	97.703649
697.000000	97.429403
696.000000	97.217309
695.000000	97.103843
694.000000	97.096675
693.000000	97.176131
692.000000	97.309917
691.000000	97.468098
690.000000	97.626684
689.000000	97.769502
688.000000	97.892683
687.000000	98.002764
686.000000	98.108637
685.000000	98.210877
684.000000	98.297741
683.000000	98.356298
682.000000	98.387994
681.000000	98.410726
680.000000	98.443127
679.000000	98.490897
678.000000	98.549910
677.000000	98.611459
676.000000	98.669301
675.000000	98.728792
674.000000	98.802555
673.000000	98.895102
672.000000	98.995961
671.000000	99.089137
670.000000	99.169326
669.000000	99.235799
668.000000	99.263480
667.000000	99.260277
666.000000	99.280525
665.000000	99.304975
664.000000	99.312519
663.000000	99.315621
662.000000	99.328897
661.000000	99.347621
660.000000	99.362375
659.000000	99.373445
658.000000	99.379555
657.000000	99.367420
656.000000	99.332763
655.000000	99.292991
654.000000	99.257837
653.000000	99.216834
652.000000	99.172130
651.000000	99.147305
650.000000	99.151494
