4000.000000	99.568823
3999.000000	99.570062
3998.000000	99.571517
3997.000000	99.572337
3996.000000	99.571763
3995.000000	99.569594
3994.000000	99.566441
3993.000000	99.563342
3992.000000	99.561010
3991.000000	99.559667
3990.000000	99.559312
3989.000000	99.559956
3988.000000	99.561527
3987.000000	99.563535
3986.000000	99.565106
3985.000000	99.565536
3984.000000	99.564759
3983.000000	99.563425
3982.000000	99.562317
3981.000000	99.561583
3980.000000	99.560754
3979.000000	99.559399
3978.000000	99.557588
3977.000000	99.555765
3976.000000	99.554360
3975.000000	99.553548
3974.000000	99.553270
3973.000000	99.553307
3972.000000	99.553357
3971.000000	99.553183
3970.000000	99.552751
3969.000000	99.552191
3968.000000	99.551615
3967.000000	99.550971
3966.000000	99.550091
3965.000000	99.548885
3964.000000	99.547497
3963.000000	99.546239
3962.000000	99.545386
3961.000000	99.545030
3960.000000	99.545138
3959.000000	99.545606
3958.000000	99.546189
3957.000000	99.546455
3956.000000	99.545995
3955.000000	99.544805
3954.000000	99.543458
3953.000000	99.542756
3952.000000	99.543097
3951.000000	99.544097
3950.000000	99.544757
3949.000000	99.544096
3948.000000	99.541803
3947.000000	99.538506
3946.000000	99.535533
3945.000000	99.534235
3944.000000	99.535210
3943.000000	99.537751
3942.000000	99.539985
3941.000000	99.540245
3940.000000	99.538355
3939.000000	99.535571
3938.000000	99.533414
3937.000000	99.532446
3936.000000	99.532202
3935.000000	99.532078
3934.000000	99.531923
3933.000000	99.531626
3932.000000	99.530466
3931.000000	99.527597
3930.000000	99.523221
3929.000000	99.518749
3928.000000	99.515617
3927.000000	99.514250
3926.000000	99.514248
3925.000000	99.515155
3924.000000	99.516772
3923.000000	99.518936
3922.000000	99.521329
3921.000000	99.523645
3920.000000	99.525861
3919.000000	99.528141
3918.000000	99.530595
3917.000000	99.533336
3916.000000	99.536512
3915.000000	99.539830
3914.000000	99.542265
3913.000000	99.542735
3912.000000	99.541270
3911.000000	99.539316
3910.000000	99.538603
3909.000000	99.539489
3908.000000	99.540605
3907.000000	99.540050
3906.000000	99.536959
3905.000000	99.532212
3904.000000	99.527723
3903.000000	99.524886
3902.000000	99.523759
3901.000000	99.523713
3900.000000	99.524401
3899.000000	99.525878
3898.000000	99.527898
3897.000000	99.529541
3896.000000	99.529777
3895.000000	99.528392
3894.000000	99.526467
3893.000000	99.525919
3892.000000	99.528109
3891.000000	99.532588
3890.000000	99.537386
3889.000000	99.540594
3888.000000	99.541674
3887.000000	99.541530
3886.000000	99.541546
3885.000000	99.542177
3884.000000	99.542479
3883.000000	99.541153
3882.000000	99.537944
3881.000000	99.534236
3880.000000	99.532286
3879.000000	99.533351
3878.000000	99.536884
3877.000000	99.541198
3876.000000	99.544771
3875.000000	99.547080
3874.000000	99.548358
3873.000000	99.548950
3872.000000	99.549032
3871.000000	99.548810
3870.000000	99.548681
3869.000000	99.548975
3868.000000	99.549608
3867.000000	99.550268
3866.000000	99.550963
3865.000000	99.551964
3864.000000	99.553225
3863.000000	99.554269
3862.000000	99.554695
3861.000000	99.554514
3860.000000	99.554002
3859.000000	99.553407
3858.000000	99.552881
3857.000000	99.552482
3856.000000	99.552179
3855.000000	99.551966
3854.000000	99.552206
3853.000000	99.553420
3852.000000	99.555113
3851.000000	99.555996
3850.000000	99.555626
3849.000000	99.554600
3848.000000	99.553820
3847.000000	99.553607
3846.000000	99.553602
3845.000000	99.553299
3844.000000	99.552582
3843.000000	99.551794
3842.000000	99.551366
3841.000000	99.551429
3840.000000	99.551791
3839.000000	99.552093
3838.000000	99.552129
3837.000000	99.551967
3836.000000	99.551773
3835.000000	99.551644
3834.000000	99.551602
3833.000000	99.551612
3832.000000	99.551586
3831.000000	99.551440
3830.000000	99.551159
3829.000000	99.550788
3828.000000	99.550406
3827.000000	99.550096
3826.000000	99.549898
3825.000000	99.549770
3824.000000	99.549618
3823.000000	99.549377
3822.000000	99.549081
3821.000000	99.548854
3820.000000	99.548749
3819.000000	99.548670
3818.000000	99.548568
3817.000000	99.548608
3816.000000	99.548992
3815.000000	99.549657
3814.000000	99.550161
3813.000000	99.550058
3812.000000	99.549346
3811.000000	99.548510
3810.000000	99.548045
3809.000000	99.548078
3808.000000	99.548518
3807.000000	99.549199
3806.000000	99.549756
3805.000000	99.549589
3804.000000	99.548335
3803.000000	99.546413
3802.000000	99.544771
3801.000000	99.544004
3800.000000	99.543948
3799.000000	99.544007
3798.000000	99.543947
3797.000000	99.544242
3796.000000	99.545401
3795.000000	99.547347
3794.000000	99.549479
3793.000000	99.551105
3792.000000	99.551709
3791.000000	99.551190
3790.000000	99.549759
3789.000000	99.547749
3788.000000	99.545606
3787.000000	99.543783
3786.000000	99.542629
3785.000000	99.542273
3784.000000	99.542581
3783.000000	99.543267
3782.000000	99.544098
3781.000000	99.544979
3780.000000	99.545875
3779.000000	99.546648
3778.000000	99.547007
3777.000000	99.546633
3776.000000	99.545382
3775.000000	99.543414
3774.000000	99.541177
3773.000000	99.539227
3772.000000	99.538075
3771.000000	99.538044
3770.000000	99.538970
3769.000000	99.540085
3768.000000	99.540503
3767.000000	99.539968
3766.000000	99.539047
3765.000000	99.538515
3764.000000	99.538532
3763.000000	99.538591
3762.000000	99.538226
3761.000000	99.537556
3760.000000	99.537047
3759.000000	99.536879
3758.000000	99.536882
3757.000000	99.537009
3756.000000	99.537519
3755.000000	99.538555
3754.000000	99.539685
3753.000000	99.539949
3752.000000	99.538645
3751.000000	99.536424
3750.000000	99.535046
3749.000000	99.535304
3748.000000	99.536365
3747.000000	99.536769
3746.000000	99.535784
3745.000000	99.533881
3744.000000	99.532351
3743.000000	99.531671
3742.000000	99.530708
3741.000000	99.528550
3740.000000	99.525737
3739.000000	99.523287
3738.000000	99.521544
3737.000000	99.520182
3736.000000	99.518771
3735.000000	99.517173
3734.000000	99.515536
3733.000000	99.514193
3732.000000	99.513428
3731.000000	99.513133
3730.000000	99.512726
3729.000000	99.511529
3728.000000	99.509314
3727.000000	99.506487
3726.000000	99.503786
3725.000000	99.501695
3724.000000	99.499975
3723.000000	99.497908
3722.000000	99.495095
3721.000000	99.491967
3720.000000	99.489402
3719.000000	99.487745
3718.000000	99.486422
3717.000000	99.484509
3716.000000	99.481601
3715.000000	99.477987
3714.000000	99.473995
3713.000000	99.469283
3712.000000	99.463172
3711.000000	99.456290
3710.000000	99.451090
3709.000000	99.449913
3708.000000	99.452801
3707.000000	99.457020
3706.000000	99.458638
3705.000000	99.454932
3704.000000	99.445883
3703.000000	99.434664
3702.000000	99.425901
3701.000000	99.421920
3700.000000	99.421032
3699.000000	99.419881
3698.000000	99.417002
3697.000000	99.413730
3696.000000	99.411944
3695.000000	99.411421
3694.000000	99.409941
3693.000000	99.405749
3692.000000	99.399160
3691.000000	99.391558
3690.000000	99.383433
3689.000000	99.374309
3688.000000	99.364602
3687.000000	99.355483
3686.000000	99.346804
3685.000000	99.337932
3684.000000	99.329809
3683.000000	99.323861
3682.000000	99.320244
3681.000000	99.318028
3680.000000	99.316047
3679.000000	99.312883
3678.000000	99.306355
3677.000000	99.294489
3676.000000	99.278505
3675.000000	99.263729
3674.000000	99.253439
3673.000000	99.245045
3672.000000	99.235039
3671.000000	99.223115
3670.000000	99.211273
3669.000000	99.200823
3668.000000	99.190516
3667.000000	99.178023
3666.000000	99.162350
3665.000000	99.144390
3664.000000	99.126136
3663.000000	99.109778
3662.000000	99.097324
3661.000000	99.089822
3660.000000	99.086451
3659.000000	99.084670
3658.000000	99.081438
3657.000000	99.074947
3656.000000	99.065151
3655.000000	99.052283
3654.000000	99.035425
3653.000000	99.014188
3652.000000	98.991099
3651.000000	98.970280
3650.000000	98.953869
3649.000000	98.940732
3648.000000	98.929395
3647.000000	98.920929
3646.000000	98.916492
3645.000000	98.914133
3644.000000	98.910417
3643.000000	98.903513
3642.000000	98.894290
3641.000000	98.884947
3640.000000	98.876538
3639.000000	98.867964
3638.000000	98.857486
3637.000000	98.844734
3636.000000	98.831130
3635.000000	98.819042
3634.000000	98.810250
3633.000000	98.804506
3632.000000	98.799034
3631.000000	98.790068
3630.000000	98.776797
3629.000000	98.765639
3628.000000	98.765343
3627.000000	98.775674
3626.000000	98.788534
3625.000000	98.797422
3624.000000	98.801211
3623.000000	98.800871
3622.000000	98.795923
3621.000000	98.786125
3620.000000	98.775098
3619.000000	98.769111
3618.000000	98.770695
3617.000000	98.776353
3616.000000	98.781421
3615.000000	98.784918
3614.000000	98.789566
3613.000000	98.798230
3612.000000	98.811182
3611.000000	98.826596
3610.000000	98.842002
3609.000000	98.854999
3608.000000	98.864035
3607.000000	98.869412
3606.000000	98.873210
3605.000000	98.877505
3604.000000	98.882570
3603.000000	98.886985
3602.000000	98.889554
3601.000000	98.891057
3600.000000	98.894023
3599.000000	98.900648
3598.000000	98.910779
3597.000000	98.921561
3596.000000	98.928860
3595.000000	98.929961
3594.000000	98.925660
3593.000000	98.919571
3592.000000	98.914654
3591.000000	98.910730
3590.000000	98.905581
3589.000000	98.898314
3588.000000	98.891611
3587.000000	98.889535
3586.000000	98.893062
3585.000000	98.899505
3584.000000	98.905323
3583.000000	98.908343
3582.000000	98.908134
3581.000000	98.904978
3580.000000	98.899618
3579.000000	98.894233
3578.000000	98.892141
3577.000000	98.895116
3576.000000	98.900944
3575.000000	98.904605
3574.000000	98.902460
3573.000000	98.894926
3572.000000	98.885245
3571.000000	98.876366
3570.000000	98.869406
3569.000000	98.864290
3568.000000	98.860553
3567.000000	98.857299
3566.000000	98.853654
3565.000000	98.850075
3564.000000	98.847949
3563.000000	98.847632
3562.000000	98.847902
3561.000000	98.847115
3560.000000	98.844604
3559.000000	98.841168
3558.000000	98.838161
3557.000000	98.836144
3556.000000	98.834401
3555.000000	98.831621
3554.000000	98.827163
3553.000000	98.821922
3552.000000	98.817832
3551.000000	98.816121
3550.000000	98.816054
3549.000000	98.815459
3548.000000	98.812595
3547.000000	98.807627
3546.000000	98.802412
3545.000000	98.798831
3544.000000	98.797486
3543.000000	98.797810
3542.000000	98.798779
3541.000000	98.799407
3540.000000	98.798930
3539.000000	98.797110
3538.000000	98.794549
3537.000000	98.792439
3536.000000	98.791583
3535.000000	98.791648
3534.000000	98.791498
3533.000000	98.790281
3532.000000	98.788010
3531.000000	98.785223
3530.000000	98.782390
3529.000000	98.779640
3528.000000	98.776926
3527.000000	98.774311
3526.000000	98.772085
3525.000000	98.770671
3524.000000	98.770380
3523.000000	98.771141
3522.000000	98.772450
3521.000000	98.773639
3520.000000	98.774174
3519.000000	98.773798
3518.000000	98.772617
3517.000000	98.771132
3516.000000	98.770003
3515.000000	98.769567
3514.000000	98.769580
3513.000000	98.769428
3512.000000	98.768611
3511.000000	98.767066
3510.000000	98.765195
3509.000000	98.763656
3508.000000	98.762953
3507.000000	98.763051
3506.000000	98.763322
3505.000000	98.762959
3504.000000	98.761640
3503.000000	98.759687
3502.000000	98.757697
3501.000000	98.756074
3500.000000	98.754879
3499.000000	98.753976
3498.000000	98.753170
3497.000000	98.752289
3496.000000	98.751255
3495.000000	98.750107
3494.000000	98.748935
3493.000000	98.747825
3492.000000	98.746887
3491.000000	98.746262
3490.000000	98.745981
3489.000000	98.745791
3488.000000	98.745199
3487.000000	98.743877
3486.000000	98.741958
3485.000000	98.739915
3484.000000	98.738151
3483.000000	98.736701
3482.000000	98.735358
3481.000000	98.733934
3480.000000	98.732422
3479.000000	98.730946
3478.000000	98.729603
3477.000000	98.728359
3476.000000	98.727068
3475.000000	98.725582
3474.000000	98.723871
3473.000000	98.722077
3472.000000	98.720376
3471.000000	98.718723
3470.000000	98.716818
3469.000000	98.714440
3468.000000	98.711818
3467.000000	98.709525
3466.000000	98.707910
3465.000000	98.706776
3464.000000	98.705623
3463.000000	98.704152
3462.000000	98.702367
3461.000000	98.700325
3460.000000	98.698021
3459.000000	98.695537
3458.000000	98.693113
3457.000000	98.690988
3456.000000	98.689232
3455.000000	98.687763
3454.000000	98.686435
3453.000000	98.685052
3452.000000	98.683414
3451.000000	98.681390
3450.000000	98.678881
3449.000000	98.675660
3448.000000	98.671493
3447.000000	98.666643
3446.000000	98.662208
3445.000000	98.659488
3444.000000	98.658954
3443.000000	98.659848
3442.000000	98.660760
3441.000000	98.660695
3440.000000	98.659372
3439.000000	98.656768
3438.000000	98.652922
3437.000000	98.648260
3436.000000	98.643721
3435.000000	98.640146
3434.000000	98.637623
3433.000000	98.635636
3432.000000	98.633824
3431.000000	98.632380
3430.000000	98.631677
3429.000000	98.631715
3428.000000	98.632004
3427.000000	98.631916
3426.000000	98.631113
3425.000000	98.629716
3424.000000	98.628117
3423.000000	98.626672
3422.000000	98.625564
3421.000000	98.624846
3420.000000	98.624371
3419.000000	98.623644
3418.000000	98.622041
3417.000000	98.619460
3416.000000	98.616679
3415.000000	98.614814
3414.000000	98.614403
3413.000000	98.615115
3412.000000	98.616182
3411.000000	98.616834
3410.000000	98.616370
3409.000000	98.614297
3408.000000	98.610809
3407.000000	98.607007
3406.000000	98.604317
3405.000000	98.603596
3404.000000	98.604867
3403.000000	98.607715
3402.000000	98.611557
3401.000000	98.615485
3400.000000	98.618333
3399.000000	98.619312
3398.000000	98.618757
3397.000000	98.618014
3396.000000	98.618161
3395.000000	98.618875
3394.000000	98.618932
3393.000000	98.617734
3392.000000	98.615953
3391.000000	98.614562
3390.000000	98.613739
3389.000000	98.613221
3388.000000	98.613260
3387.000000	98.614474
3386.000000	98.616739
3385.000000	98.618915
3384.000000	98.620008
3383.000000	98.620236
3382.000000	98.620627
3381.000000	98.621936
3380.000000	98.624207
3379.000000	98.627003
3378.000000	98.629622
3377.000000	98.631399
3376.000000	98.632284
3375.000000	98.633150
3374.000000	98.635107
3373.000000	98.638392
3372.000000	98.642047
3371.000000	98.644715
3370.000000	98.645753
3369.000000	98.645551
3368.000000	98.645200
3367.000000	98.645764
3366.000000	98.647564
3365.000000	98.650032
3364.000000	98.652251
3363.000000	98.653743
3362.000000	98.654722
3361.000000	98.655662
3360.000000	98.656860
3359.000000	98.658430
3358.000000	98.660500
3357.000000	98.663119
3356.000000	98.665998
3355.000000	98.668579
3354.000000	98.670448
3353.000000	98.671544
3352.000000	98.672054
3351.000000	98.672294
3350.000000	98.672674
3349.000000	98.673519
3348.000000	98.674768
3347.000000	98.676053
3346.000000	98.677179
3345.000000	98.678408
3344.000000	98.680114
3343.000000	98.682289
3342.000000	98.684577
3341.000000	98.686723
3340.000000	98.688755
3339.000000	98.690732
3338.000000	98.692513
3337.000000	98.693911
3336.000000	98.694988
3335.000000	98.696068
3334.000000	98.697516
3333.000000	98.699526
3332.000000	98.702060
3331.000000	98.704857
3330.000000	98.707506
3329.000000	98.709631
3328.000000	98.711030
3327.000000	98.711763
3326.000000	98.712172
3325.000000	98.712699
3324.000000	98.713591
3323.000000	98.714753
3322.000000	98.715889
3321.000000	98.716860
3320.000000	98.717878
3319.000000	98.719320
3318.000000	98.721372
3317.000000	98.723846
3316.000000	98.726283
3315.000000	98.728385
3314.000000	98.730308
3313.000000	98.732399
3312.000000	98.734711
3311.000000	98.736942
3310.000000	98.738837
3309.000000	98.740485
3308.000000	98.742178
3307.000000	98.744081
3306.000000	98.746144
3305.000000	98.748254
3304.000000	98.750352
3303.000000	98.752410
3302.000000	98.754408
3301.000000	98.756357
3300.000000	98.758312
3299.000000	98.760330
3298.000000	98.762427
3297.000000	98.764569
3296.000000	98.766713
3295.000000	98.768831
3294.000000	98.770924
3293.000000	98.773006
3292.000000	98.775083
3291.000000	98.777159
3290.000000	98.779239
3289.000000	98.781330
3288.000000	98.783441
3287.000000	98.785579
3286.000000	98.787745
3285.000000	98.789935
3284.000000	98.792141
3283.000000	98.794359
3282.000000	98.796590
3281.000000	98.798835
3280.000000	98.801090
3279.000000	98.803349
3278.000000	98.805601
3277.000000	98.807837
3276.000000	98.810058
3275.000000	98.812270
3274.000000	98.814486
3273.000000	98.816710
3272.000000	98.818939
3271.000000	98.821161
3270.000000	98.823370
3269.000000	98.825564
3268.000000	98.827746
3267.000000	98.829919
3266.000000	98.832079
3265.000000	98.834226
3264.000000	98.836360
3263.000000	98.838484
3262.000000	98.840610
3261.000000	98.842727
3260.000000	98.844816
3259.000000	98.846886
3258.000000	98.848996
3257.000000	98.851189
3256.000000	98.853390
3255.000000	98.855458
3254.000000	98.857355
3253.000000	98.859204
3252.000000	98.861119
3251.000000	98.863116
3250.000000	98.865209
3249.000000	98.867465
3248.000000	98.869876
3247.000000	98.872281
3246.000000	98.874521
3245.000000	98.876627
3244.000000	98.878762
3243.000000	98.881031
3242.000000	98.883419
3241.000000	98.885858
3240.000000	98.888264
3239.000000	98.890516
3238.000000	98.892474
3237.000000	98.894075
3236.000000	98.895408
3235.000000	98.896759
3234.000000	98.898535
3233.000000	98.900987
3232.000000	98.903931
3231.000000	98.906723
3230.000000	98.908752
3229.000000	98.909926
3228.000000	98.910691
3227.000000	98.911633
3226.000000	98.913083
3225.000000	98.915147
3224.000000	98.917887
3223.000000	98.921284
3222.000000	98.925068
3221.000000	98.928728
3220.000000	98.931815
3219.000000	98.934255
3218.000000	98.936349
3217.000000	98.938490
3216.000000	98.940767
3215.000000	98.942953
3214.000000	98.944875
3213.000000	98.946696
3212.000000	98.948776
3211.000000	98.951285
3210.000000	98.954041
3209.000000	98.956665
3208.000000	98.958899
3207.000000	98.960780
3206.000000	98.962578
3205.000000	98.964595
3204.000000	98.966927
3203.000000	98.969448
3202.000000	98.971974
3201.000000	98.974438
3200.000000	98.976882
3199.000000	98.979319
3198.000000	98.981701
3197.000000	98.984004
3196.000000	98.986271
3195.000000	98.988565
3194.000000	98.990911
3193.000000	98.993289
3192.000000	98.995676
3191.000000	98.998057
3190.000000	99.000415
3189.000000	99.002741
3188.000000	99.005038
3187.000000	99.007328
3186.000000	99.009617
3185.000000	99.011901
3184.000000	99.014185
3183.000000	99.016465
3182.000000	99.018734
3181.000000	99.020980
3180.000000	99.023196
3179.000000	99.025380
3178.000000	99.027543
3177.000000	99.029696
3176.000000	99.031851
3175.000000	99.034014
3174.000000	99.036185
3173.000000	99.038364
3172.000000	99.040553
3171.000000	99.042753
3170.000000	99.044964
3169.000000	99.047184
3168.000000	99.049410
3167.000000	99.051639
3166.000000	99.053874
3165.000000	99.056112
3164.000000	99.058350
3163.000000	99.060579
3162.000000	99.062793
3161.000000	99.064993
3160.000000	99.067197
3159.000000	99.069427
3158.000000	99.071687
3157.000000	99.073922
3156.000000	99.076060
3155.000000	99.078071
3154.000000	99.080021
3153.000000	99.082021
3152.000000	99.084140
3151.000000	99.086369
3150.000000	99.088614
3149.000000	99.090779
3148.000000	99.092808
3147.000000	99.094700
3146.000000	99.096513
3145.000000	99.098359
3144.000000	99.100333
3143.000000	99.102403
3142.000000	99.104414
3141.000000	99.106236
3140.000000	99.107926
3139.000000	99.109714
3138.000000	99.111829
3137.000000	99.114308
3136.000000	99.116997
3135.000000	99.119704
3134.000000	99.122321
3133.000000	99.124816
3132.000000	99.127198
3131.000000	99.129540
3130.000000	99.131997
3129.000000	99.134682
3128.000000	99.137457
3127.000000	99.139928
3126.000000	99.141779
3125.000000	99.143076
3124.000000	99.144186
3123.000000	99.145464
3122.000000	99.147053
3121.000000	99.148920
3120.000000	99.150917
3119.000000	99.152823
3118.000000	99.154519
3117.000000	99.156159
3116.000000	99.157990
3115.000000	99.159949
3114.000000	99.161672
3113.000000	99.163014
3112.000000	99.164364
3111.000000	99.166223
3110.000000	99.168590
3109.000000	99.170978
3108.000000	99.173020
3107.000000	99.174809
3106.000000	99.176586
3105.000000	99.178374
3104.000000	99.180085
3103.000000	99.181811
3102.000000	99.183776
3101.000000	99.185997
3100.000000	99.188123
3099.000000	99.189732
3098.000000	99.190726
3097.000000	99.191371
3096.000000	99.192113
3095.000000	99.193249
3094.000000	99.194805
3093.000000	99.196653
3092.000000	99.198679
3091.000000	99.200848
3090.000000	99.203063
3089.000000	99.205076
3088.000000	99.206650
3087.000000	99.207772
3086.000000	99.208717
3085.000000	99.209847
3084.000000	99.211321
3083.000000	99.213054
3082.000000	99.214826
3081.000000	99.216439
3080.000000	99.217788
3079.000000	99.218868
3078.000000	99.219739
3077.000000	99.220479
3076.000000	99.221226
3075.000000	99.222227
3074.000000	99.223733
3073.000000	99.225763
3072.000000	99.228042
3071.000000	99.230248
3070.000000	99.232227
3069.000000	99.233920
3068.000000	99.235198
3067.000000	99.235947
3066.000000	99.236287
3065.000000	99.236575
3064.000000	99.237153
3063.000000	99.238146
3062.000000	99.239441
3061.000000	99.240773
3060.000000	99.241936
3059.000000	99.243054
3058.000000	99.244525
3057.000000	99.246574
3056.000000	99.248867
3055.000000	99.250776
3054.000000	99.252045
3053.000000	99.252961
3052.000000	99.253908
3051.000000	99.255016
3050.000000	99.256322
3049.000000	99.258010
3048.000000	99.260255
3047.000000	99.262875
3046.000000	99.265224
3045.000000	99.266433
3044.000000	99.265924
3043.000000	99.263885
3042.000000	99.261404
3041.000000	99.259851
3040.000000	99.259859
3039.000000	99.261029
3038.000000	99.262448
3037.000000	99.263401
3036.000000	99.263803
3035.000000	99.264261
3034.000000	99.265586
3033.000000	99.267792
3032.000000	99.269582
3031.000000	99.269487
3030.000000	99.267601
3029.000000	99.265684
3028.000000	99.265202
3027.000000	99.265865
3026.000000	99.266423
3025.000000	99.266315
3024.000000	99.265893
3023.000000	99.265463
3022.000000	99.264978
3021.000000	99.264576
3020.000000	99.264692
3019.000000	99.265614
3018.000000	99.267436
3017.000000	99.270349
3016.000000	99.274178
3015.000000	99.277595
3014.000000	99.278789
3013.000000	99.277133
3012.000000	99.273392
3011.000000	99.268401
3010.000000	99.262751
3009.000000	99.257763
3008.000000	99.254975
3007.000000	99.254013
3006.000000	99.252497
3005.000000	99.249122
3004.000000	99.245648
3003.000000	99.244688
3002.000000	99.246586
3001.000000	99.249652
3000.000000	99.252615
2999.000000	99.255348
2998.000000	99.257695
2997.000000	99.259220
2996.000000	99.260249
2995.000000	99.261795
2994.000000	99.263871
2993.000000	99.264554
2992.000000	99.261347
2991.000000	99.253480
2990.000000	99.242994
2989.000000	99.233762
2988.000000	99.228966
2987.000000	99.228939
2986.000000	99.231323
2985.000000	99.233348
2984.000000	99.233676
2983.000000	99.232036
2982.000000	99.228049
2981.000000	99.221342
2980.000000	99.212466
2979.000000	99.202818
2978.000000	99.193715
2977.000000	99.186238
2976.000000	99.181796
2975.000000	99.181917
2974.000000	99.187269
2973.000000	99.197335
2972.000000	99.210988
2971.000000	99.226682
2970.000000	99.242035
2969.000000	99.254369
2968.000000	99.262632
2967.000000	99.268583
2966.000000	99.275345
2965.000000	99.284468
2964.000000	99.294512
2963.000000	99.302490
2962.000000	99.306508
2961.000000	99.307021
2960.000000	99.306016
2959.000000	99.305483
2958.000000	99.306713
2957.000000	99.310407
2956.000000	99.316459
2955.000000	99.323317
2954.000000	99.328184
2953.000000	99.328806
2952.000000	99.325437
2951.000000	99.321025
2950.000000	99.319255
2949.000000	99.322119
2948.000000	99.328812
2947.000000	99.336308
2946.000000	99.341081
2945.000000	99.341138
2944.000000	99.337363
2943.000000	99.333185
2942.000000	99.332321
2941.000000	99.336065
2940.000000	99.342557
2939.000000	99.348950
2938.000000	99.354504
2937.000000	99.361120
2936.000000	99.370575
2935.000000	99.381771
2934.000000	99.391450
2933.000000	99.397481
2932.000000	99.400772
2931.000000	99.403948
2930.000000	99.408733
2929.000000	99.414777
2928.000000	99.420489
2927.000000	99.424656
2926.000000	99.427449
2925.000000	99.430010
2924.000000	99.432903
2923.000000	99.435256
2922.000000	99.435936
2921.000000	99.434984
2920.000000	99.432830
2919.000000	99.428592
2918.000000	99.420918
2917.000000	99.410984
2916.000000	99.402855
2915.000000	99.399393
2914.000000	99.398726
2913.000000	99.396332
2912.000000	99.390144
2911.000000	99.382205
2910.000000	99.375571
2909.000000	99.371185
2908.000000	99.368195
2907.000000	99.365924
2906.000000	99.364399
2905.000000	99.363541
2904.000000	99.362919
2903.000000	99.362352
2902.000000	99.362176
2901.000000	99.362755
2900.000000	99.363848
2899.000000	99.364544
2898.000000	99.363743
2897.000000	99.360920
2896.000000	99.356626
2895.000000	99.352245
2894.000000	99.349207
2893.000000	99.348252
2892.000000	99.349161
2891.000000	99.350873
2890.000000	99.351993
2889.000000	99.351763
2888.000000	99.350756
2887.000000	99.350496
2886.000000	99.352106
2885.000000	99.355191
2884.000000	99.358087
2883.000000	99.359381
2882.000000	99.359274
2881.000000	99.359314
2880.000000	99.360622
2879.000000	99.362661
2878.000000	99.364134
2877.000000	99.364911
2876.000000	99.366407
2875.000000	99.369867
2874.000000	99.374885
2873.000000	99.379909
2872.000000	99.383669
2871.000000	99.385652
2870.000000	99.385697
2869.000000	99.384152
2868.000000	99.382482
2867.000000	99.382849
2866.000000	99.386505
2865.000000	99.392776
2864.000000	99.399754
2863.000000	99.405863
2862.000000	99.410714
2861.000000	99.414868
2860.000000	99.419158
2859.000000	99.424020
2858.000000	99.429008
2857.000000	99.432873
2856.000000	99.434441
2855.000000	99.433709
2854.000000	99.432222
2853.000000	99.432230
2852.000000	99.435023
2851.000000	99.439677
2850.000000	99.443368
2849.000000	99.443345
2848.000000	99.438899
2847.000000	99.431763
2846.000000	99.424958
2845.000000	99.421063
2844.000000	99.421142
2843.000000	99.424632
2842.000000	99.429610
2841.000000	99.433617
2840.000000	99.435082
2839.000000	99.434201
2838.000000	99.432430
2837.000000	99.431165
2836.000000	99.430965
2835.000000	99.431838
2834.000000	99.433653
2833.000000	99.435988
2832.000000	99.437986
2831.000000	99.438909
2830.000000	99.438844
2829.000000	99.438533
2828.000000	99.438487
2827.000000	99.438503
2826.000000	99.438093
2825.000000	99.437154
2824.000000	99.436179
2823.000000	99.435944
2822.000000	99.436933
2821.000000	99.438864
2820.000000	99.440819
2819.000000	99.442150
2818.000000	99.443194
2817.000000	99.444711
2816.000000	99.446721
2815.000000	99.448391
2814.000000	99.449175
2813.000000	99.449502
2812.000000	99.450075
2811.000000	99.450857
2810.000000	99.451228
2809.000000	99.451012
2808.000000	99.450871
2807.000000	99.451618
2806.000000	99.453472
2805.000000	99.455977
2804.000000	99.458406
2803.000000	99.460177
2802.000000	99.461080
2801.000000	99.461263
2800.000000	99.460920
2799.000000	99.459978
2798.000000	99.458382
2797.000000	99.456661
2796.000000	99.455799
2795.000000	99.456402
2794.000000	99.458284
2793.000000	99.460840
2792.000000	99.463607
2791.000000	99.466356
2790.000000	99.468855
2789.000000	99.470740
2788.000000	99.471611
2787.000000	99.471235
2786.000000	99.469854
2785.000000	99.468318
2784.000000	99.467574
2783.000000	99.467841
2782.000000	99.468541
2781.000000	99.469124
2780.000000	99.469773
2779.000000	99.471048
2778.000000	99.473035
2777.000000	99.475153
2776.000000	99.476696
2775.000000	99.477438
2774.000000	99.477672
2773.000000	99.477876
2772.000000	99.478297
2771.000000	99.478799
2770.000000	99.479144
2769.000000	99.479388
2768.000000	99.479846
2767.000000	99.480665
2766.000000	99.481622
2765.000000	99.482466
2764.000000	99.483256
2763.000000	99.484164
2762.000000	99.485096
2761.000000	99.485754
2760.000000	99.486040
2759.000000	99.486210
2758.000000	99.486635
2757.000000	99.487554
2756.000000	99.488987
2755.000000	99.490694
2754.000000	99.492236
2753.000000	99.493299
2752.000000	99.493992
2751.000000	99.494673
2750.000000	99.495466
2749.000000	99.496165
2748.000000	99.496664
2747.000000	99.497186
2746.000000	99.497880
2745.000000	99.498416
2744.000000	99.498334
2743.000000	99.497784
2742.000000	99.497609
2741.000000	99.498475
2740.000000	99.500177
2739.000000	99.501959
2738.000000	99.503454
2737.000000	99.504983
2736.000000	99.506915
2735.000000	99.509035
2734.000000	99.510721
2733.000000	99.511549
2732.000000	99.511464
2731.000000	99.510602
2730.000000	99.509315
2729.000000	99.508344
2728.000000	99.508500
2727.000000	99.509998
2726.000000	99.512264
2725.000000	99.514464
2724.000000	99.516156
2723.000000	99.517244
2722.000000	99.517633
2721.000000	99.517301
2720.000000	99.516547
2719.000000	99.515814
2718.000000	99.515298
2717.000000	99.514960
2716.000000	99.514805
2715.000000	99.514884
2714.000000	99.515139
2713.000000	99.515505
2712.000000	99.516092
2711.000000	99.516993
2710.000000	99.517959
2709.000000	99.518600
2708.000000	99.518847
2707.000000	99.518945
2706.000000	99.518988
2705.000000	99.518814
2704.000000	99.518415
2703.000000	99.518148
2702.000000	99.518354
2701.000000	99.518986
2700.000000	99.519737
2699.000000	99.520362
2698.000000	99.520784
2697.000000	99.521048
2696.000000	99.521282
2695.000000	99.521539
2694.000000	99.521594
2693.000000	99.521058
2692.000000	99.519834
2691.000000	99.518360
2690.000000	99.517299
2689.000000	99.517058
2688.000000	99.517701
2687.000000	99.519007
2686.000000	99.520407
2685.000000	99.521151
2684.000000	99.520971
2683.000000	99.520472
2682.000000	99.520540
2681.000000	99.521453
2680.000000	99.522852
2679.000000	99.524373
2678.000000	99.525875
2677.000000	99.527012
2676.000000	99.527144
2675.000000	99.526048
2674.000000	99.524446
2673.000000	99.523438
2672.000000	99.523468
2671.000000	99.524117
2670.000000	99.524718
2669.000000	99.524914
2668.000000	99.524735
2667.000000	99.524465
2666.000000	99.524446
2665.000000	99.524755
2664.000000	99.525070
2663.000000	99.525035
2662.000000	99.524733
2661.000000	99.524563
2660.000000	99.524646
2659.000000	99.524581
2658.000000	99.523855
2657.000000	99.522307
2656.000000	99.520156
2655.000000	99.517837
2654.000000	99.515954
2653.000000	99.515142
2652.000000	99.515663
2651.000000	99.517113
2650.000000	99.518687
2649.000000	99.519851
2648.000000	99.520710
2647.000000	99.521663
2646.000000	99.522823
2645.000000	99.523845
2644.000000	99.524389
2643.000000	99.524667
2642.000000	99.525391
2641.000000	99.527008
2640.000000	99.529086
2639.000000	99.530652
2638.000000	99.531191
2637.000000	99.531065
2636.000000	99.530846
2635.000000	99.530522
2634.000000	99.529601
2633.000000	99.527807
2632.000000	99.525458
2631.000000	99.523268
2630.000000	99.521929
2629.000000	99.521785
2628.000000	99.522707
2627.000000	99.524195
2626.000000	99.525607
2625.000000	99.526459
2624.000000	99.526552
2623.000000	99.525989
2622.000000	99.525185
2621.000000	99.524666
2620.000000	99.524674
2619.000000	99.525040
2618.000000	99.525443
2617.000000	99.525725
2616.000000	99.525892
2615.000000	99.525941
2614.000000	99.525848
2613.000000	99.525695
2612.000000	99.525637
2611.000000	99.525733
2610.000000	99.525899
2609.000000	99.526033
2608.000000	99.526104
2607.000000	99.526121
2606.000000	99.526097
2605.000000	99.526053
2604.000000	99.526028
2603.000000	99.526051
2602.000000	99.526107
2601.000000	99.526152
2600.000000	99.526151
2599.000000	99.526105
2598.000000	99.526037
2597.000000	99.525990
2596.000000	99.525994
2595.000000	99.526055
2594.000000	99.526142
2593.000000	99.526212
2592.000000	99.526244
2591.000000	99.526262
2590.000000	99.526318
2589.000000	99.526416
2588.000000	99.526488
2587.000000	99.526459
2586.000000	99.526360
2585.000000	99.526349
2584.000000	99.526567
2583.000000	99.527040
2582.000000	99.527650
2581.000000	99.528192
2580.000000	99.528532
2579.000000	99.528661
2578.000000	99.528688
2577.000000	99.528724
2576.000000	99.528802
2575.000000	99.528902
2574.000000	99.529004
2573.000000	99.529072
2572.000000	99.529054
2571.000000	99.528952
2570.000000	99.528880
2569.000000	99.528979
2568.000000	99.529249
2567.000000	99.529509
2566.000000	99.529573
2565.000000	99.529449
2564.000000	99.529314
2563.000000	99.529284
2562.000000	99.529278
2561.000000	99.529152
2560.000000	99.528914
2559.000000	99.528715
2558.000000	99.528670
2557.000000	99.528796
2556.000000	99.529072
2555.000000	99.529459
2554.000000	99.529828
2553.000000	99.529998
2552.000000	99.529941
2551.000000	99.529871
2550.000000	99.530052
2549.000000	99.530527
2548.000000	99.531087
2547.000000	99.531475
2546.000000	99.531594
2545.000000	99.531502
2544.000000	99.531297
2543.000000	99.531051
2542.000000	99.530838
2541.000000	99.530792
2540.000000	99.530999
2539.000000	99.531352
2538.000000	99.531585
2537.000000	99.531513
2536.000000	99.531221
2535.000000	99.530946
2534.000000	99.530830
2533.000000	99.530856
2532.000000	99.531006
2531.000000	99.531369
2530.000000	99.531988
2529.000000	99.532660
2528.000000	99.533016
2527.000000	99.532841
2526.000000	99.532318
2525.000000	99.531915
2524.000000	99.531961
2523.000000	99.532414
2522.000000	99.532997
2521.000000	99.533577
2520.000000	99.534247
2519.000000	99.535024
2518.000000	99.535699
2517.000000	99.536123
2516.000000	99.536444
2515.000000	99.536876
2514.000000	99.537336
2513.000000	99.537583
2512.000000	99.537688
2511.000000	99.538052
2510.000000	99.538800
2509.000000	99.539494
2508.000000	99.539709
2507.000000	99.539650
2506.000000	99.539881
2505.000000	99.540533
2504.000000	99.541126
2503.000000	99.541210
2502.000000	99.540844
2501.000000	99.540405
2500.000000	99.540181
2499.000000	99.540277
2498.000000	99.540674
2497.000000	99.541193
2496.000000	99.541573
2495.000000	99.541814
2494.000000	99.542286
2493.000000	99.543282
2492.000000	99.544537
2491.000000	99.545414
2490.000000	99.545583
2489.000000	99.545326
2488.000000	99.545196
2487.000000	99.545467
2486.000000	99.545916
2485.000000	99.546019
2484.000000	99.545319
2483.000000	99.543799
2482.000000	99.542105
2481.000000	99.541249
2480.000000	99.541821
2479.000000	99.543517
2478.000000	99.545357
2477.000000	99.546454
2476.000000	99.546565
2475.000000	99.546005
2474.000000	99.545321
2473.000000	99.545050
2472.000000	99.545530
2471.000000	99.546736
2470.000000	99.548320
2469.000000	99.549946
2468.000000	99.551551
2467.000000	99.553243
2466.000000	99.555012
2465.000000	99.556638
2464.000000	99.557797
2463.000000	99.558158
2462.000000	99.557542
2461.000000	99.556175
2460.000000	99.554717
2459.000000	99.553767
2458.000000	99.553333
2457.000000	99.553063
2456.000000	99.552979
2455.000000	99.553636
2454.000000	99.555350
2453.000000	99.557550
2452.000000	99.559223
2451.000000	99.560032
2450.000000	99.560603
2449.000000	99.561657
2448.000000	99.563062
2447.000000	99.563954
2446.000000	99.563746
2445.000000	99.562752
2444.000000	99.561921
2443.000000	99.561978
2442.000000	99.562868
2441.000000	99.563943
2440.000000	99.564573
2439.000000	99.564631
2438.000000	99.564392
2437.000000	99.564153
2436.000000	99.564018
2435.000000	99.564009
2434.000000	99.564193
2433.000000	99.564594
2432.000000	99.565096
2431.000000	99.565552
2430.000000	99.565950
2429.000000	99.566357
2428.000000	99.566754
2427.000000	99.567023
2426.000000	99.567110
2425.000000	99.567116
2424.000000	99.567198
2423.000000	99.567439
2422.000000	99.567848
2421.000000	99.568401
2420.000000	99.569015
2419.000000	99.569510
2418.000000	99.569716
2417.000000	99.569630
2416.000000	99.569432
2415.000000	99.569312
2414.000000	99.569293
2413.000000	99.569282
2412.000000	99.569233
2411.000000	99.569225
2410.000000	99.569368
2409.000000	99.569654
2408.000000	99.569904
2407.000000	99.569950
2406.000000	99.569796
2405.000000	99.569596
2404.000000	99.569500
2403.000000	99.569527
2402.000000	99.569616
2401.000000	99.569709
2400.000000	99.569795
2399.000000	99.569874
2398.000000	99.569942
2397.000000	99.570002
2396.000000	99.570072
2395.000000	99.570166
2394.000000	99.570287
2393.000000	99.570430
2392.000000	99.570581
2391.000000	99.570733
2390.000000	99.570879
2389.000000	99.571020
2388.000000	99.571158
2387.000000	99.571295
2386.000000	99.571432
2385.000000	99.571569
2384.000000	99.571707
2383.000000	99.571844
2382.000000	99.571982
2381.000000	99.572122
2380.000000	99.572268
2379.000000	99.572421
2378.000000	99.572584
2377.000000	99.572760
2376.000000	99.572950
2375.000000	99.573156
2374.000000	99.573373
2373.000000	99.573595
2372.000000	99.573820
2371.000000	99.574048
2370.000000	99.574282
2369.000000	99.574520
2368.000000	99.574760
2367.000000	99.574996
2366.000000	99.575229
2365.000000	99.575468
2364.000000	99.575725
2363.000000	99.576008
2362.000000	99.576306
2361.000000	99.576607
2360.000000	99.576897
2359.000000	99.577174
2358.000000	99.577440
2357.000000	99.577702
2356.000000	99.577969
2355.000000	99.578246
2354.000000	99.578530
2353.000000	99.578809
2352.000000	99.579070
2351.000000	99.579304
2350.000000	99.579511
2349.000000	99.579698
2348.000000	99.579876
2347.000000	99.580052
2346.000000	99.580222
2345.000000	99.580378
2344.000000	99.580515
2343.000000	99.580633
2342.000000	99.580739
2341.000000	99.580837
2340.000000	99.580930
2339.000000	99.581014
2338.000000	99.581085
2337.000000	99.581141
2336.000000	99.581178
2335.000000	99.581189
2334.000000	99.581164
2333.000000	99.581097
2332.000000	99.580992
2331.000000	99.580861
2330.000000	99.580720
2329.000000	99.580581
2328.000000	99.580449
2327.000000	99.580303
2326.000000	99.580101
2325.000000	99.579831
2324.000000	99.579565
2323.000000	99.579381
2322.000000	99.579209
2321.000000	99.578834
2320.000000	99.578135
2319.000000	99.577231
2318.000000	99.576392
2317.000000	99.575780
2316.000000	99.575359
2315.000000	99.575004
2314.000000	99.574611
2313.000000	99.574168
2312.000000	99.573706
2311.000000	99.573301
2310.000000	99.573002
2309.000000	99.572799
2308.000000	99.572585
2307.000000	99.572219
2306.000000	99.571577
2305.000000	99.570624
2304.000000	99.569468
2303.000000	99.568294
2302.000000	99.567229
2301.000000	99.566391
2300.000000	99.565900
2299.000000	99.565729
2298.000000	99.565535
2297.000000	99.564943
2296.000000	99.563984
2295.000000	99.563041
2294.000000	99.562241
2293.000000	99.561243
2292.000000	99.559839
2291.000000	99.558404
2290.000000	99.557444
2289.000000	99.556889
2288.000000	99.556268
2287.000000	99.555423
2286.000000	99.554608
2285.000000	99.553854
2284.000000	99.552804
2283.000000	99.551353
2282.000000	99.550039
2281.000000	99.549484
2280.000000	99.549724
2279.000000	99.550320
2278.000000	99.550836
2277.000000	99.551015
2276.000000	99.550662
2275.000000	99.549662
2274.000000	99.548160
2273.000000	99.546527
2272.000000	99.545073
2271.000000	99.543947
2270.000000	99.543250
2269.000000	99.543030
2268.000000	99.543156
2267.000000	99.543298
2266.000000	99.543138
2265.000000	99.542587
2264.000000	99.541793
2263.000000	99.540979
2262.000000	99.540257
2261.000000	99.539527
2260.000000	99.538592
2259.000000	99.537388
2258.000000	99.536051
2257.000000	99.534784
2256.000000	99.533745
2255.000000	99.533113
2254.000000	99.533082
2253.000000	99.533574
2252.000000	99.534032
2251.000000	99.533832
2250.000000	99.532932
2249.000000	99.531958
2248.000000	99.531498
2247.000000	99.531380
2246.000000	99.530865
2245.000000	99.529508
2244.000000	99.527669
2243.000000	99.526209
2242.000000	99.525661
2241.000000	99.525835
2240.000000	99.526092
2239.000000	99.525960
2238.000000	99.525456
2237.000000	99.524839
2236.000000	99.524242
2235.000000	99.523579
2234.000000	99.522810
2233.000000	99.522207
2232.000000	99.522247
2231.000000	99.523178
2230.000000	99.524712
2229.000000	99.526122
2228.000000	99.526774
2227.000000	99.526582
2226.000000	99.525955
2225.000000	99.525412
2224.000000	99.525190
2223.000000	99.525241
2222.000000	99.525460
2221.000000	99.525783
2220.000000	99.526109
2219.000000	99.526271
2218.000000	99.526155
2217.000000	99.525815
2216.000000	99.525452
2215.000000	99.525276
2214.000000	99.525395
2213.000000	99.525762
2212.000000	99.526180
2211.000000	99.526389
2210.000000	99.526248
2209.000000	99.525850
2208.000000	99.525484
2207.000000	99.525403
2206.000000	99.525632
2205.000000	99.526004
2204.000000	99.526343
2203.000000	99.526619
2202.000000	99.526876
2201.000000	99.527093
2200.000000	99.527201
2199.000000	99.527204
2198.000000	99.527198
2197.000000	99.527265
2196.000000	99.527400
2195.000000	99.527551
2194.000000	99.527704
2193.000000	99.527886
2192.000000	99.528109
2191.000000	99.528346
2190.000000	99.528566
2189.000000	99.528743
2188.000000	99.528864
2187.000000	99.528952
2186.000000	99.529074
2185.000000	99.529290
2184.000000	99.529587
2183.000000	99.529894
2182.000000	99.530174
2181.000000	99.530451
2180.000000	99.530752
2179.000000	99.531069
2178.000000	99.531391
2177.000000	99.531706
2176.000000	99.531907
2175.000000	99.531802
2174.000000	99.531329
2173.000000	99.530784
2172.000000	99.530638
2171.000000	99.531099
2170.000000	99.531904
2169.000000	99.532578
2168.000000	99.532956
2167.000000	99.533256
2166.000000	99.533717
2165.000000	99.534302
2164.000000	99.534774
2163.000000	99.535025
2162.000000	99.535235
2161.000000	99.535655
2160.000000	99.536309
2159.000000	99.536999
2158.000000	99.537552
2157.000000	99.537959
2156.000000	99.538300
2155.000000	99.538636
2154.000000	99.539013
2153.000000	99.539479
2152.000000	99.540012
2151.000000	99.540515
2150.000000	99.540929
2149.000000	99.541317
2148.000000	99.541772
2147.000000	99.542245
2146.000000	99.542574
2145.000000	99.542679
2144.000000	99.542646
2143.000000	99.542639
2142.000000	99.542774
2141.000000	99.543079
2140.000000	99.543514
2139.000000	99.544005
2138.000000	99.544462
2137.000000	99.544834
2136.000000	99.545139
2135.000000	99.545451
2134.000000	99.545840
2133.000000	99.546300
2132.000000	99.546750
2131.000000	99.547122
2130.000000	99.547448
2129.000000	99.547835
2128.000000	99.548342
2127.000000	99.548929
2126.000000	99.549502
2125.000000	99.549999
2124.000000	99.550421
2123.000000	99.550807
2122.000000	99.551217
2121.000000	99.551694
2120.000000	99.552234
2119.000000	99.552766
2118.000000	99.553213
2117.000000	99.553562
2116.000000	99.553878
2115.000000	99.554237
2114.000000	99.554654
2113.000000	99.555088
2112.000000	99.555476
2111.000000	99.555789
2110.000000	99.556056
2109.000000	99.556368
2108.000000	99.556799
2107.000000	99.557326
2106.000000	99.557881
2105.000000	99.558467
2104.000000	99.559149
2103.000000	99.559934
2102.000000	99.560699
2101.000000	99.561307
2100.000000	99.561739
2099.000000	99.562065
2098.000000	99.562341
2097.000000	99.562595
2096.000000	99.562876
2095.000000	99.563237
2094.000000	99.563688
2093.000000	99.564196
2092.000000	99.564744
2091.000000	99.565314
2090.000000	99.565820
2089.000000	99.566151
2088.000000	99.566303
2087.000000	99.566394
2086.000000	99.566581
2085.000000	99.566926
2084.000000	99.567369
2083.000000	99.567768
2082.000000	99.568026
2081.000000	99.568166
2080.000000	99.568298
2079.000000	99.568497
2078.000000	99.568748
2077.000000	99.569006
2076.000000	99.569247
2075.000000	99.569461
2074.000000	99.569631
2073.000000	99.569755
2072.000000	99.569844
2071.000000	99.569897
2070.000000	99.569904
2069.000000	99.569882
2068.000000	99.569871
2067.000000	99.569874
2066.000000	99.569845
2065.000000	99.569760
2064.000000	99.569660
2063.000000	99.569604
2062.000000	99.569603
2061.000000	99.569607
2060.000000	99.569549
2059.000000	99.569398
2058.000000	99.569176
2057.000000	99.568936
2056.000000	99.568725
2055.000000	99.568561
2054.000000	99.568421
2053.000000	99.568245
2052.000000	99.567959
2051.000000	99.567521
2050.000000	99.566951
2049.000000	99.566331
2048.000000	99.565766
2047.000000	99.565314
2046.000000	99.564966
2045.000000	99.564618
2044.000000	99.564153
2043.000000	99.563548
2042.000000	99.562875
2041.000000	99.562215
2040.000000	99.561561
2039.000000	99.560831
2038.000000	99.559951
2037.000000	99.558939
2036.000000	99.557910
2035.000000	99.556979
2034.000000	99.556153
2033.000000	99.555365
2032.000000	99.554596
2031.000000	99.553898
2030.000000	99.553257
2029.000000	99.552532
2028.000000	99.551581
2027.000000	99.550440
2026.000000	99.549349
2025.000000	99.548564
2024.000000	99.548150
2023.000000	99.547918
2022.000000	99.547560
2021.000000	99.546884
2020.000000	99.545929
2019.000000	99.544902
2018.000000	99.544014
2017.000000	99.543366
2016.000000	99.542900
2015.000000	99.542389
2014.000000	99.541582
2013.000000	99.540421
2012.000000	99.539065
2011.000000	99.537604
2010.000000	99.535914
2009.000000	99.534009
2008.000000	99.532350
2007.000000	99.531440
2006.000000	99.531230
2005.000000	99.531218
2004.000000	99.531069
2003.000000	99.530817
2002.000000	99.530502
2001.000000	99.530012
2000.000000	99.529299
1999.000000	99.528405
1998.000000	99.527208
1997.000000	99.525655
1996.000000	99.524305
1995.000000	99.524085
1994.000000	99.525280
1993.000000	99.527045
1992.000000	99.528159
1991.000000	99.528290
1990.000000	99.528030
1989.000000	99.527918
1988.000000	99.527879
1987.000000	99.527559
1986.000000	99.526840
1985.000000	99.525926
1984.000000	99.525185
1983.000000	99.524931
1982.000000	99.525200
1981.000000	99.525639
1980.000000	99.525725
1979.000000	99.525134
1978.000000	99.523824
1977.000000	99.521949
1976.000000	99.519863
1975.000000	99.518158
1974.000000	99.517386
1973.000000	99.517682
1972.000000	99.518696
1971.000000	99.519844
1970.000000	99.520637
1969.000000	99.520885
1968.000000	99.520781
1967.000000	99.520773
1966.000000	99.521123
1965.000000	99.521568
1964.000000	99.521582
1963.000000	99.520918
1962.000000	99.519823
1961.000000	99.518842
1960.000000	99.518474
1959.000000	99.518915
1958.000000	99.519925
1957.000000	99.520902
1956.000000	99.521358
1955.000000	99.521316
1954.000000	99.521014
1953.000000	99.520233
1952.000000	99.518433
1951.000000	99.515728
1950.000000	99.513276
1949.000000	99.512123
1948.000000	99.511942
1947.000000	99.511406
1946.000000	99.509735
1945.000000	99.507477
1944.000000	99.505765
1943.000000	99.505241
1942.000000	99.505706
1941.000000	99.506450
1940.000000	99.506873
1939.000000	99.506790
1938.000000	99.506255
1937.000000	99.505286
1936.000000	99.503773
1935.000000	99.501802
1934.000000	99.500107
1933.000000	99.499736
1932.000000	99.501012
1931.000000	99.503034
1930.000000	99.504565
1929.000000	99.504987
1928.000000	99.504233
1927.000000	99.502328
1926.000000	99.499509
1925.000000	99.496685
1924.000000	99.494785
1923.000000	99.493844
1922.000000	99.492981
1921.000000	99.491594
1920.000000	99.490131
1919.000000	99.489490
1918.000000	99.490026
1917.000000	99.491012
1916.000000	99.490940
1915.000000	99.488763
1914.000000	99.484671
1913.000000	99.479963
1912.000000	99.475897
1911.000000	99.472434
1910.000000	99.468854
1909.000000	99.465317
1908.000000	99.462774
1907.000000	99.461275
1906.000000	99.459567
1905.000000	99.456804
1904.000000	99.453330
1903.000000	99.449767
1902.000000	99.446064
1901.000000	99.442160
1900.000000	99.438959
1899.000000	99.437594
1898.000000	99.437953
1897.000000	99.438710
1896.000000	99.438516
1895.000000	99.436877
1894.000000	99.433972
1893.000000	99.430373
1892.000000	99.426949
1891.000000	99.424467
1890.000000	99.423146
1889.000000	99.422601
1888.000000	99.422265
1887.000000	99.421924
1886.000000	99.421604
1885.000000	99.421261
1884.000000	99.421016
1883.000000	99.421127
1882.000000	99.421435
1881.000000	99.421196
1880.000000	99.419820
1879.000000	99.417504
1878.000000	99.414900
1877.000000	99.412648
1876.000000	99.411209
1875.000000	99.410798
1874.000000	99.411234
1873.000000	99.411873
1872.000000	99.412126
1871.000000	99.412213
1870.000000	99.413306
1869.000000	99.416441
1868.000000	99.420817
1867.000000	99.424253
1866.000000	99.425692
1865.000000	99.425671
1864.000000	99.425089
1863.000000	99.424694
1862.000000	99.424970
1861.000000	99.425997
1860.000000	99.427799
1859.000000	99.430947
1858.000000	99.436108
1857.000000	99.442549
1856.000000	99.447775
1855.000000	99.449730
1854.000000	99.449036
1853.000000	99.448249
1852.000000	99.448939
1851.000000	99.450517
1850.000000	99.451951
1849.000000	99.453934
1848.000000	99.457895
1847.000000	99.463472
1846.000000	99.468174
1845.000000	99.469782
1844.000000	99.468687
1843.000000	99.467308
1842.000000	99.467398
1841.000000	99.469009
1840.000000	99.471123
1839.000000	99.472479
1838.000000	99.472483
1837.000000	99.471767
1836.000000	99.471502
1835.000000	99.472181
1834.000000	99.473118
1833.000000	99.473213
1832.000000	99.472005
1831.000000	99.470118
1830.000000	99.468904
1829.000000	99.469177
1828.000000	99.470242
1827.000000	99.470933
1826.000000	99.470675
1825.000000	99.470003
1824.000000	99.470188
1823.000000	99.471617
1822.000000	99.473375
1821.000000	99.474405
1820.000000	99.474534
1819.000000	99.474244
1818.000000	99.473720
1817.000000	99.472726
1816.000000	99.471385
1815.000000	99.470587
1814.000000	99.471149
1813.000000	99.472906
1812.000000	99.474781
1811.000000	99.475614
1810.000000	99.475088
1809.000000	99.473724
1808.000000	99.472274
1807.000000	99.471221
1806.000000	99.470751
1805.000000	99.470970
1804.000000	99.471930
1803.000000	99.473478
1802.000000	99.475125
1801.000000	99.476210
1800.000000	99.476419
1799.000000	99.475945
1798.000000	99.475488
1797.000000	99.475774
1796.000000	99.477032
1795.000000	99.478831
1794.000000	99.480371
1793.000000	99.481056
1792.000000	99.480939
1791.000000	99.480394
1790.000000	99.479923
1789.000000	99.480206
1788.000000	99.481448
1787.000000	99.482930
1786.000000	99.483796
1785.000000	99.484295
1784.000000	99.485659
1783.000000	99.488563
1782.000000	99.492303
1781.000000	99.495549
1780.000000	99.497661
1779.000000	99.498475
1778.000000	99.498291
1777.000000	99.498125
1776.000000	99.499346
1775.000000	99.502215
1774.000000	99.505134
1773.000000	99.506708
1772.000000	99.508180
1771.000000	99.511237
1770.000000	99.515037
1769.000000	99.517963
1768.000000	99.519367
1767.000000	99.519824
1766.000000	99.520236
1765.000000	99.521173
1764.000000	99.523467
1763.000000	99.528305
1762.000000	99.535457
1761.000000	99.541829
1760.000000	99.544976
1759.000000	99.546173
1758.000000	99.548036
1757.000000	99.550669
1756.000000	99.551976
1755.000000	99.551013
1754.000000	99.549345
1753.000000	99.548802
1752.000000	99.549760
1751.000000	99.551662
1750.000000	99.554267
1749.000000	99.557999
1748.000000	99.562812
1747.000000	99.567813
1746.000000	99.571785
1745.000000	99.574079
1744.000000	99.574529
1743.000000	99.573103
1742.000000	99.570366
1741.000000	99.567498
1740.000000	99.565573
1739.000000	99.564472
1738.000000	99.563099
1737.000000	99.560434
1736.000000	99.555951
1735.000000	99.550476
1734.000000	99.547377
1733.000000	99.548403
1732.000000	99.551257
1731.000000	99.554232
1730.000000	99.556447
1729.000000	99.557341
1728.000000	99.557282
1727.000000	99.556771
1726.000000	99.555385
1725.000000	99.552763
1724.000000	99.550076
1723.000000	99.549018
1722.000000	99.549808
1721.000000	99.550834
1720.000000	99.550467
1719.000000	99.548576
1718.000000	99.546566
1717.000000	99.545206
1716.000000	99.543431
1715.000000	99.541165
1714.000000	99.539474
1713.000000	99.538477
1712.000000	99.537610
1711.000000	99.536623
1710.000000	99.535435
1709.000000	99.533580
1708.000000	99.530430
1707.000000	99.525776
1706.000000	99.520477
1705.000000	99.516348
1704.000000	99.514217
1703.000000	99.513340
1702.000000	99.512256
1701.000000	99.509766
1700.000000	99.506381
1699.000000	99.503669
1698.000000	99.501702
1697.000000	99.499423
1696.000000	99.495891
1695.000000	99.491387
1694.000000	99.487289
1693.000000	99.484444
1692.000000	99.482390
1691.000000	99.480262
1690.000000	99.477735
1689.000000	99.475052
1688.000000	99.472607
1687.000000	99.470498
1686.000000	99.468378
1685.000000	99.465994
1684.000000	99.463883
1683.000000	99.462164
1682.000000	99.459989
1681.000000	99.457301
1680.000000	99.453970
1679.000000	99.450055
1678.000000	99.445988
1677.000000	99.441964
1676.000000	99.438040
1675.000000	99.434816
1674.000000	99.432897
1673.000000	99.431967
1672.000000	99.431159
1671.000000	99.429509
1670.000000	99.426809
1669.000000	99.423834
1668.000000	99.421415
1667.000000	99.419830
1666.000000	99.418828
1665.000000	99.417515
1664.000000	99.414811
1663.000000	99.410627
1662.000000	99.406362
1661.000000	99.403163
1660.000000	99.401020
1659.000000	99.399409
1658.000000	99.398190
1657.000000	99.397831
1656.000000	99.398607
1655.000000	99.399684
1654.000000	99.400246
1653.000000	99.400837
1652.000000	99.399647
1651.000000	99.395949
1650.000000	99.392641
1649.000000	99.388870
1648.000000	99.384118
1647.000000	99.380920
1646.000000	99.380877
1645.000000	99.381567
1644.000000	99.381388
1643.000000	99.380774
1642.000000	99.379754
1641.000000	99.378321
1640.000000	99.377356
1639.000000	99.377607
1638.000000	99.378346
1637.000000	99.377739
1636.000000	99.375669
1635.000000	99.374468
1634.000000	99.374923
1633.000000	99.376516
1632.000000	99.378129
1631.000000	99.378656
1630.000000	99.378271
1629.000000	99.377986
1628.000000	99.378315
1627.000000	99.378889
1626.000000	99.379436
1625.000000	99.380506
1624.000000	99.383059
1623.000000	99.387135
1622.000000	99.391055
1621.000000	99.393195
1620.000000	99.393709
1619.000000	99.393112
1618.000000	99.391950
1617.000000	99.392042
1616.000000	99.395199
1615.000000	99.400551
1614.000000	99.405778
1613.000000	99.408755
1612.000000	99.408111
1611.000000	99.404733
1610.000000	99.401559
1609.000000	99.400904
1608.000000	99.402834
1607.000000	99.406288
1606.000000	99.410459
1605.000000	99.414766
1604.000000	99.418793
1603.000000	99.422385
1602.000000	99.425853
1601.000000	99.429528
1600.000000	99.433251
1599.000000	99.436906
1598.000000	99.440922
1597.000000	99.445811
1596.000000	99.451455
1595.000000	99.457244
1594.000000	99.462740
1593.000000	99.467762
1592.000000	99.472151
1591.000000	99.476050
1590.000000	99.480245
1589.000000	99.485327
1588.000000	99.490428
1587.000000	99.493654
1586.000000	99.494093
1585.000000	99.492744
1584.000000	99.491526
1583.000000	99.491740
1582.000000	99.493654
1581.000000	99.497375
1580.000000	99.502893
1579.000000	99.509560
1578.000000	99.516097
1577.000000	99.521461
1576.000000	99.524984
1575.000000	99.526359
1574.000000	99.526983
1573.000000	99.529060
1572.000000	99.532653
1571.000000	99.535953
1570.000000	99.537554
1569.000000	99.538021
1568.000000	99.538832
1567.000000	99.540899
1566.000000	99.544073
1565.000000	99.547823
1564.000000	99.551963
1563.000000	99.556338
1562.000000	99.559688
1561.000000	99.560368
1560.000000	99.557182
1559.000000	99.554806
1558.000000	99.556170
1557.000000	99.555919
1556.000000	99.556661
1555.000000	99.560258
1554.000000	99.564106
1553.000000	99.566171
1552.000000	99.567031
1551.000000	99.568136
1550.000000	99.569860
1549.000000	99.571237
1548.000000	99.571116
1547.000000	99.569859
1546.000000	99.568729
1545.000000	99.569157
1544.000000	99.571382
1543.000000	99.573159
1542.000000	99.571879
1541.000000	99.568306
1540.000000	99.566491
1539.000000	99.565871
1538.000000	99.562214
1537.000000	99.556511
1536.000000	99.550885
1535.000000	99.546690
1534.000000	99.545889
1533.000000	99.548531
1532.000000	99.551074
1531.000000	99.551143
1530.000000	99.549961
1529.000000	99.549135
1528.000000	99.549054
1527.000000	99.549118
1526.000000	99.548654
1525.000000	99.547639
1524.000000	99.546540
1523.000000	99.545606
1522.000000	99.545165
1521.000000	99.545470
1520.000000	99.545742
1519.000000	99.545495
1518.000000	99.544953
1517.000000	99.544075
1516.000000	99.542581
1515.000000	99.540269
1514.000000	99.537529
1513.000000	99.534968
1512.000000	99.533035
1511.000000	99.531938
1510.000000	99.531447
1509.000000	99.531163
1508.000000	99.531254
1507.000000	99.532620
1506.000000	99.534045
1505.000000	99.533236
1504.000000	99.531511
1503.000000	99.530399
1502.000000	99.529748
1501.000000	99.529419
1500.000000	99.529516
1499.000000	99.529803
1498.000000	99.529572
1497.000000	99.528879
1496.000000	99.528764
1495.000000	99.529540
1494.000000	99.530312
1493.000000	99.530162
1492.000000	99.529033
1491.000000	99.527797
1490.000000	99.527295
1489.000000	99.527131
1488.000000	99.526772
1487.000000	99.526865
1486.000000	99.527852
1485.000000	99.528775
1484.000000	99.528626
1483.000000	99.527500
1482.000000	99.526190
1481.000000	99.525525
1480.000000	99.525547
1479.000000	99.525668
1478.000000	99.525296
1477.000000	99.524712
1476.000000	99.525237
1475.000000	99.528037
1474.000000	99.532703
1473.000000	99.537250
1472.000000	99.539525
1471.000000	99.539110
1470.000000	99.537896
1469.000000	99.537625
1468.000000	99.538649
1467.000000	99.541009
1466.000000	99.544390
1465.000000	99.546973
1464.000000	99.546349
1463.000000	99.542105
1462.000000	99.536312
1461.000000	99.530889
1460.000000	99.526221
1459.000000	99.522138
1458.000000	99.518992
1457.000000	99.517305
1456.000000	99.515395
1455.000000	99.512867
1454.000000	99.512181
1453.000000	99.513733
1452.000000	99.516107
1451.000000	99.517656
1450.000000	99.517121
1449.000000	99.513849
1448.000000	99.508446
1447.000000	99.503098
1446.000000	99.499627
1445.000000	99.497923
1444.000000	99.496795
1443.000000	99.495293
1442.000000	99.494058
1441.000000	99.494359
1440.000000	99.496030
1439.000000	99.497333
1438.000000	99.497058
1437.000000	99.496529
1436.000000	99.497439
1435.000000	99.498396
1434.000000	99.497394
1433.000000	99.494537
1432.000000	99.491037
1431.000000	99.488083
1430.000000	99.485670
1429.000000	99.482890
1428.000000	99.479597
1427.000000	99.477045
1426.000000	99.476452
1425.000000	99.478106
1424.000000	99.481607
1423.000000	99.485568
1422.000000	99.488190
1421.000000	99.488158
1420.000000	99.485231
1419.000000	99.481683
1418.000000	99.480492
1417.000000	99.481547
1416.000000	99.483039
1415.000000	99.483938
1414.000000	99.484810
1413.000000	99.487229
1412.000000	99.491447
1411.000000	99.495193
1410.000000	99.495966
1409.000000	99.494101
1408.000000	99.492316
1407.000000	99.492799
1406.000000	99.495480
1405.000000	99.498960
1404.000000	99.502317
1403.000000	99.505205
1402.000000	99.507384
1401.000000	99.508770
1400.000000	99.509989
1399.000000	99.512141
1398.000000	99.515199
1397.000000	99.518171
1396.000000	99.521010
1395.000000	99.524840
1394.000000	99.530024
1393.000000	99.535396
1392.000000	99.539913
1391.000000	99.543278
1390.000000	99.545419
1389.000000	99.546406
1388.000000	99.546529
1387.000000	99.546257
1386.000000	99.545996
1385.000000	99.546082
1384.000000	99.546814
1383.000000	99.548019
1382.000000	99.549138
1381.000000	99.549551
1380.000000	99.548804
1379.000000	99.547150
1378.000000	99.545864
1377.000000	99.546501
1376.000000	99.549569
1375.000000	99.554122
1374.000000	99.558560
1373.000000	99.562009
1372.000000	99.564774
1371.000000	99.567348
1370.000000	99.569542
1369.000000	99.570968
1368.000000	99.571563
1367.000000	99.571241
1366.000000	99.570048
1365.000000	99.568595
1364.000000	99.567730
1363.000000	99.567416
1362.000000	99.566403
1361.000000	99.564192
1360.000000	99.562471
1359.000000	99.563066
1358.000000	99.565442
1357.000000	99.567258
1356.000000	99.566958
1355.000000	99.565197
1354.000000	99.563779
1353.000000	99.563829
1352.000000	99.565330
1351.000000	99.567821
1350.000000	99.570722
1349.000000	99.573142
1348.000000	99.574193
1347.000000	99.573767
1346.000000	99.572734
1345.000000	99.571857
1344.000000	99.570862
1343.000000	99.569201
1342.000000	99.567556
1341.000000	99.567648
1340.000000	99.569932
1339.000000	99.572173
1338.000000	99.571981
1337.000000	99.570054
1336.000000	99.568889
1335.000000	99.569151
1334.000000	99.569358
1333.000000	99.568762
1332.000000	99.568639
1331.000000	99.570185
1330.000000	99.572457
1329.000000	99.573400
1328.000000	99.572065
1327.000000	99.569090
1326.000000	99.565889
1325.000000	99.564025
1324.000000	99.564447
1323.000000	99.566481
1322.000000	99.568297
1321.000000	99.569146
1320.000000	99.570238
1319.000000	99.572467
1318.000000	99.574403
1317.000000	99.574259
1316.000000	99.572769
1315.000000	99.572126
1314.000000	99.572654
1313.000000	99.572465
1312.000000	99.570406
1311.000000	99.567539
1310.000000	99.565502
1309.000000	99.565092
1308.000000	99.566675
1307.000000	99.570186
1306.000000	99.574159
1305.000000	99.576232
1304.000000	99.575379
1303.000000	99.572746
1302.000000	99.569976
1301.000000	99.567682
1300.000000	99.566143
1299.000000	99.566208
1298.000000	99.568319
1297.000000	99.571265
1296.000000	99.572790
1295.000000	99.571277
1294.000000	99.566718
1293.000000	99.560666
1292.000000	99.555365
1291.000000	99.551939
1290.000000	99.549025
1289.000000	99.544198
1288.000000	99.537309
1287.000000	99.531305
1286.000000	99.528939
1285.000000	99.529778
1284.000000	99.531341
1283.000000	99.531822
1282.000000	99.530512
1281.000000	99.526880
1280.000000	99.521240
1279.000000	99.515851
1278.000000	99.513234
1277.000000	99.512984
1276.000000	99.511767
1275.000000	99.507227
1274.000000	99.501174
1273.000000	99.498118
1272.000000	99.500593
1271.000000	99.506020
1270.000000	99.508622
1269.000000	99.505275
1268.000000	99.499266
1267.000000	99.497325
1266.000000	99.502797
1265.000000	99.512867
1264.000000	99.522566
1263.000000	99.529230
1262.000000	99.531884
1261.000000	99.529004
1260.000000	99.520242
1259.000000	99.509532
1258.000000	99.502828
1257.000000	99.501722
1256.000000	99.501506
1255.000000	99.496338
1254.000000	99.484889
1253.000000	99.470465
1252.000000	99.457316
1251.000000	99.447927
1250.000000	99.442383
1249.000000	99.438506
1248.000000	99.432866
1247.000000	99.423015
1246.000000	99.409256
1245.000000	99.393973
1244.000000	99.379320
1243.000000	99.365805
1242.000000	99.352701
1241.000000	99.339148
1240.000000	99.324725
1239.000000	99.309341
1238.000000	99.293031
1237.000000	99.276108
1236.000000	99.259484
1235.000000	99.244396
1234.000000	99.231278
1233.000000	99.218795
1232.000000	99.204400
1231.000000	99.186241
1230.000000	99.164454
1229.000000	99.140270
1228.000000	99.113836
1227.000000	99.083586
1226.000000	99.048282
1225.000000	99.009051
1224.000000	98.968132
1223.000000	98.925488
1222.000000	98.878013
1221.000000	98.822825
1220.000000	98.760515
1219.000000	98.694431
1218.000000	98.627665
1217.000000	98.561565
1216.000000	98.495922
1215.000000	98.428731
1214.000000	98.356733
1213.000000	98.278618
1212.000000	98.197515
1211.000000	98.118220
1210.000000	98.042184
1209.000000	97.967692
1208.000000	97.894343
1207.000000	97.823937
1206.000000	97.756830
1205.000000	97.690845
1204.000000	97.624270
1203.000000	97.556729
1202.000000	97.486820
1201.000000	97.412572
1200.000000	97.335215
1199.000000	97.259253
1198.000000	97.187376
1197.000000	97.117859
1196.000000	97.047804
1195.000000	96.976166
1194.000000	96.902930
1193.000000	96.828340
1192.000000	96.753987
1191.000000	96.682190
1190.000000	96.613355
1189.000000	96.545732
1188.000000	96.477469
1187.000000	96.406497
1186.000000	96.329594
1185.000000	96.245521
1184.000000	96.158605
1183.000000	96.074856
1182.000000	95.994277
1181.000000	95.911253
1180.000000	95.822748
1179.000000	95.731220
1178.000000	95.638742
1177.000000	95.543538
1176.000000	95.444180
1175.000000	95.342637
1174.000000	95.240993
1173.000000	95.138769
1172.000000	95.034969
1171.000000	94.929353
1170.000000	94.821308
1169.000000	94.711905
1168.000000	94.607555
1167.000000	94.516725
1166.000000	94.442692
1165.000000	94.385076
1164.000000	94.348585
1163.000000	94.342764
1162.000000	94.370362
1161.000000	94.420951
1160.000000	94.477316
1159.000000	94.523521
1158.000000	94.547037
1157.000000	94.540368
1156.000000	94.503976
1155.000000	94.444491
1154.000000	94.368911
1153.000000	94.283281
1152.000000	94.195558
1151.000000	94.112978
1150.000000	94.035037
1149.000000	93.954819
1148.000000	93.868783
1147.000000	93.780265
1146.000000	93.693137
1145.000000	93.608321
1144.000000	93.527329
1143.000000	93.452128
1142.000000	93.379631
1141.000000	93.302849
1140.000000	93.219435
1139.000000	93.133301
1138.000000	93.046885
1137.000000	92.958258
1136.000000	92.866708
1135.000000	92.774141
1134.000000	92.679944
1133.000000	92.581796
1132.000000	92.482409
1131.000000	92.387408
1130.000000	92.295373
1129.000000	92.198730
1128.000000	92.096143
1127.000000	91.994781
1126.000000	91.898104
1125.000000	91.801086
1124.000000	91.700808
1123.000000	91.602010
1122.000000	91.507756
1121.000000	91.413525
1120.000000	91.315430
1119.000000	91.216322
1118.000000	91.119352
1117.000000	91.023111
1116.000000	90.926832
1115.000000	90.832709
1114.000000	90.739935
1113.000000	90.644432
1112.000000	90.546968
1111.000000	90.453011
1110.000000	90.363084
1109.000000	90.272843
1108.000000	90.183662
1107.000000	90.102143
1106.000000	90.027040
1105.000000	89.948020
1104.000000	89.860568
1103.000000	89.771524
1102.000000	89.687024
1101.000000	89.605570
1100.000000	89.525487
1099.000000	89.448160
1098.000000	89.371511
1097.000000	89.291497
1096.000000	89.212104
1095.000000	89.142625
1094.000000	89.083302
1093.000000	89.025662
1092.000000	88.968131
1091.000000	88.917614
1090.000000	88.873924
1089.000000	88.827730
1088.000000	88.777270
1087.000000	88.732315
1086.000000	88.697388
1085.000000	88.665399
1084.000000	88.632230
1083.000000	88.602925
1082.000000	88.578256
1081.000000	88.549739
1080.000000	88.514151
1079.000000	88.479412
1078.000000	88.449812
1077.000000	88.418292
1076.000000	88.379548
1075.000000	88.337648
1074.000000	88.293828
1073.000000	88.238675
1072.000000	88.162802
1071.000000	88.064282
1070.000000	87.940882
1069.000000	87.787335
1068.000000	87.606629
1067.000000	87.413011
1066.000000	87.217475
1065.000000	87.020791
1064.000000	86.825984
1063.000000	86.644100
1062.000000	86.480027
1061.000000	86.325244
1060.000000	86.172489
1059.000000	86.025682
1058.000000	85.887666
1057.000000	85.749820
1056.000000	85.602491
1055.000000	85.446488
1054.000000	85.287490
1053.000000	85.127739
1052.000000	84.968595
1051.000000	84.811426
1050.000000	84.650701
1049.000000	84.477308
1048.000000	84.292962
1047.000000	84.109180
1046.000000	83.929812
1045.000000	83.747889
1044.000000	83.560540
1043.000000	83.372535
1042.000000	83.183437
1041.000000	82.986435
1040.000000	82.783886
1039.000000	82.590067
1038.000000	82.414403
1037.000000	82.255130
1036.000000	82.111486
1035.000000	81.986745
1034.000000	81.876280
1033.000000	81.768673
1032.000000	81.662631
1031.000000	81.567822
1030.000000	81.486621
1029.000000	81.411375
1028.000000	81.341947
1027.000000	81.288044
1026.000000	81.249978
1025.000000	81.214413
1024.000000	81.173907
1023.000000	81.134246
1022.000000	81.098292
1021.000000	81.059447
1020.000000	81.015648
1019.000000	80.973625
1018.000000	80.934866
1017.000000	80.893010
1016.000000	80.848597
1015.000000	80.810178
1014.000000	80.777237
1013.000000	80.738614
1012.000000	80.691978
1011.000000	80.648820
1010.000000	80.616246
1009.000000	80.589619
1008.000000	80.566433
1007.000000	80.551012
1006.000000	80.541519
1005.000000	80.528584
1004.000000	80.511510
1003.000000	80.501050
1002.000000	80.502541
1001.000000	80.510840
1000.000000	80.524095
999.000000	80.546725
998.000000	80.575997
997.000000	80.601725
996.000000	80.622978
995.000000	80.650435
994.000000	80.689641
993.000000	80.736456
992.000000	80.790015
991.000000	80.854164
990.000000	80.924603
989.000000	80.991459
988.000000	81.057377
987.000000	81.137220
986.000000	81.237482
985.000000	81.351277
984.000000	81.474528
983.000000	81.610684
982.000000	81.758095
981.000000	81.910008
980.000000	82.069445
979.000000	82.247460
978.000000	82.444204
977.000000	82.647866
976.000000	82.854462
975.000000	83.072365
974.000000	83.304917
973.000000	83.544855
972.000000	83.788485
971.000000	84.039173
970.000000	84.293908
969.000000	84.542543
968.000000	84.784036
967.000000	85.028242
966.000000	85.277543
965.000000	85.521095
964.000000	85.751640
963.000000	85.974458
962.000000	86.195057
961.000000	86.410209
960.000000	86.615834
959.000000	86.812970
958.000000	87.002149
957.000000	87.181678
956.000000	87.354030
955.000000	87.524119
954.000000	87.689614
953.000000	87.843090
952.000000	87.984644
951.000000	88.121591
950.000000	88.254932
949.000000	88.378046
948.000000	88.490483
947.000000	88.600836
946.000000	88.712959
945.000000	88.820463
944.000000	88.917962
943.000000	89.007454
942.000000	89.091297
941.000000	89.169265
940.000000	89.244842
939.000000	89.323820
938.000000	89.404158
937.000000	89.477689
936.000000	89.544152
935.000000	89.612935
934.000000	89.688762
933.000000	89.766765
932.000000	89.844279
931.000000	89.925777
930.000000	90.012255
929.000000	90.096605
928.000000	90.174099
927.000000	90.248432
926.000000	90.324055
925.000000	90.401239
924.000000	90.480913
923.000000	90.564484
922.000000	90.646240
921.000000	90.716062
920.000000	90.772966
919.000000	90.826745
918.000000	90.883793
917.000000	90.941598
916.000000	91.000144
915.000000	91.067434
914.000000	91.148241
913.000000	91.236772
912.000000	91.326200
911.000000	91.418342
910.000000	91.519634
909.000000	91.634572
908.000000	91.766427
907.000000	91.916874
906.000000	92.081495
905.000000	92.252166
904.000000	92.425795
903.000000	92.604346
902.000000	92.786499
901.000000	92.967778
900.000000	93.148915
899.000000	93.334095
898.000000	93.519790
897.000000	93.695883
896.000000	93.860593
895.000000	94.023872
894.000000	94.191389
893.000000	94.354204
892.000000	94.500463
891.000000	94.630470
890.000000	94.754118
889.000000	94.877933
888.000000	95.000234
887.000000	95.116606
886.000000	95.225958
885.000000	95.332469
884.000000	95.442934
883.000000	95.559785
882.000000	95.676297
881.000000	95.782210
880.000000	95.874571
879.000000	95.959835
878.000000	96.045977
877.000000	96.136949
876.000000	96.234335
875.000000	96.338614
874.000000	96.447654
873.000000	96.558083
872.000000	96.668339
871.000000	96.777490
870.000000	96.883528
869.000000	96.987255
868.000000	97.094607
867.000000	97.208898
866.000000	97.322896
865.000000	97.425053
864.000000	97.512100
863.000000	97.589740
862.000000	97.663333
861.000000	97.735232
860.000000	97.809707
859.000000	97.891137
858.000000	97.975771
857.000000	98.053052
856.000000	98.117297
855.000000	98.171922
854.000000	98.221046
853.000000	98.264088
852.000000	98.301226
851.000000	98.337035
850.000000	98.374140
849.000000	98.408275
848.000000	98.433834
847.000000	98.450655
846.000000	98.462142
845.000000	98.469924
844.000000	98.473457
843.000000	98.472307
842.000000	98.465874
841.000000	98.451977
840.000000	98.426675
839.000000	98.384583
838.000000	98.321376
837.000000	98.240359
836.000000	98.156011
835.000000	98.085309
834.000000	98.033381
833.000000	97.991591
832.000000	97.950726
831.000000	97.911433
830.000000	97.881224
829.000000	97.867501
828.000000	97.875394
827.000000	97.905332
826.000000	97.948522
825.000000	97.990588
824.000000	98.023612
823.000000	98.049563
822.000000	98.069709
821.000000	98.077750
820.000000	98.066775
819.000000	98.036502
818.000000	97.990040
817.000000	97.928301
816.000000	97.850874
815.000000	97.758637
814.000000	97.651051
813.000000	97.521325
812.000000	97.355693
811.000000	97.136714
810.000000	96.848634
809.000000	96.485089
808.000000	96.055539
807.000000	95.582085
806.000000	95.086712
805.000000	94.583123
804.000000	94.082393
803.000000	93.601843
802.000000	93.164840
801.000000	92.795834
800.000000	92.517320
799.000000	92.344314
798.000000	92.276561
797.000000	92.298948
796.000000	92.389703
795.000000	92.524698
794.000000	92.679006
793.000000	92.833949
792.000000	92.980972
791.000000	93.111986
790.000000	93.210676
789.000000	93.261962
788.000000	93.265466
787.000000	93.229728
786.000000	93.156577
785.000000	93.041692
784.000000	92.888341
783.000000	92.710213
782.000000	92.523101
781.000000	92.345878
780.000000	92.207946
779.000000	92.140230
778.000000	92.154382
777.000000	92.240125
776.000000	92.382562
775.000000	92.570434
774.000000	92.788735
773.000000	93.018111
772.000000	93.244116
771.000000	93.456333
770.000000	93.639412
769.000000	93.778699
768.000000	93.876087
767.000000	93.947762
766.000000	94.004274
765.000000	94.044871
764.000000	94.073289
763.000000	94.104457
762.000000	94.149295
761.000000	94.204434
760.000000	94.263367
759.000000	94.327428
758.000000	94.399022
757.000000	94.473375
756.000000	94.544729
755.000000	94.614397
754.000000	94.686866
753.000000	94.763166
752.000000	94.842067
751.000000	94.922293
750.000000	95.000431
749.000000	95.072388
748.000000	95.139678
747.000000	95.209006
746.000000	95.284309
745.000000	95.365763
744.000000	95.457276
743.000000	95.565808
742.000000	95.690189
741.000000	95.819175
740.000000	95.944389
739.000000	96.067594
738.000000	96.191838
737.000000	96.313426
736.000000	96.427182
735.000000	96.532237
734.000000	96.627271
733.000000	96.706410
732.000000	96.765654
731.000000	96.809233
730.000000	96.845139
729.000000	96.877735
728.000000	96.908260
727.000000	96.938572
726.000000	96.970299
725.000000	97.003351
724.000000	97.038471
723.000000	97.078871
722.000000	97.127576
721.000000	97.185419
720.000000	97.251988
719.000000	97.325020
718.000000	97.398759
717.000000	97.466838
716.000000	97.526730
715.000000	97.578139
714.000000	97.619188
713.000000	97.649765
712.000000	97.676964
711.000000	97.709158
710.000000	97.743716
709.000000	97.768418
708.000000	97.777235
707.000000	97.777355
706.000000	97.776653
705.000000	97.769663
704.000000	97.739985
703.000000	97.672153
702.000000	97.558102
701.000000	97.396633
700.000000	97.190987
699.000000	96.947316
698.000000	96.678288
697.000000	96.412569
696.000000	96.195597
695.000000	96.068614
694.000000	96.044379
693.000000	96.107423
692.000000	96.233231
691.000000	96.398671
690.000000	96.577082
689.000000	96.739036
688.000000	96.867933
687.000000	96.968780
686.000000	97.055073
685.000000	97.133209
684.000000	97.203701
683.000000	97.268758
682.000000	97.331681
681.000000	97.392802
680.000000	97.449938
679.000000	97.499702
678.000000	97.537487
677.000000	97.562330
676.000000	97.584510
675.000000	97.621664
674.000000	97.682275
673.000000	97.756370
672.000000	97.825020
671.000000	97.875906
670.000000	97.907672
669.000000	97.927284
668.000000	97.948875
667.000000	97.978469
666.000000	98.014176
665.000000	98.056887
664.000000	98.109051
663.000000	98.170071
662.000000	98.227792
661.000000	98.265054
660.000000	98.276887
659.000000	98.270556
658.000000	98.252689
657.000000	98.224968
656.000000	98.191967
655.000000	98.161567
654.000000	98.133402
653.000000	98.099271
652.000000	98.060988
651.000000	98.036035
650.000000	98.039341
