4000.000000	100.162692
3999.000000	100.163121
3998.000000	100.163174
3997.000000	100.163002
3996.000000	100.162802
3995.000000	100.162663
3994.000000	100.162357
3993.000000	100.161249
3992.000000	100.158637
3991.000000	100.154401
3990.000000	100.149168
3989.000000	100.143773
3988.000000	100.138767
3987.000000	100.134640
3986.000000	100.132224
3985.000000	100.132372
3984.000000	100.135153
3983.000000	100.139445
3982.000000	100.143358
3981.000000	100.145359
3980.000000	100.145136
3979.000000	100.143543
3978.000000	100.141875
3977.000000	100.140994
3976.000000	100.140959
3975.000000	100.141342
3974.000000	100.141690
3973.000000	100.141711
3972.000000	100.141271
3971.000000	100.140435
3970.000000	100.139481
3969.000000	100.138744
3968.000000	100.138416
3967.000000	100.138536
3966.000000	100.139102
3965.000000	100.140122
3964.000000	100.141624
3963.000000	100.143624
3962.000000	100.145936
3961.000000	100.147949
3960.000000	100.148816
3959.000000	100.148126
3958.000000	100.146461
3957.000000	100.145171
3956.000000	100.145385
3955.000000	100.147125
3954.000000	100.149327
3953.000000	100.150642
3952.000000	100.150411
3951.000000	100.149072
3950.000000	100.147834
3949.000000	100.147817
3948.000000	100.149311
3947.000000	100.151823
3946.000000	100.154627
3945.000000	100.157015
3944.000000	100.158222
3943.000000	100.157669
3942.000000	100.155515
3941.000000	100.152823
3940.000000	100.150826
3939.000000	100.149965
3938.000000	100.149651
3937.000000	100.148906
3936.000000	100.147327
3935.000000	100.145427
3934.000000	100.144169
3933.000000	100.144203
3932.000000	100.145521
3931.000000	100.147626
3930.000000	100.149821
3929.000000	100.151527
3928.000000	100.152569
3927.000000	100.153201
3926.000000	100.153689
3925.000000	100.153922
3924.000000	100.153675
3923.000000	100.153208
3922.000000	100.153276
3921.000000	100.154359
3920.000000	100.155992
3919.000000	100.157004
3918.000000	100.156397
3917.000000	100.153962
3916.000000	100.150342
3915.000000	100.146713
3914.000000	100.144159
3913.000000	100.143177
3912.000000	100.143307
3911.000000	100.143494
3910.000000	100.142808
3909.000000	100.141099
3908.000000	100.139203
3907.000000	100.138587
3906.000000	100.140486
3905.000000	100.144796
3904.000000	100.149782
3903.000000	100.153339
3902.000000	100.154681
3901.000000	100.154477
3900.000000	100.153698
3899.000000	100.152700
3898.000000	100.151365
3897.000000	100.149767
3896.000000	100.148386
3895.000000	100.147865
3894.000000	100.148627
3893.000000	100.150528
3892.000000	100.152533
3891.000000	100.153265
3890.000000	100.152108
3889.000000	100.149696
3888.000000	100.147508
3887.000000	100.146541
3886.000000	100.146384
3885.000000	100.146262
3884.000000	100.146252
3883.000000	100.147098
3882.000000	100.149312
3881.000000	100.152578
3880.000000	100.155939
3879.000000	100.158598
3878.000000	100.160457
3877.000000	100.161958
3876.000000	100.163302
3875.000000	100.163949
3874.000000	100.163319
3873.000000	100.161782
3872.000000	100.160574
3871.000000	100.160559
3870.000000	100.161322
3869.000000	100.161927
3868.000000	100.162047
3867.000000	100.162028
3866.000000	100.162166
3865.000000	100.162393
3864.000000	100.162586
3863.000000	100.162750
3862.000000	100.162868
3861.000000	100.162874
3860.000000	100.162828
3859.000000	100.162813
3858.000000	100.162891
3857.000000	100.162961
3856.000000	100.163069
3855.000000	100.162949
3854.000000	100.163123
3853.000000	100.163333
3852.000000	100.163397
3851.000000	100.163327
3850.000000	100.163127
3849.000000	100.162869
3848.000000	100.162598
3847.000000	100.162341
3846.000000	100.162089
3845.000000	100.161831
3844.000000	100.161561
3843.000000	100.161277
3842.000000	100.160977
3841.000000	100.160659
3840.000000	100.160318
3839.000000	100.159950
3838.000000	100.159552
3837.000000	100.159126
3836.000000	100.158680
3835.000000	100.158228
3834.000000	100.157785
3833.000000	100.157360
3832.000000	100.156953
3831.000000	100.156556
3830.000000	100.156167
3829.000000	100.155808
3828.000000	100.155506
3827.000000	100.155253
3826.000000	100.154980
3825.000000	100.154609
3824.000000	100.154112
3823.000000	100.153558
3822.000000	100.153023
3821.000000	100.152552
3820.000000	100.152189
3819.000000	100.151896
3818.000000	100.151553
3817.000000	100.151010
3816.000000	100.150148
3815.000000	100.149062
3814.000000	100.148045
3813.000000	100.147274
3812.000000	100.146735
3811.000000	100.146387
3810.000000	100.146329
3809.000000	100.146760
3808.000000	100.147495
3807.000000	100.147955
3806.000000	100.147837
3805.000000	100.147401
3804.000000	100.147160
3803.000000	100.147378
3802.000000	100.147669
3801.000000	100.147409
3800.000000	100.146435
3799.000000	100.145012
3798.000000	100.143560
3797.000000	100.142466
3796.000000	100.141980
3795.000000	100.142095
3794.000000	100.142488
3793.000000	100.142712
3792.000000	100.142568
3791.000000	100.142324
3790.000000	100.142439
3789.000000	100.142908
3788.000000	100.143029
3787.000000	100.142065
3786.000000	100.140153
3785.000000	100.138428
3784.000000	100.137917
3783.000000	100.138569
3782.000000	100.139323
3781.000000	100.139003
3780.000000	100.137397
3779.000000	100.135662
3778.000000	100.135295
3777.000000	100.136758
3776.000000	100.139246
3775.000000	100.141361
3774.000000	100.142016
3773.000000	100.141245
3772.000000	100.140137
3771.000000	100.139752
3770.000000	100.140249
3769.000000	100.141154
3768.000000	100.142058
3767.000000	100.142905
3766.000000	100.143660
3765.000000	100.143973
3764.000000	100.143562
3763.000000	100.142825
3762.000000	100.142346
3761.000000	100.141816
3760.000000	100.140433
3759.000000	100.138974
3758.000000	100.139694
3757.000000	100.143838
3756.000000	100.150624
3755.000000	100.158247
3754.000000	100.164836
3753.000000	100.168459
3752.000000	100.168137
3751.000000	100.166115
3750.000000	100.165595
3749.000000	100.165807
3748.000000	100.163103
3747.000000	100.156387
3746.000000	100.149279
3745.000000	100.144799
3744.000000	100.142329
3743.000000	100.141160
3742.000000	100.141306
3741.000000	100.142502
3740.000000	100.144364
3739.000000	100.147686
3738.000000	100.154389
3737.000000	100.163848
3736.000000	100.171103
3735.000000	100.171528
3734.000000	100.165469
3733.000000	100.156855
3732.000000	100.148941
3731.000000	100.142480
3730.000000	100.136761
3729.000000	100.130989
3728.000000	100.124803
3727.000000	100.118338
3726.000000	100.112914
3725.000000	100.110653
3724.000000	100.112176
3723.000000	100.115346
3722.000000	100.116822
3721.000000	100.114971
3720.000000	100.110906
3719.000000	100.107036
3718.000000	100.104691
3717.000000	100.103128
3716.000000	100.100884
3715.000000	100.097538
3714.000000	100.093816
3713.000000	100.089951
3712.000000	100.084964
3711.000000	100.078097
3710.000000	100.070020
3709.000000	100.062768
3708.000000	100.058312
3707.000000	100.056899
3706.000000	100.056824
3705.000000	100.055793
3704.000000	100.052495
3703.000000	100.047075
3702.000000	100.040616
3701.000000	100.034102
3700.000000	100.027874
3699.000000	100.022336
3698.000000	100.018237
3697.000000	100.015583
3696.000000	100.013395
3695.000000	100.011078
3694.000000	100.009227
3693.000000	100.008608
3692.000000	100.008582
3691.000000	100.007479
3690.000000	100.004510
3689.000000	99.999966
3688.000000	99.993910
3687.000000	99.986412
3686.000000	99.978054
3685.000000	99.969329
3684.000000	99.960464
3683.000000	99.952240
3682.000000	99.946458
3681.000000	99.943803
3680.000000	99.941807
3679.000000	99.936816
3678.000000	99.928793
3677.000000	99.921222
3676.000000	99.915998
3675.000000	99.911934
3674.000000	99.906552
3673.000000	99.898320
3672.000000	99.888310
3671.000000	99.878025
3670.000000	99.867825
3669.000000	99.858291
3668.000000	99.849325
3667.000000	99.839733
3666.000000	99.829190
3665.000000	99.819010
3664.000000	99.810783
3663.000000	99.804406
3662.000000	99.797666
3661.000000	99.787929
3660.000000	99.774900
3659.000000	99.761493
3658.000000	99.751674
3657.000000	99.746261
3656.000000	99.741969
3655.000000	99.735511
3654.000000	99.727309
3653.000000	99.721125
3652.000000	99.719715
3651.000000	99.719455
3650.000000	99.713830
3649.000000	99.703362
3648.000000	99.693776
3647.000000	99.686730
3646.000000	99.678863
3645.000000	99.667484
3644.000000	99.653712
3643.000000	99.640860
3642.000000	99.631122
3641.000000	99.624316
3640.000000	99.619280
3639.000000	99.614964
3638.000000	99.610254
3637.000000	99.604004
3636.000000	99.596055
3635.000000	99.587334
3634.000000	99.578389
3633.000000	99.568677
3632.000000	99.558024
3631.000000	99.548160
3630.000000	99.539521
3629.000000	99.531595
3628.000000	99.527250
3627.000000	99.529214
3626.000000	99.536371
3625.000000	99.545126
3624.000000	99.551252
3623.000000	99.552261
3622.000000	99.549330
3621.000000	99.546194
3620.000000	99.545943
3619.000000	99.549154
3618.000000	99.554169
3617.000000	99.559155
3616.000000	99.564209
3615.000000	99.570401
3614.000000	99.577014
3613.000000	99.581302
3612.000000	99.581670
3611.000000	99.580551
3610.000000	99.583261
3609.000000	99.593664
3608.000000	99.610776
3607.000000	99.629049
3606.000000	99.642161
3605.000000	99.646915
3604.000000	99.644151
3603.000000	99.637489
3602.000000	99.631489
3601.000000	99.629592
3600.000000	99.632799
3599.000000	99.639581
3598.000000	99.647218
3597.000000	99.653549
3596.000000	99.658093
3595.000000	99.661546
3594.000000	99.664331
3593.000000	99.666046
3592.000000	99.666364
3591.000000	99.666078
3590.000000	99.666459
3589.000000	99.667653
3588.000000	99.669493
3587.000000	99.673132
3586.000000	99.678854
3585.000000	99.683984
3584.000000	99.685099
3583.000000	99.681049
3582.000000	99.673692
3581.000000	99.666312
3580.000000	99.661368
3579.000000	99.659373
3578.000000	99.659574
3577.000000	99.661068
3576.000000	99.663009
3575.000000	99.664287
3574.000000	99.663693
3573.000000	99.660809
3572.000000	99.656430
3571.000000	99.651973
3570.000000	99.648376
3569.000000	99.645188
3568.000000	99.641498
3567.000000	99.637943
3566.000000	99.635460
3565.000000	99.633053
3564.000000	99.629698
3563.000000	99.626867
3562.000000	99.627257
3561.000000	99.631498
3560.000000	99.636996
3559.000000	99.640437
3558.000000	99.640818
3557.000000	99.639451
3556.000000	99.637656
3555.000000	99.635429
3554.000000	99.632325
3553.000000	99.628705
3552.000000	99.625451
3551.000000	99.622794
3550.000000	99.620323
3549.000000	99.618037
3548.000000	99.616659
3547.000000	99.616776
3546.000000	99.618001
3545.000000	99.619238
3544.000000	99.619762
3543.000000	99.619781
3542.000000	99.619882
3541.000000	99.620240
3540.000000	99.620435
3539.000000	99.619849
3538.000000	99.618136
3537.000000	99.615403
3536.000000	99.612053
3535.000000	99.608492
3534.000000	99.605144
3533.000000	99.602672
3532.000000	99.601908
3531.000000	99.603264
3530.000000	99.606101
3529.000000	99.608875
3528.000000	99.610260
3527.000000	99.610100
3526.000000	99.609199
3525.000000	99.608483
3524.000000	99.608469
3523.000000	99.609274
3522.000000	99.610680
3521.000000	99.612038
3520.000000	99.612464
3519.000000	99.611405
3518.000000	99.609153
3517.000000	99.606731
3516.000000	99.605024
3515.000000	99.604047
3514.000000	99.603200
3513.000000	99.602272
3512.000000	99.601934
3511.000000	99.602999
3510.000000	99.605263
3509.000000	99.607333
3508.000000	99.607867
3507.000000	99.606842
3506.000000	99.605424
3505.000000	99.604781
3504.000000	99.605102
3503.000000	99.605739
3502.000000	99.606077
3501.000000	99.606018
3500.000000	99.605666
3499.000000	99.604869
3498.000000	99.603438
3497.000000	99.601801
3496.000000	99.601058
3495.000000	99.601980
3494.000000	99.603996
3493.000000	99.605479
3492.000000	99.605167
3491.000000	99.602962
3490.000000	99.599566
3489.000000	99.595832
3488.000000	99.592461
3487.000000	99.589942
3486.000000	99.588411
3485.000000	99.587560
3484.000000	99.586819
3483.000000	99.585621
3482.000000	99.583602
3481.000000	99.580861
3480.000000	99.578149
3479.000000	99.576468
3478.000000	99.576140
3477.000000	99.576409
3476.000000	99.576085
3475.000000	99.574643
3474.000000	99.572468
3473.000000	99.570212
3472.000000	99.568238
3471.000000	99.566641
3470.000000	99.565469
3469.000000	99.564728
3468.000000	99.564266
3467.000000	99.563764
3466.000000	99.562895
3465.000000	99.561511
3464.000000	99.559708
3463.000000	99.557729
3462.000000	99.555738
3461.000000	99.553743
3460.000000	99.551798
3459.000000	99.550119
3458.000000	99.548857
3457.000000	99.547858
3456.000000	99.546794
3455.000000	99.545516
3454.000000	99.544150
3453.000000	99.542808
3452.000000	99.541368
3451.000000	99.539648
3450.000000	99.537653
3449.000000	99.535605
3448.000000	99.533800
3447.000000	99.532399
3446.000000	99.531365
3445.000000	99.530501
3444.000000	99.529603
3443.000000	99.528584
3442.000000	99.527455
3441.000000	99.526296
3440.000000	99.525210
3439.000000	99.524242
3438.000000	99.523298
3437.000000	99.522219
3436.000000	99.520937
3435.000000	99.519566
3434.000000	99.518288
3433.000000	99.517173
3432.000000	99.516149
3431.000000	99.515155
3430.000000	99.514243
3429.000000	99.513498
3428.000000	99.512918
3427.000000	99.512398
3426.000000	99.511786
3425.000000	99.510973
3424.000000	99.509959
3423.000000	99.508846
3422.000000	99.507807
3421.000000	99.506973
3420.000000	99.506363
3419.000000	99.505907
3418.000000	99.505485
3417.000000	99.505014
3416.000000	99.504474
3415.000000	99.503901
3414.000000	99.503358
3413.000000	99.502871
3412.000000	99.502402
3411.000000	99.501883
3410.000000	99.501294
3409.000000	99.500692
3408.000000	99.500176
3407.000000	99.499836
3406.000000	99.499707
3405.000000	99.499749
3404.000000	99.499839
3403.000000	99.499834
3402.000000	99.499675
3401.000000	99.499463
3400.000000	99.499393
3399.000000	99.499543
3398.000000	99.499785
3397.000000	99.499930
3396.000000	99.499971
3395.000000	99.500098
3394.000000	99.500460
3393.000000	99.500967
3392.000000	99.501373
3391.000000	99.501553
3390.000000	99.501609
3389.000000	99.501707
3388.000000	99.501883
3387.000000	99.502098
3386.000000	99.502433
3385.000000	99.503067
3384.000000	99.504015
3383.000000	99.505043
3382.000000	99.505882
3381.000000	99.506479
3380.000000	99.506974
3379.000000	99.507495
3378.000000	99.508051
3377.000000	99.508581
3376.000000	99.509041
3375.000000	99.509450
3374.000000	99.509878
3373.000000	99.510396
3372.000000	99.511001
3371.000000	99.511652
3370.000000	99.512359
3369.000000	99.513189
3368.000000	99.514136
3367.000000	99.515057
3366.000000	99.515821
3365.000000	99.516480
3364.000000	99.517191
3363.000000	99.518008
3362.000000	99.518771
3361.000000	99.519281
3360.000000	99.519516
3359.000000	99.519679
3358.000000	99.520008
3357.000000	99.520553
3356.000000	99.521187
3355.000000	99.521746
3354.000000	99.522202
3353.000000	99.522646
3352.000000	99.523119
3351.000000	99.523540
3350.000000	99.523863
3349.000000	99.524235
3348.000000	99.524865
3347.000000	99.525719
3346.000000	99.526472
3345.000000	99.526843
3344.000000	99.526882
3343.000000	99.526938
3342.000000	99.527318
3341.000000	99.528035
3340.000000	99.528857
3339.000000	99.529495
3338.000000	99.529757
3337.000000	99.529647
3336.000000	99.529456
3335.000000	99.529631
3334.000000	99.530409
3333.000000	99.531598
3332.000000	99.532750
3331.000000	99.533575
3330.000000	99.534130
3329.000000	99.534711
3328.000000	99.535633
3327.000000	99.536991
3326.000000	99.538454
3325.000000	99.539397
3324.000000	99.539453
3323.000000	99.538968
3322.000000	99.538724
3321.000000	99.539132
3320.000000	99.539926
3319.000000	99.540694
3318.000000	99.541519
3317.000000	99.542825
3316.000000	99.544775
3315.000000	99.547074
3314.000000	99.549339
3313.000000	99.551563
3312.000000	99.554009
3311.000000	99.556635
3310.000000	99.558792
3309.000000	99.559737
3308.000000	99.559494
3307.000000	99.559069
3306.000000	99.559621
3305.000000	99.561446
3304.000000	99.563954
3303.000000	99.566347
3302.000000	99.568130
3301.000000	99.569095
3300.000000	99.569252
3299.000000	99.568984
3298.000000	99.568954
3297.000000	99.569649
3296.000000	99.571206
3295.000000	99.573660
3294.000000	99.576986
3293.000000	99.580700
3292.000000	99.583806
3291.000000	99.585595
3290.000000	99.586314
3289.000000	99.586743
3288.000000	99.587282
3287.000000	99.587731
3286.000000	99.587816
3285.000000	99.587536
3284.000000	99.587090
3283.000000	99.586836
3282.000000	99.587290
3281.000000	99.588806
3280.000000	99.591225
3279.000000	99.594008
3278.000000	99.596593
3277.000000	99.598437
3276.000000	99.599006
3275.000000	99.598239
3274.000000	99.597055
3273.000000	99.596819
3272.000000	99.597987
3271.000000	99.599673
3270.000000	99.600745
3269.000000	99.601103
3268.000000	99.601584
3267.000000	99.602902
3266.000000	99.605040
3265.000000	99.607471
3264.000000	99.609663
3263.000000	99.611469
3262.000000	99.613245
3261.000000	99.615453
3260.000000	99.618053
3259.000000	99.620494
3258.000000	99.622371
3257.000000	99.623733
3256.000000	99.624734
3255.000000	99.625341
3254.000000	99.625607
3253.000000	99.625916
3252.000000	99.626589
3251.000000	99.627430
3250.000000	99.627992
3249.000000	99.628201
3248.000000	99.628429
3247.000000	99.629026
3246.000000	99.629994
3245.000000	99.631160
3244.000000	99.632466
3243.000000	99.633969
3242.000000	99.635660
3241.000000	99.637407
3240.000000	99.639043
3239.000000	99.640450
3238.000000	99.641594
3237.000000	99.642551
3236.000000	99.643520
3235.000000	99.644726
3234.000000	99.646261
3233.000000	99.648011
3232.000000	99.649743
3231.000000	99.651265
3230.000000	99.652523
3229.000000	99.653583
3228.000000	99.654583
3227.000000	99.655701
3226.000000	99.657094
3225.000000	99.658833
3224.000000	99.660860
3223.000000	99.662913
3222.000000	99.664583
3221.000000	99.665574
3220.000000	99.665908
3219.000000	99.666009
3218.000000	99.666482
3217.000000	99.667619
3216.000000	99.669266
3215.000000	99.671033
3214.000000	99.672711
3213.000000	99.674355
3212.000000	99.675972
3211.000000	99.677388
3210.000000	99.678512
3209.000000	99.679576
3208.000000	99.680945
3207.000000	99.682739
3206.000000	99.684772
3205.000000	99.686783
3204.000000	99.688640
3203.000000	99.690376
3202.000000	99.692169
3201.000000	99.694246
3200.000000	99.696581
3199.000000	99.698694
3198.000000	99.699986
3197.000000	99.700327
3196.000000	99.700199
3195.000000	99.700239
3194.000000	99.700715
3193.000000	99.701532
3192.000000	99.702503
3191.000000	99.703521
3190.000000	99.704597
3189.000000	99.705918
3188.000000	99.707788
3187.000000	99.710302
3186.000000	99.713079
3185.000000	99.715442
3184.000000	99.716954
3183.000000	99.717771
3182.000000	99.718520
3181.000000	99.719829
3180.000000	99.721935
3179.000000	99.724673
3178.000000	99.727562
3177.000000	99.729980
3176.000000	99.731494
3175.000000	99.732122
3174.000000	99.732457
3173.000000	99.733266
3172.000000	99.734806
3171.000000	99.736729
3170.000000	99.738477
3169.000000	99.739831
3168.000000	99.740999
3167.000000	99.742270
3166.000000	99.743714
3165.000000	99.745220
3164.000000	99.746670
3163.000000	99.748027
3162.000000	99.749327
3161.000000	99.750655
3160.000000	99.752075
3159.000000	99.753560
3158.000000	99.755013
3157.000000	99.756377
3156.000000	99.757679
3155.000000	99.758960
3154.000000	99.760233
3153.000000	99.761491
3152.000000	99.762751
3151.000000	99.764045
3150.000000	99.765376
3149.000000	99.766722
3148.000000	99.768060
3147.000000	99.769393
3146.000000	99.770732
3145.000000	99.772087
3144.000000	99.773452
3143.000000	99.774796
3142.000000	99.776087
3141.000000	99.777327
3140.000000	99.778566
3139.000000	99.779860
3138.000000	99.781223
3137.000000	99.782612
3136.000000	99.783957
3135.000000	99.785233
3134.000000	99.786456
3133.000000	99.787661
3132.000000	99.788869
3131.000000	99.790094
3130.000000	99.791352
3129.000000	99.792640
3128.000000	99.793924
3127.000000	99.795176
3126.000000	99.796401
3125.000000	99.797639
3124.000000	99.798932
3123.000000	99.800284
3122.000000	99.801648
3121.000000	99.802981
3120.000000	99.804298
3119.000000	99.805640
3118.000000	99.806969
3117.000000	99.808176
3116.000000	99.809190
3115.000000	99.810088
3114.000000	99.811079
3113.000000	99.812355
3112.000000	99.813970
3111.000000	99.815814
3110.000000	99.817648
3109.000000	99.819265
3108.000000	99.820594
3107.000000	99.821703
3106.000000	99.822707
3105.000000	99.823681
3104.000000	99.824683
3103.000000	99.825815
3102.000000	99.827139
3101.000000	99.828552
3100.000000	99.829843
3099.000000	99.830928
3098.000000	99.831971
3097.000000	99.833234
3096.000000	99.834839
3095.000000	99.836667
3094.000000	99.838444
3093.000000	99.839920
3092.000000	99.841002
3091.000000	99.841801
3090.000000	99.842562
3089.000000	99.843539
3088.000000	99.844910
3087.000000	99.846733
3086.000000	99.848894
3085.000000	99.851083
3084.000000	99.852948
3083.000000	99.854326
3082.000000	99.855243
3081.000000	99.855697
3080.000000	99.855663
3079.000000	99.855368
3078.000000	99.855349
3077.000000	99.856023
3076.000000	99.857297
3075.000000	99.858771
3074.000000	99.860177
3073.000000	99.861411
3072.000000	99.862226
3071.000000	99.862353
3070.000000	99.862026
3069.000000	99.862011
3068.000000	99.862760
3067.000000	99.863844
3066.000000	99.864561
3065.000000	99.864997
3064.000000	99.865956
3063.000000	99.867792
3062.000000	99.869808
3061.000000	99.871016
3060.000000	99.871218
3059.000000	99.871068
3058.000000	99.871316
3057.000000	99.872168
3056.000000	99.873352
3055.000000	99.874442
3054.000000	99.875069
3053.000000	99.875047
3052.000000	99.874493
3051.000000	99.873807
3050.000000	99.873461
3049.000000	99.873780
3048.000000	99.874830
3047.000000	99.876359
3046.000000	99.877845
3045.000000	99.878898
3044.000000	99.879682
3043.000000	99.880730
3042.000000	99.882290
3041.000000	99.884038
3040.000000	99.885489
3039.000000	99.886550
3038.000000	99.887493
3037.000000	99.888528
3036.000000	99.889566
3035.000000	99.890429
3034.000000	99.891171
3033.000000	99.892045
3032.000000	99.893183
3031.000000	99.894435
3030.000000	99.895544
3029.000000	99.896403
3028.000000	99.897091
3027.000000	99.897715
3026.000000	99.898349
3025.000000	99.899112
3024.000000	99.900174
3023.000000	99.901580
3022.000000	99.903088
3021.000000	99.904305
3020.000000	99.905099
3019.000000	99.905743
3018.000000	99.906651
3017.000000	99.907903
3016.000000	99.909132
3015.000000	99.909936
3014.000000	99.910318
3013.000000	99.910656
3012.000000	99.911284
3011.000000	99.912304
3010.000000	99.913663
3009.000000	99.915168
3008.000000	99.916511
3007.000000	99.917487
3006.000000	99.918155
3005.000000	99.918686
3004.000000	99.919120
3003.000000	99.919484
3002.000000	99.920070
3001.000000	99.921220
3000.000000	99.922766
2999.000000	99.924004
2998.000000	99.924447
2997.000000	99.924398
2996.000000	99.924593
2995.000000	99.925437
2994.000000	99.926820
2993.000000	99.928487
2992.000000	99.930269
2991.000000	99.931992
2990.000000	99.933427
2989.000000	99.934349
2988.000000	99.934543
2987.000000	99.933945
2986.000000	99.933090
2985.000000	99.933161
2984.000000	99.934996
2983.000000	99.938032
2982.000000	99.940709
2981.000000	99.942167
2980.000000	99.942890
2979.000000	99.943413
2978.000000	99.943348
2977.000000	99.942451
2976.000000	99.942051
2975.000000	99.944272
2974.000000	99.949812
2973.000000	99.957123
2972.000000	99.963711
2971.000000	99.968020
2970.000000	99.969943
2969.000000	99.970349
2968.000000	99.970625
2967.000000	99.972048
2966.000000	99.975029
2965.000000	99.979199
2964.000000	99.984510
2963.000000	99.991536
2962.000000	99.999970
2961.000000	100.007476
2960.000000	100.011190
2959.000000	100.010337
2958.000000	100.006759
2957.000000	100.003074
2956.000000	100.000914
2955.000000	100.000638
2954.000000	100.001669
2953.000000	100.003116
2952.000000	100.004864
2951.000000	100.008016
2950.000000	100.013279
2949.000000	100.019136
2948.000000	100.023006
2947.000000	100.024498
2946.000000	100.025990
2945.000000	100.029132
2944.000000	100.032233
2943.000000	100.032789
2942.000000	100.031869
2941.000000	100.033975
2940.000000	100.042216
2939.000000	100.054953
2938.000000	100.067893
2937.000000	100.078770
2936.000000	100.089080
2935.000000	100.101475
2934.000000	100.116266
2933.000000	100.130921
2932.000000	100.142760
2931.000000	100.151562
2930.000000	100.159023
2929.000000	100.165866
2928.000000	100.170496
2927.000000	100.171041
2926.000000	100.167917
2925.000000	100.163570
2924.000000	100.160098
2923.000000	100.157986
2922.000000	100.156832
2921.000000	100.156038
2920.000000	100.154552
2919.000000	100.151023
2918.000000	100.144752
2917.000000	100.135888
2916.000000	100.124499
2915.000000	100.110267
2914.000000	100.093718
2913.000000	100.077122
2912.000000	100.063342
2911.000000	100.053848
2910.000000	100.048179
2909.000000	100.044909
2908.000000	100.042591
2907.000000	100.039946
2906.000000	100.035962
2905.000000	100.030427
2904.000000	100.024463
2903.000000	100.020185
2902.000000	100.019164
2901.000000	100.020748
2900.000000	100.022248
2899.000000	100.021452
2898.000000	100.018885
2897.000000	100.016899
2896.000000	100.016631
2895.000000	100.016752
2894.000000	100.015345
2893.000000	100.012147
2892.000000	100.008554
2891.000000	100.006155
2890.000000	100.005630
2889.000000	100.006312
2888.000000	100.006498
2887.000000	100.005041
2886.000000	100.003026
2885.000000	100.002870
2884.000000	100.005166
2883.000000	100.007532
2882.000000	100.007583
2881.000000	100.006062
2880.000000	100.005713
2879.000000	100.007828
2878.000000	100.011411
2877.000000	100.015080
2876.000000	100.018049
2875.000000	100.019395
2874.000000	100.018293
2873.000000	100.015546
2872.000000	100.013372
2871.000000	100.012941
2870.000000	100.013323
2869.000000	100.013454
2868.000000	100.013884
2867.000000	100.015672
2866.000000	100.018704
2865.000000	100.022308
2864.000000	100.026782
2863.000000	100.032905
2862.000000	100.040170
2861.000000	100.046731
2860.000000	100.051352
2859.000000	100.054719
2858.000000	100.058694
2857.000000	100.064608
2856.000000	100.072149
2855.000000	100.079493
2854.000000	100.084461
2853.000000	100.085680
2852.000000	100.082717
2851.000000	100.075752
2850.000000	100.066069
2849.000000	100.056689
2848.000000	100.050957
2847.000000	100.049522
2846.000000	100.049486
2845.000000	100.047316
2844.000000	100.042176
2843.000000	100.035872
2842.000000	100.030346
2841.000000	100.026188
2840.000000	100.023191
2839.000000	100.021203
2838.000000	100.020258
2837.000000	100.020438
2836.000000	100.021630
2835.000000	100.023097
2834.000000	100.023734
2833.000000	100.023210
2832.000000	100.022416
2831.000000	100.022150
2830.000000	100.021981
2829.000000	100.021220
2828.000000	100.020373
2827.000000	100.020388
2826.000000	100.020922
2825.000000	100.020842
2824.000000	100.020337
2823.000000	100.020881
2822.000000	100.022721
2821.000000	100.024040
2820.000000	100.023522
2819.000000	100.022393
2818.000000	100.022680
2817.000000	100.024361
2816.000000	100.025692
2815.000000	100.025892
2814.000000	100.025928
2813.000000	100.026523
2812.000000	100.026866
2811.000000	100.026019
2810.000000	100.024569
2809.000000	100.024008
2808.000000	100.024878
2807.000000	100.026282
2806.000000	100.027100
2805.000000	100.027234
2804.000000	100.027371
2803.000000	100.027843
2802.000000	100.028347
2801.000000	100.028718
2800.000000	100.029285
2799.000000	100.030253
2798.000000	100.031202
2797.000000	100.031576
2796.000000	100.031358
2795.000000	100.030972
2794.000000	100.030723
2793.000000	100.030618
2792.000000	100.030690
2791.000000	100.031157
2790.000000	100.032164
2789.000000	100.033583
2788.000000	100.035113
2787.000000	100.036491
2786.000000	100.037578
2785.000000	100.038316
2784.000000	100.038712
2783.000000	100.038870
2782.000000	100.039043
2781.000000	100.039616
2780.000000	100.040891
2779.000000	100.042724
2778.000000	100.044411
2777.000000	100.045284
2776.000000	100.045354
2775.000000	100.045200
2774.000000	100.045245
2773.000000	100.045380
2772.000000	100.045408
2771.000000	100.045449
2770.000000	100.045713
2769.000000	100.046176
2768.000000	100.046780
2767.000000	100.047665
2766.000000	100.048865
2765.000000	100.049957
2764.000000	100.050427
2763.000000	100.050384
2762.000000	100.050599
2761.000000	100.051770
2760.000000	100.053903
2759.000000	100.056343
2758.000000	100.058273
2757.000000	100.059310
2756.000000	100.059726
2755.000000	100.060099
2754.000000	100.060648
2753.000000	100.061090
2752.000000	100.061271
2751.000000	100.061679
2750.000000	100.063025
2749.000000	100.065420
2748.000000	100.068191
2747.000000	100.070446
2746.000000	100.071574
2745.000000	100.071346
2744.000000	100.070001
2743.000000	100.068204
2742.000000	100.066731
2741.000000	100.066000
2740.000000	100.065973
2739.000000	100.066484
2738.000000	100.067328
2737.000000	100.068093
2736.000000	100.068293
2735.000000	100.067863
2734.000000	100.067330
2733.000000	100.067321
2732.000000	100.067938
2731.000000	100.068781
2730.000000	100.069454
2729.000000	100.069910
2728.000000	100.070326
2727.000000	100.070801
2726.000000	100.071292
2725.000000	100.071741
2724.000000	100.072117
2723.000000	100.072374
2722.000000	100.072470
2721.000000	100.072462
2720.000000	100.072501
2719.000000	100.072673
2718.000000	100.072908
2717.000000	100.073077
2716.000000	100.073150
2715.000000	100.073196
2714.000000	100.073276
2713.000000	100.073385
2712.000000	100.073494
2711.000000	100.073594
2710.000000	100.073688
2709.000000	100.073773
2708.000000	100.073842
2707.000000	100.073899
2706.000000	100.073955
2705.000000	100.074022
2704.000000	100.074112
2703.000000	100.074238
2702.000000	100.074400
2701.000000	100.074585
2700.000000	100.074776
2699.000000	100.074959
2698.000000	100.075128
2697.000000	100.075288
2696.000000	100.075446
2695.000000	100.075609
2694.000000	100.075780
2693.000000	100.075957
2692.000000	100.076135
2691.000000	100.076302
2690.000000	100.076454
2689.000000	100.076592
2688.000000	100.076721
2687.000000	100.076846
2686.000000	100.076967
2685.000000	100.077083
2684.000000	100.077195
2683.000000	100.077310
2682.000000	100.077433
2681.000000	100.077566
2680.000000	100.077705
2679.000000	100.077848
2678.000000	100.077992
2677.000000	100.078138
2676.000000	100.078288
2675.000000	100.078445
2674.000000	100.078608
2673.000000	100.078776
2672.000000	100.078951
2671.000000	100.079132
2670.000000	100.079319
2669.000000	100.079489
2668.000000	100.079610
2667.000000	100.079672
2666.000000	100.079703
2665.000000	100.079761
2664.000000	100.079875
2663.000000	100.080009
2662.000000	100.080092
2661.000000	100.080100
2660.000000	100.080091
2659.000000	100.080145
2658.000000	100.080269
2657.000000	100.080416
2656.000000	100.080571
2655.000000	100.080779
2654.000000	100.081047
2653.000000	100.081307
2652.000000	100.081505
2651.000000	100.081690
2650.000000	100.081935
2649.000000	100.082193
2648.000000	100.082331
2647.000000	100.082315
2646.000000	100.082287
2645.000000	100.082399
2644.000000	100.082661
2643.000000	100.082953
2642.000000	100.083147
2641.000000	100.083183
2640.000000	100.083038
2639.000000	100.082735
2638.000000	100.082417
2637.000000	100.082329
2636.000000	100.082657
2635.000000	100.083386
2634.000000	100.084262
2633.000000	100.084920
2632.000000	100.085108
2631.000000	100.084859
2630.000000	100.084502
2629.000000	100.084408
2628.000000	100.084607
2627.000000	100.084757
2626.000000	100.084571
2625.000000	100.084288
2624.000000	100.084497
2623.000000	100.085455
2622.000000	100.086720
2621.000000	100.087625
2620.000000	100.088141
2619.000000	100.088899
2618.000000	100.090221
2617.000000	100.091405
2616.000000	100.091462
2615.000000	100.090392
2614.000000	100.089281
2613.000000	100.088932
2612.000000	100.088909
2611.000000	100.088390
2610.000000	100.087492
2609.000000	100.087129
2608.000000	100.087787
2607.000000	100.089071
2606.000000	100.090442
2605.000000	100.091810
2604.000000	100.093252
2603.000000	100.094602
2602.000000	100.095533
2601.000000	100.095660
2600.000000	100.094537
2599.000000	100.092004
2598.000000	100.088772
2597.000000	100.086181
2596.000000	100.085042
2595.000000	100.085043
2594.000000	100.085405
2593.000000	100.085832
2592.000000	100.086651
2591.000000	100.088327
2590.000000	100.090984
2589.000000	100.094045
2588.000000	100.096223
2587.000000	100.096357
2586.000000	100.094454
2585.000000	100.091696
2584.000000	100.089211
2583.000000	100.087169
2582.000000	100.085404
2581.000000	100.084172
2580.000000	100.083704
2579.000000	100.083488
2578.000000	100.082772
2577.000000	100.081596
2576.000000	100.080722
2575.000000	100.080720
2574.000000	100.081695
2573.000000	100.083557
2572.000000	100.085829
2571.000000	100.087621
2570.000000	100.088465
2569.000000	100.088958
2568.000000	100.089895
2567.000000	100.090906
2566.000000	100.090864
2565.000000	100.089597
2564.000000	100.088269
2563.000000	100.087879
2562.000000	100.088126
2561.000000	100.088136
2560.000000	100.087643
2559.000000	100.087026
2558.000000	100.086592
2557.000000	100.086350
2556.000000	100.086305
2555.000000	100.086569
2554.000000	100.087127
2553.000000	100.087743
2552.000000	100.088184
2551.000000	100.088425
2550.000000	100.088577
2549.000000	100.088723
2548.000000	100.088857
2547.000000	100.088948
2546.000000	100.089003
2545.000000	100.089067
2544.000000	100.089178
2543.000000	100.089332
2542.000000	100.089507
2541.000000	100.089691
2540.000000	100.089883
2539.000000	100.090086
2538.000000	100.090307
2537.000000	100.090550
2536.000000	100.090816
2535.000000	100.091097
2534.000000	100.091384
2533.000000	100.091670
2532.000000	100.091959
2531.000000	100.092257
2530.000000	100.092568
2529.000000	100.092896
2528.000000	100.093236
2527.000000	100.093583
2526.000000	100.093936
2525.000000	100.094299
2524.000000	100.094681
2523.000000	100.095088
2522.000000	100.095521
2521.000000	100.095975
2520.000000	100.096440
2519.000000	100.096907
2518.000000	100.097373
2517.000000	100.097835
2516.000000	100.098293
2515.000000	100.098749
2514.000000	100.099203
2513.000000	100.099655
2512.000000	100.100101
2511.000000	100.100540
2510.000000	100.100974
2509.000000	100.101410
2508.000000	100.101855
2507.000000	100.102317
2506.000000	100.102798
2505.000000	100.103297
2504.000000	100.103811
2503.000000	100.104333
2502.000000	100.104860
2501.000000	100.105389
2500.000000	100.105924
2499.000000	100.106471
2498.000000	100.107030
2497.000000	100.107596
2496.000000	100.108158
2495.000000	100.108710
2494.000000	100.109249
2493.000000	100.109780
2492.000000	100.110307
2491.000000	100.110832
2490.000000	100.111356
2489.000000	100.111878
2488.000000	100.112395
2487.000000	100.112903
2486.000000	100.113397
2485.000000	100.113874
2484.000000	100.114328
2483.000000	100.114758
2482.000000	100.115175
2481.000000	100.115595
2480.000000	100.116030
2479.000000	100.116481
2478.000000	100.116941
2477.000000	100.117406
2476.000000	100.117863
2475.000000	100.118290
2474.000000	100.118701
2473.000000	100.119167
2472.000000	100.119755
2471.000000	100.120447
2470.000000	100.121146
2469.000000	100.121775
2468.000000	100.122326
2467.000000	100.122832
2466.000000	100.123319
2465.000000	100.123806
2464.000000	100.124331
2463.000000	100.124927
2462.000000	100.125580
2461.000000	100.126221
2460.000000	100.126789
2459.000000	100.127292
2458.000000	100.127797
2457.000000	100.128358
2456.000000	100.128970
2455.000000	100.129601
2454.000000	100.130229
2453.000000	100.130835
2452.000000	100.131410
2451.000000	100.131969
2450.000000	100.132550
2449.000000	100.133177
2448.000000	100.133810
2447.000000	100.134372
2446.000000	100.134813
2445.000000	100.135151
2444.000000	100.135456
2443.000000	100.135820
2442.000000	100.136321
2441.000000	100.137000
2440.000000	100.137825
2439.000000	100.138706
2438.000000	100.139529
2437.000000	100.140205
2436.000000	100.140709
2435.000000	100.141078
2434.000000	100.141389
2433.000000	100.141723
2432.000000	100.142119
2431.000000	100.142565
2430.000000	100.143021
2429.000000	100.143445
2428.000000	100.143828
2427.000000	100.144197
2426.000000	100.144592
2425.000000	100.145024
2424.000000	100.145473
2423.000000	100.145901
2422.000000	100.146289
2421.000000	100.146642
2420.000000	100.146968
2419.000000	100.147261
2418.000000	100.147515
2417.000000	100.147744
2416.000000	100.147967
2415.000000	100.148194
2414.000000	100.148422
2413.000000	100.148642
2412.000000	100.148842
2411.000000	100.149009
2410.000000	100.149140
2409.000000	100.149239
2408.000000	100.149318
2407.000000	100.149393
2406.000000	100.149472
2405.000000	100.149557
2404.000000	100.149646
2403.000000	100.149729
2402.000000	100.149802
2401.000000	100.149860
2400.000000	100.149906
2399.000000	100.149944
2398.000000	100.149972
2397.000000	100.149990
2396.000000	100.149999
2395.000000	100.150003
2394.000000	100.150009
2393.000000	100.150022
2392.000000	100.150045
2391.000000	100.150077
2390.000000	100.150115
2389.000000	100.150151
2388.000000	100.150177
2387.000000	100.150190
2386.000000	100.150187
2385.000000	100.150169
2384.000000	100.150135
2383.000000	100.150083
2382.000000	100.150013
2381.000000	100.149933
2380.000000	100.149849
2379.000000	100.149768
2378.000000	100.149695
2377.000000	100.149631
2376.000000	100.149579
2375.000000	100.149541
2374.000000	100.149515
2373.000000	100.149497
2372.000000	100.149481
2371.000000	100.149471
2370.000000	100.149475
2369.000000	100.149501
2368.000000	100.149553
2367.000000	100.149630
2366.000000	100.149724
2365.000000	100.149823
2364.000000	100.149919
2363.000000	100.150006
2362.000000	100.150085
2361.000000	100.150157
2360.000000	100.150228
2359.000000	100.150300
2358.000000	100.150380
2357.000000	100.150459
2356.000000	100.150515
2355.000000	100.150558
2354.000000	100.150626
2353.000000	100.150736
2352.000000	100.150834
2351.000000	100.150861
2350.000000	100.150842
2349.000000	100.150851
2348.000000	100.150935
2347.000000	100.151028
2346.000000	100.151030
2345.000000	100.150940
2344.000000	100.150807
2343.000000	100.150665
2342.000000	100.150364
2341.000000	100.149856
2340.000000	100.149399
2339.000000	100.149390
2338.000000	100.149922
2337.000000	100.150509
2336.000000	100.150589
2335.000000	100.150125
2334.000000	100.149717
2333.000000	100.149858
2332.000000	100.150466
2331.000000	100.151011
2330.000000	100.151405
2329.000000	100.151635
2328.000000	100.151786
2327.000000	100.151520
2326.000000	100.150859
2325.000000	100.150074
2324.000000	100.149451
2323.000000	100.149047
2322.000000	100.148610
2321.000000	100.147946
2320.000000	100.146954
2319.000000	100.145763
2318.000000	100.144740
2317.000000	100.144113
2316.000000	100.143893
2315.000000	100.143672
2314.000000	100.143234
2313.000000	100.142423
2312.000000	100.141382
2311.000000	100.140116
2310.000000	100.138857
2309.000000	100.137815
2308.000000	100.137298
2307.000000	100.137260
2306.000000	100.137435
2305.000000	100.137300
2304.000000	100.136523
2303.000000	100.135080
2302.000000	100.133424
2301.000000	100.132119
2300.000000	100.131549
2299.000000	100.131627
2298.000000	100.132022
2297.000000	100.132282
2296.000000	100.132152
2295.000000	100.131609
2294.000000	100.130942
2293.000000	100.130466
2292.000000	100.130287
2291.000000	100.130216
2290.000000	100.129987
2289.000000	100.129470
2288.000000	100.128709
2287.000000	100.127867
2286.000000	100.127130
2285.000000	100.126588
2284.000000	100.126147
2283.000000	100.125618
2282.000000	100.124893
2281.000000	100.124055
2280.000000	100.123310
2279.000000	100.122810
2278.000000	100.122570
2277.000000	100.122475
2276.000000	100.122330
2275.000000	100.121964
2274.000000	100.121379
2273.000000	100.120795
2272.000000	100.120469
2271.000000	100.120433
2270.000000	100.120481
2269.000000	100.120401
2268.000000	100.120179
2267.000000	100.119906
2266.000000	100.119616
2265.000000	100.119293
2264.000000	100.118991
2263.000000	100.118821
2262.000000	100.118803
2261.000000	100.118820
2260.000000	100.118749
2259.000000	100.118579
2258.000000	100.118351
2257.000000	100.118086
2256.000000	100.117803
2255.000000	100.117568
2254.000000	100.117475
2253.000000	100.117542
2252.000000	100.117676
2251.000000	100.117765
2250.000000	100.117784
2249.000000	100.117781
2248.000000	100.117761
2247.000000	100.117613
2246.000000	100.117220
2245.000000	100.116587
2244.000000	100.115845
2243.000000	100.115107
2242.000000	100.114435
2241.000000	100.113965
2240.000000	100.113920
2239.000000	100.114354
2238.000000	100.114951
2237.000000	100.115287
2236.000000	100.115262
2235.000000	100.115089
2234.000000	100.114921
2233.000000	100.114717
2232.000000	100.114502
2231.000000	100.114479
2230.000000	100.114729
2229.000000	100.115012
2228.000000	100.115048
2227.000000	100.114891
2226.000000	100.114807
2225.000000	100.114900
2224.000000	100.115027
2223.000000	100.115047
2222.000000	100.114988
2221.000000	100.114948
2220.000000	100.114973
2219.000000	100.115042
2218.000000	100.115087
2217.000000	100.114998
2216.000000	100.114718
2215.000000	100.114337
2214.000000	100.114056
2213.000000	100.113997
2212.000000	100.114106
2211.000000	100.114253
2210.000000	100.114376
2209.000000	100.114517
2208.000000	100.114724
2207.000000	100.114965
2206.000000	100.115140
2205.000000	100.115180
2204.000000	100.115125
2203.000000	100.115132
2202.000000	100.115341
2201.000000	100.115736
2200.000000	100.116172
2199.000000	100.116523
2198.000000	100.116800
2197.000000	100.117072
2196.000000	100.117376
2195.000000	100.117705
2194.000000	100.118023
2193.000000	100.118314
2192.000000	100.118582
2191.000000	100.118848
2190.000000	100.119128
2189.000000	100.119425
2188.000000	100.119737
2187.000000	100.120058
2186.000000	100.120384
2185.000000	100.120710
2184.000000	100.121032
2183.000000	100.121350
2182.000000	100.121666
2181.000000	100.121980
2180.000000	100.122295
2179.000000	100.122613
2178.000000	100.122933
2177.000000	100.123249
2176.000000	100.123559
2175.000000	100.123862
2174.000000	100.124163
2173.000000	100.124468
2172.000000	100.124784
2171.000000	100.125109
2170.000000	100.125439
2169.000000	100.125765
2168.000000	100.126079
2167.000000	100.126378
2166.000000	100.126666
2165.000000	100.126950
2164.000000	100.127239
2163.000000	100.127536
2162.000000	100.127832
2161.000000	100.128119
2160.000000	100.128389
2159.000000	100.128645
2158.000000	100.128891
2157.000000	100.129138
2156.000000	100.129391
2155.000000	100.129658
2154.000000	100.129947
2153.000000	100.130261
2152.000000	100.130593
2151.000000	100.130931
2150.000000	100.131256
2149.000000	100.131563
2148.000000	100.131852
2147.000000	100.132129
2146.000000	100.132405
2145.000000	100.132683
2144.000000	100.132964
2143.000000	100.133248
2142.000000	100.133533
2141.000000	100.133818
2140.000000	100.134105
2139.000000	100.134395
2138.000000	100.134694
2137.000000	100.135005
2136.000000	100.135336
2135.000000	100.135690
2134.000000	100.136065
2133.000000	100.136460
2132.000000	100.136866
2131.000000	100.137271
2130.000000	100.137658
2129.000000	100.138023
2128.000000	100.138372
2127.000000	100.138720
2126.000000	100.139082
2125.000000	100.139465
2124.000000	100.139867
2123.000000	100.140278
2122.000000	100.140684
2121.000000	100.141078
2120.000000	100.141457
2119.000000	100.141828
2118.000000	100.142197
2117.000000	100.142568
2116.000000	100.142937
2115.000000	100.143300
2114.000000	100.143655
2113.000000	100.144002
2112.000000	100.144345
2111.000000	100.144682
2110.000000	100.145009
2109.000000	100.145326
2108.000000	100.145642
2107.000000	100.145967
2106.000000	100.146313
2105.000000	100.146678
2104.000000	100.147062
2103.000000	100.147460
2102.000000	100.147868
2101.000000	100.148285
2100.000000	100.148706
2099.000000	100.149127
2098.000000	100.149542
2097.000000	100.149946
2096.000000	100.150340
2095.000000	100.150731
2094.000000	100.151128
2093.000000	100.151532
2092.000000	100.151941
2091.000000	100.152353
2090.000000	100.152765
2089.000000	100.153170
2088.000000	100.153559
2087.000000	100.153929
2086.000000	100.154307
2085.000000	100.154729
2084.000000	100.155201
2083.000000	100.155649
2082.000000	100.155964
2081.000000	100.156109
2080.000000	100.156198
2079.000000	100.156381
2078.000000	100.156675
2077.000000	100.156956
2076.000000	100.157165
2075.000000	100.157403
2074.000000	100.157761
2073.000000	100.158193
2072.000000	100.158663
2071.000000	100.159206
2070.000000	100.159731
2069.000000	100.159995
2068.000000	100.159973
2067.000000	100.160059
2066.000000	100.160609
2065.000000	100.161419
2064.000000	100.162004
2063.000000	100.162297
2062.000000	100.162640
2061.000000	100.163145
2060.000000	100.163501
2059.000000	100.163527
2058.000000	100.163411
2057.000000	100.163288
2056.000000	100.163000
2055.000000	100.162548
2054.000000	100.162312
2053.000000	100.162464
2052.000000	100.162593
2051.000000	100.162309
2050.000000	100.161928
2049.000000	100.162022
2048.000000	100.162531
2047.000000	100.162824
2046.000000	100.162511
2045.000000	100.161719
2044.000000	100.160657
2043.000000	100.159481
2042.000000	100.158625
2041.000000	100.158522
2040.000000	100.158814
2039.000000	100.158470
2038.000000	100.157012
2037.000000	100.155131
2036.000000	100.153817
2035.000000	100.153133
2034.000000	100.152422
2033.000000	100.151479
2032.000000	100.150882
2031.000000	100.151074
2030.000000	100.151683
2029.000000	100.151905
2028.000000	100.151387
2027.000000	100.150412
2026.000000	100.149449
2025.000000	100.148697
2024.000000	100.148030
2023.000000	100.147213
2022.000000	100.146148
2021.000000	100.144989
2020.000000	100.143987
2019.000000	100.143186
2018.000000	100.142415
2017.000000	100.141622
2016.000000	100.141032
2015.000000	100.140813
2014.000000	100.140797
2013.000000	100.140671
2012.000000	100.140346
2011.000000	100.139943
2010.000000	100.139526
2009.000000	100.139038
2008.000000	100.138421
2007.000000	100.137657
2006.000000	100.136729
2005.000000	100.135719
2004.000000	100.134899
2003.000000	100.134530
2002.000000	100.134588
2001.000000	100.134714
2000.000000	100.134529
1999.000000	100.133932
1998.000000	100.133011
1997.000000	100.131935
1996.000000	100.130969
1995.000000	100.130374
1994.000000	100.130085
1993.000000	100.129666
1992.000000	100.128828
1991.000000	100.127842
1990.000000	100.127144
1989.000000	100.126779
1988.000000	100.126531
1987.000000	100.126335
1986.000000	100.126197
1985.000000	100.125866
1984.000000	100.125089
1983.000000	100.124090
1982.000000	100.123398
1981.000000	100.123141
1980.000000	100.123005
1979.000000	100.122886
1978.000000	100.123053
1977.000000	100.123586
1976.000000	100.124041
1975.000000	100.123933
1974.000000	100.123244
1973.000000	100.122284
1972.000000	100.121357
1971.000000	100.120728
1970.000000	100.120667
1969.000000	100.121191
1968.000000	100.121824
1967.000000	100.121950
1966.000000	100.121493
1965.000000	100.121033
1964.000000	100.121111
1963.000000	100.121571
1962.000000	100.121718
1961.000000	100.121085
1960.000000	100.119977
1959.000000	100.119206
1958.000000	100.119211
1957.000000	100.119545
1956.000000	100.119311
1955.000000	100.118082
1954.000000	100.116260
1953.000000	100.114652
1952.000000	100.113702
1951.000000	100.113115
1950.000000	100.112286
1949.000000	100.110933
1948.000000	100.109394
1947.000000	100.108288
1946.000000	100.107797
1945.000000	100.107437
1944.000000	100.106685
1943.000000	100.105712
1942.000000	100.105104
1941.000000	100.104939
1940.000000	100.104734
1939.000000	100.104195
1938.000000	100.103422
1937.000000	100.102404
1936.000000	100.100829
1935.000000	100.098768
1934.000000	100.097205
1933.000000	100.097391
1932.000000	100.099417
1931.000000	100.101711
1930.000000	100.102570
1929.000000	100.101664
1928.000000	100.100220
1927.000000	100.099561
1926.000000	100.099707
1925.000000	100.099690
1924.000000	100.098671
1923.000000	100.097005
1922.000000	100.095815
1921.000000	100.095618
1920.000000	100.095803
1919.000000	100.095220
1918.000000	100.093171
1917.000000	100.089859
1916.000000	100.085887
1915.000000	100.081785
1914.000000	100.077859
1913.000000	100.074366
1912.000000	100.071543
1911.000000	100.069420
1910.000000	100.067778
1909.000000	100.066157
1908.000000	100.064511
1907.000000	100.063448
1906.000000	100.063600
1905.000000	100.064787
1904.000000	100.065551
1903.000000	100.064418
1902.000000	100.061209
1901.000000	100.056854
1900.000000	100.052567
1899.000000	100.049202
1898.000000	100.047072
1897.000000	100.045939
1896.000000	100.044897
1895.000000	100.043081
1894.000000	100.040570
1893.000000	100.038165
1892.000000	100.036329
1891.000000	100.034810
1890.000000	100.033298
1889.000000	100.031945
1888.000000	100.031043
1887.000000	100.030667
1886.000000	100.030632
1885.000000	100.030643
1884.000000	100.030421
1883.000000	100.029796
1882.000000	100.028765
1881.000000	100.027343
1880.000000	100.025834
1879.000000	100.024912
1878.000000	100.024803
1877.000000	100.024710
1876.000000	100.023380
1875.000000	100.020612
1874.000000	100.018103
1873.000000	100.018019
1872.000000	100.020851
1871.000000	100.024988
1870.000000	100.027940
1869.000000	100.028124
1868.000000	100.025997
1867.000000	100.023645
1866.000000	100.023015
1865.000000	100.024341
1864.000000	100.026123
1863.000000	100.026815
1862.000000	100.026601
1861.000000	100.026994
1860.000000	100.028792
1859.000000	100.031277
1858.000000	100.033512
1857.000000	100.035450
1856.000000	100.037446
1855.000000	100.039407
1854.000000	100.041405
1853.000000	100.044040
1852.000000	100.047992
1851.000000	100.053199
1850.000000	100.058311
1849.000000	100.061968
1848.000000	100.064091
1847.000000	100.065703
1846.000000	100.067308
1845.000000	100.067856
1844.000000	100.065936
1843.000000	100.062033
1842.000000	100.058607
1841.000000	100.057605
1840.000000	100.059230
1839.000000	100.062495
1838.000000	100.066466
1837.000000	100.070891
1836.000000	100.075265
1835.000000	100.078312
1834.000000	100.078982
1833.000000	100.077482
1832.000000	100.075157
1831.000000	100.073179
1830.000000	100.071698
1829.000000	100.070714
1828.000000	100.070705
1827.000000	100.071872
1826.000000	100.073152
1825.000000	100.073230
1824.000000	100.072217
1823.000000	100.071220
1822.000000	100.070630
1821.000000	100.069829
1820.000000	100.068591
1819.000000	100.067662
1818.000000	100.067946
1817.000000	100.069436
1816.000000	100.070906
1815.000000	100.071310
1814.000000	100.070816
1813.000000	100.070492
1812.000000	100.071152
1811.000000	100.072293
1810.000000	100.072898
1809.000000	100.072714
1808.000000	100.072184
1807.000000	100.071631
1806.000000	100.071046
1805.000000	100.070620
1804.000000	100.070583
1803.000000	100.070773
1802.000000	100.070486
1801.000000	100.069519
1800.000000	100.069073
1799.000000	100.070304
1798.000000	100.072825
1797.000000	100.075092
1796.000000	100.076011
1795.000000	100.075813
1794.000000	100.075336
1793.000000	100.075317
1792.000000	100.076272
1791.000000	100.078063
1790.000000	100.080085
1789.000000	100.081925
1788.000000	100.083482
1787.000000	100.084643
1786.000000	100.085116
1785.000000	100.084873
1784.000000	100.084554
1783.000000	100.085398
1782.000000	100.087938
1781.000000	100.091285
1780.000000	100.094323
1779.000000	100.096583
1778.000000	100.098275
1777.000000	100.099506
1776.000000	100.100591
1775.000000	100.102532
1774.000000	100.105895
1773.000000	100.109691
1772.000000	100.112336
1771.000000	100.113534
1770.000000	100.114217
1769.000000	100.114949
1768.000000	100.115378
1767.000000	100.115535
1766.000000	100.116053
1765.000000	100.117137
1764.000000	100.118048
1763.000000	100.117905
1762.000000	100.117059
1761.000000	100.117434
1760.000000	100.120709
1759.000000	100.126738
1758.000000	100.133720
1757.000000	100.138837
1756.000000	100.141031
1755.000000	100.142143
1754.000000	100.144174
1753.000000	100.146800
1752.000000	100.148455
1751.000000	100.148935
1750.000000	100.150005
1749.000000	100.152710
1748.000000	100.155806
1747.000000	100.158262
1746.000000	100.159979
1745.000000	100.160881
1744.000000	100.160954
1743.000000	100.161200
1742.000000	100.163366
1741.000000	100.167343
1740.000000	100.169529
1739.000000	100.166767
1738.000000	100.160949
1737.000000	100.156313
1736.000000	100.154601
1735.000000	100.154533
1734.000000	100.154642
1733.000000	100.154752
1732.000000	100.155031
1731.000000	100.154992
1730.000000	100.153924
1729.000000	100.151971
1728.000000	100.150154
1727.000000	100.149482
1726.000000	100.149912
1725.000000	100.150711
1724.000000	100.150823
1723.000000	100.149195
1722.000000	100.146093
1721.000000	100.142835
1720.000000	100.140375
1719.000000	100.138492
1718.000000	100.136699
1717.000000	100.135171
1716.000000	100.134193
1715.000000	100.133552
1714.000000	100.132741
1713.000000	100.131475
1712.000000	100.129749
1711.000000	100.127662
1710.000000	100.125385
1709.000000	100.123003
1708.000000	100.120507
1707.000000	100.117798
1706.000000	100.114947
1705.000000	100.112355
1704.000000	100.110209
1703.000000	100.108271
1702.000000	100.106204
1701.000000	100.103906
1700.000000	100.101623
1699.000000	100.099503
1698.000000	100.097425
1697.000000	100.095318
1696.000000	100.093186
1695.000000	100.091045
1694.000000	100.088901
1693.000000	100.086748
1692.000000	100.084584
1691.000000	100.082405
1690.000000	100.080215
1689.000000	100.078026
1688.000000	100.075848
1687.000000	100.073688
1686.000000	100.071541
1685.000000	100.069402
1684.000000	100.067272
1683.000000	100.065165
1682.000000	100.063089
1681.000000	100.061046
1680.000000	100.059032
1679.000000	100.057045
1678.000000	100.055083
1677.000000	100.053144
1676.000000	100.051226
1675.000000	100.049345
1674.000000	100.047535
1673.000000	100.045801
1672.000000	100.044112
1671.000000	100.042429
1670.000000	100.040744
1669.000000	100.039089
1668.000000	100.037479
1667.000000	100.035881
1666.000000	100.034250
1665.000000	100.032579
1664.000000	100.030912
1663.000000	100.029378
1662.000000	100.028111
1661.000000	100.026956
1660.000000	100.025664
1659.000000	100.024074
1658.000000	100.022068
1657.000000	100.019551
1656.000000	100.016764
1655.000000	100.014141
1654.000000	100.012490
1653.000000	100.012895
1652.000000	100.013146
1651.000000	100.011515
1650.000000	100.009159
1649.000000	100.006511
1648.000000	100.004186
1647.000000	100.003470
1646.000000	100.003898
1645.000000	100.003958
1644.000000	100.003799
1643.000000	100.004382
1642.000000	100.005471
1641.000000	100.005439
1640.000000	100.003789
1639.000000	100.001996
1638.000000	100.002130
1637.000000	100.004524
1636.000000	100.007286
1635.000000	100.007631
1634.000000	100.005165
1633.000000	100.002021
1632.000000	99.999193
1631.000000	99.997005
1630.000000	99.996222
1629.000000	99.997119
1628.000000	99.998658
1627.000000	99.999937
1626.000000	100.001374
1625.000000	100.003426
1624.000000	100.005122
1623.000000	100.004793
1622.000000	100.002386
1621.000000	99.999557
1620.000000	99.997879
1619.000000	99.997659
1618.000000	99.998188
1617.000000	99.998816
1616.000000	99.999915
1615.000000	100.002540
1614.000000	100.006764
1613.000000	100.011283
1612.000000	100.014767
1611.000000	100.018074
1610.000000	100.023549
1609.000000	100.031819
1608.000000	100.040419
1607.000000	100.046302
1606.000000	100.048753
1605.000000	100.049395
1604.000000	100.050900
1603.000000	100.054762
1602.000000	100.060062
1601.000000	100.064545
1600.000000	100.066925
1599.000000	100.068045
1598.000000	100.069683
1597.000000	100.072610
1596.000000	100.075954
1595.000000	100.078523
1594.000000	100.080417
1593.000000	100.082795
1592.000000	100.086364
1591.000000	100.090723
1590.000000	100.095086
1589.000000	100.098988
1588.000000	100.102222
1587.000000	100.104262
1586.000000	100.104648
1585.000000	100.103440
1584.000000	100.101802
1583.000000	100.101721
1582.000000	100.104126
1581.000000	100.108047
1580.000000	100.111924
1579.000000	100.115225
1578.000000	100.118215
1577.000000	100.121105
1576.000000	100.123299
1575.000000	100.124340
1574.000000	100.125300
1573.000000	100.127139
1572.000000	100.129328
1571.000000	100.130336
1570.000000	100.129782
1569.000000	100.129270
1568.000000	100.130364
1567.000000	100.132786
1566.000000	100.135175
1565.000000	100.136474
1564.000000	100.136804
1563.000000	100.137497
1562.000000	100.139729
1561.000000	100.144107
1560.000000	100.149361
1559.000000	100.152829
1558.000000	100.151746
1557.000000	100.149399
1556.000000	100.148980
1555.000000	100.148870
1554.000000	100.147680
1553.000000	100.146630
1552.000000	100.147592
1551.000000	100.149271
1550.000000	100.148886
1549.000000	100.146374
1548.000000	100.144267
1547.000000	100.143996
1546.000000	100.144227
1545.000000	100.143398
1544.000000	100.142401
1543.000000	100.142424
1542.000000	100.142123
1541.000000	100.139409
1540.000000	100.135771
1539.000000	100.134209
1538.000000	100.134150
1537.000000	100.133952
1536.000000	100.133167
1535.000000	100.131968
1534.000000	100.130269
1533.000000	100.127562
1532.000000	100.124017
1531.000000	100.120462
1530.000000	100.117729
1529.000000	100.116359
1528.000000	100.116302
1527.000000	100.116671
1526.000000	100.115970
1525.000000	100.113525
1524.000000	100.110329
1523.000000	100.107381
1522.000000	100.104595
1521.000000	100.101966
1520.000000	100.100718
1519.000000	100.101980
1518.000000	100.104854
1517.000000	100.106803
1516.000000	100.106078
1515.000000	100.103588
1514.000000	100.101039
1513.000000	100.098858
1512.000000	100.096863
1511.000000	100.095587
1510.000000	100.095818
1509.000000	100.097546
1508.000000	100.099567
1507.000000	100.100889
1506.000000	100.101299
1505.000000	100.101234
1504.000000	100.101352
1503.000000	100.101699
1502.000000	100.102027
1501.000000	100.102324
1500.000000	100.102793
1499.000000	100.103669
1498.000000	100.104759
1497.000000	100.105198
1496.000000	100.103957
1495.000000	100.101469
1494.000000	100.099633
1493.000000	100.099643
1492.000000	100.101143
1491.000000	100.102875
1490.000000	100.104074
1489.000000	100.104985
1488.000000	100.105731
1487.000000	100.105851
1486.000000	100.105490
1485.000000	100.105309
1484.000000	100.105605
1483.000000	100.105998
1482.000000	100.105730
1481.000000	100.104822
1480.000000	100.104209
1479.000000	100.104805
1478.000000	100.106626
1477.000000	100.108894
1476.000000	100.110500
1475.000000	100.111027
1474.000000	100.111139
1473.000000	100.111845
1472.000000	100.113482
1471.000000	100.115357
1470.000000	100.116887
1469.000000	100.117869
1468.000000	100.117793
1467.000000	100.116232
1466.000000	100.113875
1465.000000	100.112429
1464.000000	100.112971
1463.000000	100.114457
1462.000000	100.115435
1461.000000	100.115858
1460.000000	100.116602
1459.000000	100.118253
1458.000000	100.119900
1457.000000	100.119488
1456.000000	100.116093
1455.000000	100.111374
1454.000000	100.106976
1453.000000	100.103481
1452.000000	100.101707
1451.000000	100.102083
1450.000000	100.103571
1449.000000	100.104383
1448.000000	100.103273
1447.000000	100.100474
1446.000000	100.097136
1445.000000	100.094342
1444.000000	100.093274
1443.000000	100.094066
1442.000000	100.095131
1441.000000	100.094620
1440.000000	100.092451
1439.000000	100.090030
1438.000000	100.088614
1437.000000	100.088708
1436.000000	100.089778
1435.000000	100.090627
1434.000000	100.090461
1433.000000	100.088961
1432.000000	100.086016
1431.000000	100.082184
1430.000000	100.078756
1429.000000	100.077262
1428.000000	100.078218
1427.000000	100.081043
1426.000000	100.084707
1425.000000	100.088078
1424.000000	100.090544
1423.000000	100.091610
1422.000000	100.090971
1421.000000	100.089228
1420.000000	100.088321
1419.000000	100.090336
1418.000000	100.094261
1417.000000	100.097104
1416.000000	100.098025
1415.000000	100.098169
1414.000000	100.098575
1413.000000	100.099586
1412.000000	100.101253
1411.000000	100.103315
1410.000000	100.104878
1409.000000	100.105349
1408.000000	100.105230
1407.000000	100.105844
1406.000000	100.108056
1405.000000	100.111079
1404.000000	100.113489
1403.000000	100.114932
1402.000000	100.116342
1401.000000	100.118734
1400.000000	100.122291
1399.000000	100.126314
1398.000000	100.129948
1397.000000	100.133337
1396.000000	100.137119
1395.000000	100.141016
1394.000000	100.143586
1393.000000	100.144075
1392.000000	100.143579
1391.000000	100.143335
1390.000000	100.143099
1389.000000	100.141827
1388.000000	100.139607
1387.000000	100.138204
1386.000000	100.138842
1385.000000	100.140702
1384.000000	100.142750
1383.000000	100.145283
1382.000000	100.149082
1381.000000	100.153853
1380.000000	100.158036
1379.000000	100.160342
1378.000000	100.160793
1377.000000	100.160314
1376.000000	100.159905
1375.000000	100.160373
1374.000000	100.161831
1373.000000	100.163134
1372.000000	100.162798
1371.000000	100.160605
1370.000000	100.157840
1369.000000	100.156282
1368.000000	100.156963
1367.000000	100.159534
1366.000000	100.162732
1365.000000	100.165270
1364.000000	100.166304
1363.000000	100.165656
1362.000000	100.163939
1361.000000	100.162267
1360.000000	100.161592
1359.000000	100.162211
1358.000000	100.163541
1357.000000	100.164439
1356.000000	100.164226
1355.000000	100.163470
1354.000000	100.163264
1353.000000	100.163819
1352.000000	100.164210
1351.000000	100.163777
1350.000000	100.163098
1349.000000	100.163036
1348.000000	100.163410
1347.000000	100.163156
1346.000000	100.161819
1345.000000	100.160235
1344.000000	100.159449
1343.000000	100.159352
1342.000000	100.158789
1341.000000	100.156994
1340.000000	100.154710
1339.000000	100.153511
1338.000000	100.153989
1337.000000	100.155441
1336.000000	100.157211
1335.000000	100.159288
1334.000000	100.161378
1333.000000	100.162320
1332.000000	100.161297
1331.000000	100.159453
1330.000000	100.159255
1329.000000	100.161765
1328.000000	100.165273
1327.000000	100.167175
1326.000000	100.166620
1325.000000	100.164845
1324.000000	100.163644
1323.000000	100.163929
1322.000000	100.165386
1321.000000	100.166724
1320.000000	100.166478
1319.000000	100.164391
1318.000000	100.162008
1317.000000	100.161070
1316.000000	100.161425
1315.000000	100.161434
1314.000000	100.160273
1313.000000	100.158994
1312.000000	100.159060
1311.000000	100.160604
1310.000000	100.162617
1309.000000	100.164151
1308.000000	100.164704
1307.000000	100.164031
1306.000000	100.162399
1305.000000	100.160850
1304.000000	100.160576
1303.000000	100.161861
1302.000000	100.163978
1301.000000	100.166100
1300.000000	100.167819
1299.000000	100.168680
1298.000000	100.167962
1297.000000	100.165439
1296.000000	100.162002
1295.000000	100.159095
1294.000000	100.157413
1293.000000	100.156443
1292.000000	100.155276
1291.000000	100.153659
1290.000000	100.152290
1289.000000	100.152214
1288.000000	100.153824
1287.000000	100.156246
1286.000000	100.157845
1285.000000	100.157660
1284.000000	100.156355
1283.000000	100.155612
1282.000000	100.156455
1281.000000	100.158151
1280.000000	100.158746
1279.000000	100.156732
1278.000000	100.152390
1277.000000	100.147664
1276.000000	100.144494
1275.000000	100.143118
1274.000000	100.142109
1273.000000	100.140260
1272.000000	100.138177
1271.000000	100.137657
1270.000000	100.139596
1269.000000	100.142924
1268.000000	100.145670
1267.000000	100.146904
1266.000000	100.147790
1265.000000	100.150680
1264.000000	100.156389
1263.000000	100.161921
1262.000000	100.162038
1261.000000	100.154471
1260.000000	100.143220
1259.000000	100.135108
1258.000000	100.132677
1257.000000	100.132183
1256.000000	100.128896
1255.000000	100.122367
1254.000000	100.115507
1253.000000	100.110122
1252.000000	100.105348
1251.000000	100.099848
1250.000000	100.093439
1249.000000	100.086426
1248.000000	100.079023
1247.000000	100.071801
1246.000000	100.065084
1245.000000	100.057273
1244.000000	100.045413
1243.000000	100.028857
1242.000000	100.011397
1241.000000	99.998035
1240.000000	99.989884
1239.000000	99.983738
1238.000000	99.976786
1237.000000	99.970169
1236.000000	99.966835
1235.000000	99.966878
1234.000000	99.966549
1233.000000	99.961701
1232.000000	99.950869
1231.000000	99.935038
1230.000000	99.916084
1229.000000	99.896042
1228.000000	99.876176
1227.000000	99.854940
1226.000000	99.827778
1225.000000	99.791363
1224.000000	99.748329
1223.000000	99.705851
1222.000000	99.668393
1221.000000	99.633518
1220.000000	99.596197
1219.000000	99.555315
1218.000000	99.513764
1217.000000	99.473343
1216.000000	99.432472
1215.000000	99.389085
1214.000000	99.342945
1213.000000	99.293998
1212.000000	99.240769
1211.000000	99.182748
1210.000000	99.123651
1209.000000	99.069866
1208.000000	99.024607
1207.000000	98.984313
1206.000000	98.941646
1205.000000	98.891945
1204.000000	98.836188
1203.000000	98.778239
1202.000000	98.720933
1201.000000	98.665490
1200.000000	98.613005
1199.000000	98.564143
1198.000000	98.517264
1197.000000	98.468559
1196.000000	98.415047
1195.000000	98.357408
1194.000000	98.300115
1193.000000	98.248582
1192.000000	98.204843
1191.000000	98.164957
1190.000000	98.121521
1189.000000	98.069754
1188.000000	98.010355
1187.000000	97.946402
1186.000000	97.879894
1185.000000	97.812640
1184.000000	97.747681
1183.000000	97.686535
1182.000000	97.626341
1181.000000	97.562934
1180.000000	97.495823
1179.000000	97.427059
1178.000000	97.356362
1177.000000	97.281220
1176.000000	97.201615
1175.000000	97.120916
1174.000000	97.041683
1173.000000	96.963685
1172.000000	96.886247
1171.000000	96.809349
1170.000000	96.732317
1169.000000	96.654816
1168.000000	96.579535
1167.000000	96.510781
1166.000000	96.450456
1165.000000	96.399034
1164.000000	96.360634
1163.000000	96.342954
1162.000000	96.350606
1161.000000	96.380164
1160.000000	96.420870
1159.000000	96.458066
1158.000000	96.478492
1157.000000	96.476514
1156.000000	96.455127
1155.000000	96.419540
1154.000000	96.371808
1153.000000	96.313456
1152.000000	96.249381
1151.000000	96.184430
1150.000000	96.118610
1149.000000	96.050848
1148.000000	95.985271
1147.000000	95.927817
1146.000000	95.877910
1145.000000	95.829386
1144.000000	95.778576
1143.000000	95.725742
1142.000000	95.670120
1141.000000	95.610248
1140.000000	95.548634
1139.000000	95.489558
1138.000000	95.432304
1137.000000	95.372650
1136.000000	95.310489
1135.000000	95.249414
1134.000000	95.189061
1133.000000	95.124755
1132.000000	95.054876
1131.000000	94.982185
1130.000000	94.908232
1129.000000	94.833394
1128.000000	94.762048
1127.000000	94.699758
1126.000000	94.644571
1125.000000	94.588415
1124.000000	94.527758
1123.000000	94.465632
1122.000000	94.403128
1121.000000	94.337349
1120.000000	94.268828
1119.000000	94.202274
1118.000000	94.137748
1117.000000	94.069344
1116.000000	93.995148
1115.000000	93.921223
1114.000000	93.853756
1113.000000	93.794503
1112.000000	93.744543
1111.000000	93.703387
1110.000000	93.663105
1109.000000	93.613068
1108.000000	93.552984
1107.000000	93.492693
1106.000000	93.437668
1105.000000	93.383688
1104.000000	93.326928
1103.000000	93.269206
1102.000000	93.211323
1101.000000	93.151197
1100.000000	93.091146
1099.000000	93.037301
1098.000000	92.989408
1097.000000	92.940810
1096.000000	92.890390
1095.000000	92.844702
1094.000000	92.806443
1093.000000	92.771056
1092.000000	92.736466
1091.000000	92.705364
1090.000000	92.675955
1089.000000	92.641962
1088.000000	92.604519
1087.000000	92.572769
1086.000000	92.549436
1085.000000	92.526580
1084.000000	92.498773
1083.000000	92.469555
1082.000000	92.441775
1081.000000	92.412744
1080.000000	92.382646
1079.000000	92.356712
1078.000000	92.334600
1077.000000	92.307790
1076.000000	92.271687
1075.000000	92.230499
1074.000000	92.186580
1073.000000	92.134576
1072.000000	92.069656
1071.000000	91.992072
1070.000000	91.900644
1069.000000	91.791321
1068.000000	91.665327
1067.000000	91.529790
1066.000000	91.387843
1065.000000	91.238062
1064.000000	91.086148
1063.000000	90.945540
1062.000000	90.821934
1061.000000	90.707480
1060.000000	90.593893
1059.000000	90.480773
1058.000000	90.368250
1057.000000	90.252940
1056.000000	90.134949
1055.000000	90.018350
1054.000000	89.901917
1053.000000	89.780535
1052.000000	89.657835
1051.000000	89.543085
1050.000000	89.431693
1049.000000	89.306063
1048.000000	89.162076
1047.000000	89.017251
1046.000000	88.885970
1045.000000	88.762571
1044.000000	88.634927
1043.000000	88.500882
1042.000000	88.365350
1041.000000	88.232658
1040.000000	88.107187
1039.000000	87.991447
1038.000000	87.879459
1037.000000	87.762560
1036.000000	87.644575
1035.000000	87.539587
1034.000000	87.452464
1033.000000	87.374287
1032.000000	87.299059
1031.000000	87.231212
1030.000000	87.173660
1029.000000	87.122813
1028.000000	87.079044
1027.000000	87.047662
1026.000000	87.025215
1025.000000	86.998887
1024.000000	86.964297
1023.000000	86.930814
1022.000000	86.905152
1021.000000	86.882918
1020.000000	86.859982
1019.000000	86.838447
1018.000000	86.816793
1017.000000	86.787194
1016.000000	86.747336
1015.000000	86.703352
1014.000000	86.658175
1013.000000	86.609545
1012.000000	86.562099
1011.000000	86.527451
1010.000000	86.508014
1009.000000	86.493199
1008.000000	86.475149
1007.000000	86.456310
1006.000000	86.439196
1005.000000	86.422032
1004.000000	86.407581
1003.000000	86.402923
1002.000000	86.406756
1001.000000	86.409204
1000.000000	86.406870
999.000000	86.406088
998.000000	86.409932
997.000000	86.415550
996.000000	86.425909
995.000000	86.449350
994.000000	86.484215
993.000000	86.517756
992.000000	86.543885
991.000000	86.569131
990.000000	86.598656
989.000000	86.630511
988.000000	86.666407
987.000000	86.713514
986.000000	86.771637
985.000000	86.832426
984.000000	86.895152
983.000000	86.969602
982.000000	87.059225
981.000000	87.155138
980.000000	87.251576
979.000000	87.354603
978.000000	87.470657
977.000000	87.598544
976.000000	87.736986
975.000000	87.887981
974.000000	88.047726
973.000000	88.205101
972.000000	88.354031
971.000000	88.498496
970.000000	88.642715
969.000000	88.786184
968.000000	88.930763
967.000000	89.082342
966.000000	89.242277
965.000000	89.405785
964.000000	89.570120
963.000000	89.734799
962.000000	89.893252
961.000000	90.035620
960.000000	90.162374
959.000000	90.285350
958.000000	90.412667
957.000000	90.541363
956.000000	90.666479
955.000000	90.787370
954.000000	90.902748
953.000000	91.009152
952.000000	91.107285
951.000000	91.201733
950.000000	91.292543
949.000000	91.375257
948.000000	91.450258
947.000000	91.522926
946.000000	91.593628
945.000000	91.657317
944.000000	91.714863
943.000000	91.774862
942.000000	91.841071
941.000000	91.906675
940.000000	91.963921
939.000000	92.011870
938.000000	92.053484
937.000000	92.093433
936.000000	92.139820
935.000000	92.198720
934.000000	92.264916
933.000000	92.326604
932.000000	92.380475
931.000000	92.433353
930.000000	92.488626
929.000000	92.541823
928.000000	92.591581
927.000000	92.643892
926.000000	92.701580
925.000000	92.758895
924.000000	92.810516
923.000000	92.857933
922.000000	92.904098
921.000000	92.949624
920.000000	92.996424
919.000000	93.046698
918.000000	93.096221
917.000000	93.137297
916.000000	93.170670
915.000000	93.206052
914.000000	93.249079
913.000000	93.296826
912.000000	93.347698
911.000000	93.405644
910.000000	93.472285
909.000000	93.545486
908.000000	93.628777
907.000000	93.731283
906.000000	93.853898
905.000000	93.985148
904.000000	94.115249
903.000000	94.245760
902.000000	94.381171
901.000000	94.520065
900.000000	94.659152
899.000000	94.797889
898.000000	94.934656
897.000000	95.065653
896.000000	95.191449
895.000000	95.317644
894.000000	95.445314
893.000000	95.567538
892.000000	95.679016
891.000000	95.782741
890.000000	95.883896
889.000000	95.983412
888.000000	96.080700
887.000000	96.176226
886.000000	96.268001
885.000000	96.352110
884.000000	96.430654
883.000000	96.512954
882.000000	96.604072
881.000000	96.697302
880.000000	96.782682
879.000000	96.858510
878.000000	96.930527
877.000000	97.003897
876.000000	97.080070
875.000000	97.158532
874.000000	97.238810
873.000000	97.322930
872.000000	97.415546
871.000000	97.517170
870.000000	97.618389
869.000000	97.707510
868.000000	97.783969
867.000000	97.857586
866.000000	97.934432
865.000000	98.011054
864.000000	98.083935
863.000000	98.156045
862.000000	98.230300
861.000000	98.303613
860.000000	98.372420
859.000000	98.438802
858.000000	98.506295
857.000000	98.573436
856.000000	98.635113
855.000000	98.686854
854.000000	98.725558
853.000000	98.751163
852.000000	98.770992
851.000000	98.797263
850.000000	98.835410
849.000000	98.878744
848.000000	98.918599
847.000000	98.954805
846.000000	98.991045
845.000000	99.024253
844.000000	99.045532
843.000000	99.050143
842.000000	99.041065
841.000000	99.023316
840.000000	98.999571
839.000000	98.971627
838.000000	98.942071
837.000000	98.913014
836.000000	98.884437
835.000000	98.853573
834.000000	98.815849
833.000000	98.769385
832.000000	98.720671
831.000000	98.683049
830.000000	98.666068
829.000000	98.666923
828.000000	98.673555
827.000000	98.674176
826.000000	98.664373
825.000000	98.650798
824.000000	98.649898
823.000000	98.675570
822.000000	98.722676
821.000000	98.768225
820.000000	98.792700
819.000000	98.795082
818.000000	98.784614
817.000000	98.764283
816.000000	98.728142
815.000000	98.671202
814.000000	98.593958
813.000000	98.495702
812.000000	98.368983
811.000000	98.204382
810.000000	97.998510
809.000000	97.754550
808.000000	97.476331
807.000000	97.164844
806.000000	96.821816
805.000000	96.456561
804.000000	96.088043
803.000000	95.738050
802.000000	95.422667
801.000000	95.153053
800.000000	94.941653
799.000000	94.799184
798.000000	94.724572
797.000000	94.705813
796.000000	94.731740
795.000000	94.794778
794.000000	94.882077
793.000000	94.974350
792.000000	95.056579
791.000000	95.122723
790.000000	95.168926
789.000000	95.190142
788.000000	95.185053
787.000000	95.156151
786.000000	95.102234
785.000000	95.018500
784.000000	94.907866
783.000000	94.785474
782.000000	94.667876
781.000000	94.564031
780.000000	94.480920
779.000000	94.430503
778.000000	94.424171
777.000000	94.463732
776.000000	94.541862
775.000000	94.648251
774.000000	94.773186
773.000000	94.908755
772.000000	95.048208
771.000000	95.182235
770.000000	95.298197
769.000000	95.388222
768.000000	95.456843
767.000000	95.515211
766.000000	95.568455
765.000000	95.614040
764.000000	95.651394
763.000000	95.685970
762.000000	95.722838
761.000000	95.762561
760.000000	95.804939
759.000000	95.851455
758.000000	95.902526
757.000000	95.956629
756.000000	96.012588
755.000000	96.069111
754.000000	96.123721
753.000000	96.177052
752.000000	96.235535
751.000000	96.302843
750.000000	96.370291
749.000000	96.423928
748.000000	96.461606
747.000000	96.496174
746.000000	96.541844
745.000000	96.604534
744.000000	96.685015
743.000000	96.781540
742.000000	96.886464
741.000000	96.988818
740.000000	97.084460
739.000000	97.178092
738.000000	97.272852
737.000000	97.364038
736.000000	97.446330
735.000000	97.521406
734.000000	97.593728
733.000000	97.661972
732.000000	97.718860
731.000000	97.758677
730.000000	97.782873
729.000000	97.799179
728.000000	97.815933
727.000000	97.836056
726.000000	97.857056
725.000000	97.878085
724.000000	97.904754
723.000000	97.944385
722.000000	97.998753
721.000000	98.064428
720.000000	98.136891
719.000000	98.209780
718.000000	98.273788
717.000000	98.322893
716.000000	98.360265
715.000000	98.393006
714.000000	98.423364
713.000000	98.451092
712.000000	98.481415
711.000000	98.521036
710.000000	98.565561
709.000000	98.599956
708.000000	98.614811
707.000000	98.615572
706.000000	98.611891
705.000000	98.602478
704.000000	98.574687
703.000000	98.516134
702.000000	98.422774
701.000000	98.297034
700.000000	98.141946
699.000000	97.959732
698.000000	97.758364
697.000000	97.559416
696.000000	97.394452
695.000000	97.289626
694.000000	97.256141
693.000000	97.295014
692.000000	97.399649
691.000000	97.545648
690.000000	97.688977
689.000000	97.791969
688.000000	97.853439
687.000000	97.902654
686.000000	97.963906
685.000000	98.037983
684.000000	98.114292
683.000000	98.184751
682.000000	98.244426
681.000000	98.291514
680.000000	98.331165
679.000000	98.371848
678.000000	98.416410
677.000000	98.463349
676.000000	98.514420
675.000000	98.572039
674.000000	98.630825
673.000000	98.680308
672.000000	98.715575
671.000000	98.739110
670.000000	98.755442
669.000000	98.773135
668.000000	98.806450
667.000000	98.855859
666.000000	98.903033
665.000000	98.939561
664.000000	98.976893
663.000000	99.026978
662.000000	99.079990
661.000000	99.113168
660.000000	99.122394
659.000000	99.123607
658.000000	99.122513
657.000000	99.106549
656.000000	99.072453
655.000000	99.039972
654.000000	99.027770
653.000000	99.032687
652.000000	99.044598
651.000000	99.064319
650.000000	99.092768
