4000.000000	101.586126
3999.000000	101.584855
3998.000000	101.583869
3997.000000	101.582937
3996.000000	101.581946
3995.000000	101.580912
3994.000000	101.579746
3993.000000	101.578316
3992.000000	101.576823
3991.000000	101.575926
3990.000000	101.576238
3989.000000	101.577710
3988.000000	101.579498
3987.000000	101.580579
3986.000000	101.580528
3985.000000	101.579796
3984.000000	101.579277
3983.000000	101.579554
3982.000000	101.580483
3981.000000	101.581361
3980.000000	101.581476
3979.000000	101.580593
3978.000000	101.579122
3977.000000	101.577845
3976.000000	101.577284
3975.000000	101.577300
3974.000000	101.577236
3973.000000	101.576464
3972.000000	101.574892
3971.000000	101.573031
3970.000000	101.571599
3969.000000	101.570934
3968.000000	101.570758
3967.000000	101.570421
3966.000000	101.569478
3965.000000	101.568116
3964.000000	101.567053
3963.000000	101.566939
3962.000000	101.567822
3961.000000	101.569099
3960.000000	101.569984
3959.000000	101.570060
3958.000000	101.569448
3957.000000	101.568550
3956.000000	101.567677
3955.000000	101.566840
3954.000000	101.565820
3953.000000	101.564466
3952.000000	101.562955
3951.000000	101.561774
3950.000000	101.561327
3949.000000	101.561493
3948.000000	101.561616
3947.000000	101.561065
3946.000000	101.559891
3945.000000	101.559000
3944.000000	101.559464
3943.000000	101.561569
3942.000000	101.564389
3941.000000	101.566373
3940.000000	101.566677
3939.000000	101.565541
3938.000000	101.563867
3937.000000	101.562444
3936.000000	101.561517
3935.000000	101.561015
3934.000000	101.560740
3933.000000	101.560401
3932.000000	101.559754
3931.000000	101.558979
3930.000000	101.558660
3929.000000	101.559119
3928.000000	101.559954
3927.000000	101.560421
3926.000000	101.560262
3925.000000	101.559910
3924.000000	101.559786
3923.000000	101.559790
3922.000000	101.559611
3921.000000	101.559015
3920.000000	101.557783
3919.000000	101.555814
3918.000000	101.553629
3917.000000	101.552267
3916.000000	101.552202
3915.000000	101.552671
3914.000000	101.552619
3913.000000	101.551995
3912.000000	101.551784
3911.000000	101.552919
3910.000000	101.555435
3909.000000	101.558396
3908.000000	101.560675
3907.000000	101.561810
3906.000000	101.562250
3905.000000	101.562859
3904.000000	101.563763
3903.000000	101.563992
3902.000000	101.562734
3901.000000	101.560426
3900.000000	101.558242
3899.000000	101.556708
3898.000000	101.555561
3897.000000	101.554779
3896.000000	101.554941
3895.000000	101.556379
3894.000000	101.558566
3893.000000	101.560430
3892.000000	101.561450
3891.000000	101.561991
3890.000000	101.562391
3889.000000	101.562493
3888.000000	101.562128
3887.000000	101.561615
3886.000000	101.561438
3885.000000	101.561484
3884.000000	101.561235
3883.000000	101.560658
3882.000000	101.560304
3881.000000	101.560624
3880.000000	101.561471
3879.000000	101.562357
3878.000000	101.563035
3877.000000	101.563691
3876.000000	101.564601
3875.000000	101.565752
3874.000000	101.566683
3873.000000	101.566894
3872.000000	101.566495
3871.000000	101.566302
3870.000000	101.566969
3869.000000	101.567997
3868.000000	101.568268
3867.000000	101.567475
3866.000000	101.566313
3865.000000	101.565638
3864.000000	101.565442
3863.000000	101.565103
3862.000000	101.564313
3861.000000	101.563345
3860.000000	101.562709
3859.000000	101.562760
3858.000000	101.563533
3857.000000	101.564721
3856.000000	101.565787
3855.000000	101.566397
3854.000000	101.566717
3853.000000	101.566702
3852.000000	101.566077
3851.000000	101.565097
3850.000000	101.564392
3849.000000	101.564137
3848.000000	101.563940
3847.000000	101.563333
3846.000000	101.562405
3845.000000	101.561838
3844.000000	101.562290
3843.000000	101.563766
3842.000000	101.565570
3841.000000	101.566823
3840.000000	101.567059
3839.000000	101.566277
3838.000000	101.564843
3837.000000	101.563508
3836.000000	101.562990
3835.000000	101.563344
3834.000000	101.563800
3833.000000	101.563290
3832.000000	101.561347
3831.000000	101.558396
3830.000000	101.555318
3829.000000	101.552994
3828.000000	101.552305
3827.000000	101.553984
3826.000000	101.557887
3825.000000	101.562530
3824.000000	101.565882
3823.000000	101.566984
3822.000000	101.566868
3821.000000	101.567256
3820.000000	101.567877
3819.000000	101.567073
3818.000000	101.564290
3817.000000	101.560928
3816.000000	101.558684
3815.000000	101.557074
3814.000000	101.554584
3813.000000	101.551676
3812.000000	101.550395
3811.000000	101.551766
3810.000000	101.555033
3809.000000	101.558964
3808.000000	101.563384
3807.000000	101.568386
3806.000000	101.572609
3805.000000	101.573992
3804.000000	101.571994
3803.000000	101.567979
3802.000000	101.564348
3801.000000	101.561878
3800.000000	101.558949
3799.000000	101.555105
3798.000000	101.552298
3797.000000	101.552285
3796.000000	101.554303
3795.000000	101.555715
3794.000000	101.554974
3793.000000	101.552967
3792.000000	101.551513
3791.000000	101.551399
3790.000000	101.552093
3789.000000	101.552519
3788.000000	101.551903
3787.000000	101.550439
3786.000000	101.549533
3785.000000	101.550990
3784.000000	101.555251
3783.000000	101.560529
3782.000000	101.564150
3781.000000	101.564810
3780.000000	101.563507
3779.000000	101.562368
3778.000000	101.562603
3777.000000	101.563862
3776.000000	101.565295
3775.000000	101.566356
3774.000000	101.566605
3773.000000	101.565621
3772.000000	101.563699
3771.000000	101.562239
3770.000000	101.562586
3769.000000	101.564480
3768.000000	101.566571
3767.000000	101.568309
3766.000000	101.570223
3765.000000	101.572477
3764.000000	101.573950
3763.000000	101.573440
3762.000000	101.571493
3761.000000	101.570186
3760.000000	101.571056
3759.000000	101.573634
3758.000000	101.576542
3757.000000	101.578940
3756.000000	101.580468
3755.000000	101.581195
3754.000000	101.582020
3753.000000	101.584220
3752.000000	101.587556
3751.000000	101.589940
3750.000000	101.590210
3749.000000	101.588853
3748.000000	101.585558
3747.000000	101.579489
3746.000000	101.572042
3745.000000	101.567875
3744.000000	101.568410
3743.000000	101.568938
3742.000000	101.566710
3741.000000	101.564333
3740.000000	101.564554
3739.000000	101.566676
3738.000000	101.567823
3737.000000	101.566664
3736.000000	101.564217
3735.000000	101.561603
3734.000000	101.558838
3733.000000	101.556136
3732.000000	101.554354
3731.000000	101.553615
3730.000000	101.552971
3729.000000	101.551516
3728.000000	101.548988
3727.000000	101.545507
3726.000000	101.541071
3725.000000	101.535852
3724.000000	101.530882
3723.000000	101.527533
3722.000000	101.526286
3721.000000	101.526280
3720.000000	101.526517
3719.000000	101.526936
3718.000000	101.528109
3717.000000	101.529867
3716.000000	101.530509
3715.000000	101.528265
3714.000000	101.523275
3713.000000	101.517820
3712.000000	101.513915
3711.000000	101.510291
3710.000000	101.504107
3709.000000	101.495155
3708.000000	101.486500
3707.000000	101.481805
3706.000000	101.482415
3705.000000	101.486661
3704.000000	101.490986
3703.000000	101.491913
3702.000000	101.488252
3701.000000	101.481817
3700.000000	101.475718
3699.000000	101.471936
3698.000000	101.470433
3697.000000	101.469579
3696.000000	101.466961
3695.000000	101.461189
3694.000000	101.453486
3693.000000	101.446284
3692.000000	101.440350
3691.000000	101.434565
3690.000000	101.429391
3689.000000	101.427785
3688.000000	101.430364
3687.000000	101.433268
3686.000000	101.432926
3685.000000	101.429504
3684.000000	101.424489
3683.000000	101.417782
3682.000000	101.408744
3681.000000	101.399367
3680.000000	101.392812
3679.000000	101.388429
3678.000000	101.381329
3677.000000	101.369041
3676.000000	101.356496
3675.000000	101.348443
3674.000000	101.342030
3673.000000	101.332419
3672.000000	101.319664
3671.000000	101.307191
3670.000000	101.296929
3669.000000	101.286654
3668.000000	101.274491
3667.000000	101.261978
3666.000000	101.250689
3665.000000	101.239716
3664.000000	101.226793
3663.000000	101.210854
3662.000000	101.193403
3661.000000	101.177378
3660.000000	101.164503
3659.000000	101.154758
3658.000000	101.147463
3657.000000	101.141989
3656.000000	101.136052
3655.000000	101.125470
3654.000000	101.108383
3653.000000	101.088372
3652.000000	101.073285
3651.000000	101.069606
3650.000000	101.074849
3649.000000	101.077110
3648.000000	101.068303
3647.000000	101.051444
3646.000000	101.033340
3645.000000	101.018367
3644.000000	101.008474
3643.000000	101.003469
3642.000000	100.999802
3641.000000	100.992027
3640.000000	100.977682
3639.000000	100.960514
3638.000000	100.946413
3637.000000	100.937087
3636.000000	100.929667
3635.000000	100.921492
3634.000000	100.912722
3633.000000	100.904148
3632.000000	100.896248
3631.000000	100.891878
3630.000000	100.896581
3629.000000	100.909884
3628.000000	100.919375
3627.000000	100.914826
3626.000000	100.899928
3625.000000	100.884954
3624.000000	100.876599
3623.000000	100.875292
3622.000000	100.878386
3621.000000	100.883869
3620.000000	100.890864
3619.000000	100.898002
3618.000000	100.903761
3617.000000	100.908194
3616.000000	100.913128
3615.000000	100.921071
3614.000000	100.933420
3613.000000	100.948351
3612.000000	100.961238
3611.000000	100.968484
3610.000000	100.970658
3609.000000	100.971790
3608.000000	100.976036
3607.000000	100.984707
3606.000000	100.996346
3605.000000	101.008400
3604.000000	101.018479
3603.000000	101.025432
3602.000000	101.029595
3601.000000	101.031844
3600.000000	101.032322
3599.000000	101.031305
3598.000000	101.030890
3597.000000	101.034089
3596.000000	101.041314
3595.000000	101.049199
3594.000000	101.053791
3593.000000	101.054413
3592.000000	101.053694
3591.000000	101.054258
3590.000000	101.056447
3589.000000	101.059220
3588.000000	101.062134
3587.000000	101.065824
3586.000000	101.070472
3585.000000	101.074771
3584.000000	101.076906
3583.000000	101.076524
3582.000000	101.074703
3581.000000	101.072736
3580.000000	101.071121
3579.000000	101.069880
3578.000000	101.069613
3577.000000	101.071371
3576.000000	101.075420
3575.000000	101.080453
3574.000000	101.084476
3573.000000	101.085951
3572.000000	101.084232
3571.000000	101.079445
3570.000000	101.072786
3569.000000	101.066795
3568.000000	101.063821
3567.000000	101.063494
3566.000000	101.063117
3565.000000	101.061042
3564.000000	101.058082
3563.000000	101.055880
3562.000000	101.055207
3561.000000	101.055753
3560.000000	101.056925
3559.000000	101.058355
3558.000000	101.059813
3557.000000	101.061091
3556.000000	101.062193
3555.000000	101.063380
3554.000000	101.064745
3553.000000	101.065612
3552.000000	101.064627
3551.000000	101.061071
3550.000000	101.055958
3549.000000	101.051497
3548.000000	101.049202
3547.000000	101.048778
3546.000000	101.049010
3545.000000	101.049567
3544.000000	101.051302
3543.000000	101.054814
3542.000000	101.059465
3541.000000	101.063883
3540.000000	101.067107
3539.000000	101.069130
3538.000000	101.070333
3537.000000	101.070767
3536.000000	101.070284
3535.000000	101.069407
3534.000000	101.069402
3533.000000	101.071000
3532.000000	101.073295
3531.000000	101.074483
3530.000000	101.073857
3529.000000	101.072680
3528.000000	101.072811
3527.000000	101.074703
3526.000000	101.077236
3525.000000	101.079189
3524.000000	101.080377
3523.000000	101.081305
3522.000000	101.082271
3521.000000	101.083183
3520.000000	101.083999
3519.000000	101.085010
3518.000000	101.086601
3517.000000	101.088897
3516.000000	101.091653
3515.000000	101.094427
3514.000000	101.096783
3513.000000	101.098504
3512.000000	101.099766
3511.000000	101.101123
3510.000000	101.103109
3509.000000	101.105702
3508.000000	101.108205
3507.000000	101.109876
3506.000000	101.110630
3505.000000	101.111049
3504.000000	101.111820
3503.000000	101.113157
3502.000000	101.114863
3501.000000	101.116701
3500.000000	101.118549
3499.000000	101.120248
3498.000000	101.121508
3497.000000	101.122127
3496.000000	101.122328
3495.000000	101.122738
3494.000000	101.123910
3493.000000	101.125850
3492.000000	101.127961
3491.000000	101.129554
3490.000000	101.130460
3489.000000	101.131170
3488.000000	101.132323
3487.000000	101.134036
3486.000000	101.135792
3485.000000	101.136943
3484.000000	101.137232
3483.000000	101.136913
3482.000000	101.136521
3481.000000	101.136512
3480.000000	101.136972
3479.000000	101.137654
3478.000000	101.138305
3477.000000	101.138944
3476.000000	101.139749
3475.000000	101.140751
3474.000000	101.141760
3473.000000	101.142611
3472.000000	101.143338
3471.000000	101.144038
3470.000000	101.144703
3469.000000	101.145210
3468.000000	101.145370
3467.000000	101.144957
3466.000000	101.143894
3465.000000	101.142521
3464.000000	101.141511
3463.000000	101.141275
3462.000000	101.141536
3461.000000	101.141684
3460.000000	101.141433
3459.000000	101.140956
3458.000000	101.140454
3457.000000	101.139963
3456.000000	101.139624
3455.000000	101.139830
3454.000000	101.140859
3453.000000	101.142474
3452.000000	101.143953
3451.000000	101.144588
3450.000000	101.144199
3449.000000	101.143133
3448.000000	101.142041
3447.000000	101.141430
3446.000000	101.141342
3445.000000	101.141462
3444.000000	101.141446
3443.000000	101.141223
3442.000000	101.140993
3441.000000	101.140980
3440.000000	101.141226
3439.000000	101.141609
3438.000000	101.141984
3437.000000	101.142280
3436.000000	101.142477
3435.000000	101.142586
3434.000000	101.142650
3433.000000	101.142709
3432.000000	101.142751
3431.000000	101.142753
3430.000000	101.142773
3429.000000	101.142922
3428.000000	101.143199
3427.000000	101.143429
3426.000000	101.143428
3425.000000	101.143185
3424.000000	101.142858
3423.000000	101.142635
3422.000000	101.142642
3421.000000	101.142952
3420.000000	101.143565
3419.000000	101.144288
3418.000000	101.144781
3417.000000	101.144828
3416.000000	101.144504
3415.000000	101.144064
3414.000000	101.143681
3413.000000	101.143344
3412.000000	101.142986
3411.000000	101.142603
3410.000000	101.142258
3409.000000	101.142105
3408.000000	101.142380
3407.000000	101.143170
3406.000000	101.144205
3405.000000	101.145009
3404.000000	101.145368
3403.000000	101.145504
3402.000000	101.145717
3401.000000	101.145925
3400.000000	101.145751
3399.000000	101.145016
3398.000000	101.144058
3397.000000	101.143491
3396.000000	101.143644
3395.000000	101.144326
3394.000000	101.145049
3393.000000	101.145483
3392.000000	101.145710
3391.000000	101.146060
3390.000000	101.146717
3389.000000	101.147496
3388.000000	101.148021
3387.000000	101.148144
3386.000000	101.148090
3385.000000	101.148145
3384.000000	101.148258
3383.000000	101.148111
3382.000000	101.147588
3381.000000	101.147051
3380.000000	101.147087
3379.000000	101.147960
3378.000000	101.149260
3377.000000	101.150072
3376.000000	101.149669
3375.000000	101.148265
3374.000000	101.147050
3373.000000	101.147180
3372.000000	101.148700
3371.000000	101.150611
3370.000000	101.152011
3369.000000	101.152949
3368.000000	101.153907
3367.000000	101.154867
3366.000000	101.155397
3365.000000	101.155596
3364.000000	101.156408
3363.000000	101.158715
3362.000000	101.162341
3361.000000	101.166040
3360.000000	101.168495
3359.000000	101.169233
3358.000000	101.168695
3357.000000	101.167732
3356.000000	101.166953
3355.000000	101.166428
3354.000000	101.165976
3353.000000	101.165604
3352.000000	101.165581
3351.000000	101.166112
3350.000000	101.167089
3349.000000	101.168118
3348.000000	101.168715
3347.000000	101.168567
3346.000000	101.167803
3345.000000	101.167036
3344.000000	101.166889
3343.000000	101.167413
3342.000000	101.168196
3341.000000	101.169027
3340.000000	101.170095
3339.000000	101.171363
3338.000000	101.172176
3337.000000	101.171942
3336.000000	101.171015
3335.000000	101.170553
3334.000000	101.171357
3333.000000	101.173253
3332.000000	101.175467
3331.000000	101.177271
3330.000000	101.178152
3329.000000	101.177823
3328.000000	101.176540
3327.000000	101.175220
3326.000000	101.174760
3325.000000	101.175220
3324.000000	101.175920
3323.000000	101.176241
3322.000000	101.176190
3321.000000	101.176247
3320.000000	101.176853
3319.000000	101.178050
3318.000000	101.179502
3317.000000	101.180803
3316.000000	101.181712
3315.000000	101.182060
3314.000000	101.181548
3313.000000	101.179961
3312.000000	101.177600
3311.000000	101.175218
3310.000000	101.173377
3309.000000	101.172080
3308.000000	101.171203
3307.000000	101.171039
3306.000000	101.172085
3305.000000	101.174388
3304.000000	101.177313
3303.000000	101.179907
3302.000000	101.181460
3301.000000	101.181860
3300.000000	101.181627
3299.000000	101.181565
3298.000000	101.182210
3297.000000	101.183514
3296.000000	101.184989
3295.000000	101.185984
3294.000000	101.185886
3293.000000	101.184397
3292.000000	101.181884
3291.000000	101.179384
3290.000000	101.177924
3289.000000	101.177804
3288.000000	101.178598
3287.000000	101.179612
3286.000000	101.180225
3285.000000	101.179969
3284.000000	101.178608
3283.000000	101.176372
3282.000000	101.174039
3281.000000	101.172548
3280.000000	101.172414
3279.000000	101.173494
3278.000000	101.175192
3277.000000	101.176814
3276.000000	101.177865
3275.000000	101.178090
3274.000000	101.177456
3273.000000	101.176184
3272.000000	101.174715
3271.000000	101.173487
3270.000000	101.172700
3269.000000	101.172357
3268.000000	101.172464
3267.000000	101.173018
3266.000000	101.173783
3265.000000	101.174277
3264.000000	101.174137
3263.000000	101.173401
3262.000000	101.172394
3261.000000	101.171428
3260.000000	101.170722
3259.000000	101.170468
3258.000000	101.170686
3257.000000	101.171032
3256.000000	101.171009
3255.000000	101.170482
3254.000000	101.169766
3253.000000	101.169182
3252.000000	101.168751
3251.000000	101.168443
3250.000000	101.168442
3249.000000	101.168946
3248.000000	101.169841
3247.000000	101.170809
3246.000000	101.171680
3245.000000	101.172530
3244.000000	101.173456
3243.000000	101.174355
3242.000000	101.174890
3241.000000	101.174676
3240.000000	101.173720
3239.000000	101.172661
3238.000000	101.172280
3237.000000	101.172663
3236.000000	101.173072
3235.000000	101.172803
3234.000000	101.171977
3233.000000	101.171317
3232.000000	101.171295
3231.000000	101.171786
3230.000000	101.172437
3229.000000	101.173036
3228.000000	101.173482
3227.000000	101.173650
3226.000000	101.173510
3225.000000	101.173276
3224.000000	101.173276
3223.000000	101.173609
3222.000000	101.173994
3221.000000	101.174031
3220.000000	101.173621
3219.000000	101.173015
3218.000000	101.172517
3217.000000	101.172212
3216.000000	101.172024
3215.000000	101.171903
3214.000000	101.171845
3213.000000	101.171802
3212.000000	101.171698
3211.000000	101.171541
3210.000000	101.171414
3209.000000	101.171351
3208.000000	101.171306
3207.000000	101.171232
3206.000000	101.171122
3205.000000	101.170995
3204.000000	101.170861
3203.000000	101.170724
3202.000000	101.170588
3201.000000	101.170461
3200.000000	101.170346
3199.000000	101.170241
3198.000000	101.170141
3197.000000	101.170044
3196.000000	101.169952
3195.000000	101.169871
3194.000000	101.169804
3193.000000	101.169750
3192.000000	101.169705
3191.000000	101.169666
3190.000000	101.169630
3189.000000	101.169595
3188.000000	101.169555
3187.000000	101.169505
3186.000000	101.169444
3185.000000	101.169378
3184.000000	101.169315
3183.000000	101.169263
3182.000000	101.169223
3181.000000	101.169191
3180.000000	101.169165
3179.000000	101.169144
3178.000000	101.169128
3177.000000	101.169119
3176.000000	101.169118
3175.000000	101.169125
3174.000000	101.169142
3173.000000	101.169169
3172.000000	101.169202
3171.000000	101.169237
3170.000000	101.169275
3169.000000	101.169321
3168.000000	101.169383
3167.000000	101.169457
3166.000000	101.169532
3165.000000	101.169597
3164.000000	101.169642
3163.000000	101.169670
3162.000000	101.169693
3161.000000	101.169721
3160.000000	101.169760
3159.000000	101.169807
3158.000000	101.169860
3157.000000	101.169915
3156.000000	101.169971
3155.000000	101.170031
3154.000000	101.170109
3153.000000	101.170209
3152.000000	101.170318
3151.000000	101.170424
3150.000000	101.170536
3149.000000	101.170668
3148.000000	101.170790
3147.000000	101.170822
3146.000000	101.170722
3145.000000	101.170577
3144.000000	101.170576
3143.000000	101.170824
3142.000000	101.171265
3141.000000	101.171727
3140.000000	101.172125
3139.000000	101.172511
3138.000000	101.172953
3137.000000	101.173415
3136.000000	101.173803
3135.000000	101.174119
3134.000000	101.174453
3133.000000	101.174783
3132.000000	101.174916
3131.000000	101.174722
3130.000000	101.174366
3129.000000	101.174227
3128.000000	101.174543
3127.000000	101.175185
3126.000000	101.175794
3125.000000	101.176110
3124.000000	101.176157
3123.000000	101.176161
3122.000000	101.176332
3121.000000	101.176733
3120.000000	101.177291
3119.000000	101.177851
3118.000000	101.178215
3117.000000	101.178259
3116.000000	101.178145
3115.000000	101.178308
3114.000000	101.179084
3113.000000	101.180432
3112.000000	101.182103
3111.000000	101.183951
3110.000000	101.185795
3109.000000	101.187082
3108.000000	101.187115
3107.000000	101.185838
3106.000000	101.184245
3105.000000	101.183698
3104.000000	101.184724
3103.000000	101.186642
3102.000000	101.188316
3101.000000	101.189263
3100.000000	101.189947
3099.000000	101.191106
3098.000000	101.192887
3097.000000	101.194647
3096.000000	101.195515
3095.000000	101.195025
3094.000000	101.193204
3093.000000	101.190312
3092.000000	101.186882
3091.000000	101.183996
3090.000000	101.182948
3089.000000	101.184221
3088.000000	101.186882
3087.000000	101.189196
3086.000000	101.190215
3085.000000	101.190338
3084.000000	101.190423
3083.000000	101.190818
3082.000000	101.191388
3081.000000	101.192075
3080.000000	101.193032
3079.000000	101.194347
3078.000000	101.195928
3077.000000	101.197604
3076.000000	101.199092
3075.000000	101.199911
3074.000000	101.199677
3073.000000	101.198610
3072.000000	101.197601
3071.000000	101.197525
3070.000000	101.198505
3069.000000	101.199833
3068.000000	101.200540
3067.000000	101.200112
3066.000000	101.198822
3065.000000	101.197521
3064.000000	101.197058
3063.000000	101.197860
3062.000000	101.199997
3061.000000	101.203231
3060.000000	101.206902
3059.000000	101.210014
3058.000000	101.211851
3057.000000	101.212605
3056.000000	101.213041
3055.000000	101.213492
3054.000000	101.213599
3053.000000	101.213206
3052.000000	101.212939
3051.000000	101.213345
3050.000000	101.213883
3049.000000	101.213530
3048.000000	101.212377
3047.000000	101.211912
3046.000000	101.213403
3045.000000	101.216569
3044.000000	101.220087
3043.000000	101.222839
3042.000000	101.224368
3041.000000	101.224585
3040.000000	101.223645
3039.000000	101.222045
3038.000000	101.220427
3037.000000	101.219284
3036.000000	101.219125
3035.000000	101.220780
3034.000000	101.224995
3033.000000	101.231423
3032.000000	101.238327
3031.000000	101.243734
3030.000000	101.246997
3029.000000	101.249066
3028.000000	101.251211
3027.000000	101.253671
3026.000000	101.255678
3025.000000	101.256730
3024.000000	101.257596
3023.000000	101.259825
3022.000000	101.264258
3021.000000	101.269961
3020.000000	101.274602
3019.000000	101.276235
3018.000000	101.275201
3017.000000	101.274407
3016.000000	101.277162
3015.000000	101.284203
3014.000000	101.292968
3013.000000	101.300124
3012.000000	101.304593
3011.000000	101.307554
3010.000000	101.310025
3009.000000	101.311755
3008.000000	101.312859
3007.000000	101.315265
3006.000000	101.321277
3005.000000	101.330891
3004.000000	101.341460
3003.000000	101.350197
3002.000000	101.356400
3001.000000	101.361147
3000.000000	101.365746
2999.000000	101.371215
2998.000000	101.378654
2997.000000	101.388785
2996.000000	101.400643
2995.000000	101.411506
2994.000000	101.419219
2993.000000	101.424726
2992.000000	101.431503
2991.000000	101.441961
2990.000000	101.454835
2989.000000	101.466751
2988.000000	101.476037
2987.000000	101.484047
2986.000000	101.492853
2985.000000	101.502922
2984.000000	101.513878
2983.000000	101.526487
2982.000000	101.542188
2981.000000	101.560434
2980.000000	101.577610
2979.000000	101.589526
2978.000000	101.594853
2977.000000	101.595797
2976.000000	101.595473
2975.000000	101.594645
2974.000000	101.591105
2973.000000	101.582311
2972.000000	101.568617
2971.000000	101.553661
2970.000000	101.541259
2969.000000	101.531976
2968.000000	101.523141
2967.000000	101.512139
2966.000000	101.499120
2965.000000	101.486305
2964.000000	101.475202
2963.000000	101.465118
2962.000000	101.454420
2961.000000	101.442882
2960.000000	101.432524
2959.000000	101.426160
2958.000000	101.424987
2957.000000	101.427371
2956.000000	101.429811
2955.000000	101.429296
2954.000000	101.425218
2953.000000	101.419415
2952.000000	101.414454
2951.000000	101.411664
2950.000000	101.410732
2949.000000	101.411049
2948.000000	101.412876
2947.000000	101.416461
2946.000000	101.420246
2945.000000	101.421336
2944.000000	101.418716
2943.000000	101.415278
2942.000000	101.415176
2941.000000	101.419089
2940.000000	101.423216
2939.000000	101.423451
2938.000000	101.419763
2937.000000	101.415663
2936.000000	101.414072
2935.000000	101.414963
2934.000000	101.417060
2933.000000	101.420502
2932.000000	101.426755
2931.000000	101.436254
2930.000000	101.447149
2929.000000	101.456736
2928.000000	101.463516
2927.000000	101.467300
2926.000000	101.467990
2925.000000	101.465664
2924.000000	101.462166
2923.000000	101.461240
2922.000000	101.465638
2921.000000	101.474180
2920.000000	101.482476
2919.000000	101.486797
2918.000000	101.486823
2917.000000	101.484860
2916.000000	101.483346
2915.000000	101.483220
2914.000000	101.483912
2913.000000	101.484169
2912.000000	101.483067
2911.000000	101.480802
2910.000000	101.478656
2909.000000	101.478080
2908.000000	101.479719
2907.000000	101.483140
2906.000000	101.487137
2905.000000	101.490408
2904.000000	101.492478
2903.000000	101.494196
2902.000000	101.496851
2901.000000	101.500599
2900.000000	101.503985
2899.000000	101.505339
2898.000000	101.504384
2897.000000	101.502127
2896.000000	101.499680
2895.000000	101.497695
2894.000000	101.496593
2893.000000	101.496532
2892.000000	101.496976
2891.000000	101.496901
2890.000000	101.495751
2889.000000	101.493886
2888.000000	101.491981
2887.000000	101.490401
2886.000000	101.489425
2885.000000	101.489647
2884.000000	101.491471
2883.000000	101.494135
2882.000000	101.495690
2881.000000	101.494452
2880.000000	101.490478
2879.000000	101.485680
2878.000000	101.482181
2877.000000	101.480252
2876.000000	101.478240
2875.000000	101.474619
2874.000000	101.469800
2873.000000	101.465724
2872.000000	101.463877
2871.000000	101.464081
2870.000000	101.465036
2869.000000	101.465348
2868.000000	101.463980
2867.000000	101.460435
2866.000000	101.455147
2865.000000	101.449459
2864.000000	101.444701
2863.000000	101.441343
2862.000000	101.439163
2861.000000	101.437739
2860.000000	101.436406
2859.000000	101.434371
2858.000000	101.431604
2857.000000	101.429219
2856.000000	101.428160
2855.000000	101.427773
2854.000000	101.426536
2853.000000	101.424223
2852.000000	101.422302
2851.000000	101.421916
2850.000000	101.422387
2849.000000	101.422186
2848.000000	101.420696
2847.000000	101.418289
2846.000000	101.415273
2845.000000	101.411600
2844.000000	101.407376
2843.000000	101.402940
2842.000000	101.398579
2841.000000	101.394813
2840.000000	101.392669
2839.000000	101.392833
2838.000000	101.394497
2837.000000	101.395825
2836.000000	101.395872
2835.000000	101.395211
2834.000000	101.394586
2833.000000	101.393934
2832.000000	101.393035
2831.000000	101.392268
2830.000000	101.392110
2829.000000	101.392382
2828.000000	101.392604
2827.000000	101.392667
2826.000000	101.392528
2825.000000	101.391657
2824.000000	101.389576
2823.000000	101.386896
2822.000000	101.385106
2821.000000	101.385072
2820.000000	101.386208
2819.000000	101.387160
2818.000000	101.387152
2817.000000	101.386505
2816.000000	101.386070
2815.000000	101.386381
2814.000000	101.387257
2813.000000	101.388019
2812.000000	101.388127
2811.000000	101.387639
2810.000000	101.387063
2809.000000	101.386822
2808.000000	101.386935
2807.000000	101.387170
2806.000000	101.387311
2805.000000	101.387257
2804.000000	101.387037
2803.000000	101.386837
2802.000000	101.386919
2801.000000	101.387432
2800.000000	101.388324
2799.000000	101.389415
2798.000000	101.390489
2797.000000	101.391354
2796.000000	101.391906
2795.000000	101.392183
2794.000000	101.392369
2793.000000	101.392693
2792.000000	101.393205
2791.000000	101.393757
2790.000000	101.394196
2789.000000	101.394546
2788.000000	101.394969
2787.000000	101.395582
2786.000000	101.396367
2785.000000	101.397218
2784.000000	101.398044
2783.000000	101.398810
2782.000000	101.399517
2781.000000	101.400183
2780.000000	101.400834
2779.000000	101.401501
2778.000000	101.402197
2777.000000	101.402924
2776.000000	101.403681
2775.000000	101.404470
2774.000000	101.405278
2773.000000	101.406076
2772.000000	101.406840
2771.000000	101.407574
2770.000000	101.408301
2769.000000	101.409041
2768.000000	101.409802
2767.000000	101.410581
2766.000000	101.411362
2765.000000	101.412113
2764.000000	101.412811
2763.000000	101.413463
2762.000000	101.414110
2761.000000	101.414803
2760.000000	101.415552
2759.000000	101.416341
2758.000000	101.417138
2757.000000	101.417913
2756.000000	101.418638
2755.000000	101.419299
2754.000000	101.419893
2753.000000	101.420430
2752.000000	101.420937
2751.000000	101.421455
2750.000000	101.422021
2749.000000	101.422636
2748.000000	101.423276
2747.000000	101.423891
2746.000000	101.424447
2745.000000	101.424945
2744.000000	101.425409
2743.000000	101.425870
2742.000000	101.426347
2741.000000	101.426845
2740.000000	101.427358
2739.000000	101.427857
2738.000000	101.428302
2737.000000	101.428688
2736.000000	101.429054
2735.000000	101.429445
2734.000000	101.429855
2733.000000	101.430231
2732.000000	101.430534
2731.000000	101.430779
2730.000000	101.431016
2729.000000	101.431277
2728.000000	101.431553
2727.000000	101.431821
2726.000000	101.432069
2725.000000	101.432300
2724.000000	101.432528
2723.000000	101.432770
2722.000000	101.433048
2721.000000	101.433362
2720.000000	101.433686
2719.000000	101.433995
2718.000000	101.434304
2717.000000	101.434638
2716.000000	101.434981
2715.000000	101.435273
2714.000000	101.435482
2713.000000	101.435644
2712.000000	101.435834
2711.000000	101.436084
2710.000000	101.436348
2709.000000	101.436563
2708.000000	101.436710
2707.000000	101.436799
2706.000000	101.436833
2705.000000	101.436854
2704.000000	101.436999
2703.000000	101.437412
2702.000000	101.438089
2701.000000	101.438832
2700.000000	101.439379
2699.000000	101.439587
2698.000000	101.439473
2697.000000	101.439163
2696.000000	101.438842
2695.000000	101.438727
2694.000000	101.438973
2693.000000	101.439526
2692.000000	101.440072
2691.000000	101.440280
2690.000000	101.440109
2689.000000	101.439851
2688.000000	101.439863
2687.000000	101.440298
2686.000000	101.441078
2685.000000	101.442001
2684.000000	101.442810
2683.000000	101.443265
2682.000000	101.443311
2681.000000	101.443177
2680.000000	101.443184
2679.000000	101.443394
2678.000000	101.443521
2677.000000	101.443222
2676.000000	101.442398
2675.000000	101.441224
2674.000000	101.440050
2673.000000	101.439273
2672.000000	101.439159
2671.000000	101.439609
2670.000000	101.440126
2669.000000	101.440168
2668.000000	101.439620
2667.000000	101.438900
2666.000000	101.438626
2665.000000	101.439138
2664.000000	101.440331
2663.000000	101.441799
2662.000000	101.443111
2661.000000	101.444020
2660.000000	101.444497
2659.000000	101.444636
2658.000000	101.444491
2657.000000	101.444059
2656.000000	101.443519
2655.000000	101.443349
2654.000000	101.443982
2653.000000	101.445234
2652.000000	101.446246
2651.000000	101.446284
2650.000000	101.445591
2649.000000	101.445229
2648.000000	101.445973
2647.000000	101.447475
2646.000000	101.448544
2645.000000	101.448183
2644.000000	101.446324
2643.000000	101.443776
2642.000000	101.441604
2641.000000	101.440419
2640.000000	101.440220
2639.000000	101.440763
2638.000000	101.441955
2637.000000	101.443714
2636.000000	101.445527
2635.000000	101.446595
2634.000000	101.446685
2633.000000	101.446569
2632.000000	101.447303
2631.000000	101.449201
2630.000000	101.451728
2629.000000	101.454208
2628.000000	101.456290
2627.000000	101.457746
2626.000000	101.458243
2625.000000	101.457588
2624.000000	101.456020
2623.000000	101.454119
2622.000000	101.452535
2621.000000	101.451788
2620.000000	101.452038
2619.000000	101.452863
2618.000000	101.453441
2617.000000	101.453272
2616.000000	101.452661
2615.000000	101.452270
2614.000000	101.452265
2613.000000	101.452208
2612.000000	101.451860
2611.000000	101.451711
2610.000000	101.452427
2609.000000	101.453935
2608.000000	101.455407
2607.000000	101.456165
2606.000000	101.456335
2605.000000	101.456471
2604.000000	101.456852
2603.000000	101.457404
2602.000000	101.458145
2601.000000	101.459295
2600.000000	101.460852
2599.000000	101.462296
2598.000000	101.462912
2597.000000	101.462337
2596.000000	101.460723
2595.000000	101.458613
2594.000000	101.456789
2593.000000	101.455976
2592.000000	101.456414
2591.000000	101.457702
2590.000000	101.459059
2589.000000	101.459955
2588.000000	101.460392
2587.000000	101.460602
2586.000000	101.460687
2585.000000	101.460600
2584.000000	101.460335
2583.000000	101.459967
2582.000000	101.459572
2581.000000	101.459221
2580.000000	101.459013
2579.000000	101.459033
2578.000000	101.459219
2577.000000	101.459360
2576.000000	101.459278
2575.000000	101.459011
2574.000000	101.458794
2573.000000	101.458834
2572.000000	101.459141
2571.000000	101.459561
2570.000000	101.459953
2569.000000	101.460286
2568.000000	101.460577
2567.000000	101.460788
2566.000000	101.460834
2565.000000	101.460709
2564.000000	101.460558
2563.000000	101.460607
2562.000000	101.460960
2561.000000	101.461520
2560.000000	101.462063
2559.000000	101.462407
2558.000000	101.462554
2557.000000	101.462618
2556.000000	101.462693
2555.000000	101.462782
2554.000000	101.462869
2553.000000	101.462979
2552.000000	101.463158
2551.000000	101.463414
2550.000000	101.463708
2549.000000	101.463994
2548.000000	101.464254
2547.000000	101.464500
2546.000000	101.464747
2545.000000	101.465004
2544.000000	101.465275
2543.000000	101.465563
2542.000000	101.465871
2541.000000	101.466203
2540.000000	101.466559
2539.000000	101.466935
2538.000000	101.467320
2537.000000	101.467707
2536.000000	101.468095
2535.000000	101.468487
2534.000000	101.468883
2533.000000	101.469276
2532.000000	101.469656
2531.000000	101.470019
2530.000000	101.470364
2529.000000	101.470698
2528.000000	101.471029
2527.000000	101.471364
2526.000000	101.471702
2525.000000	101.472041
2524.000000	101.472373
2523.000000	101.472696
2522.000000	101.473013
2521.000000	101.473326
2520.000000	101.473639
2519.000000	101.473951
2518.000000	101.474260
2517.000000	101.474568
2516.000000	101.474879
2515.000000	101.475199
2514.000000	101.475531
2513.000000	101.475872
2512.000000	101.476222
2511.000000	101.476579
2510.000000	101.476941
2509.000000	101.477307
2508.000000	101.477674
2507.000000	101.478041
2506.000000	101.478408
2505.000000	101.478775
2504.000000	101.479139
2503.000000	101.479497
2502.000000	101.479848
2501.000000	101.480190
2500.000000	101.480526
2499.000000	101.480854
2498.000000	101.481174
2497.000000	101.481486
2496.000000	101.481792
2495.000000	101.482097
2494.000000	101.482401
2493.000000	101.482702
2492.000000	101.483000
2491.000000	101.483300
2490.000000	101.483612
2489.000000	101.483942
2488.000000	101.484289
2487.000000	101.484649
2486.000000	101.485015
2485.000000	101.485387
2484.000000	101.485764
2483.000000	101.486147
2482.000000	101.486538
2481.000000	101.486941
2480.000000	101.487358
2479.000000	101.487789
2478.000000	101.488239
2477.000000	101.488709
2476.000000	101.489181
2475.000000	101.489632
2474.000000	101.490046
2473.000000	101.490435
2472.000000	101.490831
2471.000000	101.491275
2470.000000	101.491811
2469.000000	101.492449
2468.000000	101.493111
2467.000000	101.493666
2466.000000	101.494020
2465.000000	101.494175
2464.000000	101.494193
2463.000000	101.494195
2462.000000	101.494339
2461.000000	101.494740
2460.000000	101.495367
2459.000000	101.496068
2458.000000	101.496736
2457.000000	101.497350
2456.000000	101.497882
2455.000000	101.498288
2454.000000	101.498615
2453.000000	101.499018
2452.000000	101.499605
2451.000000	101.500342
2450.000000	101.501168
2449.000000	101.502086
2448.000000	101.503043
2447.000000	101.503850
2446.000000	101.504343
2445.000000	101.504599
2444.000000	101.504859
2443.000000	101.505262
2442.000000	101.505744
2441.000000	101.506199
2440.000000	101.506621
2439.000000	101.507068
2438.000000	101.507545
2437.000000	101.507954
2436.000000	101.508168
2435.000000	101.508159
2434.000000	101.508090
2433.000000	101.508256
2432.000000	101.508850
2431.000000	101.509796
2430.000000	101.510855
2429.000000	101.511802
2428.000000	101.512579
2427.000000	101.513255
2426.000000	101.513909
2425.000000	101.514534
2424.000000	101.515062
2423.000000	101.515482
2422.000000	101.515904
2421.000000	101.516467
2420.000000	101.517200
2419.000000	101.517979
2418.000000	101.518666
2417.000000	101.519236
2416.000000	101.519756
2415.000000	101.520284
2414.000000	101.520823
2413.000000	101.521340
2412.000000	101.521828
2411.000000	101.522334
2410.000000	101.522937
2409.000000	101.523686
2408.000000	101.524538
2407.000000	101.525354
2406.000000	101.525994
2405.000000	101.526437
2404.000000	101.526774
2403.000000	101.527125
2402.000000	101.527544
2401.000000	101.528043
2400.000000	101.528630
2399.000000	101.529302
2398.000000	101.530025
2397.000000	101.530739
2396.000000	101.531399
2395.000000	101.532000
2394.000000	101.532561
2393.000000	101.533108
2392.000000	101.533665
2391.000000	101.534246
2390.000000	101.534842
2389.000000	101.535424
2388.000000	101.535955
2387.000000	101.536424
2386.000000	101.536851
2385.000000	101.537274
2384.000000	101.537720
2383.000000	101.538192
2382.000000	101.538683
2381.000000	101.539191
2380.000000	101.539721
2379.000000	101.540260
2378.000000	101.540790
2377.000000	101.541303
2376.000000	101.541799
2375.000000	101.542281
2374.000000	101.542756
2373.000000	101.543225
2372.000000	101.543690
2371.000000	101.544150
2370.000000	101.544604
2369.000000	101.545048
2368.000000	101.545470
2367.000000	101.545863
2366.000000	101.546226
2365.000000	101.546570
2364.000000	101.546911
2363.000000	101.547261
2362.000000	101.547624
2361.000000	101.547998
2360.000000	101.548374
2359.000000	101.548737
2358.000000	101.549076
2357.000000	101.549391
2356.000000	101.549690
2355.000000	101.549983
2354.000000	101.550275
2353.000000	101.550567
2352.000000	101.550857
2351.000000	101.551146
2350.000000	101.551433
2349.000000	101.551715
2348.000000	101.551992
2347.000000	101.552262
2346.000000	101.552526
2345.000000	101.552788
2344.000000	101.553044
2343.000000	101.553287
2342.000000	101.553510
2341.000000	101.553710
2340.000000	101.553884
2339.000000	101.554047
2338.000000	101.554217
2337.000000	101.554377
2336.000000	101.554475
2335.000000	101.554511
2334.000000	101.554564
2333.000000	101.554704
2332.000000	101.554855
2331.000000	101.554900
2330.000000	101.554871
2329.000000	101.554887
2328.000000	101.554944
2327.000000	101.554726
2326.000000	101.554099
2325.000000	101.553402
2324.000000	101.553154
2323.000000	101.553521
2322.000000	101.554223
2321.000000	101.555085
2320.000000	101.556039
2319.000000	101.557024
2318.000000	101.557834
2317.000000	101.558354
2316.000000	101.558364
2315.000000	101.557537
2314.000000	101.555989
2313.000000	101.554522
2312.000000	101.553943
2311.000000	101.554163
2310.000000	101.554466
2309.000000	101.554399
2308.000000	101.554079
2307.000000	101.553625
2306.000000	101.552900
2305.000000	101.551854
2304.000000	101.550682
2303.000000	101.549567
2302.000000	101.548562
2301.000000	101.547808
2300.000000	101.547512
2299.000000	101.547603
2298.000000	101.547715
2297.000000	101.547604
2296.000000	101.547365
2295.000000	101.547074
2294.000000	101.546565
2293.000000	101.545657
2292.000000	101.544484
2291.000000	101.543394
2290.000000	101.542676
2289.000000	101.542399
2288.000000	101.542383
2287.000000	101.542238
2286.000000	101.541650
2285.000000	101.540711
2284.000000	101.539875
2283.000000	101.539492
2282.000000	101.539446
2281.000000	101.539317
2280.000000	101.538778
2279.000000	101.537762
2278.000000	101.536373
2277.000000	101.534872
2276.000000	101.533596
2275.000000	101.532728
2274.000000	101.532169
2273.000000	101.531661
2272.000000	101.531045
2271.000000	101.530387
2270.000000	101.529851
2269.000000	101.529493
2268.000000	101.529191
2267.000000	101.528760
2266.000000	101.528125
2265.000000	101.527423
2264.000000	101.526894
2263.000000	101.526609
2262.000000	101.526364
2261.000000	101.525903
2260.000000	101.525207
2259.000000	101.524503
2258.000000	101.524026
2257.000000	101.523846
2256.000000	101.523833
2255.000000	101.523752
2254.000000	101.523462
2253.000000	101.523077
2252.000000	101.522838
2251.000000	101.522790
2250.000000	101.522720
2249.000000	101.522482
2248.000000	101.522149
2247.000000	101.521767
2246.000000	101.521221
2245.000000	101.520535
2244.000000	101.520100
2243.000000	101.520288
2242.000000	101.521012
2241.000000	101.521846
2240.000000	101.522439
2239.000000	101.522681
2238.000000	101.522631
2237.000000	101.522509
2236.000000	101.522643
2235.000000	101.523154
2234.000000	101.523786
2233.000000	101.524210
2232.000000	101.524359
2231.000000	101.524280
2230.000000	101.523876
2229.000000	101.523105
2228.000000	101.522328
2227.000000	101.522067
2226.000000	101.522444
2225.000000	101.523075
2224.000000	101.523476
2223.000000	101.523499
2222.000000	101.523278
2221.000000	101.523025
2220.000000	101.523007
2219.000000	101.523486
2218.000000	101.524483
2217.000000	101.525659
2216.000000	101.526583
2215.000000	101.527081
2214.000000	101.527229
2213.000000	101.527145
2212.000000	101.526883
2211.000000	101.526467
2210.000000	101.525976
2209.000000	101.525582
2208.000000	101.525458
2207.000000	101.525588
2206.000000	101.525738
2205.000000	101.525767
2204.000000	101.525868
2203.000000	101.526297
2202.000000	101.526988
2201.000000	101.527623
2200.000000	101.528017
2199.000000	101.528221
2198.000000	101.528265
2197.000000	101.528057
2196.000000	101.527614
2195.000000	101.527149
2194.000000	101.526891
2193.000000	101.526978
2192.000000	101.527483
2191.000000	101.528281
2190.000000	101.528937
2189.000000	101.528989
2188.000000	101.528433
2187.000000	101.527716
2186.000000	101.527222
2185.000000	101.526991
2184.000000	101.527005
2183.000000	101.527390
2182.000000	101.528195
2181.000000	101.529251
2180.000000	101.530341
2179.000000	101.531340
2178.000000	101.532117
2177.000000	101.532547
2176.000000	101.532697
2175.000000	101.532833
2174.000000	101.533110
2173.000000	101.533446
2172.000000	101.533772
2171.000000	101.534192
2170.000000	101.534794
2169.000000	101.535390
2168.000000	101.535633
2167.000000	101.535398
2166.000000	101.534977
2165.000000	101.534900
2164.000000	101.535500
2163.000000	101.536701
2162.000000	101.538103
2161.000000	101.539317
2160.000000	101.540212
2159.000000	101.540758
2158.000000	101.540840
2157.000000	101.540414
2156.000000	101.539755
2155.000000	101.539322
2154.000000	101.539339
2153.000000	101.539704
2152.000000	101.540225
2151.000000	101.540778
2150.000000	101.541232
2149.000000	101.541465
2148.000000	101.541555
2147.000000	101.541795
2146.000000	101.542361
2145.000000	101.543093
2144.000000	101.543693
2143.000000	101.544075
2142.000000	101.544382
2141.000000	101.544722
2140.000000	101.545014
2139.000000	101.545152
2138.000000	101.545192
2137.000000	101.545341
2136.000000	101.545744
2135.000000	101.546324
2134.000000	101.546807
2133.000000	101.546944
2132.000000	101.546706
2131.000000	101.546345
2130.000000	101.546235
2129.000000	101.546624
2128.000000	101.547529
2127.000000	101.548771
2126.000000	101.550037
2125.000000	101.551036
2124.000000	101.551679
2123.000000	101.552156
2122.000000	101.552713
2121.000000	101.553334
2120.000000	101.553742
2119.000000	101.553781
2118.000000	101.553664
2117.000000	101.553793
2116.000000	101.554327
2115.000000	101.555041
2114.000000	101.555651
2113.000000	101.556215
2112.000000	101.557050
2111.000000	101.558190
2110.000000	101.559202
2109.000000	101.559693
2108.000000	101.559767
2107.000000	101.559765
2106.000000	101.559708
2105.000000	101.559376
2104.000000	101.558934
2103.000000	101.559036
2102.000000	101.560116
2101.000000	101.561915
2100.000000	101.563714
2099.000000	101.564891
2098.000000	101.565268
2097.000000	101.565271
2096.000000	101.565759
2095.000000	101.567274
2094.000000	101.569406
2093.000000	101.571265
2092.000000	101.572617
2091.000000	101.573931
2090.000000	101.575264
2089.000000	101.575968
2088.000000	101.575824
2087.000000	101.575614
2086.000000	101.575996
2085.000000	101.576534
2084.000000	101.576591
2083.000000	101.576543
2082.000000	101.577250
2081.000000	101.578757
2080.000000	101.580316
2079.000000	101.581415
2078.000000	101.582043
2077.000000	101.582293
2076.000000	101.582392
2075.000000	101.582827
2074.000000	101.583793
2073.000000	101.584725
2072.000000	101.584945
2071.000000	101.584563
2070.000000	101.584225
2069.000000	101.584252
2068.000000	101.584589
2067.000000	101.585257
2066.000000	101.586148
2065.000000	101.586627
2064.000000	101.586115
2063.000000	101.584930
2062.000000	101.583905
2061.000000	101.583264
2060.000000	101.582555
2059.000000	101.581597
2058.000000	101.580731
2057.000000	101.580110
2056.000000	101.579470
2055.000000	101.578742
2054.000000	101.578287
2053.000000	101.578260
2052.000000	101.578264
2051.000000	101.577927
2050.000000	101.577448
2049.000000	101.577241
2048.000000	101.577289
2047.000000	101.577113
2046.000000	101.576239
2045.000000	101.574549
2044.000000	101.572351
2043.000000	101.570276
2042.000000	101.568903
2041.000000	101.568288
2040.000000	101.567884
2039.000000	101.567014
2038.000000	101.565504
2037.000000	101.563776
2036.000000	101.562402
2035.000000	101.561602
2034.000000	101.561158
2033.000000	101.560686
2032.000000	101.559949
2031.000000	101.558957
2030.000000	101.557843
2029.000000	101.556713
2028.000000	101.555592
2027.000000	101.554448
2026.000000	101.553234
2025.000000	101.551938
2024.000000	101.550636
2023.000000	101.549437
2022.000000	101.548328
2021.000000	101.547117
2020.000000	101.545598
2019.000000	101.543785
2018.000000	101.541947
2017.000000	101.540406
2016.000000	101.539308
2015.000000	101.538613
2014.000000	101.538157
2013.000000	101.537660
2012.000000	101.536796
2011.000000	101.535412
2010.000000	101.533704
2009.000000	101.532138
2008.000000	101.531022
2007.000000	101.530233
2006.000000	101.529366
2005.000000	101.528196
2004.000000	101.526910
2003.000000	101.525872
2002.000000	101.525231
2001.000000	101.524864
2000.000000	101.524610
1999.000000	101.524416
1998.000000	101.524252
1997.000000	101.523969
1996.000000	101.523362
1995.000000	101.522367
1994.000000	101.521161
1993.000000	101.520046
1992.000000	101.519264
1991.000000	101.518871
1990.000000	101.518703
1989.000000	101.518420
1988.000000	101.517704
1987.000000	101.516584
1986.000000	101.515567
1985.000000	101.515193
1984.000000	101.515404
1983.000000	101.515532
1982.000000	101.515023
1981.000000	101.514060
1980.000000	101.513286
1979.000000	101.513088
1978.000000	101.513434
1977.000000	101.514206
1976.000000	101.515283
1975.000000	101.516298
1974.000000	101.516679
1973.000000	101.516177
1972.000000	101.515207
1971.000000	101.514516
1970.000000	101.514440
1969.000000	101.514563
1968.000000	101.514171
1967.000000	101.513124
1966.000000	101.512061
1965.000000	101.511594
1964.000000	101.511559
1963.000000	101.511357
1962.000000	101.510826
1961.000000	101.510409
1960.000000	101.510429
1959.000000	101.510649
1958.000000	101.510755
1957.000000	101.510879
1956.000000	101.511325
1955.000000	101.512055
1954.000000	101.512794
1953.000000	101.513452
1952.000000	101.514081
1951.000000	101.514480
1950.000000	101.514108
1949.000000	101.512592
1948.000000	101.510104
1947.000000	101.507047
1946.000000	101.503714
1945.000000	101.500436
1944.000000	101.497777
1943.000000	101.496323
1942.000000	101.496229
1941.000000	101.497113
1940.000000	101.498399
1939.000000	101.499553
1938.000000	101.499997
1937.000000	101.499251
1936.000000	101.497344
1935.000000	101.494874
1934.000000	101.492537
1933.000000	101.490582
1932.000000	101.488825
1931.000000	101.486986
1930.000000	101.484870
1929.000000	101.482657
1928.000000	101.480926
1927.000000	101.480016
1926.000000	101.479396
1925.000000	101.478037
1924.000000	101.475800
1923.000000	101.473995
1922.000000	101.473900
1921.000000	101.474995
1920.000000	101.475283
1919.000000	101.473232
1918.000000	101.469178
1917.000000	101.465099
1916.000000	101.462313
1915.000000	101.460154
1914.000000	101.457420
1913.000000	101.454085
1912.000000	101.451296
1911.000000	101.449811
1910.000000	101.448834
1909.000000	101.446972
1908.000000	101.443788
1907.000000	101.439887
1906.000000	101.436019
1905.000000	101.432761
1904.000000	101.430848
1903.000000	101.430488
1902.000000	101.430399
1901.000000	101.428769
1900.000000	101.425036
1899.000000	101.420193
1898.000000	101.415570
1897.000000	101.411756
1896.000000	101.408776
1895.000000	101.406341
1894.000000	101.403656
1893.000000	101.400012
1892.000000	101.395662
1891.000000	101.391649
1890.000000	101.388943
1889.000000	101.387842
1888.000000	101.387702
1887.000000	101.387240
1886.000000	101.385656
1885.000000	101.383599
1884.000000	101.382552
1883.000000	101.382599
1882.000000	101.381578
1881.000000	101.377930
1880.000000	101.373392
1879.000000	101.371335
1878.000000	101.372791
1877.000000	101.375112
1876.000000	101.374959
1875.000000	101.371886
1874.000000	101.368143
1873.000000	101.366093
1872.000000	101.366406
1871.000000	101.367911
1870.000000	101.368336
1869.000000	101.366470
1868.000000	101.364294
1867.000000	101.364446
1866.000000	101.366899
1865.000000	101.370376
1864.000000	101.374620
1863.000000	101.379912
1862.000000	101.385288
1861.000000	101.388538
1860.000000	101.388576
1859.000000	101.386761
1858.000000	101.385353
1857.000000	101.385658
1856.000000	101.387892
1855.000000	101.391697
1854.000000	101.396309
1853.000000	101.400934
1852.000000	101.405076
1851.000000	101.408570
1850.000000	101.411798
1849.000000	101.415423
1848.000000	101.419852
1847.000000	101.424742
1846.000000	101.428960
1845.000000	101.430930
1844.000000	101.430065
1843.000000	101.427653
1842.000000	101.425127
1841.000000	101.423287
1840.000000	101.422731
1839.000000	101.423739
1838.000000	101.425862
1837.000000	101.427962
1836.000000	101.429285
1835.000000	101.430179
1834.000000	101.431713
1833.000000	101.434512
1832.000000	101.437589
1831.000000	101.438632
1830.000000	101.436300
1829.000000	101.431867
1828.000000	101.427828
1827.000000	101.425939
1826.000000	101.426587
1825.000000	101.428518
1824.000000	101.429902
1823.000000	101.430200
1822.000000	101.430082
1821.000000	101.429979
1820.000000	101.429677
1819.000000	101.429240
1818.000000	101.428882
1817.000000	101.427997
1816.000000	101.425899
1815.000000	101.423194
1814.000000	101.421563
1813.000000	101.422077
1812.000000	101.424203
1811.000000	101.426489
1810.000000	101.427405
1809.000000	101.426427
1808.000000	101.424875
1807.000000	101.424362
1806.000000	101.424720
1805.000000	101.424548
1804.000000	101.423420
1803.000000	101.422416
1802.000000	101.422626
1801.000000	101.423822
1800.000000	101.425008
1799.000000	101.425912
1798.000000	101.426723
1797.000000	101.427382
1796.000000	101.428000
1795.000000	101.429112
1794.000000	101.431280
1793.000000	101.434092
1792.000000	101.436303
1791.000000	101.437303
1790.000000	101.437149
1789.000000	101.436494
1788.000000	101.436585
1787.000000	101.438032
1786.000000	101.440088
1785.000000	101.441704
1784.000000	101.443011
1783.000000	101.444627
1782.000000	101.446571
1781.000000	101.448359
1780.000000	101.449436
1779.000000	101.449761
1778.000000	101.449706
1777.000000	101.449954
1776.000000	101.451245
1775.000000	101.453916
1774.000000	101.457998
1773.000000	101.462372
1772.000000	101.464693
1771.000000	101.464230
1770.000000	101.462724
1769.000000	101.462399
1768.000000	101.464763
1767.000000	101.469705
1766.000000	101.475327
1765.000000	101.479766
1764.000000	101.482682
1763.000000	101.484911
1762.000000	101.487516
1761.000000	101.490400
1760.000000	101.492243
1759.000000	101.492728
1758.000000	101.493012
1757.000000	101.494342
1756.000000	101.496260
1755.000000	101.497279
1754.000000	101.497225
1753.000000	101.497135
1752.000000	101.497195
1751.000000	101.496363
1750.000000	101.494338
1749.000000	101.492125
1748.000000	101.490673
1747.000000	101.490039
1746.000000	101.490250
1745.000000	101.491540
1744.000000	101.493772
1743.000000	101.496415
1742.000000	101.498414
1741.000000	101.498320
1740.000000	101.495763
1739.000000	101.492571
1738.000000	101.490678
1737.000000	101.489654
1736.000000	101.488920
1735.000000	101.488750
1734.000000	101.489710
1733.000000	101.491850
1732.000000	101.493159
1731.000000	101.492301
1730.000000	101.490129
1729.000000	101.488210
1728.000000	101.487157
1727.000000	101.486634
1726.000000	101.486343
1725.000000	101.485825
1724.000000	101.484558
1723.000000	101.482865
1722.000000	101.481269
1721.000000	101.479623
1720.000000	101.477448
1719.000000	101.474929
1718.000000	101.473031
1717.000000	101.472021
1716.000000	101.471212
1715.000000	101.470007
1714.000000	101.468154
1713.000000	101.465877
1712.000000	101.463661
1711.000000	101.461642
1710.000000	101.459666
1709.000000	101.457685
1708.000000	101.455770
1707.000000	101.453925
1706.000000	101.452012
1705.000000	101.449914
1704.000000	101.447836
1703.000000	101.445939
1702.000000	101.444250
1701.000000	101.442317
1700.000000	101.439887
1699.000000	101.437647
1698.000000	101.435825
1697.000000	101.434029
1696.000000	101.431983
1695.000000	101.429745
1694.000000	101.427513
1693.000000	101.425356
1692.000000	101.423382
1691.000000	101.421611
1690.000000	101.419815
1689.000000	101.417780
1688.000000	101.415601
1687.000000	101.413406
1686.000000	101.411181
1685.000000	101.407926
1684.000000	101.403352
1683.000000	101.399599
1682.000000	101.397350
1681.000000	101.395830
1680.000000	101.394559
1679.000000	101.393242
1678.000000	101.391738
1677.000000	101.390117
1676.000000	101.388296
1675.000000	101.386055
1674.000000	101.383825
1673.000000	101.382079
1672.000000	101.380634
1671.000000	101.378993
1670.000000	101.376615
1669.000000	101.374439
1668.000000	101.373837
1667.000000	101.374187
1666.000000	101.374125
1665.000000	101.372848
1664.000000	101.370345
1663.000000	101.367435
1662.000000	101.365070
1661.000000	101.363230
1660.000000	101.360431
1659.000000	101.355727
1658.000000	101.349293
1657.000000	101.342657
1656.000000	101.336731
1655.000000	101.333262
1654.000000	101.331861
1653.000000	101.331566
1652.000000	101.335030
1651.000000	101.340151
1650.000000	101.343520
1649.000000	101.343222
1648.000000	101.339583
1647.000000	101.335964
1646.000000	101.335906
1645.000000	101.336663
1644.000000	101.334590
1643.000000	101.330994
1642.000000	101.329131
1641.000000	101.330142
1640.000000	101.332085
1639.000000	101.332533
1638.000000	101.331227
1637.000000	101.329357
1636.000000	101.327405
1635.000000	101.325865
1634.000000	101.326025
1633.000000	101.327943
1632.000000	101.331057
1631.000000	101.334176
1630.000000	101.335477
1629.000000	101.334987
1628.000000	101.335210
1627.000000	101.338004
1626.000000	101.342435
1625.000000	101.347121
1624.000000	101.351865
1623.000000	101.356835
1622.000000	101.361391
1621.000000	101.364523
1620.000000	101.365440
1619.000000	101.364421
1618.000000	101.362878
1617.000000	101.363296
1616.000000	101.368479
1615.000000	101.377418
1614.000000	101.386373
1613.000000	101.393469
1612.000000	101.398560
1611.000000	101.401691
1610.000000	101.403734
1609.000000	101.406803
1608.000000	101.411726
1607.000000	101.416553
1606.000000	101.419904
1605.000000	101.423290
1604.000000	101.428276
1603.000000	101.434405
1602.000000	101.440519
1601.000000	101.445999
1600.000000	101.450237
1599.000000	101.452618
1598.000000	101.453813
1597.000000	101.455146
1596.000000	101.456513
1595.000000	101.456689
1594.000000	101.455938
1593.000000	101.456527
1592.000000	101.459583
1591.000000	101.463272
1590.000000	101.465414
1589.000000	101.466429
1588.000000	101.468010
1587.000000	101.470215
1586.000000	101.471877
1585.000000	101.473142
1584.000000	101.475222
1583.000000	101.478395
1582.000000	101.482079
1581.000000	101.485522
1580.000000	101.487515
1579.000000	101.486826
1578.000000	101.484110
1577.000000	101.482258
1576.000000	101.483284
1575.000000	101.485048
1574.000000	101.484725
1573.000000	101.482756
1572.000000	101.481065
1571.000000	101.481052
1570.000000	101.482679
1569.000000	101.485357
1568.000000	101.487512
1567.000000	101.487595
1566.000000	101.486517
1565.000000	101.486938
1564.000000	101.489249
1563.000000	101.491145
1562.000000	101.490478
1561.000000	101.488887
1560.000000	101.487801
1559.000000	101.485678
1558.000000	101.484305
1557.000000	101.484729
1556.000000	101.485202
1555.000000	101.484655
1554.000000	101.483842
1553.000000	101.482620
1552.000000	101.480619
1551.000000	101.477561
1550.000000	101.474780
1549.000000	101.473806
1548.000000	101.474876
1547.000000	101.476975
1546.000000	101.479306
1545.000000	101.481358
1544.000000	101.483199
1543.000000	101.484861
1542.000000	101.485454
1541.000000	101.482521
1540.000000	101.476518
1539.000000	101.472559
1538.000000	101.471678
1537.000000	101.470764
1536.000000	101.468067
1535.000000	101.463542
1534.000000	101.457760
1533.000000	101.452481
1532.000000	101.449235
1531.000000	101.448085
1530.000000	101.448195
1529.000000	101.448282
1528.000000	101.446977
1527.000000	101.444343
1526.000000	101.442545
1525.000000	101.443529
1524.000000	101.446852
1523.000000	101.450699
1522.000000	101.452869
1521.000000	101.453060
1520.000000	101.453693
1519.000000	101.455880
1518.000000	101.458579
1517.000000	101.459952
1516.000000	101.459027
1515.000000	101.456771
1514.000000	101.455028
1513.000000	101.454908
1512.000000	101.456040
1511.000000	101.457548
1510.000000	101.458884
1509.000000	101.460202
1508.000000	101.461992
1507.000000	101.465418
1506.000000	101.469826
1505.000000	101.472184
1504.000000	101.472418
1503.000000	101.472271
1502.000000	101.472652
1501.000000	101.473695
1500.000000	101.475397
1499.000000	101.477871
1498.000000	101.480897
1497.000000	101.482751
1496.000000	101.482287
1495.000000	101.481296
1494.000000	101.481897
1493.000000	101.483994
1492.000000	101.486146
1491.000000	101.486971
1490.000000	101.486661
1489.000000	101.486771
1488.000000	101.488321
1487.000000	101.491197
1486.000000	101.494172
1485.000000	101.496222
1484.000000	101.497375
1483.000000	101.498092
1482.000000	101.498929
1481.000000	101.500331
1480.000000	101.502860
1479.000000	101.506907
1478.000000	101.511730
1477.000000	101.515107
1476.000000	101.515757
1475.000000	101.515448
1474.000000	101.516975
1473.000000	101.520663
1472.000000	101.524270
1471.000000	101.526338
1470.000000	101.526663
1469.000000	101.525327
1468.000000	101.522891
1467.000000	101.520736
1466.000000	101.520158
1465.000000	101.520670
1464.000000	101.520431
1463.000000	101.519040
1462.000000	101.517700
1461.000000	101.517105
1460.000000	101.517072
1459.000000	101.517975
1458.000000	101.521713
1457.000000	101.528312
1456.000000	101.533191
1455.000000	101.533648
1454.000000	101.533030
1453.000000	101.534486
1452.000000	101.537731
1451.000000	101.539976
1450.000000	101.538650
1449.000000	101.532682
1448.000000	101.523552
1447.000000	101.514664
1446.000000	101.507601
1445.000000	101.500979
1444.000000	101.494029
1443.000000	101.489077
1442.000000	101.488112
1441.000000	101.489069
1440.000000	101.488178
1439.000000	101.485316
1438.000000	101.483986
1437.000000	101.485003
1436.000000	101.484663
1435.000000	101.481704
1434.000000	101.479695
1433.000000	101.481020
1432.000000	101.484152
1431.000000	101.486099
1430.000000	101.486929
1429.000000	101.489049
1428.000000	101.492555
1427.000000	101.495112
1426.000000	101.495734
1425.000000	101.495983
1424.000000	101.496796
1423.000000	101.497437
1422.000000	101.497324
1421.000000	101.497249
1420.000000	101.497764
1419.000000	101.499466
1418.000000	101.504064
1417.000000	101.509987
1416.000000	101.514177
1415.000000	101.516922
1414.000000	101.520150
1413.000000	101.524074
1412.000000	101.526949
1411.000000	101.528188
1410.000000	101.530070
1409.000000	101.534446
1408.000000	101.540298
1407.000000	101.545148
1406.000000	101.547612
1405.000000	101.548623
1404.000000	101.549699
1403.000000	101.551563
1402.000000	101.553939
1401.000000	101.555310
1400.000000	101.553872
1399.000000	101.550635
1398.000000	101.550097
1397.000000	101.554805
1396.000000	101.562302
1395.000000	101.567765
1394.000000	101.569122
1393.000000	101.568204
1392.000000	101.567077
1391.000000	101.567033
1390.000000	101.568995
1389.000000	101.572866
1388.000000	101.577424
1387.000000	101.581693
1386.000000	101.585756
1385.000000	101.589326
1384.000000	101.590835
1383.000000	101.589240
1382.000000	101.586195
1381.000000	101.585197
1380.000000	101.587906
1379.000000	101.591850
1378.000000	101.592985
1377.000000	101.589900
1376.000000	101.584568
1375.000000	101.579795
1374.000000	101.576867
1373.000000	101.574735
1372.000000	101.571486
1371.000000	101.566971
1370.000000	101.563149
1369.000000	101.562194
1368.000000	101.563973
1367.000000	101.566137
1366.000000	101.566951
1365.000000	101.566845
1364.000000	101.567361
1363.000000	101.569504
1362.000000	101.572662
1361.000000	101.575081
1360.000000	101.575563
1359.000000	101.574017
1358.000000	101.570984
1357.000000	101.567709
1356.000000	101.566101
1355.000000	101.567591
1354.000000	101.571557
1353.000000	101.575329
1352.000000	101.576859
1351.000000	101.576671
1350.000000	101.576676
1349.000000	101.577912
1348.000000	101.579422
1347.000000	101.579723
1346.000000	101.578670
1345.000000	101.577240
1344.000000	101.575918
1343.000000	101.574177
1342.000000	101.571601
1341.000000	101.568982
1340.000000	101.568021
1339.000000	101.569767
1338.000000	101.573661
1337.000000	101.578148
1336.000000	101.581788
1335.000000	101.583727
1334.000000	101.583824
1333.000000	101.582775
1332.000000	101.581827
1331.000000	101.582018
1330.000000	101.583598
1329.000000	101.586140
1328.000000	101.588907
1327.000000	101.590899
1326.000000	101.591059
1325.000000	101.589119
1324.000000	101.586081
1323.000000	101.583778
1322.000000	101.583571
1321.000000	101.585193
1320.000000	101.586916
1319.000000	101.586986
1318.000000	101.585025
1317.000000	101.582226
1316.000000	101.580487
1315.000000	101.581231
1314.000000	101.584429
1313.000000	101.588363
1312.000000	101.590812
1311.000000	101.590777
1310.000000	101.588893
1309.000000	101.586410
1308.000000	101.584385
1307.000000	101.583590
1306.000000	101.584338
1305.000000	101.586177
1304.000000	101.587973
1303.000000	101.588667
1302.000000	101.587774
1301.000000	101.585286
1300.000000	101.581857
1299.000000	101.579285
1298.000000	101.579807
1297.000000	101.583986
1296.000000	101.589547
1295.000000	101.593025
1294.000000	101.592641
1293.000000	101.589076
1292.000000	101.583920
1291.000000	101.578239
1290.000000	101.572846
1289.000000	101.569126
1288.000000	101.568474
1287.000000	101.570533
1286.000000	101.572591
1285.000000	101.571695
1284.000000	101.567521
1283.000000	101.562717
1282.000000	101.560156
1281.000000	101.560457
1280.000000	101.562649
1279.000000	101.566199
1278.000000	101.571166
1277.000000	101.576556
1276.000000	101.579886
1275.000000	101.579024
1274.000000	101.574279
1273.000000	101.568556
1272.000000	101.565359
1271.000000	101.566065
1270.000000	101.568659
1269.000000	101.569731
1268.000000	101.568124
1267.000000	101.565930
1266.000000	101.565427
1265.000000	101.566053
1264.000000	101.565669
1263.000000	101.563805
1262.000000	101.561764
1261.000000	101.560058
1260.000000	101.557887
1259.000000	101.555150
1258.000000	101.552987
1257.000000	101.551607
1256.000000	101.549279
1255.000000	101.544404
1254.000000	101.537627
1253.000000	101.531187
1252.000000	101.526721
1251.000000	101.523711
1250.000000	101.519269
1249.000000	101.509869
1248.000000	101.494754
1247.000000	101.477740
1246.000000	101.464131
1245.000000	101.455442
1244.000000	101.448623
1243.000000	101.440336
1242.000000	101.429756
1241.000000	101.416808
1240.000000	101.400320
1239.000000	101.379633
1238.000000	101.356610
1237.000000	101.334659
1236.000000	101.316758
1235.000000	101.304655
1234.000000	101.297690
1233.000000	101.291121
1232.000000	101.277900
1231.000000	101.254599
1230.000000	101.224879
1229.000000	101.195293
1228.000000	101.168185
1227.000000	101.140454
1226.000000	101.108356
1225.000000	101.071054
1224.000000	101.029419
1223.000000	100.983820
1222.000000	100.934344
1221.000000	100.881825
1220.000000	100.827120
1219.000000	100.769684
1218.000000	100.708058
1217.000000	100.641898
1216.000000	100.572545
1215.000000	100.501108
1214.000000	100.426982
1213.000000	100.349258
1212.000000	100.268791
1211.000000	100.187488
1210.000000	100.106180
1209.000000	100.025073
1208.000000	99.945538
1207.000000	99.868509
1206.000000	99.791234
1205.000000	99.709273
1204.000000	99.622744
1203.000000	99.537546
1202.000000	99.459362
1201.000000	99.389175
1200.000000	99.325178
1199.000000	99.265052
1198.000000	99.204893
1197.000000	99.140053
1196.000000	99.069831
1195.000000	98.998596
1194.000000	98.929901
1193.000000	98.861915
1192.000000	98.790770
1191.000000	98.715900
1190.000000	98.639853
1189.000000	98.564946
1188.000000	98.492104
1187.000000	98.420903
1186.000000	98.348944
1185.000000	98.273177
1184.000000	98.193329
1183.000000	98.112022
1182.000000	98.030710
1181.000000	97.948123
1180.000000	97.863389
1179.000000	97.777188
1178.000000	97.688754
1177.000000	97.595812
1176.000000	97.499176
1175.000000	97.403215
1174.000000	97.309407
1173.000000	97.213476
1172.000000	97.111544
1171.000000	97.005277
1170.000000	96.898228
1169.000000	96.791188
1168.000000	96.684750
1167.000000	96.583675
1166.000000	96.495830
1165.000000	96.429285
1164.000000	96.391794
1163.000000	96.388618
1162.000000	96.417512
1161.000000	96.468097
1160.000000	96.526994
1159.000000	96.580767
1158.000000	96.615376
1157.000000	96.619602
1156.000000	96.591496
1155.000000	96.538146
1154.000000	96.468082
1153.000000	96.387193
1152.000000	96.301935
1151.000000	96.219904
1150.000000	96.143785
1149.000000	96.069270
1148.000000	95.991760
1147.000000	95.910999
1146.000000	95.827556
1145.000000	95.740545
1144.000000	95.651826
1143.000000	95.567089
1142.000000	95.488973
1141.000000	95.413293
1140.000000	95.335077
1139.000000	95.253998
1138.000000	95.171387
1137.000000	95.086617
1136.000000	94.999314
1135.000000	94.910737
1134.000000	94.820524
1133.000000	94.726533
1132.000000	94.629879
1131.000000	94.535121
1130.000000	94.443507
1129.000000	94.351292
1128.000000	94.256370
1127.000000	94.160666
1126.000000	94.064551
1125.000000	93.965921
1124.000000	93.866879
1123.000000	93.773709
1122.000000	93.687038
1121.000000	93.599208
1120.000000	93.504606
1119.000000	93.405501
1118.000000	93.305016
1117.000000	93.202747
1116.000000	93.100791
1115.000000	93.005223
1114.000000	92.916844
1113.000000	92.828827
1112.000000	92.738335
1111.000000	92.651753
1110.000000	92.573648
1109.000000	92.499405
1108.000000	92.423928
1107.000000	92.349825
1106.000000	92.281465
1105.000000	92.217907
1104.000000	92.156639
1103.000000	92.097810
1102.000000	92.040788
1101.000000	91.983058
1100.000000	91.925977
1099.000000	91.874747
1098.000000	91.828767
1097.000000	91.779910
1096.000000	91.723226
1095.000000	91.662766
1094.000000	91.604315
1093.000000	91.549522
1092.000000	91.499011
1091.000000	91.453227
1090.000000	91.408110
1089.000000	91.358062
1088.000000	91.305318
1087.000000	91.258576
1086.000000	91.220876
1085.000000	91.186770
1084.000000	91.152069
1083.000000	91.117427
1082.000000	91.081968
1081.000000	91.043283
1080.000000	91.004358
1079.000000	90.970263
1078.000000	90.937434
1077.000000	90.897314
1076.000000	90.851137
1075.000000	90.808361
1074.000000	90.768134
1073.000000	90.714800
1072.000000	90.635383
1071.000000	90.530785
1070.000000	90.407419
1069.000000	90.268461
1068.000000	90.116253
1067.000000	89.952970
1066.000000	89.776249
1065.000000	89.584951
1064.000000	89.391377
1063.000000	89.215658
1062.000000	89.064805
1061.000000	88.929477
1060.000000	88.803491
1059.000000	88.691864
1058.000000	88.596022
1057.000000	88.506326
1056.000000	88.415003
1055.000000	88.322649
1054.000000	88.225865
1053.000000	88.111716
1052.000000	87.971901
1051.000000	87.810792
1050.000000	87.633066
1049.000000	87.436625
1048.000000	87.224399
1047.000000	87.007978
1046.000000	86.791874
1045.000000	86.567713
1044.000000	86.330087
1043.000000	86.086076
1042.000000	85.844503
1041.000000	85.607727
1040.000000	85.378421
1039.000000	85.161856
1038.000000	84.956938
1037.000000	84.757650
1036.000000	84.567047
1035.000000	84.396166
1034.000000	84.246027
1033.000000	84.106009
1032.000000	83.973754
1031.000000	83.860312
1030.000000	83.770347
1029.000000	83.693205
1028.000000	83.619304
1027.000000	83.550394
1026.000000	83.487879
1025.000000	83.426068
1024.000000	83.363111
1023.000000	83.304707
1022.000000	83.251663
1021.000000	83.197278
1020.000000	83.141356
1019.000000	83.092785
1018.000000	83.053811
1017.000000	83.015236
1016.000000	82.970767
1015.000000	82.922914
1014.000000	82.872482
1013.000000	82.816802
1012.000000	82.760943
1011.000000	82.715834
1010.000000	82.682169
1009.000000	82.649981
1008.000000	82.615816
1007.000000	82.585762
1006.000000	82.560618
1005.000000	82.534276
1004.000000	82.508419
1003.000000	82.492577
1002.000000	82.487909
1001.000000	82.487082
1000.000000	82.491017
999.000000	82.507942
998.000000	82.534321
997.000000	82.555541
996.000000	82.568562
995.000000	82.585438
994.000000	82.610989
993.000000	82.636292
992.000000	82.659194
991.000000	82.692448
990.000000	82.744511
989.000000	82.808968
988.000000	82.879459
987.000000	82.959638
986.000000	83.052026
985.000000	83.151840
984.000000	83.258149
983.000000	83.377875
982.000000	83.513502
981.000000	83.659450
980.000000	83.814661
979.000000	83.986022
978.000000	84.175616
977.000000	84.376610
976.000000	84.584248
975.000000	84.799144
974.000000	85.018723
973.000000	85.238548
972.000000	85.463256
971.000000	85.702652
970.000000	85.955218
969.000000	86.208127
968.000000	86.454540
967.000000	86.697992
966.000000	86.939272
965.000000	87.173111
964.000000	87.399729
963.000000	87.626224
962.000000	87.853604
961.000000	88.073972
960.000000	88.282611
959.000000	88.481939
958.000000	88.672686
957.000000	88.852577
956.000000	89.024827
955.000000	89.196477
954.000000	89.366692
953.000000	89.527387
952.000000	89.676273
951.000000	89.818672
950.000000	89.956411
949.000000	90.086068
948.000000	90.208468
947.000000	90.328350
946.000000	90.444062
945.000000	90.549115
944.000000	90.644674
943.000000	90.739065
942.000000	90.834236
941.000000	90.924358
940.000000	91.008572
939.000000	91.093041
938.000000	91.179426
937.000000	91.263408
936.000000	91.345824
935.000000	91.432869
934.000000	91.523880
933.000000	91.611599
932.000000	91.696290
931.000000	91.786642
930.000000	91.884313
929.000000	91.980438
928.000000	92.070288
927.000000	92.158729
926.000000	92.248038
925.000000	92.333114
924.000000	92.412846
923.000000	92.493994
922.000000	92.578861
921.000000	92.660034
920.000000	92.732040
919.000000	92.798261
918.000000	92.862477
917.000000	92.923816
916.000000	92.984078
915.000000	93.050079
914.000000	93.124756
913.000000	93.205557
912.000000	93.294875
911.000000	93.401489
910.000000	93.527674
909.000000	93.665016
908.000000	93.807128
907.000000	93.957018
906.000000	94.118514
905.000000	94.290676
904.000000	94.473771
903.000000	94.669844
902.000000	94.873650
901.000000	95.073751
900.000000	95.266882
899.000000	95.460852
898.000000	95.658774
897.000000	95.851184
896.000000	96.029511
895.000000	96.198157
894.000000	96.366695
893.000000	96.537405
892.000000	96.706447
891.000000	96.870568
890.000000	97.026562
889.000000	97.169887
888.000000	97.300125
887.000000	97.424501
886.000000	97.551676
885.000000	97.684562
884.000000	97.820639
883.000000	97.954044
882.000000	98.075725
881.000000	98.178581
880.000000	98.266103
879.000000	98.350362
878.000000	98.438482
877.000000	98.527854
876.000000	98.617952
875.000000	98.717654
874.000000	98.833907
873.000000	98.959656
872.000000	99.080173
871.000000	99.187085
870.000000	99.281536
869.000000	99.369184
868.000000	99.458100
867.000000	99.556933
866.000000	99.667278
865.000000	99.778936
864.000000	99.878334
863.000000	99.961751
862.000000	100.037358
861.000000	100.115371
860.000000	100.199515
859.000000	100.287405
858.000000	100.375136
857.000000	100.459978
856.000000	100.540158
855.000000	100.613268
854.000000	100.675564
853.000000	100.723910
852.000000	100.758940
851.000000	100.785705
850.000000	100.810439
849.000000	100.836239
848.000000	100.861165
847.000000	100.880018
846.000000	100.889137
845.000000	100.890566
844.000000	100.890012
843.000000	100.889225
842.000000	100.882335
841.000000	100.861740
840.000000	100.824920
839.000000	100.772894
838.000000	100.706401
837.000000	100.629483
836.000000	100.554185
835.000000	100.493903
834.000000	100.451164
833.000000	100.417886
832.000000	100.388151
831.000000	100.364434
830.000000	100.350868
829.000000	100.347730
828.000000	100.354155
827.000000	100.368847
826.000000	100.385927
825.000000	100.397632
824.000000	100.403304
823.000000	100.408385
822.000000	100.414384
821.000000	100.418665
820.000000	100.422415
819.000000	100.426555
818.000000	100.419764
817.000000	100.383585
816.000000	100.312812
815.000000	100.219835
814.000000	100.112962
813.000000	99.979576
812.000000	99.797838
811.000000	99.556175
810.000000	99.252675
809.000000	98.884047
808.000000	98.448540
807.000000	97.957409
806.000000	97.432664
805.000000	96.894445
804.000000	96.359048
803.000000	95.846387
802.000000	95.380017
801.000000	94.981482
800.000000	94.669856
799.000000	94.460054
798.000000	94.353954
797.000000	94.338194
796.000000	94.394844
795.000000	94.507243
794.000000	94.653860
793.000000	94.808524
792.000000	94.953359
791.000000	95.083696
790.000000	95.195518
789.000000	95.275502
788.000000	95.308100
787.000000	95.285704
786.000000	95.207483
785.000000	95.075408
784.000000	94.898278
783.000000	94.695809
782.000000	94.492980
781.000000	94.312373
780.000000	94.173958
779.000000	94.095853
778.000000	94.090177
777.000000	94.160992
776.000000	94.305883
775.000000	94.512724
774.000000	94.755929
773.000000	95.005709
772.000000	95.242863
771.000000	95.458922
770.000000	95.645750
769.000000	95.795824
768.000000	95.911799
767.000000	96.004768
766.000000	96.081905
765.000000	96.144969
764.000000	96.200492
763.000000	96.259230
762.000000	96.323160
761.000000	96.384929
760.000000	96.443704
759.000000	96.510034
758.000000	96.590733
757.000000	96.680436
756.000000	96.773228
755.000000	96.870974
754.000000	96.973136
753.000000	97.068901
752.000000	97.148584
751.000000	97.216542
750.000000	97.285883
749.000000	97.365548
748.000000	97.457412
747.000000	97.559545
746.000000	97.666507
745.000000	97.771905
744.000000	97.875725
743.000000	97.984384
742.000000	98.100654
741.000000	98.220356
740.000000	98.341592
739.000000	98.468321
738.000000	98.600448
737.000000	98.729480
736.000000	98.849855
735.000000	98.965715
734.000000	99.079594
733.000000	99.182884
732.000000	99.265507
731.000000	99.328064
730.000000	99.376490
729.000000	99.411385
728.000000	99.432170
727.000000	99.447715
726.000000	99.472412
725.000000	99.511624
724.000000	99.558804
723.000000	99.607191
722.000000	99.658220
721.000000	99.717972
720.000000	99.789679
719.000000	99.870303
718.000000	99.952188
717.000000	100.028359
716.000000	100.097521
715.000000	100.162551
714.000000	100.223861
713.000000	100.277642
712.000000	100.321266
711.000000	100.355463
710.000000	100.379107
709.000000	100.387820
708.000000	100.381671
707.000000	100.368272
706.000000	100.353498
705.000000	100.332634
704.000000	100.294436
703.000000	100.229006
702.000000	100.126030
701.000000	99.971399
700.000000	99.755200
699.000000	99.483564
698.000000	99.181570
697.000000	98.888030
696.000000	98.648317
695.000000	98.502159
694.000000	98.466651
693.000000	98.530572
692.000000	98.666064
691.000000	98.842352
690.000000	99.030464
689.000000	99.204857
688.000000	99.350078
687.000000	99.464322
686.000000	99.550695
685.000000	99.610479
684.000000	99.650059
683.000000	99.685315
682.000000	99.730487
681.000000	99.786521
680.000000	99.845691
679.000000	99.901886
678.000000	99.950864
677.000000	99.989331
676.000000	100.020715
675.000000	100.054815
674.000000	100.097370
673.000000	100.141722
672.000000	100.175739
671.000000	100.198344
670.000000	100.224987
669.000000	100.282786
668.000000	100.384820
667.000000	100.486180
666.000000	100.540731
665.000000	100.567197
664.000000	100.593062
663.000000	100.627549
662.000000	100.664951
661.000000	100.695555
660.000000	100.713905
659.000000	100.718112
658.000000	100.708882
657.000000	100.693122
656.000000	100.680566
655.000000	100.671192
654.000000	100.653583
653.000000	100.618540
652.000000	100.570314
651.000000	100.522998
650.000000	100.488653
