4000.000000	100.566286
3999.000000	100.564788
3998.000000	100.563895
3997.000000	100.563874
3996.000000	100.564654
3995.000000	100.565711
3994.000000	100.566352
3993.000000	100.566128
3992.000000	100.565017
3991.000000	100.563397
3990.000000	100.561842
3989.000000	100.560755
3988.000000	100.560271
3987.000000	100.560380
3986.000000	100.561005
3985.000000	100.561922
3984.000000	100.562604
3983.000000	100.562401
3982.000000	100.560970
3981.000000	100.558561
3980.000000	100.555911
3979.000000	100.553745
3978.000000	100.552326
3977.000000	100.551443
3976.000000	100.550797
3975.000000	100.550424
3974.000000	100.550656
3973.000000	100.551550
3972.000000	100.552386
3971.000000	100.552031
3970.000000	100.550023
3969.000000	100.547335
3968.000000	100.545764
3967.000000	100.546379
3966.000000	100.548689
3965.000000	100.551089
3964.000000	100.552316
3963.000000	100.552432
3962.000000	100.552408
3961.000000	100.552855
3960.000000	100.553278
3959.000000	100.552643
3958.000000	100.550468
3957.000000	100.547251
3956.000000	100.543934
3955.000000	100.541088
3954.000000	100.538716
3953.000000	100.536693
3952.000000	100.535186
3951.000000	100.534472
3950.000000	100.534439
3949.000000	100.534511
3948.000000	100.534274
3947.000000	100.534068
3946.000000	100.534696
3945.000000	100.536553
3944.000000	100.539035
3943.000000	100.540900
3942.000000	100.541290
3941.000000	100.540347
3940.000000	100.538871
3939.000000	100.537532
3938.000000	100.536361
3937.000000	100.534958
3936.000000	100.533031
3935.000000	100.530714
3934.000000	100.528476
3933.000000	100.526828
3932.000000	100.526159
3931.000000	100.526613
3930.000000	100.527947
3929.000000	100.529499
3928.000000	100.530421
3927.000000	100.530176
3926.000000	100.528860
3925.000000	100.527098
3924.000000	100.525590
3923.000000	100.524671
3922.000000	100.524354
3921.000000	100.524500
3920.000000	100.524800
3919.000000	100.524862
3918.000000	100.524508
3917.000000	100.523907
3916.000000	100.523361
3915.000000	100.523023
3914.000000	100.522870
3913.000000	100.522868
3912.000000	100.523012
3911.000000	100.523251
3910.000000	100.523455
3909.000000	100.523493
3908.000000	100.523315
3907.000000	100.522965
3906.000000	100.522545
3905.000000	100.522173
3904.000000	100.521932
3903.000000	100.521821
3902.000000	100.521777
3901.000000	100.521730
3900.000000	100.521657
3899.000000	100.521570
3898.000000	100.521470
3897.000000	100.521345
3896.000000	100.521185
3895.000000	100.521004
3894.000000	100.520834
3893.000000	100.520730
3892.000000	100.520727
3891.000000	100.520801
3890.000000	100.520879
3889.000000	100.520899
3888.000000	100.520854
3887.000000	100.520770
3886.000000	100.520694
3885.000000	100.520659
3884.000000	100.520645
3883.000000	100.520609
3882.000000	100.520535
3881.000000	100.520442
3880.000000	100.520356
3879.000000	100.520283
3878.000000	100.520202
3877.000000	100.520097
3876.000000	100.519965
3875.000000	100.519806
3874.000000	100.519621
3873.000000	100.519404
3872.000000	100.519148
3871.000000	100.518871
3870.000000	100.518611
3869.000000	100.518383
3868.000000	100.518174
3867.000000	100.517968
3866.000000	100.517766
3865.000000	100.517568
3864.000000	100.517362
3863.000000	100.517129
3862.000000	100.516860
3861.000000	100.516559
3860.000000	100.516239
3859.000000	100.515913
3858.000000	100.515596
3857.000000	100.515295
3856.000000	100.515011
3855.000000	100.514739
3854.000000	100.514474
3853.000000	100.514213
3852.000000	100.513938
3851.000000	100.513630
3850.000000	100.513280
3849.000000	100.512895
3848.000000	100.512499
3847.000000	100.512117
3846.000000	100.511768
3845.000000	100.511458
3844.000000	100.511181
3843.000000	100.510926
3842.000000	100.510670
3841.000000	100.510392
3840.000000	100.510080
3839.000000	100.509744
3838.000000	100.509411
3837.000000	100.509088
3836.000000	100.508741
3835.000000	100.508336
3834.000000	100.507872
3833.000000	100.507375
3832.000000	100.506893
3831.000000	100.506478
3830.000000	100.506153
3829.000000	100.505868
3828.000000	100.505521
3827.000000	100.505044
3826.000000	100.504481
3825.000000	100.503949
3824.000000	100.503495
3823.000000	100.503034
3822.000000	100.502443
3821.000000	100.501831
3820.000000	100.501438
3819.000000	100.501237
3818.000000	100.501089
3817.000000	100.500992
3816.000000	100.500999
3815.000000	100.500938
3814.000000	100.500358
3813.000000	100.499045
3812.000000	100.497348
3811.000000	100.495849
3810.000000	100.494900
3809.000000	100.494548
3808.000000	100.494758
3807.000000	100.495581
3806.000000	100.496852
3805.000000	100.497852
3804.000000	100.497819
3803.000000	100.496453
3802.000000	100.494179
3801.000000	100.492095
3800.000000	100.490416
3799.000000	100.488367
3798.000000	100.485969
3797.000000	100.484310
3796.000000	100.484388
3795.000000	100.486066
3794.000000	100.488092
3793.000000	100.489172
3792.000000	100.488782
3791.000000	100.487127
3790.000000	100.484962
3789.000000	100.483181
3788.000000	100.482203
3787.000000	100.481676
3786.000000	100.480931
3785.000000	100.479750
3784.000000	100.478443
3783.000000	100.477020
3782.000000	100.474821
3781.000000	100.471392
3780.000000	100.467635
3779.000000	100.465509
3778.000000	100.465784
3777.000000	100.467072
3776.000000	100.467715
3775.000000	100.467825
3774.000000	100.468754
3773.000000	100.471141
3772.000000	100.473933
3771.000000	100.475669
3770.000000	100.476625
3769.000000	100.478513
3768.000000	100.481624
3767.000000	100.484155
3766.000000	100.484225
3765.000000	100.481654
3764.000000	100.477627
3763.000000	100.473226
3762.000000	100.469031
3761.000000	100.465516
3760.000000	100.463013
3759.000000	100.461442
3758.000000	100.460119
3757.000000	100.458229
3756.000000	100.455370
3755.000000	100.452110
3754.000000	100.450018
3753.000000	100.450636
3752.000000	100.453701
3751.000000	100.457435
3750.000000	100.461165
3749.000000	100.465415
3748.000000	100.470176
3747.000000	100.474382
3746.000000	100.476032
3745.000000	100.474884
3744.000000	100.473958
3743.000000	100.472493
3742.000000	100.466842
3741.000000	100.459068
3740.000000	100.454326
3739.000000	100.454555
3738.000000	100.456954
3737.000000	100.457444
3736.000000	100.454720
3735.000000	100.450505
3734.000000	100.446289
3733.000000	100.442079
3732.000000	100.438147
3731.000000	100.434723
3730.000000	100.431252
3729.000000	100.427397
3728.000000	100.423628
3727.000000	100.420577
3726.000000	100.418223
3725.000000	100.415783
3724.000000	100.412870
3723.000000	100.409995
3722.000000	100.407413
3721.000000	100.404125
3720.000000	100.399093
3719.000000	100.393064
3718.000000	100.388292
3717.000000	100.386685
3716.000000	100.387948
3715.000000	100.389647
3714.000000	100.388510
3713.000000	100.381930
3712.000000	100.370371
3711.000000	100.357775
3710.000000	100.347026
3709.000000	100.337333
3708.000000	100.327402
3707.000000	100.318405
3706.000000	100.312467
3705.000000	100.309710
3704.000000	100.307612
3703.000000	100.303631
3702.000000	100.298463
3701.000000	100.294761
3700.000000	100.292246
3699.000000	100.287464
3698.000000	100.278566
3697.000000	100.267917
3696.000000	100.259508
3695.000000	100.254615
3694.000000	100.251113
3693.000000	100.246082
3692.000000	100.238199
3691.000000	100.228455
3690.000000	100.219965
3689.000000	100.215887
3688.000000	100.214897
3687.000000	100.211230
3686.000000	100.201477
3685.000000	100.187997
3684.000000	100.175900
3683.000000	100.168470
3682.000000	100.164862
3681.000000	100.161618
3680.000000	100.155733
3679.000000	100.145737
3678.000000	100.130968
3677.000000	100.112173
3676.000000	100.094565
3675.000000	100.084693
3674.000000	100.079501
3673.000000	100.070650
3672.000000	100.056649
3671.000000	100.040602
3670.000000	100.024847
3669.000000	100.008670
3668.000000	99.988548
3667.000000	99.963603
3666.000000	99.937668
3665.000000	99.915137
3664.000000	99.897772
3663.000000	99.884662
3662.000000	99.873875
3661.000000	99.864201
3660.000000	99.854886
3659.000000	99.843806
3658.000000	99.827273
3657.000000	99.804032
3656.000000	99.779660
3655.000000	99.761327
3654.000000	99.750243
3653.000000	99.742140
3652.000000	99.731043
3651.000000	99.712287
3650.000000	99.686413
3649.000000	99.659141
3648.000000	99.634535
3647.000000	99.612712
3646.000000	99.593505
3645.000000	99.577203
3644.000000	99.562845
3643.000000	99.548233
3642.000000	99.531365
3641.000000	99.512346
3640.000000	99.493415
3639.000000	99.477453
3638.000000	99.465793
3637.000000	99.456572
3636.000000	99.445893
3635.000000	99.431344
3634.000000	99.414497
3633.000000	99.399087
3632.000000	99.387424
3631.000000	99.378837
3630.000000	99.370709
3629.000000	99.362770
3628.000000	99.357072
3627.000000	99.351774
3626.000000	99.345648
3625.000000	99.341970
3624.000000	99.343071
3623.000000	99.347333
3622.000000	99.351139
3621.000000	99.352022
3620.000000	99.351364
3619.000000	99.354326
3618.000000	99.364512
3617.000000	99.379559
3616.000000	99.394461
3615.000000	99.406450
3614.000000	99.416578
3613.000000	99.427867
3612.000000	99.441469
3611.000000	99.455363
3610.000000	99.467425
3609.000000	99.478244
3608.000000	99.490483
3607.000000	99.505343
3606.000000	99.520311
3605.000000	99.531434
3604.000000	99.536455
3603.000000	99.536024
3602.000000	99.533107
3601.000000	99.530894
3600.000000	99.530939
3599.000000	99.533174
3598.000000	99.537784
3597.000000	99.545500
3596.000000	99.555957
3595.000000	99.566739
3594.000000	99.575297
3593.000000	99.580503
3592.000000	99.582973
3591.000000	99.584244
3590.000000	99.585822
3589.000000	99.588787
3588.000000	99.593902
3587.000000	99.600756
3586.000000	99.605969
3585.000000	99.605120
3584.000000	99.596827
3583.000000	99.583328
3582.000000	99.568324
3581.000000	99.554796
3580.000000	99.543947
3579.000000	99.535651
3578.000000	99.530069
3577.000000	99.528101
3576.000000	99.530105
3575.000000	99.534504
3574.000000	99.538579
3573.000000	99.540795
3572.000000	99.541790
3571.000000	99.542880
3570.000000	99.543567
3569.000000	99.541017
3568.000000	99.533009
3567.000000	99.521751
3566.000000	99.512104
3565.000000	99.505593
3564.000000	99.499803
3563.000000	99.492148
3562.000000	99.482401
3561.000000	99.472641
3560.000000	99.465425
3559.000000	99.461793
3558.000000	99.460865
3557.000000	99.461063
3556.000000	99.461374
3555.000000	99.461561
3554.000000	99.461468
3553.000000	99.460554
3552.000000	99.458127
3551.000000	99.454134
3550.000000	99.449458
3549.000000	99.445316
3548.000000	99.442395
3547.000000	99.440859
3546.000000	99.440857
3545.000000	99.442195
3544.000000	99.443427
3543.000000	99.442397
3542.000000	99.438275
3541.000000	99.432609
3540.000000	99.428144
3539.000000	99.426499
3538.000000	99.427132
3537.000000	99.428364
3536.000000	99.429189
3535.000000	99.429783
3534.000000	99.430462
3533.000000	99.430729
3532.000000	99.429680
3531.000000	99.427081
3530.000000	99.423897
3529.000000	99.421601
3528.000000	99.420848
3527.000000	99.420929
3526.000000	99.420506
3525.000000	99.418795
3524.000000	99.416068
3523.000000	99.413306
3522.000000	99.411471
3521.000000	99.410917
3520.000000	99.411323
3519.000000	99.411966
3518.000000	99.412219
3517.000000	99.411929
3516.000000	99.411322
3515.000000	99.410680
3514.000000	99.410156
3513.000000	99.409790
3512.000000	99.409556
3511.000000	99.409300
3510.000000	99.408776
3509.000000	99.407894
3508.000000	99.406916
3507.000000	99.406233
3506.000000	99.405931
3505.000000	99.405654
3504.000000	99.404933
3503.000000	99.403674
3502.000000	99.402278
3501.000000	99.401295
3500.000000	99.400973
3499.000000	99.401116
3498.000000	99.401232
3497.000000	99.400831
3496.000000	99.399690
3495.000000	99.397954
3494.000000	99.396023
3493.000000	99.394326
3492.000000	99.393151
3491.000000	99.392583
3490.000000	99.392474
3489.000000	99.392427
3488.000000	99.391884
3487.000000	99.390384
3486.000000	99.387820
3485.000000	99.384583
3484.000000	99.381413
3483.000000	99.378940
3482.000000	99.377350
3481.000000	99.376383
3480.000000	99.375630
3479.000000	99.374809
3478.000000	99.373774
3477.000000	99.372424
3476.000000	99.370667
3475.000000	99.368430
3474.000000	99.365694
3473.000000	99.362575
3472.000000	99.359416
3471.000000	99.356658
3470.000000	99.354488
3469.000000	99.352602
3468.000000	99.350394
3467.000000	99.347429
3466.000000	99.343713
3465.000000	99.339638
3464.000000	99.335806
3463.000000	99.332762
3462.000000	99.330688
3461.000000	99.329215
3460.000000	99.327541
3459.000000	99.325048
3458.000000	99.321738
3457.000000	99.318117
3456.000000	99.314686
3455.000000	99.311524
3454.000000	99.308399
3453.000000	99.305154
3452.000000	99.301894
3451.000000	99.298849
3450.000000	99.296132
3449.000000	99.293681
3448.000000	99.291324
3447.000000	99.288848
3446.000000	99.286029
3445.000000	99.282785
3444.000000	99.279432
3443.000000	99.276631
3442.000000	99.274763
3441.000000	99.273284
3440.000000	99.271025
3439.000000	99.267349
3438.000000	99.262863
3437.000000	99.258863
3436.000000	99.256021
3435.000000	99.253853
3434.000000	99.251412
3433.000000	99.248274
3432.000000	99.244674
3431.000000	99.240800
3430.000000	99.236397
3429.000000	99.231311
3428.000000	99.226232
3427.000000	99.222387
3426.000000	99.220288
3425.000000	99.219109
3424.000000	99.217586
3423.000000	99.215514
3422.000000	99.214013
3421.000000	99.214222
3420.000000	99.215955
3419.000000	99.217700
3418.000000	99.217900
3417.000000	99.216142
3416.000000	99.213340
3415.000000	99.210850
3414.000000	99.209107
3413.000000	99.207106
3412.000000	99.203526
3411.000000	99.198341
3410.000000	99.192884
3409.000000	99.188209
3408.000000	99.183939
3407.000000	99.179238
3406.000000	99.174525
3405.000000	99.171501
3404.000000	99.171507
3403.000000	99.174337
3402.000000	99.178492
3401.000000	99.182101
3400.000000	99.183705
3399.000000	99.182878
3398.000000	99.180671
3397.000000	99.179081
3396.000000	99.179520
3395.000000	99.181735
3394.000000	99.184271
3393.000000	99.185815
3392.000000	99.186100
3391.000000	99.185698
3390.000000	99.185189
3389.000000	99.184565
3388.000000	99.183314
3387.000000	99.181109
3386.000000	99.178526
3385.000000	99.177035
3384.000000	99.178129
3383.000000	99.182286
3382.000000	99.188569
3381.000000	99.195058
3380.000000	99.199965
3379.000000	99.202644
3378.000000	99.203584
3377.000000	99.203502
3376.000000	99.202561
3375.000000	99.200655
3374.000000	99.198257
3373.000000	99.196548
3372.000000	99.196524
3371.000000	99.198289
3370.000000	99.201226
3369.000000	99.204728
3368.000000	99.208603
3367.000000	99.212830
3366.000000	99.217017
3365.000000	99.220263
3364.000000	99.221749
3363.000000	99.221508
3362.000000	99.220492
3361.000000	99.219750
3360.000000	99.219571
3359.000000	99.219630
3358.000000	99.219787
3357.000000	99.220337
3356.000000	99.221425
3355.000000	99.222704
3354.000000	99.223884
3353.000000	99.225318
3352.000000	99.227589
3351.000000	99.230621
3350.000000	99.233528
3349.000000	99.235496
3348.000000	99.236603
3347.000000	99.237651
3346.000000	99.239301
3345.000000	99.241488
3344.000000	99.243606
3343.000000	99.245128
3342.000000	99.246014
3341.000000	99.246628
3340.000000	99.247379
3339.000000	99.248404
3338.000000	99.249606
3337.000000	99.250967
3336.000000	99.252713
3335.000000	99.255068
3334.000000	99.257895
3333.000000	99.260682
3332.000000	99.262918
3331.000000	99.264542
3330.000000	99.265892
3329.000000	99.267396
3328.000000	99.269204
3327.000000	99.271153
3326.000000	99.273025
3325.000000	99.274767
3324.000000	99.276477
3323.000000	99.278234
3322.000000	99.280023
3321.000000	99.281806
3320.000000	99.283610
3319.000000	99.285523
3318.000000	99.287588
3317.000000	99.289729
3316.000000	99.291799
3315.000000	99.293739
3314.000000	99.295636
3313.000000	99.297608
3312.000000	99.299668
3311.000000	99.301724
3310.000000	99.303705
3309.000000	99.305638
3308.000000	99.307596
3307.000000	99.309607
3306.000000	99.311630
3305.000000	99.313611
3304.000000	99.315559
3303.000000	99.317597
3302.000000	99.319901
3301.000000	99.322505
3300.000000	99.325132
3299.000000	99.327348
3298.000000	99.328959
3297.000000	99.330180
3296.000000	99.331418
3295.000000	99.332895
3294.000000	99.334647
3293.000000	99.336724
3292.000000	99.339181
3291.000000	99.341892
3290.000000	99.344590
3289.000000	99.347103
3288.000000	99.349373
3287.000000	99.351295
3286.000000	99.352814
3285.000000	99.354296
3284.000000	99.356381
3283.000000	99.359238
3282.000000	99.362210
3281.000000	99.364481
3280.000000	99.365910
3279.000000	99.367024
3278.000000	99.368284
3277.000000	99.369604
3276.000000	99.370587
3275.000000	99.371024
3274.000000	99.371124
3273.000000	99.371433
3272.000000	99.372554
3271.000000	99.374746
3270.000000	99.377729
3269.000000	99.380867
3268.000000	99.383656
3267.000000	99.385983
3266.000000	99.387979
3265.000000	99.389685
3264.000000	99.390860
3263.000000	99.391142
3262.000000	99.390481
3261.000000	99.389484
3260.000000	99.389240
3259.000000	99.390559
3258.000000	99.393289
3257.000000	99.396344
3256.000000	99.398525
3255.000000	99.399412
3254.000000	99.399518
3253.000000	99.399715
3252.000000	99.400505
3251.000000	99.401741
3250.000000	99.402943
3249.000000	99.403924
3248.000000	99.405147
3247.000000	99.407333
3246.000000	99.410658
3245.000000	99.414424
3244.000000	99.417642
3243.000000	99.419983
3242.000000	99.421956
3241.000000	99.424233
3240.000000	99.426915
3239.000000	99.429474
3238.000000	99.431266
3237.000000	99.432012
3236.000000	99.431937
3235.000000	99.431729
3234.000000	99.432195
3233.000000	99.433699
3232.000000	99.435820
3231.000000	99.437681
3230.000000	99.438818
3229.000000	99.439712
3228.000000	99.441302
3227.000000	99.444015
3226.000000	99.447408
3225.000000	99.450583
3224.000000	99.452962
3223.000000	99.454597
3222.000000	99.455888
3221.000000	99.457165
3220.000000	99.458526
3219.000000	99.459987
3218.000000	99.461615
3217.000000	99.463414
3216.000000	99.465196
3215.000000	99.466729
3214.000000	99.468032
3213.000000	99.469443
3212.000000	99.471303
3211.000000	99.473624
3210.000000	99.476101
3209.000000	99.478371
3208.000000	99.480295
3207.000000	99.481957
3206.000000	99.483502
3205.000000	99.484994
3204.000000	99.486424
3203.000000	99.487825
3202.000000	99.489322
3201.000000	99.491024
3200.000000	99.492907
3199.000000	99.494854
3198.000000	99.496823
3197.000000	99.498907
3196.000000	99.501170
3195.000000	99.503499
3194.000000	99.505662
3193.000000	99.507550
3192.000000	99.509306
3191.000000	99.511179
3190.000000	99.513236
3189.000000	99.515291
3188.000000	99.517140
3187.000000	99.518796
3186.000000	99.520463
3185.000000	99.522312
3184.000000	99.524328
3183.000000	99.526355
3182.000000	99.528275
3181.000000	99.530107
3180.000000	99.531945
3179.000000	99.533855
3178.000000	99.535818
3177.000000	99.537775
3176.000000	99.539705
3175.000000	99.541676
3174.000000	99.543783
3173.000000	99.546061
3172.000000	99.548415
3171.000000	99.550657
3170.000000	99.552661
3169.000000	99.554436
3168.000000	99.556087
3167.000000	99.557692
3166.000000	99.559295
3165.000000	99.560974
3164.000000	99.562828
3163.000000	99.564864
3162.000000	99.566985
3161.000000	99.569043
3160.000000	99.570975
3159.000000	99.572813
3158.000000	99.574611
3157.000000	99.576397
3156.000000	99.578172
3155.000000	99.579942
3154.000000	99.581744
3153.000000	99.583615
3152.000000	99.585523
3151.000000	99.587375
3150.000000	99.589103
3149.000000	99.590724
3148.000000	99.592304
3147.000000	99.593894
3146.000000	99.595545
3145.000000	99.597316
3144.000000	99.599208
3143.000000	99.601095
3142.000000	99.602831
3141.000000	99.604421
3140.000000	99.606014
3139.000000	99.607724
3138.000000	99.609540
3137.000000	99.611451
3136.000000	99.613524
3135.000000	99.615750
3134.000000	99.617884
3133.000000	99.619612
3132.000000	99.620868
3131.000000	99.621965
3130.000000	99.623359
3129.000000	99.625295
3128.000000	99.627628
3127.000000	99.629866
3126.000000	99.631528
3125.000000	99.632606
3124.000000	99.633654
3123.000000	99.635204
3122.000000	99.637114
3121.000000	99.638667
3120.000000	99.639277
3119.000000	99.638872
3118.000000	99.637820
3117.000000	99.636917
3116.000000	99.637183
3115.000000	99.639099
3114.000000	99.641968
3113.000000	99.644514
3112.000000	99.646421
3111.000000	99.648683
3110.000000	99.652173
3109.000000	99.656412
3108.000000	99.660153
3107.000000	99.662768
3106.000000	99.664541
3105.000000	99.665883
3104.000000	99.666973
3103.000000	99.668100
3102.000000	99.669641
3101.000000	99.671486
3100.000000	99.672992
3099.000000	99.673938
3098.000000	99.675111
3097.000000	99.677406
3096.000000	99.680479
3095.000000	99.682917
3094.000000	99.683938
3093.000000	99.684369
3092.000000	99.685585
3091.000000	99.687628
3090.000000	99.689011
3089.000000	99.688568
3088.000000	99.686858
3087.000000	99.685628
3086.000000	99.685928
3085.000000	99.687294
3084.000000	99.688698
3083.000000	99.689791
3082.000000	99.691005
3081.000000	99.692685
3080.000000	99.694581
3079.000000	99.696202
3078.000000	99.697443
3077.000000	99.698743
3076.000000	99.700611
3075.000000	99.703025
3074.000000	99.705345
3073.000000	99.706904
3072.000000	99.707692
3071.000000	99.708345
3070.000000	99.709440
3069.000000	99.710920
3068.000000	99.712298
3067.000000	99.713319
3066.000000	99.714201
3065.000000	99.715261
3064.000000	99.716542
3063.000000	99.717934
3062.000000	99.719401
3061.000000	99.720907
3060.000000	99.722248
3059.000000	99.723215
3058.000000	99.723922
3057.000000	99.724823
3056.000000	99.726247
3055.000000	99.728019
3054.000000	99.729579
3053.000000	99.730574
3052.000000	99.731173
3051.000000	99.731862
3050.000000	99.732903
3049.000000	99.734078
3048.000000	99.735003
3047.000000	99.735612
3046.000000	99.736279
3045.000000	99.737421
3044.000000	99.739052
3043.000000	99.740776
3042.000000	99.742163
3041.000000	99.743080
3040.000000	99.743671
3039.000000	99.744224
3038.000000	99.745051
3037.000000	99.746336
3036.000000	99.748027
3035.000000	99.749931
3034.000000	99.751977
3033.000000	99.754279
3032.000000	99.756825
3031.000000	99.759212
3030.000000	99.760933
3029.000000	99.761949
3028.000000	99.762771
3027.000000	99.763928
3026.000000	99.765357
3025.000000	99.766433
3024.000000	99.766656
3023.000000	99.766371
3022.000000	99.766689
3021.000000	99.768472
3020.000000	99.771371
3019.000000	99.773903
3018.000000	99.774837
3017.000000	99.774519
3016.000000	99.774671
3015.000000	99.776663
3014.000000	99.780248
3013.000000	99.784052
3012.000000	99.787065
3011.000000	99.789214
3010.000000	99.790733
3009.000000	99.791629
3008.000000	99.791851
3007.000000	99.791544
3006.000000	99.791002
3005.000000	99.790758
3004.000000	99.791884
3003.000000	99.795652
3002.000000	99.802373
3001.000000	99.810619
3000.000000	99.818020
2999.000000	99.822870
2998.000000	99.824834
2997.000000	99.824469
2996.000000	99.822651
2995.000000	99.820553
2994.000000	99.819628
2993.000000	99.821103
2992.000000	99.825323
2991.000000	99.831433
2990.000000	99.837577
2989.000000	99.841659
2988.000000	99.842528
2987.000000	99.840806
2986.000000	99.838544
2985.000000	99.837866
2984.000000	99.839838
2983.000000	99.844210
2982.000000	99.849791
2981.000000	99.855164
2980.000000	99.859646
2979.000000	99.863686
2978.000000	99.868006
2977.000000	99.872621
2976.000000	99.877550
2975.000000	99.884408
2974.000000	99.895749
2973.000000	99.911701
2972.000000	99.927927
2971.000000	99.938748
2970.000000	99.942963
2969.000000	99.945698
2968.000000	99.953881
2967.000000	99.970158
2966.000000	99.991326
2965.000000	100.011835
2964.000000	100.028093
2963.000000	100.039745
2962.000000	100.047964
2961.000000	100.053395
2960.000000	100.055944
2959.000000	100.056140
2958.000000	100.055749
2957.000000	100.056115
2956.000000	100.056289
2955.000000	100.054248
2954.000000	100.050441
2953.000000	100.048674
2952.000000	100.052236
2951.000000	100.059890
2950.000000	100.067110
2949.000000	100.071243
2948.000000	100.074377
2947.000000	100.081217
2946.000000	100.095035
2945.000000	100.115618
2944.000000	100.139824
2943.000000	100.163699
2942.000000	100.185067
2941.000000	100.204750
2940.000000	100.224971
2939.000000	100.246685
2938.000000	100.269395
2937.000000	100.293521
2936.000000	100.321180
2935.000000	100.353531
2934.000000	100.388510
2933.000000	100.422667
2932.000000	100.454624
2931.000000	100.485156
2930.000000	100.514103
2929.000000	100.538918
2928.000000	100.557054
2927.000000	100.568967
2926.000000	100.577742
2925.000000	100.585614
2924.000000	100.591151
2923.000000	100.590079
2922.000000	100.578900
2921.000000	100.557618
2920.000000	100.528936
2919.000000	100.495642
2918.000000	100.459667
2917.000000	100.422966
2916.000000	100.387175
2915.000000	100.351949
2914.000000	100.315657
2913.000000	100.278956
2912.000000	100.246088
2911.000000	100.220843
2910.000000	100.202389
2909.000000	100.187003
2908.000000	100.173219
2907.000000	100.162819
2906.000000	100.156764
2905.000000	100.152567
2904.000000	100.146741
2903.000000	100.138174
2902.000000	100.128019
2901.000000	100.117423
2900.000000	100.106720
2899.000000	100.095697
2898.000000	100.083868
2897.000000	100.071145
2896.000000	100.059168
2895.000000	100.051087
2894.000000	100.048795
2893.000000	100.050521
2892.000000	100.052081
2891.000000	100.050420
2890.000000	100.045436
2889.000000	100.038875
2888.000000	100.032402
2887.000000	100.026646
2886.000000	100.021390
2885.000000	100.016518
2884.000000	100.012980
2883.000000	100.012423
2882.000000	100.015400
2881.000000	100.020364
2880.000000	100.025097
2879.000000	100.028908
2878.000000	100.032634
2877.000000	100.036719
2876.000000	100.040249
2875.000000	100.042110
2874.000000	100.042405
2873.000000	100.042204
2872.000000	100.042283
2871.000000	100.042678
2870.000000	100.043602
2869.000000	100.046385
2868.000000	100.052955
2867.000000	100.064156
2866.000000	100.078904
2865.000000	100.095478
2864.000000	100.113400
2863.000000	100.133305
2862.000000	100.155059
2861.000000	100.177131
2860.000000	100.198318
2859.000000	100.219052
2858.000000	100.240121
2857.000000	100.260845
2856.000000	100.279554
2855.000000	100.295159
2854.000000	100.306845
2853.000000	100.312558
2852.000000	100.309382
2851.000000	100.295961
2850.000000	100.273641
2849.000000	100.244912
2848.000000	100.211506
2847.000000	100.174819
2846.000000	100.137563
2845.000000	100.103647
2844.000000	100.075792
2843.000000	100.053852
2842.000000	100.035902
2841.000000	100.020691
2840.000000	100.008529
2839.000000	99.999900
2838.000000	99.994009
2837.000000	99.989167
2836.000000	99.984203
2835.000000	99.978919
2834.000000	99.973352
2833.000000	99.967214
2832.000000	99.960219
2831.000000	99.952624
2830.000000	99.945390
2829.000000	99.939932
2828.000000	99.937346
2827.000000	99.937417
2826.000000	99.938710
2825.000000	99.940305
2824.000000	99.942946
2823.000000	99.947270
2822.000000	99.951067
2821.000000	99.950110
2820.000000	99.942917
2819.000000	99.933840
2818.000000	99.930180
2817.000000	99.936052
2816.000000	99.949142
2815.000000	99.962444
2814.000000	99.969017
2813.000000	99.966448
2812.000000	99.958274
2811.000000	99.951217
2810.000000	99.949860
2809.000000	99.953452
2808.000000	99.957666
2807.000000	99.958973
2806.000000	99.956997
2805.000000	99.953529
2804.000000	99.950537
2803.000000	99.949191
2802.000000	99.949707
2801.000000	99.951401
2800.000000	99.953056
2799.000000	99.953673
2798.000000	99.953037
2797.000000	99.951768
2796.000000	99.951063
2795.000000	99.952174
2794.000000	99.955634
2793.000000	99.960719
2792.000000	99.965758
2791.000000	99.969174
2790.000000	99.970502
2789.000000	99.970615
2788.000000	99.970957
2787.000000	99.972257
2786.000000	99.973941
2785.000000	99.975006
2784.000000	99.975293
2783.000000	99.975545
2782.000000	99.976367
2781.000000	99.977618
2780.000000	99.978818
2779.000000	99.979743
2778.000000	99.980525
2777.000000	99.981395
2776.000000	99.982435
2775.000000	99.983584
2774.000000	99.984772
2773.000000	99.985946
2772.000000	99.987065
2771.000000	99.988134
2770.000000	99.989199
2769.000000	99.990268
2768.000000	99.991305
2767.000000	99.992303
2766.000000	99.993298
2765.000000	99.994311
2764.000000	99.995326
2763.000000	99.996329
2762.000000	99.997321
2761.000000	99.998309
2760.000000	99.999299
2759.000000	100.000293
2758.000000	100.001293
2757.000000	100.002305
2756.000000	100.003334
2755.000000	100.004378
2754.000000	100.005412
2753.000000	100.006411
2752.000000	100.007357
2751.000000	100.008266
2750.000000	100.009177
2749.000000	100.010145
2748.000000	100.011208
2747.000000	100.012352
2746.000000	100.013468
2745.000000	100.014376
2744.000000	100.014954
2743.000000	100.015333
2742.000000	100.015912
2741.000000	100.017010
2740.000000	100.018593
2739.000000	100.020257
2738.000000	100.021630
2737.000000	100.022638
2736.000000	100.023372
2735.000000	100.023858
2734.000000	100.024078
2733.000000	100.024177
2732.000000	100.024513
2731.000000	100.025379
2730.000000	100.026665
2729.000000	100.027820
2728.000000	100.028374
2727.000000	100.028533
2726.000000	100.029053
2725.000000	100.030359
2724.000000	100.032041
2723.000000	100.033519
2722.000000	100.034982
2721.000000	100.037149
2720.000000	100.040130
2719.000000	100.043048
2718.000000	100.044993
2717.000000	100.045859
2716.000000	100.046002
2715.000000	100.045554
2714.000000	100.044526
2713.000000	100.043235
2712.000000	100.042072
2711.000000	100.041064
2710.000000	100.040163
2709.000000	100.039805
2708.000000	100.040631
2707.000000	100.042558
2706.000000	100.044543
2705.000000	100.045547
2704.000000	100.045485
2703.000000	100.045041
2702.000000	100.044918
2701.000000	100.045518
2700.000000	100.047071
2699.000000	100.049478
2698.000000	100.051983
2697.000000	100.053590
2696.000000	100.054034
2695.000000	100.054105
2694.000000	100.054746
2693.000000	100.055877
2692.000000	100.056400
2691.000000	100.055393
2690.000000	100.053067
2689.000000	100.050667
2688.000000	100.049455
2687.000000	100.049844
2686.000000	100.051450
2685.000000	100.053609
2684.000000	100.055817
2683.000000	100.057810
2682.000000	100.059418
2681.000000	100.060572
2680.000000	100.061410
2679.000000	100.062185
2678.000000	100.062985
2677.000000	100.063597
2676.000000	100.063705
2675.000000	100.063186
2674.000000	100.062222
2673.000000	100.061208
2672.000000	100.060576
2671.000000	100.060580
2670.000000	100.061211
2669.000000	100.062314
2668.000000	100.063804
2667.000000	100.065613
2666.000000	100.067380
2665.000000	100.068419
2664.000000	100.068258
2663.000000	100.067173
2662.000000	100.066146
2661.000000	100.066152
2660.000000	100.067446
2659.000000	100.069428
2658.000000	100.071057
2657.000000	100.071627
2656.000000	100.071276
2655.000000	100.070782
2654.000000	100.070799
2653.000000	100.071308
2652.000000	100.071808
2651.000000	100.071788
2650.000000	100.070958
2649.000000	100.069328
2648.000000	100.067412
2647.000000	100.066100
2646.000000	100.065956
2645.000000	100.066718
2644.000000	100.067629
2643.000000	100.068253
2642.000000	100.068715
2641.000000	100.069181
2640.000000	100.069531
2639.000000	100.069597
2638.000000	100.069409
2637.000000	100.069123
2636.000000	100.068932
2635.000000	100.069079
2634.000000	100.069674
2633.000000	100.070501
2632.000000	100.071308
2631.000000	100.072281
2630.000000	100.073793
2629.000000	100.075615
2628.000000	100.076845
2627.000000	100.076942
2626.000000	100.076388
2625.000000	100.076140
2624.000000	100.076534
2623.000000	100.077107
2622.000000	100.077392
2621.000000	100.077447
2620.000000	100.077597
2619.000000	100.078033
2618.000000	100.078795
2617.000000	100.079851
2616.000000	100.081016
2615.000000	100.081959
2614.000000	100.082453
2613.000000	100.082555
2612.000000	100.082512
2611.000000	100.082604
2610.000000	100.083072
2609.000000	100.084054
2608.000000	100.085410
2607.000000	100.086639
2606.000000	100.087280
2605.000000	100.087359
2604.000000	100.087265
2603.000000	100.087240
2602.000000	100.087219
2601.000000	100.087200
2600.000000	100.087484
2599.000000	100.088312
2598.000000	100.089422
2597.000000	100.090254
2596.000000	100.090560
2595.000000	100.090530
2594.000000	100.090334
2593.000000	100.089849
2592.000000	100.089031
2591.000000	100.088289
2590.000000	100.088150
2589.000000	100.088653
2588.000000	100.089313
2587.000000	100.089750
2586.000000	100.090119
2585.000000	100.090753
2584.000000	100.091681
2583.000000	100.092709
2582.000000	100.093834
2581.000000	100.095190
2580.000000	100.096583
2579.000000	100.097387
2578.000000	100.097195
2577.000000	100.096393
2576.000000	100.095800
2575.000000	100.095725
2574.000000	100.095668
2573.000000	100.095031
2572.000000	100.093842
2571.000000	100.092616
2570.000000	100.091730
2569.000000	100.091281
2568.000000	100.091458
2567.000000	100.092539
2566.000000	100.094296
2565.000000	100.095840
2564.000000	100.096344
2563.000000	100.095820
2562.000000	100.095116
2561.000000	100.095231
2560.000000	100.096654
2559.000000	100.099165
2558.000000	100.101975
2557.000000	100.104214
2556.000000	100.105564
2555.000000	100.106368
2554.000000	100.107062
2553.000000	100.107618
2552.000000	100.107769
2551.000000	100.107694
2550.000000	100.108067
2549.000000	100.109286
2548.000000	100.110910
2547.000000	100.112055
2546.000000	100.112327
2545.000000	100.112096
2544.000000	100.112030
2543.000000	100.112443
2542.000000	100.113205
2541.000000	100.114111
2540.000000	100.115145
2539.000000	100.116383
2538.000000	100.117764
2537.000000	100.119060
2536.000000	100.120067
2535.000000	100.120780
2534.000000	100.121359
2533.000000	100.121955
2532.000000	100.122592
2531.000000	100.123233
2530.000000	100.123895
2529.000000	100.124651
2528.000000	100.125530
2527.000000	100.126464
2526.000000	100.127364
2525.000000	100.128189
2524.000000	100.128961
2523.000000	100.129710
2522.000000	100.130459
2521.000000	100.131215
2520.000000	100.131972
2519.000000	100.132724
2518.000000	100.133466
2517.000000	100.134195
2516.000000	100.134915
2515.000000	100.135630
2514.000000	100.136346
2513.000000	100.137069
2512.000000	100.137800
2511.000000	100.138539
2510.000000	100.139282
2509.000000	100.140027
2508.000000	100.140770
2507.000000	100.141507
2506.000000	100.142235
2505.000000	100.142955
2504.000000	100.143673
2503.000000	100.144397
2502.000000	100.145130
2501.000000	100.145868
2500.000000	100.146603
2499.000000	100.147326
2498.000000	100.148033
2497.000000	100.148725
2496.000000	100.149409
2495.000000	100.150097
2494.000000	100.150797
2493.000000	100.151513
2492.000000	100.152241
2491.000000	100.152976
2490.000000	100.153710
2489.000000	100.154437
2488.000000	100.155156
2487.000000	100.155867
2486.000000	100.156577
2485.000000	100.157292
2484.000000	100.158017
2483.000000	100.158761
2482.000000	100.159527
2481.000000	100.160317
2480.000000	100.161124
2479.000000	100.161936
2478.000000	100.162744
2477.000000	100.163545
2476.000000	100.164343
2475.000000	100.165146
2474.000000	100.165962
2473.000000	100.166793
2472.000000	100.167638
2471.000000	100.168491
2470.000000	100.169347
2469.000000	100.170203
2468.000000	100.171066
2467.000000	100.171942
2466.000000	100.172833
2465.000000	100.173755
2464.000000	100.174700
2463.000000	100.175641
2462.000000	100.176576
2461.000000	100.177514
2460.000000	100.178405
2459.000000	100.179169
2458.000000	100.179827
2457.000000	100.180537
2456.000000	100.181440
2455.000000	100.182543
2454.000000	100.183791
2453.000000	100.185135
2452.000000	100.186455
2451.000000	100.187543
2450.000000	100.188299
2449.000000	100.188879
2448.000000	100.189564
2447.000000	100.190485
2446.000000	100.191557
2445.000000	100.192652
2444.000000	100.193751
2443.000000	100.194894
2442.000000	100.196040
2441.000000	100.197044
2440.000000	100.197752
2439.000000	100.198102
2438.000000	100.198172
2437.000000	100.198180
2436.000000	100.198447
2435.000000	100.199275
2434.000000	100.200803
2433.000000	100.202901
2432.000000	100.205147
2431.000000	100.206975
2430.000000	100.208054
2429.000000	100.208642
2428.000000	100.209424
2427.000000	100.210747
2426.000000	100.212090
2425.000000	100.212644
2424.000000	100.212314
2423.000000	100.211838
2422.000000	100.211733
2421.000000	100.211472
2420.000000	100.210197
2419.000000	100.208048
2418.000000	100.206443
2417.000000	100.206693
2416.000000	100.208770
2415.000000	100.211469
2414.000000	100.213590
2413.000000	100.214905
2412.000000	100.215817
2411.000000	100.216543
2410.000000	100.216956
2409.000000	100.217094
2408.000000	100.217395
2407.000000	100.218161
2406.000000	100.219064
2405.000000	100.219498
2404.000000	100.219342
2403.000000	100.219075
2402.000000	100.219134
2401.000000	100.219420
2400.000000	100.219559
2399.000000	100.219446
2398.000000	100.219358
2397.000000	100.219597
2396.000000	100.220157
2395.000000	100.220721
2394.000000	100.220920
2393.000000	100.220660
2392.000000	100.220196
2391.000000	100.219892
2390.000000	100.219854
2389.000000	100.219886
2388.000000	100.219803
2387.000000	100.219661
2386.000000	100.219630
2385.000000	100.219756
2384.000000	100.219933
2383.000000	100.220051
2382.000000	100.220061
2381.000000	100.219932
2380.000000	100.219631
2379.000000	100.219185
2378.000000	100.218703
2377.000000	100.218310
2376.000000	100.218064
2375.000000	100.217930
2374.000000	100.217840
2373.000000	100.217735
2372.000000	100.217585
2371.000000	100.217387
2370.000000	100.217156
2369.000000	100.216912
2368.000000	100.216674
2367.000000	100.216451
2366.000000	100.216250
2365.000000	100.216070
2364.000000	100.215902
2363.000000	100.215743
2362.000000	100.215594
2361.000000	100.215459
2360.000000	100.215339
2359.000000	100.215236
2358.000000	100.215148
2357.000000	100.215071
2356.000000	100.214998
2355.000000	100.214927
2354.000000	100.214862
2353.000000	100.214806
2352.000000	100.214766
2351.000000	100.214745
2350.000000	100.214741
2349.000000	100.214751
2348.000000	100.214769
2347.000000	100.214796
2346.000000	100.214833
2345.000000	100.214880
2344.000000	100.214933
2343.000000	100.214986
2342.000000	100.215041
2341.000000	100.215104
2340.000000	100.215187
2339.000000	100.215296
2338.000000	100.215438
2337.000000	100.215613
2336.000000	100.215814
2335.000000	100.216030
2334.000000	100.216248
2333.000000	100.216459
2332.000000	100.216661
2331.000000	100.216857
2330.000000	100.217056
2329.000000	100.217268
2328.000000	100.217500
2327.000000	100.217756
2326.000000	100.218029
2325.000000	100.218307
2324.000000	100.218575
2323.000000	100.218823
2322.000000	100.219050
2321.000000	100.219262
2320.000000	100.219470
2319.000000	100.219683
2318.000000	100.219904
2317.000000	100.220134
2316.000000	100.220369
2315.000000	100.220607
2314.000000	100.220851
2313.000000	100.221103
2312.000000	100.221358
2311.000000	100.221609
2310.000000	100.221849
2309.000000	100.222076
2308.000000	100.222291
2307.000000	100.222492
2306.000000	100.222683
2305.000000	100.222868
2304.000000	100.223051
2303.000000	100.223235
2302.000000	100.223422
2301.000000	100.223609
2300.000000	100.223798
2299.000000	100.223985
2298.000000	100.224168
2297.000000	100.224345
2296.000000	100.224515
2295.000000	100.224674
2294.000000	100.224810
2293.000000	100.224921
2292.000000	100.225018
2291.000000	100.225129
2290.000000	100.225261
2289.000000	100.225378
2288.000000	100.225438
2287.000000	100.225431
2286.000000	100.225397
2285.000000	100.225367
2284.000000	100.225348
2283.000000	100.225352
2282.000000	100.225391
2281.000000	100.225436
2280.000000	100.225423
2279.000000	100.225352
2278.000000	100.225317
2277.000000	100.225392
2276.000000	100.225513
2275.000000	100.225570
2274.000000	100.225545
2273.000000	100.225487
2272.000000	100.225370
2271.000000	100.225105
2270.000000	100.224670
2269.000000	100.224159
2268.000000	100.223668
2267.000000	100.223239
2266.000000	100.222897
2265.000000	100.222693
2264.000000	100.222642
2263.000000	100.222655
2262.000000	100.222575
2261.000000	100.222335
2260.000000	100.222042
2259.000000	100.221871
2258.000000	100.221888
2257.000000	100.221962
2256.000000	100.221868
2255.000000	100.221502
2254.000000	100.220947
2253.000000	100.220424
2252.000000	100.220101
2251.000000	100.219966
2250.000000	100.219866
2249.000000	100.219655
2248.000000	100.219332
2247.000000	100.219018
2246.000000	100.218851
2245.000000	100.218915
2244.000000	100.219193
2243.000000	100.219531
2242.000000	100.219682
2241.000000	100.219522
2240.000000	100.219203
2239.000000	100.219060
2238.000000	100.219245
2237.000000	100.219572
2236.000000	100.219752
2235.000000	100.219729
2234.000000	100.219683
2233.000000	100.219767
2232.000000	100.219998
2231.000000	100.220364
2230.000000	100.220833
2229.000000	100.221235
2228.000000	100.221301
2227.000000	100.220921
2226.000000	100.220306
2225.000000	100.219843
2224.000000	100.219841
2223.000000	100.220443
2222.000000	100.221628
2221.000000	100.223168
2220.000000	100.224680
2219.000000	100.225839
2218.000000	100.226509
2217.000000	100.226762
2216.000000	100.226890
2215.000000	100.227324
2214.000000	100.228310
2213.000000	100.229633
2212.000000	100.230785
2211.000000	100.231529
2210.000000	100.232106
2209.000000	100.232826
2208.000000	100.233626
2207.000000	100.234178
2206.000000	100.234327
2205.000000	100.234224
2204.000000	100.234137
2203.000000	100.234294
2202.000000	100.234854
2201.000000	100.235854
2200.000000	100.237131
2199.000000	100.238403
2198.000000	100.239470
2197.000000	100.240302
2196.000000	100.240921
2195.000000	100.241340
2194.000000	100.241637
2193.000000	100.241972
2192.000000	100.242471
2191.000000	100.243119
2190.000000	100.243791
2189.000000	100.244383
2188.000000	100.244884
2187.000000	100.245346
2186.000000	100.245836
2185.000000	100.246381
2184.000000	100.246961
2183.000000	100.247536
2182.000000	100.248089
2181.000000	100.248624
2180.000000	100.249144
2179.000000	100.249650
2178.000000	100.250144
2177.000000	100.250630
2176.000000	100.251110
2175.000000	100.251585
2174.000000	100.252056
2173.000000	100.252527
2172.000000	100.253001
2171.000000	100.253480
2170.000000	100.253964
2169.000000	100.254449
2168.000000	100.254936
2167.000000	100.255424
2166.000000	100.255914
2165.000000	100.256405
2164.000000	100.256899
2163.000000	100.257396
2162.000000	100.257900
2161.000000	100.258413
2160.000000	100.258932
2159.000000	100.259451
2158.000000	100.259964
2157.000000	100.260472
2156.000000	100.260981
2155.000000	100.261506
2154.000000	100.262060
2153.000000	100.262650
2152.000000	100.263273
2151.000000	100.263919
2150.000000	100.264576
2149.000000	100.265233
2148.000000	100.265884
2147.000000	100.266537
2146.000000	100.267212
2145.000000	100.267919
2144.000000	100.268655
2143.000000	100.269420
2142.000000	100.270224
2141.000000	100.271058
2140.000000	100.271874
2139.000000	100.272627
2138.000000	100.273328
2137.000000	100.274062
2136.000000	100.274909
2135.000000	100.275871
2134.000000	100.276863
2133.000000	100.277755
2132.000000	100.278456
2131.000000	100.278982
2130.000000	100.279468
2129.000000	100.280056
2128.000000	100.280785
2127.000000	100.281616
2126.000000	100.282520
2125.000000	100.283495
2124.000000	100.284524
2123.000000	100.285592
2122.000000	100.286723
2121.000000	100.287956
2120.000000	100.289253
2119.000000	100.290452
2118.000000	100.291360
2117.000000	100.291952
2116.000000	100.292526
2115.000000	100.293557
2114.000000	100.295265
2113.000000	100.297316
2112.000000	100.299026
2111.000000	100.299955
2110.000000	100.300139
2109.000000	100.299886
2108.000000	100.299523
2107.000000	100.299383
2106.000000	100.299798
2105.000000	100.300857
2104.000000	100.302348
2103.000000	100.304056
2102.000000	100.306029
2101.000000	100.308375
2100.000000	100.310849
2099.000000	100.312857
2098.000000	100.313890
2097.000000	100.313885
2096.000000	100.313285
2095.000000	100.312792
2094.000000	100.312897
2093.000000	100.313570
2092.000000	100.314373
2091.000000	100.314921
2090.000000	100.315216
2089.000000	100.315533
2088.000000	100.316140
2087.000000	100.317159
2086.000000	100.318529
2085.000000	100.320048
2084.000000	100.321515
2083.000000	100.322880
2082.000000	100.324187
2081.000000	100.325388
2080.000000	100.326399
2079.000000	100.327292
2078.000000	100.328219
2077.000000	100.329137
2076.000000	100.329821
2075.000000	100.330240
2074.000000	100.330681
2073.000000	100.331413
2072.000000	100.332361
2071.000000	100.333207
2070.000000	100.333710
2069.000000	100.333934
2068.000000	100.334272
2067.000000	100.335067
2066.000000	100.336031
2065.000000	100.336277
2064.000000	100.335327
2063.000000	100.333903
2062.000000	100.333327
2061.000000	100.334160
2060.000000	100.335899
2059.000000	100.337799
2058.000000	100.339508
2057.000000	100.340785
2056.000000	100.341230
2055.000000	100.340685
2054.000000	100.339538
2053.000000	100.338321
2052.000000	100.337337
2051.000000	100.336822
2050.000000	100.336904
2049.000000	100.337093
2048.000000	100.336451
2047.000000	100.334698
2046.000000	100.332768
2045.000000	100.331846
2044.000000	100.332010
2043.000000	100.332317
2042.000000	100.331930
2041.000000	100.330806
2040.000000	100.329397
2039.000000	100.328129
2038.000000	100.327217
2037.000000	100.326674
2036.000000	100.326328
2035.000000	100.325902
2034.000000	100.325156
2033.000000	100.323984
2032.000000	100.322506
2031.000000	100.321102
2030.000000	100.320146
2029.000000	100.319577
2028.000000	100.318889
2027.000000	100.317701
2026.000000	100.316185
2025.000000	100.314780
2024.000000	100.313642
2023.000000	100.312631
2022.000000	100.311682
2021.000000	100.310883
2020.000000	100.310205
2019.000000	100.309451
2018.000000	100.308491
2017.000000	100.307361
2016.000000	100.306138
2015.000000	100.304890
2014.000000	100.303739
2013.000000	100.302793
2012.000000	100.301990
2011.000000	100.301146
2010.000000	100.300190
2009.000000	100.299234
2008.000000	100.298386
2007.000000	100.297669
2006.000000	100.297150
2005.000000	100.296888
2004.000000	100.296620
2003.000000	100.295765
2002.000000	100.293977
2001.000000	100.291662
2000.000000	100.289734
1999.000000	100.288790
1998.000000	100.288814
1997.000000	100.289488
1996.000000	100.290442
1995.000000	100.291201
1994.000000	100.291288
1993.000000	100.290632
1992.000000	100.289787
1991.000000	100.289443
1990.000000	100.289629
1989.000000	100.289723
1988.000000	100.289287
1987.000000	100.288641
1986.000000	100.288448
1985.000000	100.288794
1984.000000	100.289029
1983.000000	100.288603
1982.000000	100.287796
1981.000000	100.287371
1980.000000	100.287606
1979.000000	100.287980
1978.000000	100.287811
1977.000000	100.286890
1976.000000	100.285457
1975.000000	100.283927
1974.000000	100.282670
1973.000000	100.281871
1972.000000	100.281529
1971.000000	100.281718
1970.000000	100.282671
1969.000000	100.284312
1968.000000	100.285982
1967.000000	100.287028
1966.000000	100.287552
1965.000000	100.288039
1964.000000	100.288374
1963.000000	100.287937
1962.000000	100.286658
1961.000000	100.285359
1960.000000	100.284754
1959.000000	100.284582
1958.000000	100.284134
1957.000000	100.283221
1956.000000	100.282237
1955.000000	100.281498
1954.000000	100.280978
1953.000000	100.280636
1952.000000	100.280639
1951.000000	100.281084
1950.000000	100.281699
1949.000000	100.282000
1948.000000	100.281740
1947.000000	100.281130
1946.000000	100.280595
1945.000000	100.280334
1944.000000	100.280187
1943.000000	100.279906
1942.000000	100.279379
1941.000000	100.278395
1940.000000	100.276539
1939.000000	100.273780
1938.000000	100.270988
1937.000000	100.269379
1936.000000	100.269323
1935.000000	100.270065
1934.000000	100.270614
1933.000000	100.270610
1932.000000	100.270040
1931.000000	100.268612
1930.000000	100.266045
1929.000000	100.262840
1928.000000	100.260169
1927.000000	100.258737
1926.000000	100.258125
1925.000000	100.257388
1924.000000	100.256067
1923.000000	100.254422
1922.000000	100.252861
1921.000000	100.251515
1920.000000	100.250487
1919.000000	100.249993
1918.000000	100.249912
1917.000000	100.249424
1916.000000	100.247497
1915.000000	100.243732
1914.000000	100.238836
1913.000000	100.234384
1912.000000	100.231679
1911.000000	100.230501
1910.000000	100.229079
1909.000000	100.225795
1908.000000	100.220933
1907.000000	100.216255
1906.000000	100.213070
1905.000000	100.211322
1904.000000	100.210391
1903.000000	100.209943
1902.000000	100.209666
1901.000000	100.208813
1900.000000	100.206592
1899.000000	100.203014
1898.000000	100.199097
1897.000000	100.196071
1896.000000	100.194391
1895.000000	100.193403
1894.000000	100.191934
1893.000000	100.189440
1892.000000	100.186484
1891.000000	100.183808
1890.000000	100.181174
1889.000000	100.177702
1888.000000	100.173373
1887.000000	100.169453
1886.000000	100.167373
1885.000000	100.167276
1884.000000	100.167661
1883.000000	100.166652
1882.000000	100.163605
1881.000000	100.159578
1880.000000	100.156286
1879.000000	100.154707
1878.000000	100.154605
1877.000000	100.155063
1876.000000	100.155471
1875.000000	100.155928
1874.000000	100.156545
1873.000000	100.156791
1872.000000	100.156083
1871.000000	100.154805
1870.000000	100.154171
1869.000000	100.155155
1868.000000	100.157950
1867.000000	100.161840
1866.000000	100.165550
1865.000000	100.168325
1864.000000	100.170319
1863.000000	100.172348
1862.000000	100.175393
1861.000000	100.179883
1860.000000	100.185397
1859.000000	100.191103
1858.000000	100.196153
1857.000000	100.199841
1856.000000	100.202026
1855.000000	100.203402
1854.000000	100.204953
1853.000000	100.206991
1852.000000	100.208923
1851.000000	100.210536
1850.000000	100.213069
1849.000000	100.218095
1848.000000	100.225479
1847.000000	100.233383
1846.000000	100.240042
1845.000000	100.244406
1844.000000	100.245859
1843.000000	100.244676
1842.000000	100.242038
1841.000000	100.239737
1840.000000	100.239430
1839.000000	100.241593
1838.000000	100.245285
1837.000000	100.248942
1836.000000	100.251377
1835.000000	100.252220
1834.000000	100.251982
1833.000000	100.251760
1832.000000	100.252405
1831.000000	100.253901
1830.000000	100.255493
1829.000000	100.256268
1828.000000	100.255238
1827.000000	100.252076
1826.000000	100.248130
1825.000000	100.245945
1824.000000	100.247317
1823.000000	100.251575
1822.000000	100.256397
1821.000000	100.259805
1820.000000	100.261214
1819.000000	100.261571
1818.000000	100.262169
1817.000000	100.263063
1816.000000	100.263259
1815.000000	100.262327
1814.000000	100.260890
1813.000000	100.259359
1812.000000	100.257193
1811.000000	100.254203
1810.000000	100.251524
1809.000000	100.250370
1808.000000	100.250904
1807.000000	100.252637
1806.000000	100.255262
1805.000000	100.258666
1804.000000	100.262230
1803.000000	100.264694
1802.000000	100.265342
1801.000000	100.264960
1800.000000	100.264906
1799.000000	100.265247
1798.000000	100.264701
1797.000000	100.262608
1796.000000	100.259729
1795.000000	100.256959
1794.000000	100.254623
1793.000000	100.253287
1792.000000	100.254504
1791.000000	100.259015
1790.000000	100.264438
1789.000000	100.268542
1788.000000	100.272417
1787.000000	100.278039
1786.000000	100.284574
1785.000000	100.288477
1784.000000	100.287811
1783.000000	100.284574
1782.000000	100.282519
1781.000000	100.284151
1780.000000	100.289495
1779.000000	100.296741
1778.000000	100.303658
1777.000000	100.308754
1776.000000	100.311496
1775.000000	100.312612
1774.000000	100.314408
1773.000000	100.319180
1772.000000	100.326875
1771.000000	100.335460
1770.000000	100.342702
1769.000000	100.348075
1768.000000	100.352805
1767.000000	100.357955
1766.000000	100.363081
1765.000000	100.367041
1764.000000	100.369946
1763.000000	100.373570
1762.000000	100.379900
1761.000000	100.388522
1760.000000	100.396647
1759.000000	100.403783
1758.000000	100.413180
1757.000000	100.427134
1756.000000	100.442506
1755.000000	100.454502
1754.000000	100.463806
1753.000000	100.475515
1752.000000	100.492044
1751.000000	100.509471
1750.000000	100.523331
1749.000000	100.534038
1748.000000	100.542661
1747.000000	100.548244
1746.000000	100.551578
1745.000000	100.556096
1744.000000	100.563419
1743.000000	100.571008
1742.000000	100.575740
1741.000000	100.577322
1740.000000	100.576468
1739.000000	100.572425
1738.000000	100.563927
1737.000000	100.550810
1736.000000	100.534265
1735.000000	100.515323
1734.000000	100.496365
1733.000000	100.484260
1732.000000	100.479627
1731.000000	100.477369
1730.000000	100.475315
1729.000000	100.474361
1728.000000	100.475110
1727.000000	100.476093
1726.000000	100.475405
1725.000000	100.472508
1724.000000	100.468558
1723.000000	100.464915
1722.000000	100.461222
1721.000000	100.456114
1720.000000	100.449367
1719.000000	100.441820
1718.000000	100.433408
1717.000000	100.424029
1716.000000	100.416748
1715.000000	100.414787
1714.000000	100.417106
1713.000000	100.419664
1712.000000	100.419561
1711.000000	100.416838
1710.000000	100.413260
1709.000000	100.410400
1708.000000	100.408649
1707.000000	100.407376
1706.000000	100.404904
1705.000000	100.399695
1704.000000	100.392123
1703.000000	100.383834
1702.000000	100.376900
1701.000000	100.372612
1700.000000	100.370675
1699.000000	100.370170
1698.000000	100.368346
1697.000000	100.364092
1696.000000	100.359195
1695.000000	100.356169
1694.000000	100.354669
1693.000000	100.352571
1692.000000	100.349206
1691.000000	100.345362
1690.000000	100.341915
1689.000000	100.338649
1688.000000	100.334581
1687.000000	100.329511
1686.000000	100.324659
1685.000000	100.321338
1684.000000	100.320104
1683.000000	100.321006
1682.000000	100.321601
1681.000000	100.320296
1680.000000	100.317711
1679.000000	100.315053
1678.000000	100.313115
1677.000000	100.311879
1676.000000	100.310655
1675.000000	100.308831
1674.000000	100.306887
1673.000000	100.305294
1672.000000	100.303797
1671.000000	100.302002
1670.000000	100.299695
1669.000000	100.297333
1668.000000	100.295369
1667.000000	100.293442
1666.000000	100.291272
1665.000000	100.288886
1664.000000	100.286206
1663.000000	100.283186
1662.000000	100.280568
1661.000000	100.279235
1660.000000	100.278791
1659.000000	100.277885
1658.000000	100.275361
1657.000000	100.271059
1656.000000	100.266137
1655.000000	100.262741
1654.000000	100.260931
1653.000000	100.257226
1652.000000	100.254161
1651.000000	100.253078
1650.000000	100.252305
1649.000000	100.250704
1648.000000	100.247249
1647.000000	100.242792
1646.000000	100.241927
1645.000000	100.246210
1644.000000	100.251161
1643.000000	100.252734
1642.000000	100.249995
1641.000000	100.244671
1640.000000	100.239686
1639.000000	100.237078
1638.000000	100.237124
1637.000000	100.238141
1636.000000	100.236520
1635.000000	100.231708
1634.000000	100.227522
1633.000000	100.225625
1632.000000	100.226041
1631.000000	100.228263
1630.000000	100.230871
1629.000000	100.231967
1628.000000	100.230668
1627.000000	100.227712
1626.000000	100.224537
1625.000000	100.222540
1624.000000	100.222470
1623.000000	100.223871
1622.000000	100.225652
1621.000000	100.226852
1620.000000	100.226989
1619.000000	100.226491
1618.000000	100.226371
1617.000000	100.227854
1616.000000	100.232895
1615.000000	100.241111
1614.000000	100.249241
1613.000000	100.255630
1612.000000	100.260474
1611.000000	100.263955
1610.000000	100.266369
1609.000000	100.269586
1608.000000	100.276059
1607.000000	100.285893
1606.000000	100.296557
1605.000000	100.305336
1604.000000	100.311100
1603.000000	100.314592
1602.000000	100.317998
1601.000000	100.323380
1600.000000	100.330950
1599.000000	100.339201
1598.000000	100.346625
1597.000000	100.352524
1596.000000	100.356493
1595.000000	100.358530
1594.000000	100.360024
1593.000000	100.363469
1592.000000	100.370205
1591.000000	100.379148
1590.000000	100.388140
1589.000000	100.395995
1588.000000	100.402488
1587.000000	100.407215
1586.000000	100.410120
1585.000000	100.412795
1584.000000	100.417324
1583.000000	100.423817
1582.000000	100.430306
1581.000000	100.434980
1580.000000	100.437499
1579.000000	100.438495
1578.000000	100.439320
1577.000000	100.442158
1576.000000	100.449013
1575.000000	100.458971
1574.000000	100.467905
1573.000000	100.473365
1572.000000	100.475960
1571.000000	100.477196
1570.000000	100.477565
1569.000000	100.477830
1568.000000	100.478857
1567.000000	100.480661
1566.000000	100.484330
1565.000000	100.490448
1564.000000	100.496319
1563.000000	100.498095
1562.000000	100.496104
1561.000000	100.496319
1560.000000	100.503203
1559.000000	100.507175
1558.000000	100.506680
1557.000000	100.511058
1556.000000	100.519127
1555.000000	100.528262
1554.000000	100.535784
1553.000000	100.540818
1552.000000	100.544321
1551.000000	100.547156
1550.000000	100.548783
1549.000000	100.548990
1548.000000	100.549085
1547.000000	100.550855
1546.000000	100.555136
1545.000000	100.560556
1544.000000	100.564820
1543.000000	100.567167
1542.000000	100.567934
1541.000000	100.565379
1540.000000	100.557449
1539.000000	100.549007
1538.000000	100.543218
1537.000000	100.537767
1536.000000	100.531585
1535.000000	100.524191
1534.000000	100.513925
1533.000000	100.500995
1532.000000	100.489616
1531.000000	100.482094
1530.000000	100.477830
1529.000000	100.475706
1528.000000	100.474667
1527.000000	100.473807
1526.000000	100.472396
1525.000000	100.469856
1524.000000	100.466517
1523.000000	100.463664
1522.000000	100.461156
1521.000000	100.457498
1520.000000	100.453173
1519.000000	100.449174
1518.000000	100.446249
1517.000000	100.444573
1516.000000	100.443820
1515.000000	100.443733
1514.000000	100.444321
1513.000000	100.445424
1512.000000	100.445574
1511.000000	100.443840
1510.000000	100.442326
1509.000000	100.444956
1508.000000	100.452819
1507.000000	100.459257
1506.000000	100.458694
1505.000000	100.453791
1504.000000	100.447617
1503.000000	100.441842
1502.000000	100.436972
1501.000000	100.433623
1500.000000	100.432433
1499.000000	100.433583
1498.000000	100.436371
1497.000000	100.438194
1496.000000	100.436544
1495.000000	100.432421
1494.000000	100.428190
1493.000000	100.425390
1492.000000	100.425725
1491.000000	100.430916
1490.000000	100.440242
1489.000000	100.448980
1488.000000	100.452501
1487.000000	100.451293
1486.000000	100.448434
1485.000000	100.446283
1484.000000	100.445967
1483.000000	100.448023
1482.000000	100.452483
1481.000000	100.457643
1480.000000	100.461023
1479.000000	100.462402
1478.000000	100.464310
1477.000000	100.469162
1476.000000	100.477287
1475.000000	100.488391
1474.000000	100.502929
1473.000000	100.519932
1472.000000	100.535543
1471.000000	100.547290
1470.000000	100.555596
1469.000000	100.561701
1468.000000	100.565950
1467.000000	100.567870
1466.000000	100.566991
1465.000000	100.563395
1464.000000	100.558478
1463.000000	100.553954
1462.000000	100.550435
1461.000000	100.548147
1460.000000	100.547968
1459.000000	100.551421
1458.000000	100.558340
1457.000000	100.563789
1456.000000	100.563372
1455.000000	100.558236
1454.000000	100.551365
1453.000000	100.544063
1452.000000	100.536320
1451.000000	100.528812
1450.000000	100.522839
1449.000000	100.518687
1448.000000	100.515757
1447.000000	100.514665
1446.000000	100.516594
1445.000000	100.520192
1444.000000	100.521889
1443.000000	100.519288
1442.000000	100.513293
1441.000000	100.506608
1440.000000	100.500635
1439.000000	100.495097
1438.000000	100.489453
1437.000000	100.483045
1436.000000	100.476375
1435.000000	100.471394
1434.000000	100.469109
1433.000000	100.469477
1432.000000	100.471781
1431.000000	100.474180
1430.000000	100.474858
1429.000000	100.473123
1428.000000	100.469018
1427.000000	100.463303
1426.000000	100.457883
1425.000000	100.454873
1424.000000	100.454559
1423.000000	100.455508
1422.000000	100.457441
1421.000000	100.462299
1420.000000	100.470961
1419.000000	100.479759
1418.000000	100.484954
1417.000000	100.486561
1416.000000	100.485868
1415.000000	100.484292
1414.000000	100.483117
1413.000000	100.482924
1412.000000	100.483024
1411.000000	100.482353
1410.000000	100.481516
1409.000000	100.482756
1408.000000	100.487775
1407.000000	100.496130
1406.000000	100.505362
1405.000000	100.512536
1404.000000	100.515907
1403.000000	100.516100
1402.000000	100.515617
1401.000000	100.516507
1400.000000	100.518441
1399.000000	100.519321
1398.000000	100.518861
1397.000000	100.519501
1396.000000	100.523251
1395.000000	100.529122
1394.000000	100.534283
1393.000000	100.537479
1392.000000	100.539561
1391.000000	100.542112
1390.000000	100.546179
1389.000000	100.551581
1388.000000	100.556767
1387.000000	100.559990
1386.000000	100.561371
1385.000000	100.562539
1384.000000	100.564316
1383.000000	100.565900
1382.000000	100.566222
1381.000000	100.565644
1380.000000	100.565681
1379.000000	100.567023
1378.000000	100.568820
1377.000000	100.569942
1376.000000	100.569711
1375.000000	100.567342
1374.000000	100.562546
1373.000000	100.557055
1372.000000	100.553511
1371.000000	100.553069
1370.000000	100.554837
1369.000000	100.557216
1368.000000	100.559510
1367.000000	100.562172
1366.000000	100.565477
1365.000000	100.568508
1364.000000	100.569739
1363.000000	100.568785
1362.000000	100.567241
1361.000000	100.566960
1360.000000	100.567906
1359.000000	100.568643
1358.000000	100.568006
1357.000000	100.566145
1356.000000	100.564392
1355.000000	100.564196
1354.000000	100.565893
1353.000000	100.568349
1352.000000	100.569916
1351.000000	100.569676
1350.000000	100.567832
1349.000000	100.565548
1348.000000	100.564028
1347.000000	100.563611
1346.000000	100.563592
1345.000000	100.562954
1344.000000	100.561404
1343.000000	100.559861
1342.000000	100.559734
1341.000000	100.561501
1340.000000	100.563908
1339.000000	100.565036
1338.000000	100.564553
1337.000000	100.564053
1336.000000	100.564926
1335.000000	100.566673
1334.000000	100.567540
1333.000000	100.566586
1332.000000	100.564824
1331.000000	100.564194
1330.000000	100.565463
1329.000000	100.567376
1328.000000	100.568018
1327.000000	100.566989
1326.000000	100.566077
1325.000000	100.567538
1324.000000	100.571309
1323.000000	100.574394
1322.000000	100.573564
1321.000000	100.568471
1320.000000	100.562087
1319.000000	100.558185
1318.000000	100.558233
1317.000000	100.560861
1316.000000	100.563888
1315.000000	100.566267
1314.000000	100.568177
1313.000000	100.569861
1312.000000	100.570783
1311.000000	100.570067
1310.000000	100.567721
1309.000000	100.565245
1308.000000	100.564654
1307.000000	100.566431
1306.000000	100.568662
1305.000000	100.568953
1304.000000	100.567074
1303.000000	100.565208
1302.000000	100.565359
1301.000000	100.567058
1300.000000	100.568181
1299.000000	100.567580
1298.000000	100.566263
1297.000000	100.566134
1296.000000	100.568026
1295.000000	100.570681
1294.000000	100.571324
1293.000000	100.567882
1292.000000	100.561513
1291.000000	100.556379
1290.000000	100.555391
1289.000000	100.556535
1288.000000	100.555101
1287.000000	100.549488
1286.000000	100.542856
1285.000000	100.538745
1284.000000	100.537371
1283.000000	100.537118
1282.000000	100.537332
1281.000000	100.538002
1280.000000	100.538221
1279.000000	100.536904
1278.000000	100.534537
1277.000000	100.532734
1276.000000	100.532466
1275.000000	100.533709
1274.000000	100.536158
1273.000000	100.538980
1272.000000	100.540286
1271.000000	100.538268
1270.000000	100.533142
1269.000000	100.527392
1268.000000	100.524240
1267.000000	100.525964
1266.000000	100.532525
1265.000000	100.541008
1264.000000	100.547631
1263.000000	100.551489
1262.000000	100.555350
1261.000000	100.561481
1260.000000	100.567585
1259.000000	100.568537
1258.000000	100.561699
1257.000000	100.548811
1256.000000	100.533354
1255.000000	100.517903
1254.000000	100.503706
1253.000000	100.490970
1252.000000	100.479134
1251.000000	100.467647
1250.000000	100.456458
1249.000000	100.445295
1248.000000	100.433232
1247.000000	100.419918
1246.000000	100.406359
1245.000000	100.393178
1244.000000	100.379187
1243.000000	100.363413
1242.000000	100.347675
1241.000000	100.334956
1240.000000	100.325551
1239.000000	100.316893
1238.000000	100.306984
1237.000000	100.295751
1236.000000	100.282925
1235.000000	100.267141
1234.000000	100.247910
1233.000000	100.226260
1232.000000	100.202448
1231.000000	100.175289
1230.000000	100.145157
1229.000000	100.115560
1228.000000	100.089585
1227.000000	100.065831
1226.000000	100.039655
1225.000000	100.007548
1224.000000	99.968481
1223.000000	99.921988
1222.000000	99.867696
1221.000000	99.807081
1220.000000	99.743527
1219.000000	99.679438
1218.000000	99.614311
1217.000000	99.546447
1216.000000	99.475421
1215.000000	99.401938
1214.000000	99.326440
1213.000000	99.249367
1212.000000	99.172080
1211.000000	99.095987
1210.000000	99.021110
1209.000000	98.946870
1208.000000	98.873453
1207.000000	98.800627
1206.000000	98.726232
1205.000000	98.648567
1204.000000	98.569827
1203.000000	98.494246
1202.000000	98.422842
1201.000000	98.352579
1200.000000	98.280708
1199.000000	98.207191
1198.000000	98.132816
1197.000000	98.058040
1196.000000	97.984220
1195.000000	97.912873
1194.000000	97.842801
1193.000000	97.770746
1192.000000	97.695602
1191.000000	97.619252
1190.000000	97.542664
1189.000000	97.464278
1188.000000	97.383211
1187.000000	97.300866
1186.000000	97.217993
1185.000000	97.132992
1184.000000	97.044590
1183.000000	96.953577
1182.000000	96.860631
1181.000000	96.765047
1180.000000	96.666895
1179.000000	96.567751
1178.000000	96.467883
1177.000000	96.365194
1176.000000	96.258194
1175.000000	96.147577
1174.000000	96.033830
1173.000000	95.915833
1172.000000	95.792979
1171.000000	95.666728
1170.000000	95.539902
1169.000000	95.416793
1168.000000	95.303238
1167.000000	95.203071
1166.000000	95.115305
1165.000000	95.039489
1164.000000	94.983304
1163.000000	94.959287
1162.000000	94.973162
1161.000000	95.018560
1160.000000	95.080939
1159.000000	95.141417
1158.000000	95.180169
1157.000000	95.185172
1156.000000	95.159077
1155.000000	95.112857
1154.000000	95.052808
1153.000000	94.978431
1152.000000	94.891620
1151.000000	94.800019
1150.000000	94.709802
1149.000000	94.621745
1148.000000	94.535845
1147.000000	94.453063
1146.000000	94.371009
1145.000000	94.285099
1144.000000	94.196326
1143.000000	94.111350
1142.000000	94.032524
1141.000000	93.954085
1140.000000	93.870434
1139.000000	93.781831
1138.000000	93.689948
1137.000000	93.594599
1136.000000	93.497480
1135.000000	93.402652
1134.000000	93.310198
1133.000000	93.215078
1132.000000	93.114771
1131.000000	93.012653
1130.000000	92.912439
1129.000000	92.815225
1128.000000	92.722802
1127.000000	92.636356
1126.000000	92.550296
1125.000000	92.455422
1124.000000	92.350902
1123.000000	92.246112
1122.000000	92.148465
1121.000000	92.056450
1120.000000	91.966251
1119.000000	91.876731
1118.000000	91.785455
1117.000000	91.688648
1116.000000	91.588285
1115.000000	91.490937
1114.000000	91.396723
1113.000000	91.298453
1112.000000	91.194843
1111.000000	91.094699
1110.000000	91.003948
1109.000000	90.917775
1108.000000	90.829475
1107.000000	90.738450
1106.000000	90.645867
1105.000000	90.551379
1104.000000	90.457942
1103.000000	90.370957
1102.000000	90.288778
1101.000000	90.202456
1100.000000	90.107990
1099.000000	90.011077
1098.000000	89.916844
1097.000000	89.824323
1096.000000	89.733234
1095.000000	89.646567
1094.000000	89.563456
1093.000000	89.478921
1092.000000	89.393571
1091.000000	89.314838
1090.000000	89.246658
1089.000000	89.186695
1088.000000	89.134297
1087.000000	89.090995
1086.000000	89.052452
1085.000000	89.010691
1084.000000	88.964950
1083.000000	88.920026
1082.000000	88.874873
1081.000000	88.825101
1080.000000	88.775829
1079.000000	88.737655
1078.000000	88.708528
1077.000000	88.673645
1076.000000	88.625038
1075.000000	88.567165
1074.000000	88.501706
1073.000000	88.421549
1072.000000	88.322730
1071.000000	88.208443
1070.000000	88.078144
1069.000000	87.926201
1068.000000	87.755133
1067.000000	87.577216
1066.000000	87.398833
1065.000000	87.215504
1064.000000	87.025909
1063.000000	86.837478
1062.000000	86.654668
1061.000000	86.475405
1060.000000	86.302635
1059.000000	86.145044
1058.000000	86.002386
1057.000000	85.864183
1056.000000	85.726224
1055.000000	85.593428
1054.000000	85.462802
1053.000000	85.319774
1052.000000	85.157791
1051.000000	84.986398
1050.000000	84.812978
1049.000000	84.632444
1048.000000	84.442304
1047.000000	84.250901
1046.000000	84.063809
1045.000000	83.877006
1044.000000	83.687680
1043.000000	83.497900
1042.000000	83.305541
1041.000000	83.106115
1040.000000	82.905638
1039.000000	82.716380
1038.000000	82.538140
1037.000000	82.360204
1036.000000	82.183605
1035.000000	82.023281
1034.000000	81.885374
1033.000000	81.760833
1032.000000	81.644453
1031.000000	81.541144
1030.000000	81.449193
1029.000000	81.356814
1028.000000	81.261371
1027.000000	81.174388
1026.000000	81.101539
1025.000000	81.034191
1024.000000	80.965399
1023.000000	80.898116
1022.000000	80.833637
1021.000000	80.767917
1020.000000	80.702403
1019.000000	80.642517
1018.000000	80.583598
1017.000000	80.515051
1016.000000	80.439271
1015.000000	80.368582
1014.000000	80.303178
1013.000000	80.231593
1012.000000	80.153944
1011.000000	80.083883
1010.000000	80.025173
1009.000000	79.967253
1008.000000	79.907128
1007.000000	79.854754
1006.000000	79.812481
1005.000000	79.769758
1004.000000	79.723495
1003.000000	79.684269
1002.000000	79.656963
1001.000000	79.633720
1000.000000	79.610950
999.000000	79.595298
998.000000	79.587689
997.000000	79.578620
996.000000	79.564263
995.000000	79.551885
994.000000	79.546290
993.000000	79.545954
992.000000	79.553094
991.000000	79.570641
990.000000	79.589577
989.000000	79.597997
988.000000	79.603082
987.000000	79.624902
986.000000	79.668543
985.000000	79.722111
984.000000	79.781386
983.000000	79.854338
982.000000	79.940507
981.000000	80.029724
980.000000	80.124442
979.000000	80.240188
978.000000	80.379253
977.000000	80.525847
976.000000	80.672256
975.000000	80.828566
974.000000	81.000776
973.000000	81.180301
972.000000	81.361739
971.000000	81.551403
970.000000	81.751046
969.000000	81.951449
968.000000	82.149272
967.000000	82.353323
966.000000	82.567135
965.000000	82.780952
964.000000	82.987407
963.000000	83.190443
962.000000	83.392854
961.000000	83.588999
960.000000	83.775771
959.000000	83.958293
958.000000	84.139637
957.000000	84.316096
956.000000	84.486188
955.000000	84.653594
954.000000	84.819148
953.000000	84.980410
952.000000	85.138975
951.000000	85.296207
950.000000	85.443138
949.000000	85.569062
948.000000	85.679575
947.000000	85.791110
946.000000	85.906946
945.000000	86.014427
944.000000	86.107161
943.000000	86.193230
942.000000	86.278848
941.000000	86.360296
940.000000	86.436918
939.000000	86.516656
938.000000	86.602542
937.000000	86.686753
936.000000	86.763530
935.000000	86.836330
934.000000	86.908332
933.000000	86.978156
932.000000	87.049375
931.000000	87.132283
930.000000	87.230865
929.000000	87.337223
928.000000	87.441720
927.000000	87.539707
926.000000	87.628370
925.000000	87.708265
924.000000	87.788408
923.000000	87.878041
922.000000	87.972674
921.000000	88.059713
920.000000	88.136995
919.000000	88.212376
918.000000	88.286282
917.000000	88.351024
916.000000	88.408891
915.000000	88.474138
914.000000	88.552812
913.000000	88.636009
912.000000	88.718276
911.000000	88.808526
910.000000	88.916435
909.000000	89.040653
908.000000	89.176253
907.000000	89.322706
906.000000	89.479835
905.000000	89.646534
904.000000	89.827179
903.000000	90.028645
902.000000	90.247955
901.000000	90.472744
900.000000	90.695587
899.000000	90.917647
898.000000	91.137778
897.000000	91.350658
896.000000	91.557377
895.000000	91.765486
894.000000	91.975335
893.000000	92.177287
892.000000	92.365892
891.000000	92.547058
890.000000	92.728051
889.000000	92.908889
888.000000	93.086053
887.000000	93.256484
886.000000	93.415984
885.000000	93.561764
884.000000	93.698450
883.000000	93.834472
882.000000	93.972095
881.000000	94.108503
880.000000	94.245760
879.000000	94.389981
878.000000	94.540766
877.000000	94.691942
876.000000	94.843026
875.000000	94.999072
874.000000	95.158589
873.000000	95.312949
872.000000	95.459619
871.000000	95.606064
870.000000	95.758786
869.000000	95.916822
868.000000	96.076709
867.000000	96.235405
866.000000	96.387955
865.000000	96.530436
864.000000	96.665953
863.000000	96.801017
862.000000	96.936158
861.000000	97.066743
860.000000	97.191768
859.000000	97.313942
858.000000	97.432167
857.000000	97.542549
856.000000	97.646464
855.000000	97.748659
854.000000	97.847107
853.000000	97.934014
852.000000	98.008617
851.000000	98.080599
850.000000	98.158123
849.000000	98.239045
848.000000	98.315153
847.000000	98.377627
846.000000	98.417942
845.000000	98.432907
844.000000	98.432044
843.000000	98.431677
842.000000	98.436450
841.000000	98.432649
840.000000	98.404331
839.000000	98.350673
838.000000	98.283802
837.000000	98.214831
836.000000	98.146903
835.000000	98.077988
834.000000	98.005725
833.000000	97.932192
832.000000	97.867322
831.000000	97.824639
830.000000	97.810006
829.000000	97.816251
828.000000	97.830265
827.000000	97.842795
826.000000	97.851794
825.000000	97.861431
824.000000	97.878518
823.000000	97.904740
822.000000	97.932056
821.000000	97.950463
820.000000	97.957999
819.000000	97.957273
818.000000	97.944936
817.000000	97.911570
816.000000	97.850980
815.000000	97.763093
814.000000	97.647512
813.000000	97.499548
812.000000	97.312441
811.000000	97.077317
810.000000	96.781074
809.000000	96.412817
808.000000	95.976187
807.000000	95.489920
806.000000	94.973515
805.000000	94.439021
804.000000	93.899985
803.000000	93.378553
802.000000	92.896552
801.000000	92.467711
800.000000	92.105591
799.000000	91.829858
798.000000	91.655193
797.000000	91.578676
796.000000	91.582785
795.000000	91.645713
794.000000	91.747593
793.000000	91.873599
792.000000	92.012200
791.000000	92.146558
790.000000	92.252163
789.000000	92.310637
788.000000	92.321507
787.000000	92.292141
786.000000	92.220972
785.000000	92.100881
784.000000	91.935760
783.000000	91.743183
782.000000	91.543588
781.000000	91.357666
780.000000	91.210553
779.000000	91.123378
778.000000	91.099667
777.000000	91.132036
776.000000	91.220306
775.000000	91.368635
774.000000	91.566486
773.000000	91.788235
772.000000	92.011935
771.000000	92.225391
770.000000	92.416632
769.000000	92.574995
768.000000	92.702414
767.000000	92.809457
766.000000	92.899078
765.000000	92.966972
764.000000	93.017921
763.000000	93.067648
762.000000	93.126331
761.000000	93.192447
760.000000	93.264059
759.000000	93.343504
758.000000	93.429674
757.000000	93.518405
756.000000	93.611627
755.000000	93.713507
754.000000	93.817259
753.000000	93.910064
752.000000	93.992929
751.000000	94.081631
750.000000	94.184531
749.000000	94.291927
748.000000	94.391490
747.000000	94.483403
746.000000	94.576449
745.000000	94.678890
744.000000	94.796803
743.000000	94.932663
742.000000	95.082667
741.000000	95.242454
740.000000	95.414332
739.000000	95.599628
738.000000	95.786047
737.000000	95.954606
736.000000	96.099062
735.000000	96.227567
734.000000	96.346181
733.000000	96.452415
732.000000	96.543964
731.000000	96.620746
730.000000	96.677873
729.000000	96.710251
728.000000	96.727087
727.000000	96.749819
726.000000	96.792074
725.000000	96.851812
724.000000	96.924175
723.000000	97.009150
722.000000	97.103866
721.000000	97.200142
720.000000	97.294394
719.000000	97.389311
718.000000	97.482238
717.000000	97.563540
716.000000	97.630471
715.000000	97.691528
714.000000	97.752584
713.000000	97.809113
712.000000	97.857171
711.000000	97.901088
710.000000	97.943238
709.000000	97.975313
708.000000	97.987288
707.000000	97.978466
706.000000	97.953381
705.000000	97.912429
704.000000	97.851548
703.000000	97.764770
702.000000	97.642032
701.000000	97.470233
700.000000	97.242266
699.000000	96.964279
698.000000	96.656451
697.000000	96.354690
696.000000	96.109146
695.000000	95.965493
694.000000	95.939957
693.000000	96.016036
692.000000	96.163122
691.000000	96.350930
690.000000	96.550628
689.000000	96.738803
688.000000	96.906680
687.000000	97.055972
686.000000	97.183483
685.000000	97.281999
684.000000	97.357954
683.000000	97.432689
682.000000	97.519469
681.000000	97.609023
680.000000	97.683114
679.000000	97.734898
678.000000	97.771868
677.000000	97.807449
676.000000	97.855335
675.000000	97.925198
674.000000	98.014396
673.000000	98.107983
672.000000	98.192192
671.000000	98.263428
670.000000	98.321447
669.000000	98.366451
668.000000	98.414570
667.000000	98.482995
666.000000	98.555899
665.000000	98.618143
664.000000	98.670769
663.000000	98.718097
662.000000	98.760631
661.000000	98.798838
660.000000	98.840963
659.000000	98.893057
658.000000	98.938238
657.000000	98.945744
656.000000	98.909622
655.000000	98.863069
654.000000	98.840218
653.000000	98.838253
652.000000	98.836257
651.000000	98.832999
650.000000	98.844300
