4000.000000	100.574998
3999.000000	100.573598
3998.000000	100.572368
3997.000000	100.571557
3996.000000	100.571107
3995.000000	100.570677
3994.000000	100.569914
3993.000000	100.568647
3992.000000	100.566973
3991.000000	100.565310
3990.000000	100.564178
3989.000000	100.563834
3988.000000	100.564081
3987.000000	100.564340
3986.000000	100.564023
3985.000000	100.562989
3984.000000	100.561668
3983.000000	100.560720
3982.000000	100.560458
3981.000000	100.560588
3980.000000	100.560463
3979.000000	100.559635
3978.000000	100.558236
3977.000000	100.556854
3976.000000	100.555949
3975.000000	100.555385
3974.000000	100.554577
3973.000000	100.553120
3972.000000	100.551242
3971.000000	100.549626
3970.000000	100.548800
3969.000000	100.548704
3968.000000	100.548751
3967.000000	100.548310
3966.000000	100.547230
3965.000000	100.546006
3964.000000	100.545467
3963.000000	100.546226
3962.000000	100.548304
3961.000000	100.551049
3960.000000	100.553391
3959.000000	100.554349
3958.000000	100.553544
3957.000000	100.551411
3956.000000	100.548889
3955.000000	100.546633
3954.000000	100.544529
3953.000000	100.542141
3952.000000	100.539569
3951.000000	100.537713
3950.000000	100.537440
3949.000000	100.538473
3948.000000	100.539312
3947.000000	100.538530
3946.000000	100.536156
3945.000000	100.533851
3944.000000	100.533681
3943.000000	100.536471
3942.000000	100.541089
3941.000000	100.545297
3940.000000	100.547588
3939.000000	100.547964
3938.000000	100.547418
3937.000000	100.547020
3936.000000	100.547291
3935.000000	100.548200
3934.000000	100.549293
3933.000000	100.549835
3932.000000	100.549160
3931.000000	100.547195
3930.000000	100.544627
3929.000000	100.542309
3928.000000	100.540617
3927.000000	100.539504
3926.000000	100.538982
3925.000000	100.539183
3924.000000	100.539873
3923.000000	100.540386
3922.000000	100.540292
3921.000000	100.539818
3920.000000	100.539577
3919.000000	100.540021
3918.000000	100.541186
3917.000000	100.542680
3916.000000	100.543764
3915.000000	100.543685
3914.000000	100.542230
3913.000000	100.539969
3912.000000	100.538023
3911.000000	100.537364
3910.000000	100.538384
3909.000000	100.540729
3908.000000	100.543509
3907.000000	100.545871
3906.000000	100.547507
3905.000000	100.548820
3904.000000	100.550278
3903.000000	100.551604
3902.000000	100.552004
3901.000000	100.551078
3900.000000	100.549169
3899.000000	100.546987
3898.000000	100.545221
3897.000000	100.544557
3896.000000	100.545547
3895.000000	100.548064
3894.000000	100.551000
3893.000000	100.552910
3892.000000	100.553392
3891.000000	100.553464
3890.000000	100.554122
3889.000000	100.555210
3888.000000	100.555769
3887.000000	100.555090
3886.000000	100.553367
3885.000000	100.551259
3884.000000	100.549135
3883.000000	100.547202
3882.000000	100.545818
3881.000000	100.545362
3880.000000	100.545835
3879.000000	100.546918
3878.000000	100.548494
3877.000000	100.550693
3876.000000	100.553291
3875.000000	100.555490
3874.000000	100.556279
3873.000000	100.555254
3872.000000	100.553398
3871.000000	100.552954
3870.000000	100.555502
3869.000000	100.559955
3868.000000	100.563495
3867.000000	100.564524
3866.000000	100.563345
3865.000000	100.561011
3864.000000	100.558302
3863.000000	100.555656
3862.000000	100.553647
3861.000000	100.552759
3860.000000	100.553078
3859.000000	100.554492
3858.000000	100.556928
3857.000000	100.560064
3856.000000	100.562913
3855.000000	100.564182
3854.000000	100.563555
3853.000000	100.561100
3852.000000	100.556985
3851.000000	100.552591
3850.000000	100.549707
3849.000000	100.548770
3848.000000	100.548882
3847.000000	100.548790
3846.000000	100.548032
3845.000000	100.547107
3844.000000	100.546733
3843.000000	100.547064
3842.000000	100.547743
3841.000000	100.548448
3840.000000	100.549094
3839.000000	100.549426
3838.000000	100.548975
3837.000000	100.547812
3836.000000	100.546780
3835.000000	100.546567
3834.000000	100.546820
3833.000000	100.546388
3832.000000	100.544515
3831.000000	100.541703
3830.000000	100.539373
3829.000000	100.538743
3828.000000	100.540165
3827.000000	100.543102
3826.000000	100.546458
3825.000000	100.549110
3824.000000	100.550224
3823.000000	100.549499
3822.000000	100.547643
3821.000000	100.546163
3820.000000	100.545747
3819.000000	100.545898
3818.000000	100.545956
3817.000000	100.545688
3816.000000	100.545171
3815.000000	100.544312
3814.000000	100.543022
3813.000000	100.541723
3812.000000	100.541074
3811.000000	100.541388
3810.000000	100.542548
3809.000000	100.544271
3808.000000	100.546335
3807.000000	100.548366
3806.000000	100.549698
3805.000000	100.549899
3804.000000	100.549164
3803.000000	100.548115
3802.000000	100.547514
3801.000000	100.547477
3800.000000	100.547256
3799.000000	100.546494
3798.000000	100.545764
3797.000000	100.545842
3796.000000	100.546881
3795.000000	100.548218
3794.000000	100.549031
3793.000000	100.549050
3792.000000	100.548531
3791.000000	100.547878
3790.000000	100.547369
3789.000000	100.547039
3788.000000	100.546783
3787.000000	100.546726
3786.000000	100.547393
3785.000000	100.549201
3784.000000	100.551747
3783.000000	100.553879
3782.000000	100.554733
3781.000000	100.554534
3780.000000	100.554300
3779.000000	100.554653
3778.000000	100.555324
3777.000000	100.556057
3776.000000	100.557306
3775.000000	100.559561
3774.000000	100.562243
3773.000000	100.563720
3772.000000	100.562652
3771.000000	100.559432
3770.000000	100.556233
3769.000000	100.554993
3768.000000	100.555910
3767.000000	100.558122
3766.000000	100.560805
3765.000000	100.563409
3764.000000	100.565363
3763.000000	100.566196
3762.000000	100.566117
3761.000000	100.566023
3760.000000	100.566718
3759.000000	100.568087
3758.000000	100.569400
3757.000000	100.570159
3756.000000	100.570307
3755.000000	100.570071
3754.000000	100.570012
3753.000000	100.570969
3752.000000	100.573364
3751.000000	100.576414
3750.000000	100.578470
3749.000000	100.578523
3748.000000	100.576489
3747.000000	100.572725
3746.000000	100.568127
3745.000000	100.564456
3744.000000	100.561832
3743.000000	100.558280
3742.000000	100.553948
3741.000000	100.551289
3740.000000	100.551411
3739.000000	100.552761
3738.000000	100.552644
3737.000000	100.550220
3736.000000	100.547449
3735.000000	100.546558
3734.000000	100.547295
3733.000000	100.547709
3732.000000	100.546556
3731.000000	100.544078
3730.000000	100.541330
3729.000000	100.539371
3728.000000	100.538614
3727.000000	100.538581
3726.000000	100.538114
3725.000000	100.536196
3724.000000	100.532736
3723.000000	100.528342
3722.000000	100.523691
3721.000000	100.519308
3720.000000	100.515955
3719.000000	100.514596
3718.000000	100.515519
3717.000000	100.517541
3716.000000	100.518440
3715.000000	100.516631
3714.000000	100.512470
3713.000000	100.507983
3712.000000	100.504768
3711.000000	100.501677
3710.000000	100.496307
3709.000000	100.488517
3708.000000	100.480747
3707.000000	100.475748
3706.000000	100.474657
3705.000000	100.476754
3704.000000	100.480171
3703.000000	100.482702
3702.000000	100.482698
3701.000000	100.479679
3700.000000	100.474494
3699.000000	100.468708
3698.000000	100.463285
3697.000000	100.457655
3696.000000	100.450290
3695.000000	100.440865
3694.000000	100.431850
3693.000000	100.426768
3692.000000	100.426560
3691.000000	100.428127
3690.000000	100.427615
3689.000000	100.424822
3688.000000	100.422437
3687.000000	100.421920
3686.000000	100.422391
3685.000000	100.422210
3684.000000	100.419566
3683.000000	100.412785
3682.000000	100.401804
3681.000000	100.389626
3680.000000	100.380264
3679.000000	100.374163
3678.000000	100.367334
3677.000000	100.356350
3676.000000	100.343762
3675.000000	100.333134
3674.000000	100.322368
3673.000000	100.308232
3672.000000	100.291580
3671.000000	100.276051
3670.000000	100.264752
3669.000000	100.256291
3668.000000	100.247614
3667.000000	100.238909
3666.000000	100.231578
3665.000000	100.224880
3664.000000	100.216271
3663.000000	100.204205
3662.000000	100.190136
3661.000000	100.177426
3660.000000	100.168177
3659.000000	100.161967
3658.000000	100.157090
3657.000000	100.152299
3656.000000	100.146125
3655.000000	100.136041
3654.000000	100.120901
3653.000000	100.102604
3652.000000	100.085065
3651.000000	100.071948
3650.000000	100.064092
3649.000000	100.058209
3648.000000	100.050845
3647.000000	100.041810
3646.000000	100.032390
3645.000000	100.023786
3644.000000	100.017133
3643.000000	100.012379
3642.000000	100.006634
3641.000000	99.995779
3640.000000	99.978916
3639.000000	99.960653
3638.000000	99.946833
3637.000000	99.938589
3636.000000	99.932319
3635.000000	99.924882
3634.000000	99.917227
3633.000000	99.912366
3632.000000	99.912039
3631.000000	99.916292
3630.000000	99.924244
3629.000000	99.932256
3628.000000	99.932774
3627.000000	99.922665
3626.000000	99.907783
3625.000000	99.895563
3624.000000	99.888663
3623.000000	99.885497
3622.000000	99.884323
3621.000000	99.886337
3620.000000	99.894343
3619.000000	99.907866
3618.000000	99.921690
3617.000000	99.931256
3616.000000	99.937217
3615.000000	99.943957
3614.000000	99.955375
3613.000000	99.971431
3612.000000	99.988401
3611.000000	100.002649
3610.000000	100.013011
3609.000000	100.019776
3608.000000	100.023444
3607.000000	100.025069
3606.000000	100.026796
3605.000000	100.030658
3604.000000	100.036755
3603.000000	100.043177
3602.000000	100.047400
3601.000000	100.047623
3600.000000	100.043674
3599.000000	100.037959
3598.000000	100.035246
3597.000000	100.039803
3596.000000	100.051610
3595.000000	100.065679
3594.000000	100.076053
3593.000000	100.080541
3592.000000	100.081262
3591.000000	100.081497
3590.000000	100.083075
3589.000000	100.086150
3588.000000	100.089692
3587.000000	100.091634
3586.000000	100.090256
3585.000000	100.086252
3584.000000	100.082052
3583.000000	100.079413
3582.000000	100.078178
3581.000000	100.077268
3580.000000	100.076069
3579.000000	100.074701
3578.000000	100.073419
3577.000000	100.072239
3576.000000	100.071261
3575.000000	100.070762
3574.000000	100.070850
3573.000000	100.071270
3572.000000	100.071929
3571.000000	100.073308
3570.000000	100.075847
3569.000000	100.078848
3568.000000	100.080231
3567.000000	100.078029
3566.000000	100.072267
3565.000000	100.064809
3564.000000	100.057402
3563.000000	100.050801
3562.000000	100.045767
3561.000000	100.043726
3560.000000	100.045723
3559.000000	100.050816
3558.000000	100.056146
3557.000000	100.059120
3556.000000	100.059266
3555.000000	100.057797
3554.000000	100.056021
3553.000000	100.054386
3552.000000	100.052701
3551.000000	100.050765
3550.000000	100.048522
3549.000000	100.046018
3548.000000	100.043614
3547.000000	100.042145
3546.000000	100.042336
3545.000000	100.044028
3544.000000	100.046349
3543.000000	100.048563
3542.000000	100.050365
3541.000000	100.051451
3540.000000	100.051458
3539.000000	100.050550
3538.000000	100.049597
3537.000000	100.049344
3536.000000	100.049648
3535.000000	100.050116
3534.000000	100.051182
3533.000000	100.053762
3532.000000	100.057752
3531.000000	100.061440
3530.000000	100.062945
3529.000000	100.062085
3528.000000	100.060430
3527.000000	100.059670
3526.000000	100.060002
3525.000000	100.060311
3524.000000	100.059480
3523.000000	100.057453
3522.000000	100.055328
3521.000000	100.054541
3520.000000	100.055840
3519.000000	100.058980
3518.000000	100.062974
3517.000000	100.066653
3516.000000	100.069212
3515.000000	100.070436
3514.000000	100.070673
3513.000000	100.070589
3512.000000	100.070737
3511.000000	100.071235
3510.000000	100.071853
3509.000000	100.072311
3508.000000	100.072476
3507.000000	100.072406
3506.000000	100.072348
3505.000000	100.072649
3504.000000	100.073532
3503.000000	100.074869
3502.000000	100.076220
3501.000000	100.077127
3500.000000	100.077369
3499.000000	100.076994
3498.000000	100.076276
3497.000000	100.075668
3496.000000	100.075600
3495.000000	100.076219
3494.000000	100.077274
3493.000000	100.078269
3492.000000	100.078791
3491.000000	100.078739
3490.000000	100.078333
3489.000000	100.077976
3488.000000	100.078051
3487.000000	100.078749
3486.000000	100.079956
3485.000000	100.081273
3484.000000	100.082206
3483.000000	100.082480
3482.000000	100.082188
3481.000000	100.081590
3480.000000	100.080849
3479.000000	100.080029
3478.000000	100.079307
3477.000000	100.078995
3476.000000	100.079272
3475.000000	100.080002
3474.000000	100.080825
3473.000000	100.081397
3472.000000	100.081538
3471.000000	100.081223
3470.000000	100.080539
3469.000000	100.079612
3468.000000	100.078520
3467.000000	100.077325
3466.000000	100.076225
3465.000000	100.075520
3464.000000	100.075333
3463.000000	100.075396
3462.000000	100.075191
3461.000000	100.074446
3460.000000	100.073363
3459.000000	100.072391
3458.000000	100.071776
3457.000000	100.071390
3456.000000	100.070922
3455.000000	100.070212
3454.000000	100.069377
3453.000000	100.068656
3452.000000	100.068172
3451.000000	100.067855
3450.000000	100.067536
3449.000000	100.067096
3448.000000	100.066503
3447.000000	100.065769
3446.000000	100.064913
3445.000000	100.063968
3444.000000	100.062997
3443.000000	100.062093
3442.000000	100.061357
3441.000000	100.060862
3440.000000	100.060576
3439.000000	100.060321
3438.000000	100.059851
3437.000000	100.059038
3436.000000	100.058002
3435.000000	100.057055
3434.000000	100.056414
3433.000000	100.056010
3432.000000	100.055557
3431.000000	100.054867
3430.000000	100.054067
3429.000000	100.053509
3428.000000	100.053451
3427.000000	100.053838
3426.000000	100.054317
3425.000000	100.054498
3424.000000	100.054202
3423.000000	100.053509
3422.000000	100.052677
3421.000000	100.052004
3420.000000	100.051640
3419.000000	100.051512
3418.000000	100.051438
3417.000000	100.051302
3416.000000	100.051031
3415.000000	100.050470
3414.000000	100.049463
3413.000000	100.048042
3412.000000	100.046437
3411.000000	100.044891
3410.000000	100.043662
3409.000000	100.043198
3408.000000	100.043971
3407.000000	100.045918
3406.000000	100.048099
3405.000000	100.049255
3404.000000	100.048795
3403.000000	100.047027
3402.000000	100.044648
3401.000000	100.042162
3400.000000	100.039922
3399.000000	100.038479
3398.000000	100.038410
3397.000000	100.039769
3396.000000	100.041948
3395.000000	100.044203
3394.000000	100.046195
3393.000000	100.047934
3392.000000	100.049299
3391.000000	100.049870
3390.000000	100.049315
3389.000000	100.047826
3388.000000	100.046145
3387.000000	100.045110
3386.000000	100.045064
3385.000000	100.045606
3384.000000	100.045951
3383.000000	100.045773
3382.000000	100.045693
3381.000000	100.046699
3380.000000	100.049043
3379.000000	100.051869
3378.000000	100.054050
3377.000000	100.055166
3376.000000	100.055507
3375.000000	100.055418
3374.000000	100.055025
3373.000000	100.054401
3372.000000	100.053554
3371.000000	100.052245
3370.000000	100.050313
3369.000000	100.048305
3368.000000	100.047282
3367.000000	100.047779
3366.000000	100.049352
3365.000000	100.051433
3364.000000	100.054309
3363.000000	100.058726
3362.000000	100.064551
3361.000000	100.070195
3360.000000	100.073786
3359.000000	100.074711
3358.000000	100.073964
3357.000000	100.073208
3356.000000	100.073321
3355.000000	100.073931
3354.000000	100.074320
3353.000000	100.074397
3352.000000	100.074587
3351.000000	100.075171
3350.000000	100.076191
3349.000000	100.077774
3348.000000	100.079903
3347.000000	100.081869
3346.000000	100.082600
3345.000000	100.081769
3344.000000	100.080203
3343.000000	100.079061
3342.000000	100.078925
3341.000000	100.079876
3340.000000	100.081793
3339.000000	100.084147
3338.000000	100.086012
3337.000000	100.086880
3336.000000	100.087280
3335.000000	100.088139
3334.000000	100.089725
3333.000000	100.091653
3332.000000	100.093635
3331.000000	100.095621
3330.000000	100.097280
3329.000000	100.098029
3328.000000	100.097780
3327.000000	100.097249
3326.000000	100.097267
3325.000000	100.098111
3324.000000	100.099713
3323.000000	100.102162
3322.000000	100.105576
3321.000000	100.109497
3320.000000	100.112737
3319.000000	100.114199
3318.000000	100.113859
3317.000000	100.112868
3316.000000	100.112466
3315.000000	100.112608
3314.000000	100.112078
3313.000000	100.110102
3312.000000	100.107522
3311.000000	100.106067
3310.000000	100.106453
3309.000000	100.107676
3308.000000	100.108173
3307.000000	100.107498
3306.000000	100.106657
3305.000000	100.106946
3304.000000	100.108690
3303.000000	100.110996
3302.000000	100.112529
3301.000000	100.112719
3300.000000	100.112238
3299.000000	100.112300
3298.000000	100.113445
3297.000000	100.115160
3296.000000	100.116654
3295.000000	100.117743
3294.000000	100.118724
3293.000000	100.119648
3292.000000	100.120139
3291.000000	100.119970
3290.000000	100.119506
3289.000000	100.119400
3288.000000	100.119934
3287.000000	100.120763
3286.000000	100.121214
3285.000000	100.120788
3284.000000	100.119460
3283.000000	100.117742
3282.000000	100.116489
3281.000000	100.116352
3280.000000	100.117273
3279.000000	100.118460
3278.000000	100.119096
3277.000000	100.119189
3276.000000	100.119485
3275.000000	100.120510
3274.000000	100.121888
3273.000000	100.122780
3272.000000	100.122932
3271.000000	100.122962
3270.000000	100.123575
3269.000000	100.124836
3268.000000	100.126365
3267.000000	100.127863
3266.000000	100.129090
3265.000000	100.129624
3264.000000	100.129185
3263.000000	100.128197
3262.000000	100.127604
3261.000000	100.128032
3260.000000	100.129387
3259.000000	100.131260
3258.000000	100.133321
3257.000000	100.135221
3256.000000	100.136478
3255.000000	100.136711
3254.000000	100.135873
3253.000000	100.134192
3252.000000	100.132138
3251.000000	100.130557
3250.000000	100.130427
3249.000000	100.132192
3248.000000	100.135405
3247.000000	100.139202
3246.000000	100.143035
3245.000000	100.146754
3244.000000	100.150160
3243.000000	100.152831
3242.000000	100.154386
3241.000000	100.154724
3240.000000	100.154024
3239.000000	100.152755
3238.000000	100.151615
3237.000000	100.151152
3236.000000	100.151369
3235.000000	100.151865
3234.000000	100.152401
3233.000000	100.153220
3232.000000	100.154744
3231.000000	100.157058
3230.000000	100.159773
3229.000000	100.162260
3228.000000	100.163919
3227.000000	100.164397
3226.000000	100.163848
3225.000000	100.163076
3224.000000	100.163103
3223.000000	100.164280
3222.000000	100.165904
3221.000000	100.166949
3220.000000	100.167279
3219.000000	100.167874
3218.000000	100.169669
3217.000000	100.172407
3216.000000	100.174854
3215.000000	100.176082
3214.000000	100.176172
3213.000000	100.175847
3212.000000	100.175734
3211.000000	100.176008
3210.000000	100.176529
3209.000000	100.177093
3208.000000	100.177621
3207.000000	100.178192
3206.000000	100.178845
3205.000000	100.179338
3204.000000	100.179278
3203.000000	100.178596
3202.000000	100.177828
3201.000000	100.177756
3200.000000	100.178724
3199.000000	100.180399
3198.000000	100.182076
3197.000000	100.183240
3196.000000	100.183926
3195.000000	100.184627
3194.000000	100.185826
3193.000000	100.187517
3192.000000	100.189205
3191.000000	100.190468
3190.000000	100.191434
3189.000000	100.192572
3188.000000	100.194070
3187.000000	100.195584
3186.000000	100.196643
3185.000000	100.197176
3184.000000	100.197535
3183.000000	100.198117
3182.000000	100.199038
3181.000000	100.200152
3180.000000	100.201211
3179.000000	100.202006
3178.000000	100.202481
3177.000000	100.202776
3176.000000	100.203152
3175.000000	100.203809
3174.000000	100.204754
3173.000000	100.205859
3172.000000	100.206960
3171.000000	100.207949
3170.000000	100.208807
3169.000000	100.209580
3168.000000	100.210361
3167.000000	100.211225
3166.000000	100.212174
3165.000000	100.213149
3164.000000	100.214090
3163.000000	100.214980
3162.000000	100.215846
3161.000000	100.216722
3160.000000	100.217623
3159.000000	100.218549
3158.000000	100.219483
3157.000000	100.220399
3156.000000	100.221272
3155.000000	100.222090
3154.000000	100.222856
3153.000000	100.223573
3152.000000	100.224239
3151.000000	100.224867
3150.000000	100.225515
3149.000000	100.226250
3148.000000	100.227064
3147.000000	100.227847
3146.000000	100.228509
3145.000000	100.229104
3144.000000	100.229806
3143.000000	100.230745
3142.000000	100.231892
3141.000000	100.233078
3140.000000	100.234151
3139.000000	100.235081
3138.000000	100.235944
3137.000000	100.236844
3136.000000	100.237870
3135.000000	100.239078
3134.000000	100.240425
3133.000000	100.241733
3132.000000	100.242777
3131.000000	100.243504
3130.000000	100.244073
3129.000000	100.244648
3128.000000	100.245249
3127.000000	100.245774
3126.000000	100.246166
3125.000000	100.246523
3124.000000	100.247034
3123.000000	100.247733
3122.000000	100.248415
3121.000000	100.248925
3120.000000	100.249490
3119.000000	100.250517
3118.000000	100.252024
3117.000000	100.253495
3116.000000	100.254461
3115.000000	100.255098
3114.000000	100.256012
3113.000000	100.257545
3112.000000	100.259458
3111.000000	100.261210
3110.000000	100.262379
3109.000000	100.262821
3108.000000	100.262727
3107.000000	100.262630
3106.000000	100.263135
3105.000000	100.264452
3104.000000	100.266241
3103.000000	100.267898
3102.000000	100.269000
3101.000000	100.269488
3100.000000	100.269642
3099.000000	100.269936
3098.000000	100.270650
3097.000000	100.271531
3096.000000	100.272026
3095.000000	100.271930
3094.000000	100.271538
3093.000000	100.271116
3092.000000	100.270627
3091.000000	100.270281
3090.000000	100.270876
3089.000000	100.272958
3088.000000	100.275925
3087.000000	100.278359
3086.000000	100.279522
3085.000000	100.279919
3084.000000	100.280470
3083.000000	100.281525
3082.000000	100.282880
3081.000000	100.284341
3080.000000	100.285793
3079.000000	100.286926
3078.000000	100.287369
3077.000000	100.287160
3076.000000	100.286825
3075.000000	100.286895
3074.000000	100.287505
3073.000000	100.288528
3072.000000	100.289854
3071.000000	100.291482
3070.000000	100.293448
3069.000000	100.295735
3068.000000	100.298134
3067.000000	100.300178
3066.000000	100.301437
3065.000000	100.301928
3064.000000	100.302132
3063.000000	100.302581
3062.000000	100.303558
3061.000000	100.305170
3060.000000	100.307395
3059.000000	100.309839
3058.000000	100.311729
3057.000000	100.312543
3056.000000	100.312612
3055.000000	100.312902
3054.000000	100.314036
3053.000000	100.315707
3052.000000	100.317094
3051.000000	100.317637
3050.000000	100.317374
3049.000000	100.316813
3048.000000	100.316662
3047.000000	100.317566
3046.000000	100.319757
3045.000000	100.322803
3044.000000	100.325817
3043.000000	100.328018
3042.000000	100.329147
3041.000000	100.329334
3040.000000	100.328810
3039.000000	100.327897
3038.000000	100.327115
3037.000000	100.327002
3036.000000	100.327790
3035.000000	100.329398
3034.000000	100.331685
3033.000000	100.334507
3032.000000	100.337560
3031.000000	100.340505
3030.000000	100.343355
3029.000000	100.346390
3028.000000	100.349479
3027.000000	100.351858
3026.000000	100.352964
3025.000000	100.353325
3024.000000	100.354177
3023.000000	100.356142
3022.000000	100.358633
3021.000000	100.360563
3020.000000	100.361242
3019.000000	100.360748
3018.000000	100.360103
3017.000000	100.361229
3016.000000	100.365885
3015.000000	100.373875
3014.000000	100.382480
3013.000000	100.388647
3012.000000	100.391870
3011.000000	100.394167
3010.000000	100.397206
3009.000000	100.400178
3008.000000	100.401051
3007.000000	100.399424
3006.000000	100.397407
3005.000000	100.397564
3004.000000	100.400583
3003.000000	100.405376
3002.000000	100.410963
3001.000000	100.417332
3000.000000	100.424258
2999.000000	100.430277
2998.000000	100.433921
2997.000000	100.435716
2996.000000	100.437898
2995.000000	100.441963
2994.000000	100.447397
2993.000000	100.453207
2992.000000	100.459602
2991.000000	100.467155
2990.000000	100.474970
2989.000000	100.481098
2988.000000	100.484921
2987.000000	100.487977
2986.000000	100.491937
2985.000000	100.496521
2984.000000	100.500288
2983.000000	100.503179
2982.000000	100.507357
2981.000000	100.515164
2980.000000	100.526236
2979.000000	100.536932
2978.000000	100.543165
2977.000000	100.543913
2976.000000	100.541607
2975.000000	100.538977
2974.000000	100.536017
2973.000000	100.530953
2972.000000	100.523800
2971.000000	100.517382
2970.000000	100.514174
2969.000000	100.513198
2968.000000	100.511195
2967.000000	100.506392
2966.000000	100.499998
2965.000000	100.494076
2964.000000	100.489087
2963.000000	100.484043
2962.000000	100.478373
2961.000000	100.472949
2960.000000	100.469405
2959.000000	100.468810
2958.000000	100.470873
2957.000000	100.474076
2956.000000	100.476576
2955.000000	100.477205
2954.000000	100.475849
2953.000000	100.473031
2952.000000	100.469335
2951.000000	100.465277
2950.000000	100.461617
2949.000000	100.459591
2948.000000	100.460391
2947.000000	100.463925
2946.000000	100.468062
2945.000000	100.469933
2944.000000	100.468850
2943.000000	100.467618
2942.000000	100.469920
2941.000000	100.476127
2940.000000	100.482322
2939.000000	100.484075
2938.000000	100.480918
2937.000000	100.476468
2936.000000	100.474539
2935.000000	100.475675
2934.000000	100.477684
2933.000000	100.478527
2932.000000	100.478190
2931.000000	100.478027
2930.000000	100.479141
2929.000000	100.481694
2928.000000	100.485238
2927.000000	100.489067
2926.000000	100.492272
2925.000000	100.494078
2924.000000	100.494494
2923.000000	100.494528
2922.000000	100.495412
2921.000000	100.497494
2920.000000	100.500030
2919.000000	100.501974
2918.000000	100.502853
2917.000000	100.502987
2916.000000	100.503187
2915.000000	100.504224
2914.000000	100.506276
2913.000000	100.508687
2912.000000	100.510455
2911.000000	100.511179
2910.000000	100.511430
2909.000000	100.512102
2908.000000	100.513489
2907.000000	100.515111
2906.000000	100.516286
2905.000000	100.516686
2904.000000	100.516474
2903.000000	100.516207
2902.000000	100.516541
2901.000000	100.517764
2900.000000	100.519416
2899.000000	100.520546
2898.000000	100.520573
2897.000000	100.519797
2896.000000	100.519062
2895.000000	100.519060
2894.000000	100.519867
2893.000000	100.520951
2892.000000	100.521476
2891.000000	100.520822
2890.000000	100.519116
2889.000000	100.517366
2888.000000	100.516747
2887.000000	100.517587
2886.000000	100.519105
2885.000000	100.520125
2884.000000	100.520088
2883.000000	100.519295
2882.000000	100.518302
2881.000000	100.517284
2880.000000	100.516094
2879.000000	100.514793
2878.000000	100.513722
2877.000000	100.512923
2876.000000	100.511823
2875.000000	100.509876
2874.000000	100.507366
2873.000000	100.505264
2872.000000	100.504230
2871.000000	100.504018
2870.000000	100.503898
2869.000000	100.503405
2868.000000	100.502566
2867.000000	100.501670
2866.000000	100.500984
2865.000000	100.500562
2864.000000	100.500162
2863.000000	100.499416
2862.000000	100.498190
2861.000000	100.496682
2860.000000	100.495143
2859.000000	100.493689
2858.000000	100.492481
2857.000000	100.491800
2856.000000	100.491717
2855.000000	100.491814
2854.000000	100.491527
2853.000000	100.490794
2852.000000	100.490086
2851.000000	100.489826
2850.000000	100.489994
2849.000000	100.490270
2848.000000	100.490294
2847.000000	100.489732
2846.000000	100.488380
2845.000000	100.486411
2844.000000	100.484477
2843.000000	100.483224
2842.000000	100.482729
2841.000000	100.482565
2840.000000	100.482284
2839.000000	100.481809
2838.000000	100.481334
2837.000000	100.481021
2836.000000	100.480880
2835.000000	100.480819
2834.000000	100.480741
2833.000000	100.480601
2832.000000	100.480430
2831.000000	100.480295
2830.000000	100.480219
2829.000000	100.480184
2828.000000	100.480203
2827.000000	100.480316
2826.000000	100.480463
2825.000000	100.480427
2824.000000	100.480035
2823.000000	100.479388
2822.000000	100.478842
2821.000000	100.478661
2820.000000	100.478756
2819.000000	100.478827
2818.000000	100.478744
2817.000000	100.478702
2816.000000	100.478947
2815.000000	100.479499
2814.000000	100.480163
2813.000000	100.480702
2812.000000	100.480979
2811.000000	100.480989
2810.000000	100.480839
2809.000000	100.480709
2808.000000	100.480750
2807.000000	100.480976
2806.000000	100.481269
2805.000000	100.481492
2804.000000	100.481615
2803.000000	100.481740
2802.000000	100.482010
2801.000000	100.482497
2800.000000	100.483160
2799.000000	100.483862
2798.000000	100.484419
2797.000000	100.484694
2796.000000	100.484669
2795.000000	100.484473
2794.000000	100.484337
2793.000000	100.484432
2792.000000	100.484781
2791.000000	100.485285
2790.000000	100.485815
2789.000000	100.486311
2788.000000	100.486763
2787.000000	100.487151
2786.000000	100.487448
2785.000000	100.487661
2784.000000	100.487845
2783.000000	100.488077
2782.000000	100.488409
2781.000000	100.488847
2780.000000	100.489344
2779.000000	100.489848
2778.000000	100.490372
2777.000000	100.490977
2776.000000	100.491702
2775.000000	100.492501
2774.000000	100.493268
2773.000000	100.493923
2772.000000	100.494456
2771.000000	100.494902
2770.000000	100.495297
2769.000000	100.495688
2768.000000	100.496147
2767.000000	100.496726
2766.000000	100.497399
2765.000000	100.498079
2764.000000	100.498697
2763.000000	100.499267
2762.000000	100.499851
2761.000000	100.500488
2760.000000	100.501162
2759.000000	100.501838
2758.000000	100.502504
2757.000000	100.503187
2756.000000	100.503918
2755.000000	100.504694
2754.000000	100.505470
2753.000000	100.506192
2752.000000	100.506839
2751.000000	100.507452
2750.000000	100.508103
2749.000000	100.508821
2748.000000	100.509566
2747.000000	100.510269
2746.000000	100.510899
2745.000000	100.511478
2744.000000	100.512057
2743.000000	100.512680
2742.000000	100.513373
2741.000000	100.514153
2740.000000	100.515002
2739.000000	100.515832
2738.000000	100.516526
2737.000000	100.517050
2736.000000	100.517510
2735.000000	100.518026
2734.000000	100.518573
2733.000000	100.519021
2732.000000	100.519303
2731.000000	100.519496
2730.000000	100.519763
2729.000000	100.520206
2728.000000	100.520806
2727.000000	100.521444
2726.000000	100.521986
2725.000000	100.522377
2724.000000	100.522637
2723.000000	100.522839
2722.000000	100.523059
2721.000000	100.523330
2720.000000	100.523611
2719.000000	100.523831
2718.000000	100.523966
2717.000000	100.524064
2716.000000	100.524177
2715.000000	100.524285
2714.000000	100.524346
2713.000000	100.524397
2712.000000	100.524558
2711.000000	100.524918
2710.000000	100.525416
2709.000000	100.525831
2708.000000	100.525918
2707.000000	100.525580
2706.000000	100.524991
2705.000000	100.524538
2704.000000	100.524528
2703.000000	100.525011
2702.000000	100.525832
2701.000000	100.526788
2700.000000	100.527659
2699.000000	100.528221
2698.000000	100.528381
2697.000000	100.528200
2696.000000	100.527697
2695.000000	100.526824
2694.000000	100.525762
2693.000000	100.525040
2692.000000	100.525108
2691.000000	100.525831
2690.000000	100.526555
2689.000000	100.526781
2688.000000	100.526574
2687.000000	100.526228
2686.000000	100.525904
2685.000000	100.525701
2684.000000	100.525772
2683.000000	100.526099
2682.000000	100.526382
2681.000000	100.526436
2680.000000	100.526494
2679.000000	100.526868
2678.000000	100.527430
2677.000000	100.527698
2676.000000	100.527353
2675.000000	100.526450
2674.000000	100.525235
2673.000000	100.524004
2672.000000	100.523088
2671.000000	100.522758
2670.000000	100.522965
2669.000000	100.523260
2668.000000	100.523053
2667.000000	100.522113
2666.000000	100.520942
2665.000000	100.520578
2664.000000	100.521734
2663.000000	100.524103
2662.000000	100.526545
2661.000000	100.528074
2660.000000	100.528587
2659.000000	100.528620
2658.000000	100.528666
2657.000000	100.528837
2656.000000	100.529050
2655.000000	100.529339
2654.000000	100.529920
2653.000000	100.530934
2652.000000	100.532075
2651.000000	100.532651
2650.000000	100.532254
2649.000000	100.531361
2648.000000	100.530956
2647.000000	100.531445
2646.000000	100.532162
2645.000000	100.532051
2644.000000	100.530673
2643.000000	100.528524
2642.000000	100.526650
2641.000000	100.525891
2640.000000	100.526313
2639.000000	100.527202
2638.000000	100.527705
2637.000000	100.527574
2636.000000	100.527128
2635.000000	100.526659
2634.000000	100.526230
2633.000000	100.526082
2632.000000	100.526764
2631.000000	100.528579
2630.000000	100.531147
2629.000000	100.533640
2628.000000	100.535347
2627.000000	100.535907
2626.000000	100.535271
2625.000000	100.533747
2624.000000	100.531999
2623.000000	100.530683
2622.000000	100.530110
2621.000000	100.530320
2620.000000	100.531191
2619.000000	100.532321
2618.000000	100.533059
2617.000000	100.533018
2616.000000	100.532497
2615.000000	100.532151
2614.000000	100.532291
2613.000000	100.532716
2612.000000	100.533162
2611.000000	100.533599
2610.000000	100.534029
2609.000000	100.534265
2608.000000	100.534112
2607.000000	100.533711
2606.000000	100.533566
2605.000000	100.534194
2604.000000	100.535670
2603.000000	100.537425
2602.000000	100.538646
2601.000000	100.539000
2600.000000	100.538901
2599.000000	100.538956
2598.000000	100.539302
2597.000000	100.539688
2596.000000	100.539945
2595.000000	100.540054
2594.000000	100.539977
2593.000000	100.539832
2592.000000	100.540069
2591.000000	100.540977
2590.000000	100.542121
2589.000000	100.542798
2588.000000	100.542976
2587.000000	100.543165
2586.000000	100.543340
2585.000000	100.542788
2584.000000	100.541274
2583.000000	100.539698
2582.000000	100.539174
2581.000000	100.539873
2580.000000	100.541121
2579.000000	100.542227
2578.000000	100.542856
2577.000000	100.542804
2576.000000	100.541862
2575.000000	100.539988
2574.000000	100.537453
2573.000000	100.534792
2572.000000	100.532612
2571.000000	100.531309
2570.000000	100.530957
2569.000000	100.531561
2568.000000	100.533176
2567.000000	100.535447
2566.000000	100.537241
2565.000000	100.537405
2564.000000	100.536092
2563.000000	100.534923
2562.000000	100.535444
2561.000000	100.537733
2560.000000	100.540647
2559.000000	100.543073
2558.000000	100.544657
2557.000000	100.545430
2556.000000	100.545340
2555.000000	100.544322
2554.000000	100.542587
2553.000000	100.540634
2552.000000	100.539063
2551.000000	100.538387
2550.000000	100.538867
2549.000000	100.540276
2548.000000	100.541841
2547.000000	100.542719
2546.000000	100.542685
2545.000000	100.542274
2544.000000	100.542081
2543.000000	100.542013
2542.000000	100.541517
2541.000000	100.540465
2540.000000	100.539448
2539.000000	100.539070
2538.000000	100.539278
2537.000000	100.539638
2536.000000	100.539996
2535.000000	100.540492
2534.000000	100.541077
2533.000000	100.541469
2532.000000	100.541570
2531.000000	100.541616
2530.000000	100.541865
2529.000000	100.542340
2528.000000	100.542908
2527.000000	100.543409
2526.000000	100.543692
2525.000000	100.543680
2524.000000	100.543453
2523.000000	100.543231
2522.000000	100.543190
2521.000000	100.543335
2520.000000	100.543554
2519.000000	100.543735
2518.000000	100.543809
2517.000000	100.543777
2516.000000	100.543720
2515.000000	100.543729
2514.000000	100.543819
2513.000000	100.543930
2512.000000	100.544008
2511.000000	100.544040
2510.000000	100.544041
2509.000000	100.544051
2508.000000	100.544151
2507.000000	100.544406
2506.000000	100.544776
2505.000000	100.545152
2504.000000	100.545442
2503.000000	100.545644
2502.000000	100.545794
2501.000000	100.545937
2500.000000	100.546105
2499.000000	100.546311
2498.000000	100.546548
2497.000000	100.546804
2496.000000	100.547066
2495.000000	100.547326
2494.000000	100.547566
2493.000000	100.547766
2492.000000	100.547921
2491.000000	100.548049
2490.000000	100.548193
2489.000000	100.548380
2488.000000	100.548607
2487.000000	100.548853
2486.000000	100.549109
2485.000000	100.549378
2484.000000	100.549670
2483.000000	100.549987
2482.000000	100.550308
2481.000000	100.550592
2480.000000	100.550819
2479.000000	100.551024
2478.000000	100.551281
2477.000000	100.551614
2476.000000	100.551968
2475.000000	100.552247
2474.000000	100.552406
2473.000000	100.552470
2472.000000	100.552525
2471.000000	100.552664
2470.000000	100.552926
2469.000000	100.553276
2468.000000	100.553634
2467.000000	100.553937
2466.000000	100.554156
2465.000000	100.554263
2464.000000	100.554253
2463.000000	100.554209
2462.000000	100.554291
2461.000000	100.554590
2460.000000	100.555054
2459.000000	100.555581
2458.000000	100.556144
2457.000000	100.556709
2456.000000	100.557142
2455.000000	100.557309
2454.000000	100.557238
2453.000000	100.557137
2452.000000	100.557208
2451.000000	100.557481
2450.000000	100.557897
2449.000000	100.558442
2448.000000	100.559116
2447.000000	100.559820
2446.000000	100.560385
2445.000000	100.560746
2444.000000	100.561010
2443.000000	100.561299
2442.000000	100.561616
2441.000000	100.561896
2440.000000	100.562151
2439.000000	100.562450
2438.000000	100.562769
2437.000000	100.562973
2436.000000	100.562960
2435.000000	100.562799
2434.000000	100.562751
2433.000000	100.563045
2432.000000	100.563728
2431.000000	100.564619
2430.000000	100.565413
2429.000000	100.565917
2428.000000	100.566129
2427.000000	100.566213
2426.000000	100.566359
2425.000000	100.566651
2424.000000	100.567068
2423.000000	100.567555
2422.000000	100.568062
2421.000000	100.568566
2420.000000	100.569096
2419.000000	100.569697
2418.000000	100.570295
2417.000000	100.570648
2416.000000	100.570554
2415.000000	100.570127
2414.000000	100.569748
2413.000000	100.569656
2412.000000	100.569766
2411.000000	100.569915
2410.000000	100.570197
2409.000000	100.570873
2408.000000	100.571935
2407.000000	100.572865
2406.000000	100.573026
2405.000000	100.572368
2404.000000	100.571682
2403.000000	100.571874
2402.000000	100.572933
2401.000000	100.573921
2400.000000	100.574174
2399.000000	100.574220
2398.000000	100.575116
2397.000000	100.576993
2396.000000	100.578766
2395.000000	100.579344
2394.000000	100.578640
2393.000000	100.577298
2392.000000	100.575913
2391.000000	100.574714
2390.000000	100.573671
2389.000000	100.572523
2388.000000	100.570903
2387.000000	100.568841
2386.000000	100.567009
2385.000000	100.566123
2384.000000	100.566198
2383.000000	100.566592
2382.000000	100.566779
2381.000000	100.566867
2380.000000	100.567270
2379.000000	100.568044
2378.000000	100.568732
2377.000000	100.568936
2376.000000	100.568874
2375.000000	100.569014
2374.000000	100.569078
2373.000000	100.567938
2372.000000	100.564937
2371.000000	100.561014
2370.000000	100.558044
2369.000000	100.557011
2368.000000	100.557526
2367.000000	100.558863
2366.000000	100.560801
2365.000000	100.563245
2364.000000	100.565716
2363.000000	100.567674
2362.000000	100.568790
2361.000000	100.568843
2360.000000	100.567904
2359.000000	100.566376
2358.000000	100.565008
2357.000000	100.564383
2356.000000	100.564630
2355.000000	100.565527
2354.000000	100.566514
2353.000000	100.567227
2352.000000	100.567547
2351.000000	100.567601
2350.000000	100.567672
2349.000000	100.567827
2348.000000	100.567990
2347.000000	100.567945
2346.000000	100.567844
2345.000000	100.568142
2344.000000	100.569078
2343.000000	100.570455
2342.000000	100.571579
2341.000000	100.571993
2340.000000	100.571755
2339.000000	100.571378
2338.000000	100.571216
2337.000000	100.571205
2336.000000	100.571178
2335.000000	100.571333
2334.000000	100.572026
2333.000000	100.573425
2332.000000	100.575199
2331.000000	100.576690
2330.000000	100.577406
2329.000000	100.577218
2328.000000	100.576520
2327.000000	100.575763
2326.000000	100.575285
2325.000000	100.575107
2324.000000	100.575051
2323.000000	100.575054
2322.000000	100.575202
2321.000000	100.575689
2320.000000	100.576399
2319.000000	100.577025
2318.000000	100.577338
2317.000000	100.577389
2316.000000	100.577301
2315.000000	100.577111
2314.000000	100.576870
2313.000000	100.576659
2312.000000	100.576448
2311.000000	100.576036
2310.000000	100.575413
2309.000000	100.574904
2308.000000	100.574804
2307.000000	100.574941
2306.000000	100.574889
2305.000000	100.574534
2304.000000	100.574168
2303.000000	100.574036
2302.000000	100.574050
2301.000000	100.574024
2300.000000	100.573944
2299.000000	100.573838
2298.000000	100.573636
2297.000000	100.573290
2296.000000	100.572942
2295.000000	100.572682
2294.000000	100.572325
2293.000000	100.571544
2292.000000	100.570304
2291.000000	100.568982
2290.000000	100.568056
2289.000000	100.567658
2288.000000	100.567526
2287.000000	100.567263
2286.000000	100.566666
2285.000000	100.565855
2284.000000	100.565151
2283.000000	100.564804
2282.000000	100.564750
2281.000000	100.564639
2280.000000	100.564133
2279.000000	100.563183
2278.000000	100.561985
2277.000000	100.560750
2276.000000	100.559554
2275.000000	100.558460
2274.000000	100.557627
2273.000000	100.557178
2272.000000	100.557024
2271.000000	100.556937
2270.000000	100.556777
2269.000000	100.556537
2268.000000	100.556189
2267.000000	100.555631
2266.000000	100.554832
2265.000000	100.553958
2264.000000	100.553270
2263.000000	100.552914
2262.000000	100.552830
2261.000000	100.552812
2260.000000	100.552643
2259.000000	100.552252
2258.000000	100.551732
2257.000000	100.551237
2256.000000	100.550826
2255.000000	100.550459
2254.000000	100.550097
2253.000000	100.549762
2252.000000	100.549470
2251.000000	100.549181
2250.000000	100.548856
2249.000000	100.548550
2248.000000	100.548336
2247.000000	100.548182
2246.000000	100.547959
2245.000000	100.547611
2244.000000	100.547221
2243.000000	100.546932
2242.000000	100.546810
2241.000000	100.546826
2240.000000	100.546898
2239.000000	100.546939
2238.000000	100.546900
2237.000000	100.546781
2236.000000	100.546615
2235.000000	100.546429
2234.000000	100.546250
2233.000000	100.546106
2232.000000	100.545995
2231.000000	100.545860
2230.000000	100.545651
2229.000000	100.545399
2228.000000	100.545217
2227.000000	100.545178
2226.000000	100.545246
2225.000000	100.545296
2224.000000	100.545236
2223.000000	100.545057
2222.000000	100.544822
2221.000000	100.544624
2220.000000	100.544531
2219.000000	100.544546
2218.000000	100.544617
2217.000000	100.544719
2216.000000	100.544875
2215.000000	100.545071
2214.000000	100.545190
2213.000000	100.545108
2212.000000	100.544812
2211.000000	100.544378
2210.000000	100.543927
2209.000000	100.543600
2208.000000	100.543488
2207.000000	100.543522
2206.000000	100.543501
2205.000000	100.543309
2204.000000	100.543051
2203.000000	100.542895
2202.000000	100.542845
2201.000000	100.542773
2200.000000	100.542639
2199.000000	100.542554
2198.000000	100.542611
2197.000000	100.542752
2196.000000	100.542838
2195.000000	100.542797
2194.000000	100.542688
2193.000000	100.542671
2192.000000	100.542890
2191.000000	100.543319
2190.000000	100.543733
2189.000000	100.543910
2188.000000	100.543865
2187.000000	100.543788
2186.000000	100.543780
2185.000000	100.543748
2184.000000	100.543624
2183.000000	100.543552
2182.000000	100.543716
2181.000000	100.544113
2180.000000	100.544577
2179.000000	100.544952
2178.000000	100.545196
2177.000000	100.545354
2176.000000	100.545496
2175.000000	100.545651
2174.000000	100.545780
2173.000000	100.545843
2172.000000	100.545876
2171.000000	100.545982
2170.000000	100.546209
2169.000000	100.546474
2168.000000	100.546637
2167.000000	100.546671
2166.000000	100.546707
2165.000000	100.546903
2164.000000	100.547307
2163.000000	100.547864
2162.000000	100.548488
2161.000000	100.549120
2160.000000	100.549700
2159.000000	100.550112
2158.000000	100.550232
2157.000000	100.550078
2156.000000	100.549890
2155.000000	100.549946
2154.000000	100.550276
2153.000000	100.550636
2152.000000	100.550768
2151.000000	100.550666
2150.000000	100.550559
2149.000000	100.550664
2148.000000	100.550972
2147.000000	100.551250
2146.000000	100.551269
2145.000000	100.551082
2144.000000	100.551033
2143.000000	100.551413
2142.000000	100.552108
2141.000000	100.552640
2140.000000	100.552625
2139.000000	100.552093
2138.000000	100.551409
2137.000000	100.550962
2136.000000	100.550904
2135.000000	100.551132
2134.000000	100.551402
2133.000000	100.551536
2132.000000	100.551539
2131.000000	100.551546
2130.000000	100.551674
2129.000000	100.551978
2128.000000	100.552492
2127.000000	100.553202
2126.000000	100.553986
2125.000000	100.554659
2124.000000	100.555135
2123.000000	100.555457
2122.000000	100.555696
2121.000000	100.555877
2120.000000	100.556003
2119.000000	100.556098
2118.000000	100.556174
2117.000000	100.556218
2116.000000	100.556225
2115.000000	100.556245
2114.000000	100.556399
2113.000000	100.556827
2112.000000	100.557569
2111.000000	100.558453
2110.000000	100.559127
2109.000000	100.559329
2108.000000	100.559062
2107.000000	100.558619
2106.000000	100.558377
2105.000000	100.558499
2104.000000	100.558899
2103.000000	100.559411
2102.000000	100.560001
2101.000000	100.560768
2100.000000	100.561708
2099.000000	100.562523
2098.000000	100.562810
2097.000000	100.562528
2096.000000	100.562199
2095.000000	100.562373
2094.000000	100.562982
2093.000000	100.563471
2092.000000	100.563592
2091.000000	100.563741
2090.000000	100.564325
2089.000000	100.565172
2088.000000	100.565833
2087.000000	100.566211
2086.000000	100.566561
2085.000000	100.567065
2084.000000	100.567793
2083.000000	100.568910
2082.000000	100.570453
2081.000000	100.571950
2080.000000	100.572706
2079.000000	100.572522
2078.000000	100.571817
2077.000000	100.571115
2076.000000	100.570626
2075.000000	100.570300
2074.000000	100.569966
2073.000000	100.569463
2072.000000	100.568993
2071.000000	100.569299
2070.000000	100.571044
2069.000000	100.573863
2068.000000	100.576354
2067.000000	100.577298
2066.000000	100.576617
2065.000000	100.575125
2064.000000	100.573582
2063.000000	100.572236
2062.000000	100.571073
2061.000000	100.570024
2060.000000	100.568978
2059.000000	100.567898
2058.000000	100.566959
2057.000000	100.566444
2056.000000	100.566500
2055.000000	100.567075
2054.000000	100.567994
2053.000000	100.568910
2052.000000	100.569263
2051.000000	100.568657
2050.000000	100.567359
2049.000000	100.566172
2048.000000	100.565556
2047.000000	100.565006
2046.000000	100.563667
2045.000000	100.561429
2044.000000	100.559141
2043.000000	100.557724
2042.000000	100.557315
2041.000000	100.557347
2040.000000	100.557095
2039.000000	100.556014
2038.000000	100.553875
2037.000000	100.550990
2036.000000	100.548303
2035.000000	100.546740
2034.000000	100.546450
2033.000000	100.546797
2032.000000	100.547034
2031.000000	100.546860
2030.000000	100.546270
2029.000000	100.545290
2028.000000	100.544060
2027.000000	100.542843
2026.000000	100.541685
2025.000000	100.540283
2024.000000	100.538450
2023.000000	100.536502
2022.000000	100.534885
2021.000000	100.533565
2020.000000	100.532072
2019.000000	100.530096
2018.000000	100.527808
2017.000000	100.525636
2016.000000	100.523948
2015.000000	100.522924
2014.000000	100.522522
2013.000000	100.522461
2012.000000	100.522345
2011.000000	100.521881
2010.000000	100.520960
2009.000000	100.519708
2008.000000	100.518515
2007.000000	100.517776
2006.000000	100.517414
2005.000000	100.516853
2004.000000	100.515692
2003.000000	100.514244
2002.000000	100.513163
2001.000000	100.512724
2000.000000	100.512717
1999.000000	100.512808
1998.000000	100.512708
1997.000000	100.512141
1996.000000	100.511070
1995.000000	100.509955
1994.000000	100.509301
1993.000000	100.508954
1992.000000	100.508300
1991.000000	100.507288
1990.000000	100.506709
1989.000000	100.507172
1988.000000	100.508371
1987.000000	100.509575
1986.000000	100.510462
1985.000000	100.511087
1984.000000	100.511386
1983.000000	100.511236
1982.000000	100.510793
1981.000000	100.510304
1980.000000	100.509670
1979.000000	100.508705
1978.000000	100.507806
1977.000000	100.507748
1976.000000	100.508693
1975.000000	100.509814
1974.000000	100.510154
1973.000000	100.509572
1972.000000	100.508552
1971.000000	100.507534
1970.000000	100.506806
1969.000000	100.506794
1968.000000	100.507817
1967.000000	100.509511
1966.000000	100.511012
1965.000000	100.511852
1964.000000	100.512185
1963.000000	100.512161
1962.000000	100.511689
1961.000000	100.510903
1960.000000	100.510196
1959.000000	100.509602
1958.000000	100.508764
1957.000000	100.507737
1956.000000	100.507289
1955.000000	100.508013
1954.000000	100.509520
1953.000000	100.510881
1952.000000	100.511637
1951.000000	100.511878
1950.000000	100.511613
1949.000000	100.510705
1948.000000	100.509315
1947.000000	100.507773
1946.000000	100.506039
1945.000000	100.503821
1944.000000	100.501267
1943.000000	100.499142
1942.000000	100.498110
1941.000000	100.498184
1940.000000	100.498995
1939.000000	100.500150
1938.000000	100.501200
1937.000000	100.501802
1936.000000	100.502022
1935.000000	100.502089
1934.000000	100.501760
1933.000000	100.500388
1932.000000	100.497803
1931.000000	100.494657
1930.000000	100.491742
1929.000000	100.489383
1928.000000	100.487607
1927.000000	100.486332
1926.000000	100.485157
1925.000000	100.483536
1924.000000	100.481610
1923.000000	100.480480
1922.000000	100.480997
1921.000000	100.482474
1920.000000	100.483127
1919.000000	100.481612
1918.000000	100.478208
1917.000000	100.474721
1916.000000	100.472634
1915.000000	100.471670
1914.000000	100.470615
1913.000000	100.468943
1912.000000	100.467227
1911.000000	100.465911
1910.000000	100.464224
1909.000000	100.461124
1908.000000	100.456849
1907.000000	100.452672
1906.000000	100.449429
1905.000000	100.447231
1904.000000	100.446235
1903.000000	100.446405
1902.000000	100.446549
1901.000000	100.444946
1900.000000	100.441113
1899.000000	100.436116
1898.000000	100.431142
1897.000000	100.426643
1896.000000	100.422955
1895.000000	100.420492
1894.000000	100.418899
1893.000000	100.417299
1892.000000	100.415585
1891.000000	100.414370
1890.000000	100.413647
1889.000000	100.412642
1888.000000	100.411277
1887.000000	100.410360
1886.000000	100.409939
1885.000000	100.408908
1884.000000	100.406719
1883.000000	100.404215
1882.000000	100.402260
1881.000000	100.400973
1880.000000	100.400650
1879.000000	100.401851
1878.000000	100.403730
1877.000000	100.403641
1876.000000	100.399955
1875.000000	100.394404
1874.000000	100.390186
1873.000000	100.388593
1872.000000	100.388655
1871.000000	100.389206
1870.000000	100.389775
1869.000000	100.390051
1868.000000	100.390123
1867.000000	100.390643
1866.000000	100.391903
1865.000000	100.393617
1864.000000	100.395907
1863.000000	100.399690
1862.000000	100.405289
1861.000000	100.410983
1860.000000	100.414367
1859.000000	100.415200
1858.000000	100.415649
1857.000000	100.417759
1856.000000	100.421640
1855.000000	100.426013
1854.000000	100.429735
1853.000000	100.432488
1852.000000	100.434524
1851.000000	100.436241
1850.000000	100.437875
1849.000000	100.439276
1848.000000	100.440245
1847.000000	100.441296
1846.000000	100.443686
1845.000000	100.447928
1844.000000	100.452283
1843.000000	100.454329
1842.000000	100.453954
1841.000000	100.453106
1840.000000	100.453523
1839.000000	100.455638
1838.000000	100.458656
1837.000000	100.461296
1836.000000	100.462742
1835.000000	100.463186
1834.000000	100.463749
1833.000000	100.465494
1832.000000	100.468043
1831.000000	100.469425
1830.000000	100.468145
1829.000000	100.465326
1828.000000	100.463565
1827.000000	100.463981
1826.000000	100.465464
1825.000000	100.466250
1824.000000	100.465943
1823.000000	100.465584
1822.000000	100.465780
1821.000000	100.466036
1820.000000	100.466037
1819.000000	100.466482
1818.000000	100.467869
1817.000000	100.469148
1816.000000	100.468875
1815.000000	100.467234
1814.000000	100.465880
1813.000000	100.465991
1812.000000	100.467162
1811.000000	100.468103
1810.000000	100.467829
1809.000000	100.466372
1808.000000	100.464810
1807.000000	100.464091
1806.000000	100.463952
1805.000000	100.463583
1804.000000	100.463069
1803.000000	100.463318
1802.000000	100.464472
1801.000000	100.465163
1800.000000	100.464295
1799.000000	100.462892
1798.000000	100.462731
1797.000000	100.464191
1796.000000	100.466329
1795.000000	100.468118
1794.000000	100.469143
1793.000000	100.469272
1792.000000	100.468972
1791.000000	100.469359
1790.000000	100.470505
1789.000000	100.471367
1788.000000	100.471402
1787.000000	100.470907
1786.000000	100.470372
1785.000000	100.470357
1784.000000	100.471648
1783.000000	100.474461
1782.000000	100.477706
1781.000000	100.479617
1780.000000	100.479614
1779.000000	100.479193
1778.000000	100.480048
1777.000000	100.482093
1776.000000	100.483991
1775.000000	100.485031
1774.000000	100.485864
1773.000000	100.486594
1772.000000	100.485925
1771.000000	100.484415
1770.000000	100.485020
1769.000000	100.489418
1768.000000	100.496446
1767.000000	100.503325
1766.000000	100.508253
1765.000000	100.511571
1764.000000	100.514430
1763.000000	100.517549
1762.000000	100.520979
1761.000000	100.524292
1760.000000	100.527223
1759.000000	100.530076
1758.000000	100.532945
1757.000000	100.535136
1756.000000	100.535693
1755.000000	100.535017
1754.000000	100.534902
1753.000000	100.536647
1752.000000	100.539611
1751.000000	100.541662
1750.000000	100.541762
1749.000000	100.540591
1748.000000	100.538470
1747.000000	100.535140
1746.000000	100.531217
1745.000000	100.528019
1744.000000	100.526453
1743.000000	100.526402
1742.000000	100.526661
1741.000000	100.525704
1740.000000	100.523511
1739.000000	100.522080
1738.000000	100.522592
1737.000000	100.523402
1736.000000	100.522914
1735.000000	100.521472
1734.000000	100.520603
1733.000000	100.521030
1732.000000	100.521425
1731.000000	100.520276
1730.000000	100.517514
1729.000000	100.514395
1728.000000	100.511865
1727.000000	100.510206
1726.000000	100.509470
1725.000000	100.509306
1724.000000	100.508787
1723.000000	100.507223
1722.000000	100.504644
1721.000000	100.501406
1720.000000	100.497919
1719.000000	100.495021
1718.000000	100.493613
1717.000000	100.492984
1716.000000	100.491629
1715.000000	100.489239
1714.000000	100.486251
1713.000000	100.483350
1712.000000	100.481119
1711.000000	100.479504
1710.000000	100.477974
1709.000000	100.476120
1708.000000	100.473979
1707.000000	100.471745
1706.000000	100.469282
1705.000000	100.466245
1704.000000	100.462915
1703.000000	100.459941
1702.000000	100.457673
1701.000000	100.455301
1700.000000	100.451558
1699.000000	100.447233
1698.000000	100.443842
1697.000000	100.441532
1696.000000	100.439747
1695.000000	100.437903
1694.000000	100.436016
1693.000000	100.434370
1692.000000	100.432871
1691.000000	100.431201
1690.000000	100.429006
1689.000000	100.426125
1688.000000	100.422842
1687.000000	100.419704
1686.000000	100.417287
1685.000000	100.414960
1684.000000	100.411330
1683.000000	100.407065
1682.000000	100.403692
1681.000000	100.401290
1680.000000	100.399028
1679.000000	100.396520
1678.000000	100.394118
1677.000000	100.392578
1676.000000	100.391803
1675.000000	100.390520
1674.000000	100.388174
1673.000000	100.385649
1672.000000	100.383394
1671.000000	100.380930
1670.000000	100.378088
1669.000000	100.376041
1668.000000	100.375546
1667.000000	100.375309
1666.000000	100.373769
1665.000000	100.370560
1664.000000	100.366365
1663.000000	100.362190
1662.000000	100.358737
1661.000000	100.356324
1660.000000	100.354519
1659.000000	100.352199
1658.000000	100.348058
1657.000000	100.341870
1656.000000	100.334744
1655.000000	100.329662
1654.000000	100.329771
1653.000000	100.333327
1652.000000	100.335677
1651.000000	100.337293
1650.000000	100.339220
1649.000000	100.339449
1648.000000	100.338775
1647.000000	100.339040
1646.000000	100.339987
1645.000000	100.339230
1644.000000	100.337153
1643.000000	100.335822
1642.000000	100.336525
1641.000000	100.338601
1640.000000	100.339828
1639.000000	100.338384
1638.000000	100.334376
1637.000000	100.329676
1636.000000	100.326675
1635.000000	100.326443
1634.000000	100.328583
1633.000000	100.332176
1632.000000	100.335917
1631.000000	100.338781
1630.000000	100.340629
1629.000000	100.342333
1628.000000	100.344621
1627.000000	100.346724
1626.000000	100.347443
1625.000000	100.347344
1624.000000	100.348542
1623.000000	100.352119
1622.000000	100.356545
1621.000000	100.359884
1620.000000	100.361614
1619.000000	100.362194
1618.000000	100.362588
1617.000000	100.363977
1616.000000	100.367267
1615.000000	100.371807
1614.000000	100.375709
1613.000000	100.377713
1612.000000	100.378172
1611.000000	100.378549
1610.000000	100.380486
1609.000000	100.385115
1608.000000	100.392135
1607.000000	100.399315
1606.000000	100.404276
1605.000000	100.406751
1604.000000	100.408322
1603.000000	100.410685
1602.000000	100.414468
1601.000000	100.419200
1600.000000	100.423861
1599.000000	100.427539
1598.000000	100.430123
1597.000000	100.432324
1596.000000	100.434843
1595.000000	100.437558
1594.000000	100.439892
1593.000000	100.442031
1592.000000	100.444979
1591.000000	100.449197
1590.000000	100.453863
1589.000000	100.457882
1588.000000	100.461138
1587.000000	100.464290
1586.000000	100.467746
1585.000000	100.471183
1584.000000	100.473651
1583.000000	100.474235
1582.000000	100.473111
1581.000000	100.471632
1580.000000	100.470910
1579.000000	100.471002
1578.000000	100.472002
1577.000000	100.474695
1576.000000	100.478839
1575.000000	100.482327
1574.000000	100.483941
1573.000000	100.484046
1572.000000	100.483500
1571.000000	100.483756
1570.000000	100.485865
1569.000000	100.489379
1568.000000	100.492356
1567.000000	100.493541
1566.000000	100.493382
1565.000000	100.493283
1564.000000	100.493743
1563.000000	100.494172
1562.000000	100.493927
1561.000000	100.493752
1560.000000	100.493448
1559.000000	100.491512
1558.000000	100.489307
1557.000000	100.489235
1556.000000	100.490884
1555.000000	100.492188
1554.000000	100.492655
1553.000000	100.492373
1552.000000	100.491867
1551.000000	100.491235
1550.000000	100.490660
1549.000000	100.490341
1548.000000	100.490429
1547.000000	100.490869
1546.000000	100.491404
1545.000000	100.491634
1544.000000	100.491405
1543.000000	100.490962
1542.000000	100.490651
1541.000000	100.490554
1540.000000	100.490520
1539.000000	100.490374
1538.000000	100.490157
1537.000000	100.489996
1536.000000	100.489879
1535.000000	100.489895
1534.000000	100.490084
1533.000000	100.490222
1532.000000	100.490098
1531.000000	100.489824
1530.000000	100.489598
1529.000000	100.489492
1528.000000	100.489466
1527.000000	100.489453
1526.000000	100.489433
1525.000000	100.489429
1524.000000	100.489473
1523.000000	100.489604
1522.000000	100.489821
1521.000000	100.490041
1520.000000	100.490207
1519.000000	100.490355
1518.000000	100.490535
1517.000000	100.490771
1516.000000	100.491063
1515.000000	100.491394
1514.000000	100.491766
1513.000000	100.492161
1512.000000	100.492548
1511.000000	100.492952
1510.000000	100.493472
1509.000000	100.494218
1508.000000	100.495280
1507.000000	100.496589
1506.000000	100.497633
1505.000000	100.498136
1504.000000	100.498426
1503.000000	100.498787
1502.000000	100.499268
1501.000000	100.499869
1500.000000	100.500554
1499.000000	100.501210
1498.000000	100.501671
1497.000000	100.501746
1496.000000	100.501559
1495.000000	100.501709
1494.000000	100.502536
1493.000000	100.503754
1492.000000	100.504778
1491.000000	100.505188
1490.000000	100.505063
1489.000000	100.504912
1488.000000	100.505250
1487.000000	100.506364
1486.000000	100.507991
1485.000000	100.509428
1484.000000	100.510242
1483.000000	100.510714
1482.000000	100.511561
1481.000000	100.513030
1480.000000	100.514593
1479.000000	100.515727
1478.000000	100.516380
1477.000000	100.516496
1476.000000	100.516040
1475.000000	100.515640
1474.000000	100.516445
1473.000000	100.518613
1472.000000	100.520478
1471.000000	100.520987
1470.000000	100.521059
1469.000000	100.521561
1468.000000	100.522076
1467.000000	100.521615
1466.000000	100.519655
1465.000000	100.516712
1464.000000	100.514077
1463.000000	100.512871
1462.000000	100.513213
1461.000000	100.514047
1460.000000	100.513815
1459.000000	100.511832
1458.000000	100.509592
1457.000000	100.508705
1456.000000	100.507861
1455.000000	100.506380
1454.000000	100.506048
1453.000000	100.507796
1452.000000	100.511451
1451.000000	100.515504
1450.000000	100.517970
1449.000000	100.517236
1448.000000	100.513062
1447.000000	100.507208
1446.000000	100.501856
1445.000000	100.497585
1444.000000	100.493939
1443.000000	100.490840
1442.000000	100.488392
1441.000000	100.486144
1440.000000	100.483637
1439.000000	100.481580
1438.000000	100.481027
1437.000000	100.480306
1436.000000	100.476260
1435.000000	100.470382
1434.000000	100.467132
1433.000000	100.467669
1432.000000	100.470007
1431.000000	100.472074
1430.000000	100.474172
1429.000000	100.477365
1428.000000	100.480266
1427.000000	100.480460
1426.000000	100.478011
1425.000000	100.475821
1424.000000	100.476323
1423.000000	100.478878
1422.000000	100.481264
1421.000000	100.482499
1420.000000	100.482644
1419.000000	100.482763
1418.000000	100.485090
1417.000000	100.489583
1416.000000	100.494148
1415.000000	100.498049
1414.000000	100.502112
1413.000000	100.506723
1412.000000	100.510857
1411.000000	100.513336
1410.000000	100.514395
1409.000000	100.514903
1408.000000	100.515375
1407.000000	100.516470
1406.000000	100.519403
1405.000000	100.524837
1404.000000	100.531252
1403.000000	100.536286
1402.000000	100.539119
1401.000000	100.539934
1400.000000	100.538896
1399.000000	100.537251
1398.000000	100.537662
1397.000000	100.541418
1396.000000	100.546797
1395.000000	100.550821
1394.000000	100.552515
1393.000000	100.553641
1392.000000	100.556142
1391.000000	100.560815
1390.000000	100.567208
1389.000000	100.573128
1388.000000	100.575351
1387.000000	100.572984
1386.000000	100.569445
1385.000000	100.568493
1384.000000	100.569940
1383.000000	100.571306
1382.000000	100.571584
1381.000000	100.572033
1380.000000	100.573787
1379.000000	100.576020
1378.000000	100.577211
1377.000000	100.577188
1376.000000	100.577045
1375.000000	100.577532
1374.000000	100.578057
1373.000000	100.577067
1372.000000	100.573801
1371.000000	100.569647
1370.000000	100.567188
1369.000000	100.567804
1368.000000	100.570160
1367.000000	100.572002
1366.000000	100.573029
1365.000000	100.574324
1364.000000	100.575853
1363.000000	100.576347
1362.000000	100.575457
1361.000000	100.574293
1360.000000	100.573490
1359.000000	100.572478
1358.000000	100.571014
1357.000000	100.570070
1356.000000	100.570588
1355.000000	100.572197
1354.000000	100.573642
1353.000000	100.573849
1352.000000	100.572443
1351.000000	100.569898
1350.000000	100.567608
1349.000000	100.567239
1348.000000	100.568988
1347.000000	100.571181
1346.000000	100.572122
1345.000000	100.571696
1344.000000	100.570708
1343.000000	100.569548
1342.000000	100.568249
1341.000000	100.567321
1340.000000	100.567614
1339.000000	100.569231
1338.000000	100.571317
1337.000000	100.572985
1336.000000	100.573788
1335.000000	100.573652
1334.000000	100.573018
1333.000000	100.572652
1332.000000	100.572849
1331.000000	100.573221
1330.000000	100.573659
1329.000000	100.574907
1328.000000	100.577467
1327.000000	100.580294
1326.000000	100.581434
1325.000000	100.579857
1324.000000	100.576102
1323.000000	100.571887
1322.000000	100.569344
1321.000000	100.569633
1320.000000	100.571583
1319.000000	100.572399
1318.000000	100.570735
1317.000000	100.568412
1316.000000	100.568096
1315.000000	100.570083
1314.000000	100.572562
1313.000000	100.574320
1312.000000	100.575670
1311.000000	100.576709
1310.000000	100.576498
1309.000000	100.574815
1308.000000	100.573461
1307.000000	100.574454
1306.000000	100.577361
1305.000000	100.579740
1304.000000	100.579874
1303.000000	100.578028
1302.000000	100.575368
1301.000000	100.572905
1300.000000	100.571686
1299.000000	100.572555
1298.000000	100.574793
1297.000000	100.576153
1296.000000	100.575412
1295.000000	100.573985
1294.000000	100.573681
1293.000000	100.573597
1292.000000	100.571239
1291.000000	100.566502
1290.000000	100.562391
1289.000000	100.561168
1288.000000	100.561622
1287.000000	100.561049
1286.000000	100.558160
1285.000000	100.552918
1284.000000	100.545470
1283.000000	100.537203
1282.000000	100.531377
1281.000000	100.530469
1280.000000	100.533588
1279.000000	100.538144
1278.000000	100.543131
1277.000000	100.548532
1276.000000	100.552405
1275.000000	100.551973
1274.000000	100.548093
1273.000000	100.545471
1272.000000	100.546823
1271.000000	100.549236
1270.000000	100.548441
1269.000000	100.544754
1268.000000	100.542007
1267.000000	100.541848
1266.000000	100.542107
1265.000000	100.540695
1264.000000	100.538338
1263.000000	100.536538
1262.000000	100.534871
1261.000000	100.531988
1260.000000	100.528318
1259.000000	100.525958
1258.000000	100.525820
1257.000000	100.525989
1256.000000	100.523370
1255.000000	100.516598
1254.000000	100.507176
1253.000000	100.497899
1252.000000	100.490306
1251.000000	100.483549
1250.000000	100.475452
1249.000000	100.464688
1248.000000	100.452177
1247.000000	100.440483
1246.000000	100.431510
1245.000000	100.424484
1244.000000	100.416472
1243.000000	100.405261
1242.000000	100.391376
1241.000000	100.376680
1240.000000	100.361412
1239.000000	100.343731
1238.000000	100.322532
1237.000000	100.299701
1236.000000	100.278675
1235.000000	100.260967
1234.000000	100.244732
1233.000000	100.226678
1232.000000	100.204803
1231.000000	100.179354
1230.000000	100.151823
1229.000000	100.123275
1228.000000	100.093318
1227.000000	100.060490
1226.000000	100.023607
1225.000000	99.982343
1224.000000	99.936294
1223.000000	99.884345
1222.000000	99.826144
1221.000000	99.763674
1220.000000	99.699496
1219.000000	99.633096
1218.000000	99.561236
1217.000000	99.483264
1216.000000	99.403974
1215.000000	99.328593
1214.000000	99.255769
1213.000000	99.178404
1212.000000	99.091382
1211.000000	98.996367
1210.000000	98.899378
1209.000000	98.805776
1208.000000	98.717272
1207.000000	98.631386
1206.000000	98.544205
1205.000000	98.455993
1204.000000	98.372603
1203.000000	98.298016
1202.000000	98.227304
1201.000000	98.151687
1200.000000	98.069370
1199.000000	97.985922
1198.000000	97.904571
1197.000000	97.822779
1196.000000	97.739324
1195.000000	97.657757
1194.000000	97.579980
1193.000000	97.502015
1192.000000	97.419581
1191.000000	97.333772
1190.000000	97.248293
1189.000000	97.164679
1188.000000	97.082693
1187.000000	97.001829
1186.000000	96.919893
1185.000000	96.833320
1184.000000	96.741025
1183.000000	96.645015
1182.000000	96.546165
1181.000000	96.443367
1180.000000	96.338034
1179.000000	96.234534
1178.000000	96.133909
1177.000000	96.031774
1176.000000	95.924696
1175.000000	95.814053
1174.000000	95.701408
1173.000000	95.585284
1172.000000	95.465587
1171.000000	95.346335
1170.000000	95.230592
1169.000000	95.117063
1168.000000	95.005132
1167.000000	94.899581
1166.000000	94.807902
1165.000000	94.737051
1164.000000	94.694606
1163.000000	94.687382
1162.000000	94.715166
1161.000000	94.768675
1160.000000	94.833910
1159.000000	94.894132
1158.000000	94.929569
1157.000000	94.924652
1156.000000	94.879211
1155.000000	94.807739
1154.000000	94.724883
1153.000000	94.635334
1152.000000	94.539175
1151.000000	94.439615
1150.000000	94.340499
1149.000000	94.241763
1148.000000	94.142655
1147.000000	94.045729
1146.000000	93.953498
1145.000000	93.864464
1144.000000	93.775686
1143.000000	93.685965
1142.000000	93.594344
1141.000000	93.499475
1140.000000	93.402417
1139.000000	93.305880
1138.000000	93.209157
1137.000000	93.108438
1136.000000	93.003426
1135.000000	92.898461
1134.000000	92.795843
1133.000000	92.693534
1132.000000	92.590411
1131.000000	92.487589
1130.000000	92.383569
1129.000000	92.274850
1128.000000	92.162517
1127.000000	92.051375
1126.000000	91.941925
1125.000000	91.830921
1124.000000	91.720274
1123.000000	91.615859
1122.000000	91.515873
1121.000000	91.410594
1120.000000	91.296650
1119.000000	91.181586
1118.000000	91.070972
1117.000000	90.961290
1116.000000	90.849382
1115.000000	90.738563
1114.000000	90.630819
1113.000000	90.523005
1112.000000	90.415664
1111.000000	90.315566
1110.000000	90.225262
1109.000000	90.139875
1108.000000	90.057194
1107.000000	89.980284
1106.000000	89.906880
1105.000000	89.827848
1104.000000	89.740583
1103.000000	89.652893
1102.000000	89.569670
1101.000000	89.487138
1100.000000	89.404605
1099.000000	89.329719
1098.000000	89.265514
1097.000000	89.203631
1096.000000	89.136511
1095.000000	89.067084
1094.000000	89.001012
1093.000000	88.938679
1092.000000	88.879683
1091.000000	88.826256
1090.000000	88.777701
1089.000000	88.729661
1088.000000	88.681942
1087.000000	88.638858
1086.000000	88.600564
1085.000000	88.563441
1084.000000	88.529316
1083.000000	88.503026
1082.000000	88.480443
1081.000000	88.451533
1080.000000	88.416379
1079.000000	88.384762
1078.000000	88.358070
1077.000000	88.325902
1076.000000	88.283600
1075.000000	88.238052
1074.000000	88.190889
1073.000000	88.129505
1072.000000	88.041342
1071.000000	87.926064
1070.000000	87.788961
1069.000000	87.632520
1068.000000	87.459103
1067.000000	87.272507
1066.000000	87.073084
1065.000000	86.860694
1064.000000	86.644742
1063.000000	86.440432
1062.000000	86.252975
1061.000000	86.077109
1060.000000	85.912782
1059.000000	85.766743
1058.000000	85.636811
1057.000000	85.510212
1056.000000	85.380739
1055.000000	85.252302
1054.000000	85.122168
1053.000000	84.977029
1052.000000	84.811461
1051.000000	84.634503
1050.000000	84.451167
1049.000000	84.253923
1048.000000	84.039489
1047.000000	83.816908
1046.000000	83.593033
1045.000000	83.366183
1044.000000	83.138088
1043.000000	82.916157
1042.000000	82.700116
1041.000000	82.481522
1040.000000	82.259959
1039.000000	82.045069
1038.000000	81.840919
1037.000000	81.645056
1036.000000	81.463768
1035.000000	81.308391
1034.000000	81.173886
1033.000000	81.041943
1032.000000	80.910054
1031.000000	80.796804
1030.000000	80.712736
1029.000000	80.646382
1028.000000	80.584708
1027.000000	80.527293
1026.000000	80.473392
1025.000000	80.415197
1024.000000	80.352475
1023.000000	80.296067
1022.000000	80.249320
1021.000000	80.202736
1020.000000	80.152810
1019.000000	80.108399
1018.000000	80.072251
1017.000000	80.034159
1016.000000	79.989112
1015.000000	79.945276
1014.000000	79.907400
1013.000000	79.868786
1012.000000	79.825959
1011.000000	79.785690
1010.000000	79.751783
1009.000000	79.719901
1008.000000	79.690008
1007.000000	79.668868
1006.000000	79.656464
1005.000000	79.645015
1004.000000	79.634006
1003.000000	79.630541
1002.000000	79.633397
1001.000000	79.634266
1000.000000	79.636576
999.000000	79.654321
998.000000	79.689073
997.000000	79.726590
996.000000	79.759679
995.000000	79.796004
994.000000	79.839292
993.000000	79.881980
992.000000	79.922150
991.000000	79.970240
990.000000	80.032899
989.000000	80.105637
988.000000	80.185943
987.000000	80.278562
986.000000	80.384350
985.000000	80.499182
984.000000	80.626252
983.000000	80.773821
982.000000	80.939135
981.000000	81.110973
980.000000	81.289544
979.000000	81.486314
978.000000	81.702430
977.000000	81.925634
976.000000	82.151384
975.000000	82.388923
974.000000	82.642391
973.000000	82.903233
972.000000	83.165874
971.000000	83.434866
970.000000	83.711474
969.000000	83.987759
968.000000	84.258616
967.000000	84.526772
966.000000	84.792611
965.000000	85.051670
964.000000	85.304504
963.000000	85.556341
962.000000	85.805098
961.000000	86.042477
960.000000	86.268377
959.000000	86.491005
958.000000	86.711160
957.000000	86.920031
956.000000	87.115047
955.000000	87.304438
954.000000	87.492493
953.000000	87.672560
952.000000	87.838764
951.000000	87.993778
950.000000	88.141626
949.000000	88.282334
948.000000	88.416035
947.000000	88.543267
946.000000	88.660296
945.000000	88.763740
944.000000	88.859884
943.000000	88.959045
942.000000	89.060977
941.000000	89.157332
940.000000	89.247911
939.000000	89.341509
938.000000	89.440465
937.000000	89.538192
936.000000	89.633418
935.000000	89.732555
934.000000	89.835256
933.000000	89.931943
932.000000	90.020042
931.000000	90.109700
930.000000	90.208277
929.000000	90.310600
928.000000	90.409616
927.000000	90.505927
926.000000	90.601839
925.000000	90.695596
924.000000	90.786057
923.000000	90.874725
922.000000	90.960076
921.000000	91.038430
920.000000	91.112517
919.000000	91.189959
918.000000	91.271325
917.000000	91.349400
916.000000	91.422205
915.000000	91.496674
914.000000	91.577632
913.000000	91.664127
912.000000	91.759184
911.000000	91.871512
910.000000	92.003277
909.000000	92.146524
908.000000	92.295968
907.000000	92.455814
906.000000	92.630077
905.000000	92.815816
904.000000	93.009955
903.000000	93.213795
902.000000	93.426649
901.000000	93.642741
900.000000	93.857870
899.000000	94.072084
898.000000	94.283357
897.000000	94.485771
896.000000	94.676208
895.000000	94.856823
894.000000	95.029854
893.000000	95.196351
892.000000	95.360495
891.000000	95.527904
890.000000	95.698062
889.000000	95.864371
888.000000	96.021986
887.000000	96.169546
886.000000	96.304550
885.000000	96.425355
884.000000	96.537937
883.000000	96.651984
882.000000	96.768556
881.000000	96.879552
880.000000	96.981037
879.000000	97.079094
878.000000	97.180834
877.000000	97.287638
876.000000	97.399261
875.000000	97.516092
874.000000	97.634653
873.000000	97.748644
872.000000	97.856959
871.000000	97.964085
870.000000	98.071681
869.000000	98.177132
868.000000	98.281112
867.000000	98.388126
866.000000	98.497343
865.000000	98.600700
864.000000	98.693474
863.000000	98.780633
862.000000	98.869732
861.000000	98.962441
860.000000	99.055463
859.000000	99.144895
858.000000	99.227537
857.000000	99.302483
856.000000	99.373250
855.000000	99.444088
854.000000	99.513054
853.000000	99.573348
852.000000	99.622136
851.000000	99.662948
850.000000	99.698786
849.000000	99.728800
848.000000	99.753217
847.000000	99.775215
846.000000	99.795194
845.000000	99.808250
844.000000	99.809781
843.000000	99.799031
842.000000	99.775401
841.000000	99.736488
840.000000	99.682262
839.000000	99.616973
838.000000	99.545260
837.000000	99.470703
836.000000	99.399203
835.000000	99.337823
834.000000	99.287728
833.000000	99.243699
832.000000	99.203273
831.000000	99.171395
830.000000	99.154160
829.000000	99.153566
828.000000	99.169651
827.000000	99.200028
826.000000	99.234797
825.000000	99.260864
824.000000	99.275155
823.000000	99.285127
822.000000	99.293716
821.000000	99.294182
820.000000	99.282307
819.000000	99.261702
818.000000	99.232458
817.000000	99.184528
816.000000	99.108112
815.000000	99.003096
814.000000	98.871734
813.000000	98.707348
812.000000	98.496692
811.000000	98.228992
810.000000	97.896815
809.000000	97.493464
808.000000	97.018220
807.000000	96.482805
806.000000	95.906838
805.000000	95.309448
804.000000	94.710379
803.000000	94.134226
802.000000	93.607051
801.000000	93.153476
800.000000	92.799965
799.000000	92.569654
798.000000	92.465913
797.000000	92.469073
796.000000	92.553814
795.000000	92.700153
794.000000	92.885680
793.000000	93.081951
792.000000	93.266285
791.000000	93.428047
790.000000	93.558444
789.000000	93.643127
788.000000	93.670051
787.000000	93.637066
786.000000	93.547045
785.000000	93.402650
784.000000	93.211580
783.000000	92.991901
782.000000	92.767656
781.000000	92.563527
780.000000	92.405427
779.000000	92.317766
778.000000	92.314742
777.000000	92.398518
776.000000	92.564533
775.000000	92.798894
774.000000	93.071855
773.000000	93.347534
772.000000	93.603956
771.000000	93.835960
770.000000	94.040553
769.000000	94.211445
768.000000	94.348375
767.000000	94.459381
766.000000	94.550672
765.000000	94.624162
764.000000	94.686855
763.000000	94.750915
762.000000	94.820266
761.000000	94.887647
760.000000	94.949501
759.000000	95.014132
758.000000	95.090811
757.000000	95.180288
756.000000	95.279894
755.000000	95.387565
754.000000	95.495878
753.000000	95.592533
752.000000	95.673804
751.000000	95.750305
750.000000	95.833840
749.000000	95.924856
748.000000	96.017478
747.000000	96.110324
746.000000	96.207401
745.000000	96.313843
744.000000	96.434418
743.000000	96.570156
742.000000	96.713303
741.000000	96.852049
740.000000	96.982934
739.000000	97.112608
738.000000	97.246144
737.000000	97.380833
736.000000	97.512520
735.000000	97.638735
734.000000	97.753026
733.000000	97.845980
732.000000	97.915765
731.000000	97.969474
730.000000	98.011338
729.000000	98.039129
728.000000	98.055592
727.000000	98.073292
726.000000	98.102119
725.000000	98.139697
724.000000	98.180213
723.000000	98.225571
722.000000	98.282160
721.000000	98.352996
720.000000	98.437510
719.000000	98.532000
718.000000	98.625933
717.000000	98.705840
716.000000	98.768765
715.000000	98.825483
714.000000	98.885371
713.000000	98.944797
712.000000	98.995427
711.000000	99.035710
710.000000	99.067081
709.000000	99.086603
708.000000	99.091668
707.000000	99.085682
706.000000	99.070689
705.000000	99.038788
704.000000	98.978674
703.000000	98.885595
702.000000	98.755662
701.000000	98.576174
700.000000	98.334276
699.000000	98.035626
698.000000	97.709910
697.000000	97.401027
696.000000	97.156599
695.000000	97.018409
694.000000	97.006632
693.000000	97.107749
692.000000	97.279936
691.000000	97.473439
690.000000	97.652538
689.000000	97.805913
688.000000	97.941242
687.000000	98.067214
686.000000	98.177186
685.000000	98.255797
684.000000	98.302816
683.000000	98.340474
682.000000	98.392083
681.000000	98.459958
680.000000	98.529740
679.000000	98.590080
678.000000	98.640931
677.000000	98.688528
676.000000	98.739042
675.000000	98.793951
674.000000	98.850128
673.000000	98.902268
672.000000	98.944698
671.000000	98.973734
670.000000	98.991451
669.000000	99.015623
668.000000	99.078139
667.000000	99.175268
666.000000	99.263118
665.000000	99.321999
664.000000	99.353868
663.000000	99.365795
662.000000	99.368330
661.000000	99.375800
660.000000	99.398113
659.000000	99.428709
658.000000	99.445853
657.000000	99.435680
656.000000	99.408323
655.000000	99.381511
654.000000	99.358620
653.000000	99.332974
652.000000	99.307498
651.000000	99.294238
650.000000	99.293214
