4000.000000	100.114129
3999.000000	100.115603
3998.000000	100.117756
3997.000000	100.119052
3996.000000	100.118974
3995.000000	100.117804
3994.000000	100.116377
3993.000000	100.115709
3992.000000	100.116365
3991.000000	100.117990
3990.000000	100.119436
3989.000000	100.119591
3988.000000	100.118342
3987.000000	100.116653
3986.000000	100.115692
3985.000000	100.115804
3984.000000	100.116312
3983.000000	100.116442
3982.000000	100.116315
3981.000000	100.116747
3980.000000	100.118078
3979.000000	100.119592
3978.000000	100.120271
3977.000000	100.119752
3976.000000	100.118276
3975.000000	100.116008
3974.000000	100.112963
3973.000000	100.109635
3972.000000	100.107174
3971.000000	100.106599
3970.000000	100.107938
3969.000000	100.110269
3968.000000	100.112610
3967.000000	100.114567
3966.000000	100.116044
3965.000000	100.116585
3964.000000	100.115423
3963.000000	100.112345
3962.000000	100.108411
3961.000000	100.105458
3960.000000	100.104635
3959.000000	100.105604
3958.000000	100.107108
3957.000000	100.108129
3956.000000	100.108500
3955.000000	100.108678
3954.000000	100.109247
3953.000000	100.110567
3952.000000	100.112458
3951.000000	100.114082
3950.000000	100.114475
3949.000000	100.113476
3948.000000	100.112122
3947.000000	100.111914
3946.000000	100.113622
3945.000000	100.116705
3944.000000	100.119596
3943.000000	100.120842
3942.000000	100.120120
3941.000000	100.118221
3940.000000	100.116188
3939.000000	100.114532
3938.000000	100.113283
3937.000000	100.112369
3936.000000	100.111620
3935.000000	100.110634
3934.000000	100.109047
3933.000000	100.107196
3932.000000	100.106204
3931.000000	100.106943
3930.000000	100.109037
3929.000000	100.111020
3928.000000	100.111606
3927.000000	100.110733
3926.000000	100.109467
3925.000000	100.108935
3924.000000	100.109358
3923.000000	100.110086
3922.000000	100.110274
3921.000000	100.109518
3920.000000	100.108255
3919.000000	100.107641
3918.000000	100.108616
3917.000000	100.110918
3916.000000	100.113235
3915.000000	100.114484
3914.000000	100.114583
3913.000000	100.113917
3912.000000	100.112612
3911.000000	100.110500
3910.000000	100.107650
3909.000000	100.104571
3908.000000	100.101908
3907.000000	100.100113
3906.000000	100.099386
3905.000000	100.099801
3904.000000	100.101256
3903.000000	100.103410
3902.000000	100.105952
3901.000000	100.108684
3900.000000	100.111094
3899.000000	100.112267
3898.000000	100.111583
3897.000000	100.109258
3896.000000	100.106182
3895.000000	100.103310
3894.000000	100.101350
3893.000000	100.100568
3892.000000	100.100613
3891.000000	100.100531
3890.000000	100.099741
3889.000000	100.099003
3888.000000	100.099620
3887.000000	100.101853
3886.000000	100.104295
3885.000000	100.104913
3884.000000	100.103054
3883.000000	100.100032
3882.000000	100.097790
3881.000000	100.097441
3880.000000	100.098773
3879.000000	100.100705
3878.000000	100.102481
3877.000000	100.104028
3876.000000	100.105395
3875.000000	100.106295
3874.000000	100.106247
3873.000000	100.105598
3872.000000	100.105865
3871.000000	100.107933
3870.000000	100.110263
3869.000000	100.110326
3868.000000	100.107960
3867.000000	100.105353
3866.000000	100.103691
3865.000000	100.101952
3864.000000	100.099130
3863.000000	100.095853
3862.000000	100.093541
3861.000000	100.092624
3860.000000	100.092468
3859.000000	100.092463
3858.000000	100.092778
3857.000000	100.093958
3856.000000	100.095894
3855.000000	100.097644
3854.000000	100.098757
3853.000000	100.099297
3852.000000	100.099006
3851.000000	100.098364
3850.000000	100.098039
3849.000000	100.097546
3848.000000	100.095887
3847.000000	100.092737
3846.000000	100.089116
3845.000000	100.086794
3844.000000	100.086799
3843.000000	100.088287
3842.000000	100.089287
3841.000000	100.088739
3840.000000	100.087357
3839.000000	100.086579
3838.000000	100.086936
3837.000000	100.087539
3836.000000	100.087306
3835.000000	100.086378
3834.000000	100.085824
3833.000000	100.086370
3832.000000	100.087670
3831.000000	100.088813
3830.000000	100.089347
3829.000000	100.089574
3828.000000	100.089966
3827.000000	100.090300
3826.000000	100.089691
3825.000000	100.087594
3824.000000	100.084565
3823.000000	100.082007
3822.000000	100.081207
3821.000000	100.082195
3820.000000	100.083766
3819.000000	100.085490
3818.000000	100.087853
3817.000000	100.090677
3816.000000	100.092890
3815.000000	100.093680
3814.000000	100.093484
3813.000000	100.093328
3812.000000	100.093460
3811.000000	100.093323
3810.000000	100.092577
3809.000000	100.091632
3808.000000	100.091203
3807.000000	100.091425
3806.000000	100.091779
3805.000000	100.092091
3804.000000	100.092919
3803.000000	100.094584
3802.000000	100.096434
3801.000000	100.097214
3800.000000	100.096400
3799.000000	100.094710
3798.000000	100.093123
3797.000000	100.092045
3796.000000	100.091539
3795.000000	100.091821
3794.000000	100.093130
3793.000000	100.095181
3792.000000	100.097038
3791.000000	100.097785
3790.000000	100.097203
3789.000000	100.095941
3788.000000	100.095128
3787.000000	100.095665
3786.000000	100.097614
3785.000000	100.099894
3784.000000	100.100974
3783.000000	100.100258
3782.000000	100.098611
3781.000000	100.097143
3780.000000	100.095751
3779.000000	100.093236
3778.000000	100.089206
3777.000000	100.085310
3776.000000	100.083741
3775.000000	100.084887
3774.000000	100.087156
3773.000000	100.089024
3772.000000	100.090579
3771.000000	100.092567
3770.000000	100.094581
3769.000000	100.095266
3768.000000	100.094407
3767.000000	100.093417
3766.000000	100.093288
3765.000000	100.093042
3764.000000	100.091029
3763.000000	100.087406
3762.000000	100.084287
3761.000000	100.083464
3760.000000	100.084900
3759.000000	100.086659
3758.000000	100.086400
3757.000000	100.083635
3756.000000	100.080771
3755.000000	100.081553
3754.000000	100.087584
3753.000000	100.096569
3752.000000	100.104975
3751.000000	100.112123
3750.000000	100.118866
3749.000000	100.123748
3748.000000	100.125084
3747.000000	100.124345
3746.000000	100.123280
3745.000000	100.120427
3744.000000	100.112655
3743.000000	100.100225
3742.000000	100.088725
3741.000000	100.083283
3740.000000	100.083981
3739.000000	100.087290
3738.000000	100.089680
3737.000000	100.089825
3736.000000	100.087834
3735.000000	100.084390
3734.000000	100.081135
3733.000000	100.079966
3732.000000	100.080446
3731.000000	100.079877
3730.000000	100.076682
3729.000000	100.072168
3728.000000	100.068770
3727.000000	100.067394
3726.000000	100.066462
3725.000000	100.063479
3724.000000	100.057251
3723.000000	100.048847
3722.000000	100.041224
3721.000000	100.037058
3720.000000	100.036601
3719.000000	100.037610
3718.000000	100.037211
3717.000000	100.033996
3716.000000	100.028816
3715.000000	100.023714
3714.000000	100.019826
3713.000000	100.016359
3712.000000	100.011674
3711.000000	100.005124
3710.000000	99.997984
3709.000000	99.992327
3708.000000	99.988755
3707.000000	99.985885
3706.000000	99.982116
3705.000000	99.977417
3704.000000	99.973244
3703.000000	99.970887
3702.000000	99.969846
3701.000000	99.967945
3700.000000	99.963568
3699.000000	99.957306
3698.000000	99.951032
3697.000000	99.946038
3696.000000	99.942589
3695.000000	99.940653
3694.000000	99.940045
3693.000000	99.940012
3692.000000	99.939802
3691.000000	99.939651
3690.000000	99.940395
3689.000000	99.941498
3688.000000	99.940577
3687.000000	99.936206
3686.000000	99.929977
3685.000000	99.924761
3684.000000	99.921483
3683.000000	99.918580
3682.000000	99.914233
3681.000000	99.908237
3680.000000	99.901340
3679.000000	99.894412
3678.000000	99.888827
3677.000000	99.886193
3676.000000	99.886491
3675.000000	99.886154
3674.000000	99.881867
3673.000000	99.875119
3672.000000	99.869183
3671.000000	99.865172
3670.000000	99.862004
3669.000000	99.858059
3668.000000	99.853389
3667.000000	99.849322
3666.000000	99.846289
3665.000000	99.843652
3664.000000	99.840984
3663.000000	99.838505
3662.000000	99.836075
3661.000000	99.832425
3660.000000	99.826028
3659.000000	99.817044
3658.000000	99.807760
3657.000000	99.800829
3656.000000	99.796178
3655.000000	99.790833
3654.000000	99.782817
3653.000000	99.773065
3652.000000	99.763408
3651.000000	99.755060
3650.000000	99.748985
3649.000000	99.745545
3648.000000	99.744240
3647.000000	99.744734
3646.000000	99.747031
3645.000000	99.750470
3644.000000	99.753476
3643.000000	99.754249
3642.000000	99.751936
3641.000000	99.747026
3640.000000	99.740496
3639.000000	99.732613
3638.000000	99.722947
3637.000000	99.711978
3636.000000	99.701528
3635.000000	99.692811
3634.000000	99.684894
3633.000000	99.676688
3632.000000	99.669980
3631.000000	99.667967
3630.000000	99.670735
3629.000000	99.673158
3628.000000	99.669280
3627.000000	99.660258
3626.000000	99.651944
3625.000000	99.646599
3624.000000	99.642550
3623.000000	99.638896
3622.000000	99.638024
3621.000000	99.642834
3620.000000	99.651986
3619.000000	99.659570
3618.000000	99.661025
3617.000000	99.658116
3616.000000	99.656391
3615.000000	99.659677
3614.000000	99.667526
3613.000000	99.676434
3612.000000	99.683545
3611.000000	99.689080
3610.000000	99.694811
3609.000000	99.700954
3608.000000	99.705249
3607.000000	99.705339
3606.000000	99.701723
3605.000000	99.697407
3604.000000	99.695140
3603.000000	99.695958
3602.000000	99.699523
3601.000000	99.704922
3600.000000	99.711148
3599.000000	99.717436
3598.000000	99.722941
3597.000000	99.726904
3596.000000	99.729405
3595.000000	99.731247
3594.000000	99.732566
3593.000000	99.732466
3592.000000	99.730542
3591.000000	99.728256
3590.000000	99.728355
3589.000000	99.732438
3588.000000	99.738698
3587.000000	99.742945
3586.000000	99.743313
3585.000000	99.742015
3584.000000	99.741771
3583.000000	99.742856
3582.000000	99.743774
3581.000000	99.743381
3580.000000	99.741959
3579.000000	99.740773
3578.000000	99.740937
3577.000000	99.742649
3576.000000	99.745278
3575.000000	99.747802
3574.000000	99.749273
3573.000000	99.749098
3572.000000	99.747249
3571.000000	99.744362
3570.000000	99.741534
3569.000000	99.739838
3568.000000	99.739682
3567.000000	99.740627
3566.000000	99.741933
3565.000000	99.743241
3564.000000	99.744368
3563.000000	99.744939
3562.000000	99.744735
3561.000000	99.744071
3560.000000	99.743632
3559.000000	99.743903
3558.000000	99.744848
3557.000000	99.745985
3556.000000	99.746761
3555.000000	99.746940
3554.000000	99.746699
3553.000000	99.746400
3552.000000	99.746282
3551.000000	99.746351
3550.000000	99.746505
3549.000000	99.746667
3548.000000	99.746824
3547.000000	99.747016
3546.000000	99.747295
3545.000000	99.747670
3544.000000	99.748112
3543.000000	99.748584
3542.000000	99.749055
3541.000000	99.749507
3540.000000	99.749945
3539.000000	99.750384
3538.000000	99.750831
3537.000000	99.751293
3536.000000	99.751781
3535.000000	99.752300
3534.000000	99.752844
3533.000000	99.753409
3532.000000	99.753996
3531.000000	99.754614
3530.000000	99.755266
3529.000000	99.755944
3528.000000	99.756632
3527.000000	99.757317
3526.000000	99.757966
3525.000000	99.758549
3524.000000	99.759077
3523.000000	99.759603
3522.000000	99.760185
3521.000000	99.760849
3520.000000	99.761558
3519.000000	99.762215
3518.000000	99.762716
3517.000000	99.763033
3516.000000	99.763280
3515.000000	99.763616
3514.000000	99.764077
3513.000000	99.764560
3512.000000	99.765041
3511.000000	99.765748
3510.000000	99.766955
3509.000000	99.768522
3508.000000	99.769810
3507.000000	99.770259
3506.000000	99.769949
3505.000000	99.769498
3504.000000	99.769396
3503.000000	99.769523
3502.000000	99.769431
3501.000000	99.768932
3500.000000	99.768230
3499.000000	99.767576
3498.000000	99.767103
3497.000000	99.767079
3496.000000	99.768103
3495.000000	99.770633
3494.000000	99.774140
3493.000000	99.776970
3492.000000	99.777600
3491.000000	99.775923
3490.000000	99.773287
3489.000000	99.771212
3488.000000	99.770005
3487.000000	99.768868
3486.000000	99.767008
3485.000000	99.764452
3484.000000	99.762069
3483.000000	99.760982
3482.000000	99.761608
3481.000000	99.763032
3480.000000	99.763514
3479.000000	99.762027
3478.000000	99.759174
3477.000000	99.756439
3476.000000	99.754699
3475.000000	99.753729
3474.000000	99.753034
3473.000000	99.752532
3472.000000	99.752225
3471.000000	99.751767
3470.000000	99.750914
3469.000000	99.750172
3468.000000	99.750420
3467.000000	99.751752
3466.000000	99.753141
3465.000000	99.753539
3464.000000	99.753111
3463.000000	99.753129
3462.000000	99.754632
3461.000000	99.757358
3460.000000	99.759968
3459.000000	99.761244
3458.000000	99.760861
3457.000000	99.759139
3456.000000	99.756573
3455.000000	99.753840
3454.000000	99.751936
3453.000000	99.751651
3452.000000	99.752821
3451.000000	99.754405
3450.000000	99.755525
3449.000000	99.756143
3448.000000	99.756619
3447.000000	99.757025
3446.000000	99.757180
3445.000000	99.757097
3444.000000	99.756997
3443.000000	99.757049
3442.000000	99.757442
3441.000000	99.758538
3440.000000	99.760502
3439.000000	99.762732
3438.000000	99.764097
3437.000000	99.764010
3436.000000	99.763066
3435.000000	99.762467
3434.000000	99.762765
3433.000000	99.763418
3432.000000	99.763481
3431.000000	99.762553
3430.000000	99.761037
3429.000000	99.759762
3428.000000	99.759307
3427.000000	99.759563
3426.000000	99.759910
3425.000000	99.759797
3424.000000	99.759204
3423.000000	99.758523
3422.000000	99.758023
3421.000000	99.757592
3420.000000	99.757091
3419.000000	99.756728
3418.000000	99.756827
3417.000000	99.757294
3416.000000	99.757573
3415.000000	99.757255
3414.000000	99.756460
3413.000000	99.755569
3412.000000	99.754789
3411.000000	99.754179
3410.000000	99.753927
3409.000000	99.754223
3408.000000	99.754904
3407.000000	99.755455
3406.000000	99.755525
3405.000000	99.755269
3404.000000	99.755085
3403.000000	99.755150
3402.000000	99.755308
3401.000000	99.755373
3400.000000	99.755348
3399.000000	99.755315
3398.000000	99.755241
3397.000000	99.755007
3396.000000	99.754619
3395.000000	99.754297
3394.000000	99.754326
3393.000000	99.754797
3392.000000	99.755468
3391.000000	99.755893
3390.000000	99.755760
3389.000000	99.755067
3388.000000	99.754099
3387.000000	99.753295
3386.000000	99.753019
3385.000000	99.753397
3384.000000	99.754204
3383.000000	99.754954
3382.000000	99.755268
3381.000000	99.755137
3380.000000	99.754897
3379.000000	99.754983
3378.000000	99.755697
3377.000000	99.757092
3376.000000	99.758898
3375.000000	99.760555
3374.000000	99.761561
3373.000000	99.761881
3372.000000	99.761951
3371.000000	99.762210
3370.000000	99.762611
3369.000000	99.762743
3368.000000	99.762345
3367.000000	99.761651
3366.000000	99.761233
3365.000000	99.761541
3364.000000	99.762600
3363.000000	99.764097
3362.000000	99.765712
3361.000000	99.767342
3360.000000	99.768940
3359.000000	99.770255
3358.000000	99.770948
3357.000000	99.770990
3356.000000	99.770786
3355.000000	99.770773
3354.000000	99.771036
3353.000000	99.771539
3352.000000	99.772565
3351.000000	99.774549
3350.000000	99.777348
3349.000000	99.780011
3348.000000	99.781591
3347.000000	99.782077
3346.000000	99.782325
3345.000000	99.783073
3344.000000	99.784264
3343.000000	99.785275
3342.000000	99.785463
3341.000000	99.784548
3340.000000	99.782911
3339.000000	99.781635
3338.000000	99.781795
3337.000000	99.783479
3336.000000	99.785699
3335.000000	99.787371
3334.000000	99.788166
3333.000000	99.788179
3332.000000	99.787289
3331.000000	99.785423
3330.000000	99.783217
3329.000000	99.781703
3328.000000	99.781236
3327.000000	99.781173
3326.000000	99.780750
3325.000000	99.779974
3324.000000	99.779554
3323.000000	99.780227
3322.000000	99.782150
3321.000000	99.784633
3320.000000	99.786547
3319.000000	99.787439
3318.000000	99.788281
3317.000000	99.790559
3316.000000	99.794509
3315.000000	99.798715
3314.000000	99.801701
3313.000000	99.803360
3312.000000	99.804442
3311.000000	99.805262
3310.000000	99.805499
3309.000000	99.804960
3308.000000	99.803891
3307.000000	99.802723
3306.000000	99.802029
3305.000000	99.802521
3304.000000	99.804325
3303.000000	99.806255
3302.000000	99.806531
3301.000000	99.804499
3300.000000	99.801266
3299.000000	99.798541
3298.000000	99.797072
3297.000000	99.796478
3296.000000	99.796261
3295.000000	99.796556
3294.000000	99.797813
3293.000000	99.800024
3292.000000	99.802451
3291.000000	99.804111
3290.000000	99.804559
3289.000000	99.804145
3288.000000	99.803596
3287.000000	99.803407
3286.000000	99.803639
3285.000000	99.804145
3284.000000	99.804791
3283.000000	99.805457
3282.000000	99.805970
3281.000000	99.806129
3280.000000	99.805820
3279.000000	99.805129
3278.000000	99.804391
3277.000000	99.804035
3276.000000	99.804250
3275.000000	99.804842
3274.000000	99.805443
3273.000000	99.805860
3272.000000	99.806162
3271.000000	99.806452
3270.000000	99.806718
3269.000000	99.806917
3268.000000	99.807083
3267.000000	99.807311
3266.000000	99.807663
3265.000000	99.808108
3264.000000	99.808547
3263.000000	99.808869
3262.000000	99.809021
3261.000000	99.809044
3260.000000	99.809083
3259.000000	99.809298
3258.000000	99.809750
3257.000000	99.810330
3256.000000	99.810825
3255.000000	99.811097
3254.000000	99.811143
3253.000000	99.811087
3252.000000	99.811128
3251.000000	99.811457
3250.000000	99.812124
3249.000000	99.812967
3248.000000	99.813746
3247.000000	99.814357
3246.000000	99.814864
3245.000000	99.815305
3244.000000	99.815535
3243.000000	99.815387
3242.000000	99.814940
3241.000000	99.814557
3240.000000	99.814643
3239.000000	99.815344
3238.000000	99.816495
3237.000000	99.817755
3236.000000	99.818832
3235.000000	99.819652
3234.000000	99.820370
3233.000000	99.821183
3232.000000	99.822116
3231.000000	99.823003
3230.000000	99.823682
3229.000000	99.824204
3228.000000	99.824768
3227.000000	99.825444
3226.000000	99.826003
3225.000000	99.826114
3224.000000	99.825712
3223.000000	99.825135
3222.000000	99.824865
3221.000000	99.825109
3220.000000	99.825719
3219.000000	99.826468
3218.000000	99.827284
3217.000000	99.828146
3216.000000	99.828854
3215.000000	99.829135
3214.000000	99.828991
3213.000000	99.828847
3212.000000	99.829205
3211.000000	99.830185
3210.000000	99.831488
3209.000000	99.832687
3208.000000	99.833547
3207.000000	99.834105
3206.000000	99.834584
3205.000000	99.835265
3204.000000	99.836305
3203.000000	99.837630
3202.000000	99.838943
3201.000000	99.839930
3200.000000	99.840521
3199.000000	99.840919
3198.000000	99.841434
3197.000000	99.842183
3196.000000	99.843044
3195.000000	99.843833
3194.000000	99.844482
3193.000000	99.845051
3192.000000	99.845616
3191.000000	99.846207
3190.000000	99.846828
3189.000000	99.847492
3188.000000	99.848213
3187.000000	99.848995
3186.000000	99.849824
3185.000000	99.850673
3184.000000	99.851498
3183.000000	99.852271
3182.000000	99.852998
3181.000000	99.853720
3180.000000	99.854471
3179.000000	99.855251
3178.000000	99.856036
3177.000000	99.856816
3176.000000	99.857603
3175.000000	99.858410
3174.000000	99.859229
3173.000000	99.860051
3172.000000	99.860876
3171.000000	99.861703
3170.000000	99.862522
3169.000000	99.863311
3168.000000	99.864056
3167.000000	99.864760
3166.000000	99.865442
3165.000000	99.866121
3164.000000	99.866806
3163.000000	99.867494
3162.000000	99.868176
3161.000000	99.868843
3160.000000	99.869491
3159.000000	99.870127
3158.000000	99.870764
3157.000000	99.871416
3156.000000	99.872089
3155.000000	99.872779
3154.000000	99.873475
3153.000000	99.874169
3152.000000	99.874863
3151.000000	99.875560
3150.000000	99.876265
3149.000000	99.876976
3148.000000	99.877691
3147.000000	99.878407
3146.000000	99.879124
3145.000000	99.879841
3144.000000	99.880560
3143.000000	99.881275
3142.000000	99.881976
3141.000000	99.882656
3140.000000	99.883321
3139.000000	99.883985
3138.000000	99.884669
3137.000000	99.885384
3136.000000	99.886127
3135.000000	99.886876
3134.000000	99.887620
3133.000000	99.888360
3132.000000	99.889102
3131.000000	99.889845
3130.000000	99.890577
3129.000000	99.891286
3128.000000	99.891967
3127.000000	99.892631
3126.000000	99.893295
3125.000000	99.893977
3124.000000	99.894686
3123.000000	99.895416
3122.000000	99.896149
3121.000000	99.896871
3120.000000	99.897585
3119.000000	99.898306
3118.000000	99.899048
3117.000000	99.899814
3116.000000	99.900595
3115.000000	99.901377
3114.000000	99.902139
3113.000000	99.902870
3112.000000	99.903574
3111.000000	99.904269
3110.000000	99.904976
3109.000000	99.905703
3108.000000	99.906448
3107.000000	99.907202
3106.000000	99.907950
3105.000000	99.908683
3104.000000	99.909396
3103.000000	99.910089
3102.000000	99.910767
3101.000000	99.911445
3100.000000	99.912135
3099.000000	99.912842
3098.000000	99.913564
3097.000000	99.914295
3096.000000	99.915022
3095.000000	99.915737
3094.000000	99.916454
3093.000000	99.917206
3092.000000	99.917991
3091.000000	99.918732
3090.000000	99.919360
3089.000000	99.919931
3088.000000	99.920593
3087.000000	99.921409
3086.000000	99.922288
3085.000000	99.923165
3084.000000	99.924089
3083.000000	99.925037
3082.000000	99.925818
3081.000000	99.926304
3080.000000	99.926677
3079.000000	99.927283
3078.000000	99.928206
3077.000000	99.929178
3076.000000	99.929922
3075.000000	99.930439
3074.000000	99.930937
3073.000000	99.931596
3072.000000	99.932465
3071.000000	99.933499
3070.000000	99.934595
3069.000000	99.935638
3068.000000	99.936575
3067.000000	99.937401
3066.000000	99.938074
3065.000000	99.938523
3064.000000	99.938783
3063.000000	99.939085
3062.000000	99.939723
3061.000000	99.940822
3060.000000	99.942266
3059.000000	99.943797
3058.000000	99.945183
3057.000000	99.946315
3056.000000	99.947207
3055.000000	99.947916
3054.000000	99.948447
3053.000000	99.948752
3052.000000	99.948817
3051.000000	99.948734
3050.000000	99.948696
3049.000000	99.948909
3048.000000	99.949494
3047.000000	99.950417
3046.000000	99.951474
3045.000000	99.952385
3044.000000	99.952971
3043.000000	99.953241
3042.000000	99.953386
3041.000000	99.953698
3040.000000	99.954381
3039.000000	99.955432
3038.000000	99.956625
3037.000000	99.957642
3036.000000	99.958293
3035.000000	99.958588
3034.000000	99.958735
3033.000000	99.959027
3032.000000	99.959681
3031.000000	99.960735
3030.000000	99.962030
3029.000000	99.963290
3028.000000	99.964295
3027.000000	99.965012
3026.000000	99.965554
3025.000000	99.966054
3024.000000	99.966583
3023.000000	99.967213
3022.000000	99.968072
3021.000000	99.969241
3020.000000	99.970625
3019.000000	99.971967
3018.000000	99.973038
3017.000000	99.973772
3016.000000	99.974260
3015.000000	99.974681
3014.000000	99.975223
3013.000000	99.975923
3012.000000	99.976515
3011.000000	99.976599
3010.000000	99.976104
3009.000000	99.975558
3008.000000	99.975748
3007.000000	99.977150
3006.000000	99.979780
3005.000000	99.983392
3004.000000	99.987613
3003.000000	99.991836
3002.000000	99.995220
3001.000000	99.997033
3000.000000	99.997069
2999.000000	99.995784
2998.000000	99.994134
2997.000000	99.993145
2996.000000	99.993456
2995.000000	99.995104
2994.000000	99.997566
2993.000000	100.000022
2992.000000	100.001723
2991.000000	100.002281
2990.000000	100.001765
2989.000000	100.000678
2988.000000	99.999779
2987.000000	99.999782
2986.000000	100.001038
2985.000000	100.003365
2984.000000	100.006169
2983.000000	100.008797
2982.000000	100.010816
2981.000000	100.012033
2980.000000	100.012514
2979.000000	100.012675
2978.000000	100.013122
2977.000000	100.014070
2976.000000	100.015048
2975.000000	100.015404
2974.000000	100.015026
2973.000000	100.014255
2972.000000	100.013279
2971.000000	100.012070
2970.000000	100.010933
2969.000000	100.010535
2968.000000	100.011116
2967.000000	100.012040
2966.000000	100.012522
2965.000000	100.012609
2964.000000	100.013043
2963.000000	100.014200
2962.000000	100.015428
2961.000000	100.015537
2960.000000	100.013810
2959.000000	100.010671
2958.000000	100.007693
2957.000000	100.006614
2956.000000	100.008087
2955.000000	100.011326
2954.000000	100.014753
2953.000000	100.017194
2952.000000	100.018297
2951.000000	100.018163
2950.000000	100.017173
2949.000000	100.016095
2948.000000	100.015723
2947.000000	100.016148
2946.000000	100.016713
2945.000000	100.016891
2944.000000	100.016964
2943.000000	100.017630
2942.000000	100.019190
2941.000000	100.021356
2940.000000	100.023652
2939.000000	100.025741
2938.000000	100.027440
2937.000000	100.028666
2936.000000	100.029479
2935.000000	100.030066
2934.000000	100.030583
2933.000000	100.031005
2932.000000	100.031235
2931.000000	100.031448
2930.000000	100.032178
2929.000000	100.033784
2928.000000	100.035811
2927.000000	100.037329
2926.000000	100.038047
2925.000000	100.038570
2924.000000	100.039204
2923.000000	100.039169
2922.000000	100.037759
2921.000000	100.035784
2920.000000	100.034978
2919.000000	100.035972
2918.000000	100.037703
2917.000000	100.038801
2916.000000	100.038978
2915.000000	100.038774
2914.000000	100.038703
2913.000000	100.039094
2912.000000	100.040110
2911.000000	100.041395
2910.000000	100.042033
2909.000000	100.041405
2908.000000	100.039936
2907.000000	100.038653
2906.000000	100.038164
2905.000000	100.038281
2904.000000	100.038447
2903.000000	100.038201
2902.000000	100.037441
2901.000000	100.036545
2900.000000	100.036108
2899.000000	100.036392
2898.000000	100.037188
2897.000000	100.038310
2896.000000	100.039835
2895.000000	100.041558
2894.000000	100.042684
2893.000000	100.042629
2892.000000	100.041883
2891.000000	100.041589
2890.000000	100.042173
2889.000000	100.042921
2888.000000	100.042981
2887.000000	100.042359
2886.000000	100.041667
2885.000000	100.041262
2884.000000	100.041034
2883.000000	100.040901
2882.000000	100.041107
2881.000000	100.041954
2880.000000	100.043414
2879.000000	100.045077
2878.000000	100.046430
2877.000000	100.047151
2876.000000	100.047205
2875.000000	100.046767
2874.000000	100.046082
2873.000000	100.045410
2872.000000	100.044915
2871.000000	100.044548
2870.000000	100.044116
2869.000000	100.043517
2868.000000	100.042808
2867.000000	100.042035
2866.000000	100.041215
2865.000000	100.040605
2864.000000	100.040734
2863.000000	100.041871
2862.000000	100.043576
2861.000000	100.044965
2860.000000	100.045520
2859.000000	100.045348
2858.000000	100.044795
2857.000000	100.044113
2856.000000	100.043533
2855.000000	100.043321
2854.000000	100.043544
2853.000000	100.043939
2852.000000	100.044189
2851.000000	100.044224
2850.000000	100.044071
2849.000000	100.043621
2848.000000	100.042785
2847.000000	100.041821
2846.000000	100.041230
2845.000000	100.041300
2844.000000	100.041888
2843.000000	100.042709
2842.000000	100.043546
2841.000000	100.044188
2840.000000	100.044451
2839.000000	100.044341
2838.000000	100.044108
2837.000000	100.044019
2836.000000	100.044088
2835.000000	100.044144
2834.000000	100.044088
2833.000000	100.044010
2832.000000	100.044057
2831.000000	100.044270
2830.000000	100.044573
2829.000000	100.044887
2828.000000	100.045218
2827.000000	100.045609
2826.000000	100.046051
2825.000000	100.046472
2824.000000	100.046814
2823.000000	100.047086
2822.000000	100.047341
2821.000000	100.047611
2820.000000	100.047894
2819.000000	100.048178
2818.000000	100.048469
2817.000000	100.048795
2816.000000	100.049178
2815.000000	100.049611
2814.000000	100.050070
2813.000000	100.050510
2812.000000	100.050906
2811.000000	100.051261
2810.000000	100.051595
2809.000000	100.051932
2808.000000	100.052294
2807.000000	100.052700
2806.000000	100.053153
2805.000000	100.053626
2804.000000	100.054099
2803.000000	100.054562
2802.000000	100.055013
2801.000000	100.055461
2800.000000	100.055921
2799.000000	100.056404
2798.000000	100.056911
2797.000000	100.057434
2796.000000	100.057966
2795.000000	100.058504
2794.000000	100.059046
2793.000000	100.059591
2792.000000	100.060137
2791.000000	100.060681
2790.000000	100.061217
2789.000000	100.061745
2788.000000	100.062264
2787.000000	100.062774
2786.000000	100.063275
2785.000000	100.063766
2784.000000	100.064249
2783.000000	100.064726
2782.000000	100.065200
2781.000000	100.065673
2780.000000	100.066145
2779.000000	100.066613
2778.000000	100.067074
2777.000000	100.067529
2776.000000	100.067980
2775.000000	100.068433
2774.000000	100.068891
2773.000000	100.069355
2772.000000	100.069823
2771.000000	100.070293
2770.000000	100.070768
2769.000000	100.071250
2768.000000	100.071747
2767.000000	100.072261
2766.000000	100.072790
2765.000000	100.073319
2764.000000	100.073835
2763.000000	100.074329
2762.000000	100.074805
2761.000000	100.075272
2760.000000	100.075741
2759.000000	100.076209
2758.000000	100.076669
2757.000000	100.077108
2756.000000	100.077523
2755.000000	100.077919
2754.000000	100.078300
2753.000000	100.078670
2752.000000	100.079024
2751.000000	100.079356
2750.000000	100.079671
2749.000000	100.079981
2748.000000	100.080298
2747.000000	100.080626
2746.000000	100.080960
2745.000000	100.081287
2744.000000	100.081594
2743.000000	100.081875
2742.000000	100.082131
2741.000000	100.082368
2740.000000	100.082596
2739.000000	100.082825
2738.000000	100.083059
2737.000000	100.083292
2736.000000	100.083520
2735.000000	100.083740
2734.000000	100.083953
2733.000000	100.084164
2732.000000	100.084375
2731.000000	100.084585
2730.000000	100.084791
2729.000000	100.084986
2728.000000	100.085168
2727.000000	100.085336
2726.000000	100.085491
2725.000000	100.085630
2724.000000	100.085750
2723.000000	100.085844
2722.000000	100.085911
2721.000000	100.085955
2720.000000	100.085979
2719.000000	100.085978
2718.000000	100.085941
2717.000000	100.085891
2716.000000	100.085886
2715.000000	100.085963
2714.000000	100.086068
2713.000000	100.086086
2712.000000	100.085923
2711.000000	100.085589
2710.000000	100.085228
2709.000000	100.085037
2708.000000	100.085111
2707.000000	100.085307
2706.000000	100.085346
2705.000000	100.085032
2704.000000	100.084293
2703.000000	100.083123
2702.000000	100.081627
2701.000000	100.080237
2700.000000	100.079607
2699.000000	100.080117
2698.000000	100.081549
2697.000000	100.083121
2696.000000	100.083933
2695.000000	100.083605
2694.000000	100.082588
2693.000000	100.081847
2692.000000	100.082065
2691.000000	100.083083
2690.000000	100.084049
2689.000000	100.084053
2688.000000	100.082811
2687.000000	100.080859
2686.000000	100.078954
2685.000000	100.077428
2684.000000	100.076133
2683.000000	100.074913
2682.000000	100.073911
2681.000000	100.073213
2680.000000	100.072525
2679.000000	100.071561
2678.000000	100.070571
2677.000000	100.070059
2676.000000	100.070039
2675.000000	100.069976
2674.000000	100.069524
2673.000000	100.068942
2672.000000	100.068635
2671.000000	100.068644
2670.000000	100.068781
2669.000000	100.068969
2668.000000	100.069256
2667.000000	100.069623
2666.000000	100.069920
2665.000000	100.070022
2664.000000	100.069964
2663.000000	100.069933
2662.000000	100.070109
2661.000000	100.070489
2660.000000	100.070913
2659.000000	100.071226
2658.000000	100.071419
2657.000000	100.071571
2656.000000	100.071744
2655.000000	100.071965
2654.000000	100.072237
2653.000000	100.072555
2652.000000	100.072916
2651.000000	100.073317
2650.000000	100.073741
2649.000000	100.074179
2648.000000	100.074629
2647.000000	100.075103
2646.000000	100.075609
2645.000000	100.076143
2644.000000	100.076687
2643.000000	100.077220
2642.000000	100.077728
2641.000000	100.078215
2640.000000	100.078691
2639.000000	100.079162
2638.000000	100.079622
2637.000000	100.080067
2636.000000	100.080494
2635.000000	100.080907
2634.000000	100.081310
2633.000000	100.081703
2632.000000	100.082081
2631.000000	100.082434
2630.000000	100.082751
2629.000000	100.083034
2628.000000	100.083295
2627.000000	100.083545
2626.000000	100.083787
2625.000000	100.084014
2624.000000	100.084224
2623.000000	100.084423
2622.000000	100.084626
2621.000000	100.084844
2620.000000	100.085079
2619.000000	100.085320
2618.000000	100.085553
2617.000000	100.085772
2616.000000	100.085979
2615.000000	100.086179
2614.000000	100.086372
2613.000000	100.086550
2612.000000	100.086708
2611.000000	100.086846
2610.000000	100.086968
2609.000000	100.087074
2608.000000	100.087164
2607.000000	100.087240
2606.000000	100.087304
2605.000000	100.087361
2604.000000	100.087411
2603.000000	100.087471
2602.000000	100.087572
2601.000000	100.087711
2600.000000	100.087854
2599.000000	100.087963
2598.000000	100.088013
2597.000000	100.087964
2596.000000	100.087777
2595.000000	100.087469
2594.000000	100.087127
2593.000000	100.086866
2592.000000	100.086793
2591.000000	100.086976
2590.000000	100.087395
2589.000000	100.087917
2588.000000	100.088369
2587.000000	100.088631
2586.000000	100.088723
2585.000000	100.088794
2584.000000	100.088980
2583.000000	100.089266
2582.000000	100.089564
2581.000000	100.089899
2580.000000	100.090370
2579.000000	100.090871
2578.000000	100.091038
2577.000000	100.090650
2576.000000	100.089916
2575.000000	100.089301
2574.000000	100.089093
2573.000000	100.089269
2572.000000	100.089654
2571.000000	100.090026
2570.000000	100.090175
2569.000000	100.089996
2568.000000	100.089600
2567.000000	100.089239
2566.000000	100.089091
2565.000000	100.089151
2564.000000	100.089315
2563.000000	100.089482
2562.000000	100.089583
2561.000000	100.089579
2560.000000	100.089442
2559.000000	100.089145
2558.000000	100.088681
2557.000000	100.088165
2556.000000	100.087826
2555.000000	100.087793
2554.000000	100.087929
2553.000000	100.087916
2552.000000	100.087610
2551.000000	100.087194
2550.000000	100.086956
2549.000000	100.086969
2548.000000	100.087053
2547.000000	100.086986
2546.000000	100.086759
2545.000000	100.086615
2544.000000	100.086853
2543.000000	100.087494
2542.000000	100.088107
2541.000000	100.088161
2540.000000	100.087569
2539.000000	100.086813
2538.000000	100.086396
2537.000000	100.086257
2536.000000	100.085989
2535.000000	100.085464
2534.000000	100.085037
2533.000000	100.085098
2532.000000	100.085580
2531.000000	100.085971
2530.000000	100.085754
2529.000000	100.084788
2528.000000	100.083415
2527.000000	100.082294
2526.000000	100.081903
2525.000000	100.082084
2524.000000	100.082117
2523.000000	100.081422
2522.000000	100.080177
2521.000000	100.079109
2520.000000	100.078675
2519.000000	100.078682
2518.000000	100.078712
2517.000000	100.078674
2516.000000	100.078686
2515.000000	100.078618
2514.000000	100.078196
2513.000000	100.077616
2512.000000	100.077592
2511.000000	100.078559
2510.000000	100.080153
2509.000000	100.081557
2508.000000	100.082303
2507.000000	100.082494
2506.000000	100.082430
2505.000000	100.082396
2504.000000	100.082636
2503.000000	100.083201
2502.000000	100.083736
2501.000000	100.083723
2500.000000	100.083067
2499.000000	100.082269
2498.000000	100.081945
2497.000000	100.082224
2496.000000	100.082789
2495.000000	100.083365
2494.000000	100.084015
2493.000000	100.084954
2492.000000	100.086158
2491.000000	100.087284
2490.000000	100.087978
2489.000000	100.088192
2488.000000	100.088095
2487.000000	100.087827
2486.000000	100.087468
2485.000000	100.087186
2484.000000	100.087234
2483.000000	100.087728
2482.000000	100.088502
2481.000000	100.089261
2480.000000	100.089816
2479.000000	100.090170
2478.000000	100.090436
2477.000000	100.090740
2476.000000	100.091138
2475.000000	100.091591
2474.000000	100.092011
2473.000000	100.092361
2472.000000	100.092688
2471.000000	100.093071
2470.000000	100.093541
2469.000000	100.094070
2468.000000	100.094583
2467.000000	100.094993
2466.000000	100.095272
2465.000000	100.095478
2464.000000	100.095727
2463.000000	100.096074
2462.000000	100.096475
2461.000000	100.096846
2460.000000	100.097148
2459.000000	100.097405
2458.000000	100.097663
2457.000000	100.097954
2456.000000	100.098297
2455.000000	100.098701
2454.000000	100.099148
2453.000000	100.099605
2452.000000	100.100063
2451.000000	100.100522
2450.000000	100.100963
2449.000000	100.101353
2448.000000	100.101682
2447.000000	100.101976
2446.000000	100.102284
2445.000000	100.102649
2444.000000	100.103080
2443.000000	100.103543
2442.000000	100.103988
2441.000000	100.104401
2440.000000	100.104804
2439.000000	100.105214
2438.000000	100.105626
2437.000000	100.106049
2436.000000	100.106527
2435.000000	100.107070
2434.000000	100.107586
2433.000000	100.107973
2432.000000	100.108261
2431.000000	100.108601
2430.000000	100.109071
2429.000000	100.109581
2428.000000	100.109990
2427.000000	100.110274
2426.000000	100.110512
2425.000000	100.110766
2424.000000	100.111056
2423.000000	100.111429
2422.000000	100.111919
2421.000000	100.112431
2420.000000	100.112757
2419.000000	100.112788
2418.000000	100.112640
2417.000000	100.112598
2416.000000	100.112838
2415.000000	100.113318
2414.000000	100.113885
2413.000000	100.114420
2412.000000	100.114886
2411.000000	100.115233
2410.000000	100.115380
2409.000000	100.115314
2408.000000	100.115169
2407.000000	100.115139
2406.000000	100.115303
2405.000000	100.115617
2404.000000	100.116003
2403.000000	100.116409
2402.000000	100.116799
2401.000000	100.117140
2400.000000	100.117435
2399.000000	100.117720
2398.000000	100.117993
2397.000000	100.118202
2396.000000	100.118308
2395.000000	100.118336
2394.000000	100.118347
2393.000000	100.118388
2392.000000	100.118466
2391.000000	100.118568
2390.000000	100.118677
2389.000000	100.118782
2388.000000	100.118874
2387.000000	100.118940
2386.000000	100.118975
2385.000000	100.118987
2384.000000	100.118987
2383.000000	100.118980
2382.000000	100.118966
2381.000000	100.118951
2380.000000	100.118940
2379.000000	100.118938
2378.000000	100.118948
2377.000000	100.118961
2376.000000	100.118960
2375.000000	100.118931
2374.000000	100.118866
2373.000000	100.118772
2372.000000	100.118661
2371.000000	100.118544
2370.000000	100.118426
2369.000000	100.118307
2368.000000	100.118192
2367.000000	100.118086
2366.000000	100.117990
2365.000000	100.117897
2364.000000	100.117792
2363.000000	100.117660
2362.000000	100.117495
2361.000000	100.117301
2360.000000	100.117089
2359.000000	100.116875
2358.000000	100.116671
2357.000000	100.116478
2356.000000	100.116288
2355.000000	100.116094
2354.000000	100.115894
2353.000000	100.115692
2352.000000	100.115490
2351.000000	100.115289
2350.000000	100.115084
2349.000000	100.114872
2348.000000	100.114651
2347.000000	100.114425
2346.000000	100.114195
2345.000000	100.113964
2344.000000	100.113733
2343.000000	100.113505
2342.000000	100.113286
2341.000000	100.113067
2340.000000	100.112836
2339.000000	100.112586
2338.000000	100.112331
2337.000000	100.112091
2336.000000	100.111854
2335.000000	100.111542
2334.000000	100.111108
2333.000000	100.110604
2332.000000	100.110153
2331.000000	100.109795
2330.000000	100.109588
2329.000000	100.109681
2328.000000	100.110181
2327.000000	100.110819
2326.000000	100.111087
2325.000000	100.110718
2324.000000	100.109956
2323.000000	100.109284
2322.000000	100.108951
2321.000000	100.108967
2320.000000	100.109336
2319.000000	100.109961
2318.000000	100.110494
2317.000000	100.110481
2316.000000	100.109797
2315.000000	100.108585
2314.000000	100.107020
2313.000000	100.105116
2312.000000	100.103181
2311.000000	100.101840
2310.000000	100.101604
2309.000000	100.102313
2308.000000	100.103327
2307.000000	100.104084
2306.000000	100.104501
2305.000000	100.104661
2304.000000	100.104570
2303.000000	100.104243
2302.000000	100.104037
2301.000000	100.104439
2300.000000	100.105525
2299.000000	100.106595
2298.000000	100.106776
2297.000000	100.105829
2296.000000	100.104390
2295.000000	100.103292
2294.000000	100.102820
2293.000000	100.102657
2292.000000	100.102463
2291.000000	100.102260
2290.000000	100.102274
2289.000000	100.102535
2288.000000	100.102724
2287.000000	100.102437
2286.000000	100.101521
2285.000000	100.100165
2284.000000	100.098733
2283.000000	100.097565
2282.000000	100.096897
2281.000000	100.096728
2280.000000	100.096649
2279.000000	100.096014
2278.000000	100.094563
2277.000000	100.092818
2276.000000	100.091611
2275.000000	100.091186
2274.000000	100.091104
2273.000000	100.090974
2272.000000	100.090980
2271.000000	100.091431
2270.000000	100.092152
2269.000000	100.092612
2268.000000	100.092513
2267.000000	100.091990
2266.000000	100.091324
2265.000000	100.090647
2264.000000	100.089942
2263.000000	100.089198
2262.000000	100.088512
2261.000000	100.088050
2260.000000	100.087872
2259.000000	100.087809
2258.000000	100.087577
2257.000000	100.087071
2256.000000	100.086479
2255.000000	100.086043
2254.000000	100.085787
2253.000000	100.085529
2252.000000	100.085131
2251.000000	100.084623
2250.000000	100.084089
2249.000000	100.083540
2248.000000	100.082973
2247.000000	100.082475
2246.000000	100.082173
2245.000000	100.082076
2244.000000	100.082063
2243.000000	100.081979
2242.000000	100.081780
2241.000000	100.081529
2240.000000	100.081310
2239.000000	100.081143
2238.000000	100.080974
2237.000000	100.080746
2236.000000	100.080469
2235.000000	100.080227
2234.000000	100.080086
2233.000000	100.080037
2232.000000	100.080015
2231.000000	100.079967
2230.000000	100.079877
2229.000000	100.079739
2228.000000	100.079533
2227.000000	100.079247
2226.000000	100.078919
2225.000000	100.078653
2224.000000	100.078525
2223.000000	100.078533
2222.000000	100.078610
2221.000000	100.078685
2220.000000	100.078708
2219.000000	100.078659
2218.000000	100.078556
2217.000000	100.078466
2216.000000	100.078443
2215.000000	100.078482
2214.000000	100.078548
2213.000000	100.078647
2212.000000	100.078815
2211.000000	100.079058
2210.000000	100.079359
2209.000000	100.079715
2208.000000	100.080083
2207.000000	100.080342
2206.000000	100.080408
2205.000000	100.080396
2204.000000	100.080534
2203.000000	100.080853
2202.000000	100.081103
2201.000000	100.081063
2200.000000	100.080823
2199.000000	100.080674
2198.000000	100.080697
2197.000000	100.080705
2196.000000	100.080642
2195.000000	100.080769
2194.000000	100.081300
2193.000000	100.082097
2192.000000	100.082820
2191.000000	100.083276
2190.000000	100.083487
2189.000000	100.083530
2188.000000	100.083485
2187.000000	100.083477
2186.000000	100.083624
2185.000000	100.083915
2184.000000	100.084202
2183.000000	100.084329
2182.000000	100.084257
2181.000000	100.084116
2180.000000	100.084161
2179.000000	100.084613
2178.000000	100.085496
2177.000000	100.086564
2176.000000	100.087437
2175.000000	100.087870
2174.000000	100.087876
2173.000000	100.087698
2172.000000	100.087638
2171.000000	100.087831
2170.000000	100.088160
2169.000000	100.088414
2168.000000	100.088518
2167.000000	100.088574
2166.000000	100.088675
2165.000000	100.088734
2164.000000	100.088565
2163.000000	100.088078
2162.000000	100.087408
2161.000000	100.086891
2160.000000	100.086837
2159.000000	100.087272
2158.000000	100.087950
2157.000000	100.088643
2156.000000	100.089393
2155.000000	100.090284
2154.000000	100.091119
2153.000000	100.091536
2152.000000	100.091421
2151.000000	100.091047
2150.000000	100.090821
2149.000000	100.090925
2148.000000	100.091295
2147.000000	100.091739
2146.000000	100.092041
2145.000000	100.092070
2144.000000	100.091888
2143.000000	100.091702
2142.000000	100.091688
2141.000000	100.091888
2140.000000	100.092240
2139.000000	100.092630
2138.000000	100.092943
2137.000000	100.093143
2136.000000	100.093299
2135.000000	100.093495
2134.000000	100.093723
2133.000000	100.093930
2132.000000	100.094097
2131.000000	100.094252
2130.000000	100.094410
2129.000000	100.094562
2128.000000	100.094706
2127.000000	100.094859
2126.000000	100.095029
2125.000000	100.095211
2124.000000	100.095403
2123.000000	100.095606
2122.000000	100.095816
2121.000000	100.096032
2120.000000	100.096253
2119.000000	100.096477
2118.000000	100.096699
2117.000000	100.096916
2116.000000	100.097123
2115.000000	100.097319
2114.000000	100.097505
2113.000000	100.097686
2112.000000	100.097870
2111.000000	100.098066
2110.000000	100.098278
2109.000000	100.098500
2108.000000	100.098730
2107.000000	100.098968
2106.000000	100.099221
2105.000000	100.099496
2104.000000	100.099793
2103.000000	100.100108
2102.000000	100.100433
2101.000000	100.100766
2100.000000	100.101108
2099.000000	100.101460
2098.000000	100.101822
2097.000000	100.102190
2096.000000	100.102561
2095.000000	100.102934
2094.000000	100.103305
2093.000000	100.103681
2092.000000	100.104071
2091.000000	100.104473
2090.000000	100.104877
2089.000000	100.105273
2088.000000	100.105680
2087.000000	100.106141
2086.000000	100.106668
2085.000000	100.107201
2084.000000	100.107652
2083.000000	100.107994
2082.000000	100.108276
2081.000000	100.108547
2080.000000	100.108826
2079.000000	100.109130
2078.000000	100.109440
2077.000000	100.109628
2076.000000	100.109545
2075.000000	100.109285
2074.000000	100.109226
2073.000000	100.109664
2072.000000	100.110502
2071.000000	100.111408
2070.000000	100.112228
2069.000000	100.113003
2068.000000	100.113635
2067.000000	100.113903
2066.000000	100.113889
2065.000000	100.114157
2064.000000	100.115232
2063.000000	100.116956
2062.000000	100.118524
2061.000000	100.119240
2060.000000	100.118975
2059.000000	100.118008
2058.000000	100.116790
2057.000000	100.115739
2056.000000	100.115081
2055.000000	100.114723
2054.000000	100.114393
2053.000000	100.114030
2052.000000	100.113915
2051.000000	100.114257
2050.000000	100.114800
2049.000000	100.115026
2048.000000	100.114719
2047.000000	100.114122
2046.000000	100.113597
2045.000000	100.113319
2044.000000	100.113299
2043.000000	100.113487
2042.000000	100.113759
2041.000000	100.113958
2040.000000	100.114021
2039.000000	100.113966
2038.000000	100.113736
2037.000000	100.113206
2036.000000	100.112415
2035.000000	100.111590
2034.000000	100.110827
2033.000000	100.109910
2032.000000	100.108622
2031.000000	100.107149
2030.000000	100.106011
2029.000000	100.105560
2028.000000	100.105662
2027.000000	100.105781
2026.000000	100.105402
2025.000000	100.104411
2024.000000	100.103152
2023.000000	100.102195
2022.000000	100.101854
2021.000000	100.101928
2020.000000	100.101833
2019.000000	100.101110
2018.000000	100.099758
2017.000000	100.098162
2016.000000	100.096715
2015.000000	100.095503
2014.000000	100.094374
2013.000000	100.093212
2012.000000	100.092086
2011.000000	100.091165
2010.000000	100.090555
2009.000000	100.090194
2008.000000	100.089851
2007.000000	100.089223
2006.000000	100.088151
2005.000000	100.086869
2004.000000	100.085949
2003.000000	100.085817
2002.000000	100.086310
2001.000000	100.086759
2000.000000	100.086608
1999.000000	100.085867
1998.000000	100.084908
1997.000000	100.083964
1996.000000	100.082953
1995.000000	100.081788
1994.000000	100.080662
1993.000000	100.079931
1992.000000	100.079730
1991.000000	100.079812
1990.000000	100.079855
1989.000000	100.079864
1988.000000	100.080141
1987.000000	100.080888
1986.000000	100.081939
1985.000000	100.082893
1984.000000	100.083382
1983.000000	100.083105
1982.000000	100.081880
1981.000000	100.079871
1980.000000	100.077676
1979.000000	100.075968
1978.000000	100.074945
1977.000000	100.074357
1976.000000	100.074010
1975.000000	100.073912
1974.000000	100.073964
1973.000000	100.073900
1972.000000	100.073733
1971.000000	100.073940
1970.000000	100.074872
1969.000000	100.076158
1968.000000	100.076917
1967.000000	100.076642
1966.000000	100.075622
1965.000000	100.074554
1964.000000	100.073920
1963.000000	100.073830
1962.000000	100.074197
1961.000000	100.074783
1960.000000	100.075180
1959.000000	100.075052
1958.000000	100.074496
1957.000000	100.074043
1956.000000	100.074191
1955.000000	100.074932
1954.000000	100.075784
1953.000000	100.076223
1952.000000	100.075993
1951.000000	100.075087
1950.000000	100.073681
1949.000000	100.072130
1948.000000	100.070848
1947.000000	100.070016
1946.000000	100.069467
1945.000000	100.068976
1944.000000	100.068671
1943.000000	100.068976
1942.000000	100.070050
1941.000000	100.071406
1940.000000	100.072244
1939.000000	100.072076
1938.000000	100.071025
1937.000000	100.069671
1936.000000	100.068544
1935.000000	100.067683
1934.000000	100.066834
1933.000000	100.066022
1932.000000	100.065635
1931.000000	100.065765
1930.000000	100.065784
1929.000000	100.064922
1928.000000	100.063128
1927.000000	100.061085
1926.000000	100.059432
1925.000000	100.058391
1924.000000	100.058010
1923.000000	100.058211
1922.000000	100.058426
1921.000000	100.057806
1920.000000	100.056119
1919.000000	100.054089
1918.000000	100.052538
1917.000000	100.051311
1916.000000	100.049680
1915.000000	100.047579
1914.000000	100.045707
1913.000000	100.044620
1912.000000	100.044110
1911.000000	100.043464
1910.000000	100.042068
1909.000000	100.039669
1908.000000	100.036424
1907.000000	100.032872
1906.000000	100.029631
1905.000000	100.027141
1904.000000	100.025656
1903.000000	100.025314
1902.000000	100.025750
1901.000000	100.025622
1900.000000	100.023371
1899.000000	100.018938
1898.000000	100.014213
1897.000000	100.011281
1896.000000	100.010251
1895.000000	100.009269
1894.000000	100.006673
1893.000000	100.002592
1892.000000	99.998409
1891.000000	99.995502
1890.000000	99.994566
1889.000000	99.995165
1888.000000	99.995760
1887.000000	99.994801
1886.000000	99.991939
1885.000000	99.988260
1884.000000	99.985360
1883.000000	99.984037
1882.000000	99.984035
1881.000000	99.984804
1880.000000	99.986148
1879.000000	99.988027
1878.000000	99.989936
1877.000000	99.990995
1876.000000	99.990870
1875.000000	99.990261
1874.000000	99.990148
1873.000000	99.990636
1872.000000	99.990897
1871.000000	99.990414
1870.000000	99.990000
1869.000000	99.991113
1868.000000	99.993934
1867.000000	99.996992
1866.000000	99.998790
1865.000000	99.998924
1864.000000	99.998111
1863.000000	99.997727
1862.000000	99.998872
1861.000000	100.001304
1860.000000	100.003417
1859.000000	100.003883
1858.000000	100.003341
1857.000000	100.003949
1856.000000	100.007111
1855.000000	100.012146
1854.000000	100.017204
1853.000000	100.021142
1852.000000	100.024413
1851.000000	100.028334
1850.000000	100.033452
1849.000000	100.038690
1848.000000	100.042193
1847.000000	100.043146
1846.000000	100.042618
1845.000000	100.042617
1844.000000	100.043978
1843.000000	100.045577
1842.000000	100.046340
1841.000000	100.046402
1840.000000	100.046354
1839.000000	100.046685
1838.000000	100.047852
1837.000000	100.050357
1836.000000	100.054045
1835.000000	100.057590
1834.000000	100.059496
1833.000000	100.059653
1832.000000	100.059328
1831.000000	100.059463
1830.000000	100.059344
1829.000000	100.058003
1828.000000	100.056303
1827.000000	100.055751
1826.000000	100.056352
1825.000000	100.056790
1824.000000	100.056232
1823.000000	100.055341
1822.000000	100.055182
1821.000000	100.056011
1820.000000	100.057371
1819.000000	100.058696
1818.000000	100.059707
1817.000000	100.060409
1816.000000	100.060625
1815.000000	100.059762
1814.000000	100.057365
1813.000000	100.053948
1812.000000	100.051034
1811.000000	100.049606
1810.000000	100.048964
1809.000000	100.047709
1808.000000	100.045362
1807.000000	100.042641
1806.000000	100.040623
1805.000000	100.040061
1804.000000	100.041169
1803.000000	100.043527
1802.000000	100.046069
1801.000000	100.047500
1800.000000	100.047348
1799.000000	100.046236
1798.000000	100.045031
1797.000000	100.044092
1796.000000	100.043455
1795.000000	100.043382
1794.000000	100.044390
1793.000000	100.046532
1792.000000	100.048738
1791.000000	100.049681
1790.000000	100.049435
1789.000000	100.049061
1788.000000	100.049372
1787.000000	100.050640
1786.000000	100.052675
1785.000000	100.054844
1784.000000	100.056363
1783.000000	100.056975
1782.000000	100.057230
1781.000000	100.057942
1780.000000	100.059518
1779.000000	100.061551
1778.000000	100.063405
1777.000000	100.064837
1776.000000	100.065988
1775.000000	100.067298
1774.000000	100.069573
1773.000000	100.073678
1772.000000	100.079067
1771.000000	100.083380
1770.000000	100.085112
1769.000000	100.084980
1768.000000	100.084879
1767.000000	100.085997
1766.000000	100.087765
1765.000000	100.089129
1764.000000	100.090215
1763.000000	100.092240
1762.000000	100.095800
1761.000000	100.099652
1760.000000	100.102304
1759.000000	100.103551
1758.000000	100.104153
1757.000000	100.104999
1756.000000	100.106465
1755.000000	100.108157
1754.000000	100.109243
1753.000000	100.109114
1752.000000	100.107874
1751.000000	100.106255
1750.000000	100.104935
1749.000000	100.104344
1748.000000	100.104816
1747.000000	100.106336
1746.000000	100.108278
1745.000000	100.109919
1744.000000	100.111162
1743.000000	100.112268
1742.000000	100.113239
1741.000000	100.113900
1740.000000	100.114296
1739.000000	100.114434
1738.000000	100.113998
1737.000000	100.112738
1736.000000	100.111135
1735.000000	100.110651
1734.000000	100.112141
1733.000000	100.114283
1732.000000	100.116161
1731.000000	100.117956
1730.000000	100.119281
1729.000000	100.119374
1728.000000	100.118210
1727.000000	100.116719
1726.000000	100.115760
1725.000000	100.115569
1724.000000	100.116110
1723.000000	100.117059
1722.000000	100.117519
1721.000000	100.116408
1720.000000	100.113326
1719.000000	100.108992
1718.000000	100.104869
1717.000000	100.102116
1716.000000	100.101179
1715.000000	100.102098
1714.000000	100.104187
1713.000000	100.105973
1712.000000	100.106283
1711.000000	100.105070
1710.000000	100.102907
1709.000000	100.100189
1708.000000	100.097188
1707.000000	100.094533
1706.000000	100.092855
1705.000000	100.091778
1704.000000	100.090182
1703.000000	100.087637
1702.000000	100.084658
1701.000000	100.082193
1700.000000	100.080607
1699.000000	100.079418
1698.000000	100.078426
1697.000000	100.077178
1696.000000	100.074892
1695.000000	100.071701
1694.000000	100.069047
1693.000000	100.067731
1692.000000	100.067295
1691.000000	100.067084
1690.000000	100.066668
1689.000000	100.065682
1688.000000	100.063799
1687.000000	100.060914
1686.000000	100.057246
1685.000000	100.053592
1684.000000	100.050945
1683.000000	100.049415
1682.000000	100.048542
1681.000000	100.047654
1680.000000	100.046197
1679.000000	100.044194
1678.000000	100.042166
1677.000000	100.040827
1676.000000	100.040762
1675.000000	100.041734
1674.000000	100.042498
1673.000000	100.042228
1672.000000	100.041021
1671.000000	100.039327
1670.000000	100.037606
1669.000000	100.035925
1668.000000	100.034147
1667.000000	100.032339
1666.000000	100.030557
1665.000000	100.028792
1664.000000	100.027198
1663.000000	100.026027
1662.000000	100.025239
1661.000000	100.024387
1660.000000	100.023125
1659.000000	100.021493
1658.000000	100.019805
1657.000000	100.018261
1656.000000	100.016831
1655.000000	100.015775
1654.000000	100.015823
1653.000000	100.015571
1652.000000	100.012202
1651.000000	100.007428
1650.000000	100.002980
1649.000000	99.999329
1648.000000	99.997791
1647.000000	99.998962
1646.000000	100.000358
1645.000000	99.999722
1644.000000	99.998040
1643.000000	99.996848
1642.000000	99.996630
1641.000000	99.996903
1640.000000	99.996720
1639.000000	99.995334
1638.000000	99.992777
1637.000000	99.990397
1636.000000	99.990385
1635.000000	99.993172
1634.000000	99.996621
1633.000000	99.998929
1632.000000	99.999316
1631.000000	99.997806
1630.000000	99.995225
1629.000000	99.992809
1628.000000	99.991455
1627.000000	99.991247
1626.000000	99.991746
1625.000000	99.992469
1624.000000	99.993094
1623.000000	99.993376
1622.000000	99.993472
1621.000000	99.993995
1620.000000	99.995167
1619.000000	99.996471
1618.000000	99.997367
1617.000000	99.998203
1616.000000	100.000096
1615.000000	100.003628
1614.000000	100.008091
1613.000000	100.012469
1612.000000	100.016365
1611.000000	100.019447
1610.000000	100.020925
1609.000000	100.020625
1608.000000	100.020195
1607.000000	100.021958
1606.000000	100.026524
1605.000000	100.032346
1604.000000	100.037578
1603.000000	100.041461
1602.000000	100.044089
1601.000000	100.045746
1600.000000	100.046748
1599.000000	100.047750
1598.000000	100.049901
1597.000000	100.054370
1596.000000	100.061168
1595.000000	100.068198
1594.000000	100.072507
1593.000000	100.073205
1592.000000	100.072367
1591.000000	100.072644
1590.000000	100.074517
1589.000000	100.076592
1588.000000	100.077837
1587.000000	100.078296
1586.000000	100.078187
1585.000000	100.077890
1584.000000	100.078750
1583.000000	100.082216
1582.000000	100.087490
1581.000000	100.091505
1580.000000	100.092055
1579.000000	100.089620
1578.000000	100.086108
1577.000000	100.083192
1576.000000	100.081723
1575.000000	100.082042
1574.000000	100.083991
1573.000000	100.086427
1572.000000	100.088156
1571.000000	100.088973
1570.000000	100.089409
1569.000000	100.089736
1568.000000	100.089960
1567.000000	100.090184
1566.000000	100.090339
1565.000000	100.090624
1564.000000	100.091639
1563.000000	100.093504
1562.000000	100.095151
1561.000000	100.095206
1560.000000	100.093482
1559.000000	100.091497
1558.000000	100.089752
1557.000000	100.088613
1556.000000	100.088022
1555.000000	100.086879
1554.000000	100.084768
1553.000000	100.082024
1552.000000	100.079548
1551.000000	100.077801
1550.000000	100.075849
1549.000000	100.071920
1548.000000	100.065497
1547.000000	100.058153
1546.000000	100.052267
1545.000000	100.049570
1544.000000	100.049973
1543.000000	100.051698
1542.000000	100.052532
1541.000000	100.050620
1540.000000	100.045153
1539.000000	100.038201
1538.000000	100.033076
1537.000000	100.030154
1536.000000	100.027991
1535.000000	100.025824
1534.000000	100.023336
1533.000000	100.019530
1532.000000	100.013869
1531.000000	100.007120
1530.000000	100.000112
1529.000000	99.993498
1528.000000	99.988210
1527.000000	99.984980
1526.000000	99.983049
1525.000000	99.980287
1524.000000	99.975502
1523.000000	99.969729
1522.000000	99.965298
1521.000000	99.963333
1520.000000	99.962706
1519.000000	99.962315
1518.000000	99.961470
1517.000000	99.959019
1516.000000	99.954409
1515.000000	99.949060
1514.000000	99.944605
1513.000000	99.940796
1512.000000	99.936555
1511.000000	99.932030
1510.000000	99.928641
1509.000000	99.927017
1508.000000	99.925657
1507.000000	99.921878
1506.000000	99.916059
1505.000000	99.912165
1504.000000	99.911159
1503.000000	99.911368
1502.000000	99.912231
1501.000000	99.914202
1500.000000	99.916709
1499.000000	99.917757
1498.000000	99.915950
1497.000000	99.912086
1496.000000	99.907957
1495.000000	99.904387
1494.000000	99.901481
1493.000000	99.899419
1492.000000	99.898343
1491.000000	99.897998
1490.000000	99.897779
1489.000000	99.897407
1488.000000	99.897111
1487.000000	99.896922
1486.000000	99.896670
1485.000000	99.896225
1484.000000	99.895337
1483.000000	99.893553
1482.000000	99.890437
1481.000000	99.886340
1480.000000	99.882745
1479.000000	99.881536
1478.000000	99.883874
1477.000000	99.889275
1476.000000	99.895232
1475.000000	99.899028
1474.000000	99.900235
1473.000000	99.900386
1472.000000	99.900740
1471.000000	99.901169
1470.000000	99.901411
1469.000000	99.901778
1468.000000	99.902826
1467.000000	99.904905
1466.000000	99.907857
1465.000000	99.910866
1464.000000	99.912910
1463.000000	99.913676
1462.000000	99.913470
1461.000000	99.912670
1460.000000	99.911741
1459.000000	99.911515
1458.000000	99.912869
1457.000000	99.915411
1456.000000	99.917359
1455.000000	99.918315
1454.000000	99.919074
1453.000000	99.920017
1452.000000	99.921125
1451.000000	99.922337
1450.000000	99.923796
1449.000000	99.925647
1448.000000	99.927523
1447.000000	99.928598
1446.000000	99.928525
1445.000000	99.927866
1444.000000	99.927653
1443.000000	99.928593
1442.000000	99.930588
1441.000000	99.932877
1440.000000	99.934761
1439.000000	99.936176
1438.000000	99.937477
1437.000000	99.938820
1436.000000	99.939877
1435.000000	99.940622
1434.000000	99.941668
1433.000000	99.943472
1432.000000	99.945796
1431.000000	99.947777
1430.000000	99.948851
1429.000000	99.949610
1428.000000	99.951144
1427.000000	99.953663
1426.000000	99.956289
1425.000000	99.958009
1424.000000	99.958839
1423.000000	99.959936
1422.000000	99.962235
1421.000000	99.965441
1420.000000	99.968252
1419.000000	99.969639
1418.000000	99.970439
1417.000000	99.972423
1416.000000	99.975828
1415.000000	99.979416
1414.000000	99.982119
1413.000000	99.984022
1412.000000	99.986008
1411.000000	99.988803
1410.000000	99.992392
1409.000000	99.996095
1408.000000	99.999045
1407.000000	100.000893
1406.000000	100.002450
1405.000000	100.005270
1404.000000	100.010210
1403.000000	100.016704
1402.000000	100.023795
1401.000000	100.030887
1400.000000	100.036899
1399.000000	100.040064
1398.000000	100.039908
1397.000000	100.038431
1396.000000	100.038267
1395.000000	100.040506
1394.000000	100.044478
1393.000000	100.049219
1392.000000	100.054419
1391.000000	100.059620
1390.000000	100.063966
1389.000000	100.067149
1388.000000	100.070033
1387.000000	100.073778
1386.000000	100.078474
1385.000000	100.083320
1384.000000	100.087719
1383.000000	100.091470
1382.000000	100.094379
1381.000000	100.096261
1380.000000	100.097190
1379.000000	100.097597
1378.000000	100.098018
1377.000000	100.098764
1376.000000	100.099852
1375.000000	100.101017
1374.000000	100.101632
1373.000000	100.101171
1372.000000	100.100025
1371.000000	100.099388
1370.000000	100.100372
1369.000000	100.103256
1368.000000	100.107461
1367.000000	100.112009
1366.000000	100.115724
1365.000000	100.117268
1364.000000	100.115845
1363.000000	100.112442
1362.000000	100.109601
1361.000000	100.108632
1360.000000	100.108432
1359.000000	100.107852
1358.000000	100.107646
1357.000000	100.109243
1356.000000	100.112305
1355.000000	100.114559
1354.000000	100.114379
1353.000000	100.112645
1352.000000	100.111631
1351.000000	100.112679
1350.000000	100.115326
1349.000000	100.117939
1348.000000	100.118990
1347.000000	100.118043
1346.000000	100.116044
1345.000000	100.114640
1344.000000	100.114926
1343.000000	100.116745
1342.000000	100.119056
1341.000000	100.120699
1340.000000	100.120951
1339.000000	100.119928
1338.000000	100.118589
1337.000000	100.117955
1336.000000	100.118223
1335.000000	100.118721
1334.000000	100.118595
1333.000000	100.117470
1332.000000	100.115667
1331.000000	100.114073
1330.000000	100.113604
1329.000000	100.114464
1328.000000	100.116042
1327.000000	100.117730
1326.000000	100.119514
1325.000000	100.121220
1324.000000	100.121628
1323.000000	100.119442
1322.000000	100.115397
1321.000000	100.112448
1320.000000	100.113004
1319.000000	100.116321
1318.000000	100.119357
1317.000000	100.120064
1316.000000	100.118867
1315.000000	100.117167
1314.000000	100.115743
1313.000000	100.114986
1312.000000	100.115641
1311.000000	100.118305
1310.000000	100.122234
1309.000000	100.125261
1308.000000	100.125225
1307.000000	100.121645
1306.000000	100.116167
1305.000000	100.111373
1304.000000	100.108937
1303.000000	100.108737
1302.000000	100.109651
1301.000000	100.110871
1300.000000	100.112087
1299.000000	100.112609
1298.000000	100.111237
1297.000000	100.107508
1296.000000	100.102654
1295.000000	100.098747
1294.000000	100.097046
1293.000000	100.097570
1292.000000	100.099709
1291.000000	100.102332
1290.000000	100.103560
1289.000000	100.101641
1288.000000	100.096548
1287.000000	100.090230
1286.000000	100.084842
1285.000000	100.081121
1284.000000	100.078634
1283.000000	100.076688
1282.000000	100.074419
1281.000000	100.070802
1280.000000	100.065538
1279.000000	100.059805
1278.000000	100.055481
1277.000000	100.053641
1276.000000	100.053928
1275.000000	100.054898
1274.000000	100.054645
1273.000000	100.051760
1272.000000	100.046515
1271.000000	100.041081
1270.000000	100.038228
1269.000000	100.039739
1268.000000	100.045577
1267.000000	100.053404
1266.000000	100.058920
1265.000000	100.058556
1264.000000	100.052946
1263.000000	100.046719
1262.000000	100.043709
1261.000000	100.043070
1260.000000	100.041161
1259.000000	100.036140
1258.000000	100.028935
1257.000000	100.020536
1256.000000	100.010811
1255.000000	100.000471
1254.000000	99.992091
1253.000000	99.987639
1252.000000	99.985691
1251.000000	99.982397
1250.000000	99.975383
1249.000000	99.965985
1248.000000	99.957325
1247.000000	99.950778
1246.000000	99.945099
1245.000000	99.938863
1244.000000	99.932274
1243.000000	99.925630
1242.000000	99.917348
1241.000000	99.905583
1240.000000	99.891237
1239.000000	99.876840
1238.000000	99.862181
1237.000000	99.844044
1236.000000	99.821833
1235.000000	99.800781
1234.000000	99.786725
1233.000000	99.778920
1232.000000	99.770896
1231.000000	99.757661
1230.000000	99.739279
1229.000000	99.717679
1228.000000	99.692982
1227.000000	99.664175
1226.000000	99.631397
1225.000000	99.595957
1224.000000	99.558801
1223.000000	99.519804
1222.000000	99.478100
1221.000000	99.432764
1220.000000	99.383735
1219.000000	99.332264
1218.000000	99.279806
1217.000000	99.226224
1216.000000	99.169496
1215.000000	99.107382
1214.000000	99.039659
1213.000000	98.969463
1212.000000	98.902229
1211.000000	98.841471
1210.000000	98.784623
1209.000000	98.724614
1208.000000	98.656684
1207.000000	98.582744
1206.000000	98.508650
1205.000000	98.438726
1204.000000	98.373820
1203.000000	98.312608
1202.000000	98.252733
1201.000000	98.191711
1200.000000	98.128297
1199.000000	98.062697
1198.000000	97.995440
1197.000000	97.927564
1196.000000	97.861788
1195.000000	97.800703
1194.000000	97.742738
1193.000000	97.682441
1192.000000	97.616195
1191.000000	97.545595
1190.000000	97.474123
1189.000000	97.402869
1188.000000	97.331032
1187.000000	97.258176
1186.000000	97.183977
1185.000000	97.107609
1184.000000	97.029203
1183.000000	96.950246
1182.000000	96.870860
1181.000000	96.788168
1180.000000	96.698801
1179.000000	96.601758
1178.000000	96.498231
1177.000000	96.390729
1176.000000	96.283227
1175.000000	96.179346
1174.000000	96.078551
1173.000000	95.976352
1172.000000	95.869964
1171.000000	95.761932
1170.000000	95.657100
1169.000000	95.558375
1168.000000	95.466639
1167.000000	95.382710
1166.000000	95.308737
1165.000000	95.250062
1164.000000	95.215522
1163.000000	95.212122
1162.000000	95.237948
1161.000000	95.282107
1160.000000	95.330834
1159.000000	95.370962
1158.000000	95.390208
1157.000000	95.380566
1156.000000	95.342658
1155.000000	95.283473
1154.000000	95.209408
1153.000000	95.124289
1152.000000	95.033150
1151.000000	94.942346
1150.000000	94.854294
1149.000000	94.766706
1148.000000	94.678679
1147.000000	94.593331
1146.000000	94.512923
1145.000000	94.435699
1144.000000	94.359505
1143.000000	94.284718
1142.000000	94.211721
1141.000000	94.138676
1140.000000	94.063246
1139.000000	93.984147
1138.000000	93.901115
1137.000000	93.816270
1136.000000	93.734388
1135.000000	93.657747
1134.000000	93.581977
1133.000000	93.501932
1132.000000	93.420052
1131.000000	93.342955
1130.000000	93.271175
1129.000000	93.199447
1128.000000	93.126310
1127.000000	93.055380
1126.000000	92.986776
1125.000000	92.915330
1124.000000	92.838606
1123.000000	92.759469
1122.000000	92.679896
1121.000000	92.599776
1120.000000	92.522447
1119.000000	92.452876
1118.000000	92.389083
1117.000000	92.323723
1116.000000	92.255471
1115.000000	92.190407
1114.000000	92.131169
1113.000000	92.074037
1112.000000	92.017626
1111.000000	91.964088
1110.000000	91.910463
1109.000000	91.850224
1108.000000	91.785652
1107.000000	91.726970
1106.000000	91.675954
1105.000000	91.622265
1104.000000	91.560882
1103.000000	91.501759
1102.000000	91.455396
1101.000000	91.418410
1100.000000	91.380086
1099.000000	91.335412
1098.000000	91.285646
1097.000000	91.232813
1096.000000	91.179958
1095.000000	91.131934
1094.000000	91.091239
1093.000000	91.056954
1092.000000	91.029432
1091.000000	91.010275
1090.000000	90.996306
1089.000000	90.980321
1088.000000	90.959491
1087.000000	90.936889
1086.000000	90.914316
1085.000000	90.890863
1084.000000	90.869116
1083.000000	90.855130
1082.000000	90.851024
1081.000000	90.854041
1080.000000	90.862194
1079.000000	90.873287
1078.000000	90.880037
1077.000000	90.875379
1076.000000	90.861540
1075.000000	90.844652
1074.000000	90.821734
1073.000000	90.783328
1072.000000	90.727577
1071.000000	90.660076
1070.000000	90.580036
1069.000000	90.478780
1068.000000	90.353493
1067.000000	90.211000
1066.000000	90.055972
1065.000000	89.887119
1064.000000	89.708680
1063.000000	89.534270
1062.000000	89.374273
1061.000000	89.228661
1060.000000	89.095271
1059.000000	88.974535
1058.000000	88.863002
1057.000000	88.753290
1056.000000	88.644345
1055.000000	88.541816
1054.000000	88.445308
1053.000000	88.345734
1052.000000	88.238562
1051.000000	88.128495
1050.000000	88.017601
1049.000000	87.902144
1048.000000	87.785509
1047.000000	87.679699
1046.000000	87.588462
1045.000000	87.500614
1044.000000	87.403522
1043.000000	87.293681
1042.000000	87.173373
1041.000000	87.048280
1040.000000	86.930625
1039.000000	86.833541
1038.000000	86.758645
1037.000000	86.697283
1036.000000	86.644188
1035.000000	86.599805
1034.000000	86.560169
1033.000000	86.517607
1032.000000	86.472670
1031.000000	86.433539
1030.000000	86.403211
1029.000000	86.379010
1028.000000	86.363828
1027.000000	86.363854
1026.000000	86.374521
1025.000000	86.382552
1024.000000	86.383095
1023.000000	86.381522
1022.000000	86.378430
1021.000000	86.368115
1020.000000	86.353072
1019.000000	86.344099
1018.000000	86.342712
1017.000000	86.337917
1016.000000	86.324106
1015.000000	86.308826
1014.000000	86.299327
1013.000000	86.294338
1012.000000	86.292416
1011.000000	86.295782
1010.000000	86.302572
1009.000000	86.307159
1008.000000	86.311212
1007.000000	86.323220
1006.000000	86.345022
1005.000000	86.370256
1004.000000	86.397647
1003.000000	86.433693
1002.000000	86.480070
1001.000000	86.529915
1000.000000	86.578574
999.000000	86.627397
998.000000	86.676239
997.000000	86.723779
996.000000	86.775817
995.000000	86.841086
994.000000	86.917802
993.000000	86.995380
992.000000	87.069322
991.000000	87.142638
990.000000	87.213715
989.000000	87.277756
988.000000	87.341485
987.000000	87.421134
986.000000	87.522162
985.000000	87.633342
984.000000	87.743627
983.000000	87.853133
982.000000	87.964808
981.000000	88.077748
980.000000	88.192687
979.000000	88.313464
978.000000	88.439873
977.000000	88.568612
976.000000	88.702734
975.000000	88.849452
974.000000	89.006844
973.000000	89.163179
972.000000	89.311571
971.000000	89.455864
970.000000	89.601218
969.000000	89.749022
968.000000	89.901689
967.000000	90.061286
966.000000	90.221467
965.000000	90.371201
964.000000	90.508595
963.000000	90.641885
962.000000	90.775887
961.000000	90.907247
960.000000	91.034060
959.000000	91.159489
958.000000	91.283793
957.000000	91.402701
956.000000	91.515689
955.000000	91.626202
954.000000	91.732437
953.000000	91.828878
952.000000	91.919459
951.000000	92.017583
950.000000	92.127644
949.000000	92.236082
948.000000	92.326848
947.000000	92.398156
946.000000	92.459948
945.000000	92.522040
944.000000	92.589156
943.000000	92.661225
942.000000	92.733157
941.000000	92.798196
940.000000	92.854990
939.000000	92.908753
938.000000	92.965238
937.000000	93.027876
936.000000	93.099705
935.000000	93.180990
934.000000	93.264480
933.000000	93.340218
932.000000	93.406070
931.000000	93.467415
930.000000	93.526827
929.000000	93.581628
928.000000	93.631918
927.000000	93.682540
926.000000	93.735296
925.000000	93.786595
924.000000	93.834534
923.000000	93.881337
922.000000	93.927490
921.000000	93.970610
920.000000	94.011361
919.000000	94.053316
918.000000	94.095884
917.000000	94.134898
916.000000	94.171593
915.000000	94.213378
914.000000	94.264074
913.000000	94.320779
912.000000	94.381821
911.000000	94.450006
910.000000	94.526650
909.000000	94.610194
908.000000	94.701365
907.000000	94.801536
906.000000	94.905708
905.000000	95.006971
904.000000	95.109814
903.000000	95.228240
902.000000	95.366418
901.000000	95.509852
900.000000	95.640467
899.000000	95.753378
898.000000	95.854743
897.000000	95.951300
896.000000	96.047938
895.000000	96.149190
894.000000	96.255867
893.000000	96.362652
892.000000	96.463355
891.000000	96.556343
890.000000	96.642715
889.000000	96.722688
888.000000	96.796236
887.000000	96.864274
886.000000	96.927342
885.000000	96.986162
884.000000	97.044569
883.000000	97.107594
882.000000	97.174711
881.000000	97.239126
880.000000	97.295904
879.000000	97.347151
878.000000	97.397659
877.000000	97.449504
876.000000	97.502798
875.000000	97.558190
874.000000	97.617470
873.000000	97.684915
872.000000	97.766561
871.000000	97.861662
870.000000	97.955409
869.000000	98.029414
868.000000	98.082696
867.000000	98.135611
866.000000	98.208441
865.000000	98.300011
864.000000	98.391268
863.000000	98.465543
862.000000	98.520906
861.000000	98.566390
860.000000	98.612640
859.000000	98.666741
858.000000	98.731434
857.000000	98.805674
856.000000	98.885201
855.000000	98.963321
854.000000	99.033334
853.000000	99.092097
852.000000	99.140552
851.000000	99.180202
850.000000	99.211521
849.000000	99.237585
848.000000	99.265591
847.000000	99.299988
846.000000	99.335869
845.000000	99.364347
844.000000	99.383870
843.000000	99.401146
842.000000	99.421119
841.000000	99.441286
840.000000	99.456581
839.000000	99.465111
838.000000	99.467856
837.000000	99.466666
836.000000	99.463963
835.000000	99.461485
834.000000	99.458376
833.000000	99.452465
832.000000	99.443004
831.000000	99.430618
830.000000	99.417561
829.000000	99.411814
828.000000	99.426393
827.000000	99.465898
826.000000	99.514604
825.000000	99.547132
824.000000	99.551685
823.000000	99.534932
822.000000	99.506421
821.000000	99.470064
820.000000	99.430542
819.000000	99.394853
818.000000	99.363394
817.000000	99.327302
816.000000	99.276944
815.000000	99.206675
814.000000	99.110484
813.000000	98.980319
812.000000	98.810343
811.000000	98.595715
810.000000	98.326089
809.000000	97.989926
808.000000	97.589502
807.000000	97.143402
806.000000	96.669975
805.000000	96.178512
804.000000	95.683195
803.000000	95.213652
802.000000	94.800362
801.000000	94.457320
800.000000	94.187018
799.000000	93.991571
798.000000	93.869288
797.000000	93.810823
796.000000	93.809153
795.000000	93.864877
794.000000	93.972327
793.000000	94.108040
792.000000	94.241782
791.000000	94.353200
790.000000	94.431321
789.000000	94.465667
788.000000	94.448291
787.000000	94.381883
786.000000	94.277248
785.000000	94.142634
784.000000	93.980570
783.000000	93.794735
782.000000	93.596730
781.000000	93.407865
780.000000	93.255930
779.000000	93.165366
778.000000	93.146270
777.000000	93.194448
776.000000	93.300464
775.000000	93.451598
774.000000	93.626418
773.000000	93.799780
772.000000	93.959272
771.000000	94.111374
770.000000	94.268679
769.000000	94.435488
768.000000	94.606150
767.000000	94.770111
766.000000	94.915639
765.000000	95.034898
764.000000	95.130216
763.000000	95.213800
762.000000	95.300274
761.000000	95.400443
760.000000	95.518631
759.000000	95.649123
758.000000	95.775261
757.000000	95.879057
756.000000	95.954599
755.000000	96.010697
754.000000	96.063244
753.000000	96.128536
752.000000	96.218331
751.000000	96.330927
750.000000	96.446285
749.000000	96.538463
748.000000	96.596532
747.000000	96.631333
746.000000	96.665089
745.000000	96.719239
744.000000	96.806212
743.000000	96.920765
742.000000	97.039085
741.000000	97.136757
740.000000	97.209089
739.000000	97.267622
738.000000	97.320859
737.000000	97.369866
736.000000	97.420321
735.000000	97.482673
734.000000	97.555195
733.000000	97.618580
732.000000	97.654103
731.000000	97.660485
730.000000	97.650619
729.000000	97.641360
728.000000	97.650123
727.000000	97.689472
726.000000	97.755163
725.000000	97.825669
724.000000	97.881889
723.000000	97.924306
722.000000	97.967160
721.000000	98.021768
720.000000	98.089731
719.000000	98.165235
718.000000	98.237303
717.000000	98.294764
716.000000	98.335503
715.000000	98.368044
714.000000	98.399886
713.000000	98.428218
712.000000	98.446496
711.000000	98.455542
710.000000	98.462976
709.000000	98.474779
708.000000	98.490493
707.000000	98.502197
706.000000	98.495710
705.000000	98.459076
704.000000	98.393546
703.000000	98.309575
702.000000	98.207146
701.000000	98.067137
700.000000	97.869055
699.000000	97.613855
698.000000	97.328074
697.000000	97.054549
696.000000	96.842929
695.000000	96.734730
694.000000	96.740844
693.000000	96.832669
692.000000	96.962648
691.000000	97.096886
690.000000	97.227928
689.000000	97.362709
688.000000	97.507396
687.000000	97.660892
686.000000	97.811959
685.000000	97.940909
684.000000	98.031920
683.000000	98.086994
682.000000	98.124706
681.000000	98.165085
680.000000	98.218020
679.000000	98.283727
678.000000	98.357743
677.000000	98.432467
676.000000	98.497381
675.000000	98.542604
674.000000	98.567435
673.000000	98.585414
672.000000	98.616131
671.000000	98.669405
670.000000	98.740445
669.000000	98.815090
668.000000	98.874124
667.000000	98.910928
666.000000	98.938230
665.000000	98.962344
664.000000	98.985411
663.000000	99.015434
662.000000	99.057551
661.000000	99.102784
660.000000	99.135056
659.000000	99.147259
658.000000	99.145485
657.000000	99.139821
656.000000	99.135336
655.000000	99.131161
654.000000	99.126367
653.000000	99.125277
652.000000	99.135847
651.000000	99.159975
650.000000	99.185938
