4000.000000	100.244567
3999.000000	100.244823
3998.000000	100.245058
3997.000000	100.244877
3996.000000	100.244026
3995.000000	100.242802
3994.000000	100.241949
3993.000000	100.241918
3992.000000	100.242451
3991.000000	100.242948
3990.000000	100.243004
3989.000000	100.242604
3988.000000	100.241936
3987.000000	100.241173
3986.000000	100.240482
3985.000000	100.240066
3984.000000	100.240084
3983.000000	100.240501
3982.000000	100.241033
3981.000000	100.241318
3980.000000	100.241195
3979.000000	100.240771
3978.000000	100.240263
3977.000000	100.239767
3976.000000	100.239222
3975.000000	100.238590
3974.000000	100.237971
3973.000000	100.237502
3972.000000	100.237203
3971.000000	100.236969
3970.000000	100.236697
3969.000000	100.236440
3968.000000	100.236415
3967.000000	100.236841
3966.000000	100.237719
3965.000000	100.238699
3964.000000	100.239235
3963.000000	100.238970
3962.000000	100.237956
3961.000000	100.236557
3960.000000	100.235167
3959.000000	100.234014
3958.000000	100.233186
3957.000000	100.232705
3956.000000	100.232570
3955.000000	100.232757
3954.000000	100.233171
3953.000000	100.233592
3952.000000	100.233719
3951.000000	100.233328
3950.000000	100.232427
3949.000000	100.231327
3948.000000	100.230517
3947.000000	100.230298
3946.000000	100.230620
3945.000000	100.231154
3944.000000	100.231518
3943.000000	100.231524
3942.000000	100.231236
3941.000000	100.230893
3940.000000	100.230757
3939.000000	100.230938
3938.000000	100.231289
3937.000000	100.231474
3936.000000	100.231233
3935.000000	100.230579
3934.000000	100.229770
3933.000000	100.229085
3932.000000	100.228643
3931.000000	100.228412
3930.000000	100.228302
3929.000000	100.228216
3928.000000	100.228073
3927.000000	100.227929
3926.000000	100.227992
3925.000000	100.228400
3924.000000	100.228983
3923.000000	100.229425
3922.000000	100.229655
3921.000000	100.229745
3920.000000	100.229672
3919.000000	100.229366
3918.000000	100.228911
3917.000000	100.228561
3916.000000	100.228501
3915.000000	100.228698
3914.000000	100.228958
3913.000000	100.229131
3912.000000	100.229168
3911.000000	100.229120
3910.000000	100.229042
3909.000000	100.228958
3908.000000	100.228867
3907.000000	100.228766
3906.000000	100.228655
3905.000000	100.228535
3904.000000	100.228405
3903.000000	100.228266
3902.000000	100.228116
3901.000000	100.227954
3900.000000	100.227776
3899.000000	100.227576
3898.000000	100.227341
3897.000000	100.227063
3896.000000	100.226740
3895.000000	100.226375
3894.000000	100.225969
3893.000000	100.225521
3892.000000	100.225031
3891.000000	100.224504
3890.000000	100.223944
3889.000000	100.223357
3888.000000	100.222761
3887.000000	100.222173
3886.000000	100.221601
3885.000000	100.221048
3884.000000	100.220457
3883.000000	100.219774
3882.000000	100.219130
3881.000000	100.218762
3880.000000	100.218701
3879.000000	100.218563
3878.000000	100.217952
3877.000000	100.217008
3876.000000	100.216368
3875.000000	100.216416
3874.000000	100.216602
3873.000000	100.215670
3872.000000	100.213036
3871.000000	100.210023
3870.000000	100.208738
3869.000000	100.209457
3868.000000	100.210256
3867.000000	100.210128
3866.000000	100.210050
3865.000000	100.210797
3864.000000	100.212060
3863.000000	100.213524
3862.000000	100.215232
3861.000000	100.216766
3860.000000	100.216820
3859.000000	100.214700
3858.000000	100.210966
3857.000000	100.206609
3856.000000	100.202056
3855.000000	100.197434
3854.000000	100.193493
3853.000000	100.190803
3852.000000	100.187304
3851.000000	100.183483
3850.000000	100.184179
3849.000000	100.190227
3848.000000	100.198296
3847.000000	100.206133
3846.000000	100.213602
3845.000000	100.220321
3844.000000	100.224613
3843.000000	100.225019
3842.000000	100.221523
3841.000000	100.216107
3840.000000	100.211645
3839.000000	100.209845
3838.000000	100.210068
3837.000000	100.210644
3836.000000	100.210728
3835.000000	100.210833
3834.000000	100.211811
3833.000000	100.214123
3832.000000	100.217629
3831.000000	100.221363
3830.000000	100.224164
3829.000000	100.226004
3828.000000	100.227948
3827.000000	100.230702
3826.000000	100.233131
3825.000000	100.233011
3824.000000	100.229623
3823.000000	100.224844
3822.000000	100.221800
3821.000000	100.222182
3820.000000	100.223806
3819.000000	100.223964
3818.000000	100.223495
3817.000000	100.223925
3816.000000	100.225136
3815.000000	100.226144
3814.000000	100.226671
3813.000000	100.227630
3812.000000	100.229285
3811.000000	100.230702
3810.000000	100.231294
3809.000000	100.231409
3808.000000	100.231635
3807.000000	100.232153
3806.000000	100.232680
3805.000000	100.232891
3804.000000	100.232838
3803.000000	100.232896
3802.000000	100.233354
3801.000000	100.234102
3800.000000	100.234521
3799.000000	100.234415
3798.000000	100.234508
3797.000000	100.235403
3796.000000	100.236983
3795.000000	100.238594
3794.000000	100.239777
3793.000000	100.240619
3792.000000	100.241272
3791.000000	100.241521
3790.000000	100.241071
3789.000000	100.239884
3788.000000	100.238266
3787.000000	100.236815
3786.000000	100.236344
3785.000000	100.237399
3784.000000	100.239485
3783.000000	100.241216
3782.000000	100.241692
3781.000000	100.241259
3780.000000	100.240742
3779.000000	100.240432
3778.000000	100.239759
3777.000000	100.238754
3776.000000	100.238697
3775.000000	100.240109
3774.000000	100.241091
3773.000000	100.239405
3772.000000	100.235617
3771.000000	100.233151
3770.000000	100.234374
3769.000000	100.237749
3768.000000	100.240601
3767.000000	100.243360
3766.000000	100.247632
3765.000000	100.251882
3764.000000	100.252136
3763.000000	100.247062
3762.000000	100.240155
3761.000000	100.235670
3760.000000	100.233973
3759.000000	100.232888
3758.000000	100.231084
3757.000000	100.228690
3756.000000	100.225600
3755.000000	100.221647
3754.000000	100.216939
3753.000000	100.210196
3752.000000	100.198339
3751.000000	100.181778
3750.000000	100.167394
3749.000000	100.160187
3748.000000	100.158479
3747.000000	100.159393
3746.000000	100.162875
3745.000000	100.170965
3744.000000	100.182469
3743.000000	100.188548
3742.000000	100.188524
3741.000000	100.193268
3740.000000	100.203679
3739.000000	100.210632
3738.000000	100.209866
3737.000000	100.206155
3736.000000	100.205432
3735.000000	100.206847
3734.000000	100.206168
3733.000000	100.203510
3732.000000	100.201532
3731.000000	100.199442
3730.000000	100.195248
3729.000000	100.190254
3728.000000	100.187698
3727.000000	100.188663
3726.000000	100.190871
3725.000000	100.191278
3724.000000	100.190137
3723.000000	100.189969
3722.000000	100.191407
3721.000000	100.192693
3720.000000	100.192163
3719.000000	100.189977
3718.000000	100.187031
3717.000000	100.183144
3716.000000	100.177020
3715.000000	100.168712
3714.000000	100.160229
3713.000000	100.153602
3712.000000	100.149332
3711.000000	100.145981
3710.000000	100.141392
3709.000000	100.135437
3708.000000	100.129925
3707.000000	100.126096
3706.000000	100.123581
3705.000000	100.121566
3704.000000	100.119819
3703.000000	100.118412
3702.000000	100.116794
3701.000000	100.113294
3700.000000	100.106302
3699.000000	100.096864
3698.000000	100.088517
3697.000000	100.083412
3696.000000	100.080119
3695.000000	100.076173
3694.000000	100.071636
3693.000000	100.068189
3692.000000	100.065646
3691.000000	100.061194
3690.000000	100.052259
3689.000000	100.039288
3688.000000	100.024719
3687.000000	100.011073
3686.000000	100.001174
3685.000000	99.996731
3684.000000	99.995861
3683.000000	99.994521
3682.000000	99.990280
3681.000000	99.983572
3680.000000	99.975137
3679.000000	99.963180
3678.000000	99.946114
3677.000000	99.927317
3676.000000	99.914444
3675.000000	99.909706
3674.000000	99.904942
3673.000000	99.894998
3672.000000	99.883646
3671.000000	99.873435
3670.000000	99.863269
3669.000000	99.851192
3668.000000	99.836107
3667.000000	99.821019
3666.000000	99.809734
3665.000000	99.802330
3664.000000	99.796169
3663.000000	99.788233
3662.000000	99.776997
3661.000000	99.763100
3660.000000	99.748178
3659.000000	99.733099
3658.000000	99.718105
3657.000000	99.703876
3656.000000	99.691268
3655.000000	99.678672
3654.000000	99.664919
3653.000000	99.652366
3652.000000	99.642630
3651.000000	99.634035
3650.000000	99.624696
3649.000000	99.614043
3648.000000	99.602240
3647.000000	99.590629
3646.000000	99.580312
3645.000000	99.571214
3644.000000	99.562973
3643.000000	99.555603
3642.000000	99.548886
3641.000000	99.542418
3640.000000	99.536429
3639.000000	99.531874
3638.000000	99.528303
3637.000000	99.522713
3636.000000	99.512729
3635.000000	99.499206
3634.000000	99.483936
3633.000000	99.466147
3632.000000	99.444727
3631.000000	99.422968
3630.000000	99.408150
3629.000000	99.405321
3628.000000	99.407803
3627.000000	99.403770
3626.000000	99.396498
3625.000000	99.395610
3624.000000	99.400952
3623.000000	99.407379
3622.000000	99.412444
3621.000000	99.417008
3620.000000	99.422792
3619.000000	99.431096
3618.000000	99.441459
3617.000000	99.451751
3616.000000	99.460593
3615.000000	99.467597
3614.000000	99.472830
3613.000000	99.476545
3612.000000	99.478460
3611.000000	99.479110
3610.000000	99.481773
3609.000000	99.490464
3608.000000	99.505778
3607.000000	99.523500
3606.000000	99.538236
3605.000000	99.547588
3604.000000	99.552077
3603.000000	99.554167
3602.000000	99.557894
3601.000000	99.566344
3600.000000	99.578213
3599.000000	99.588643
3598.000000	99.594403
3597.000000	99.595877
3596.000000	99.595555
3595.000000	99.595430
3594.000000	99.595430
3593.000000	99.593421
3592.000000	99.587782
3591.000000	99.579440
3590.000000	99.572297
3589.000000	99.571124
3588.000000	99.577081
3587.000000	99.585113
3586.000000	99.589232
3585.000000	99.590266
3584.000000	99.593240
3583.000000	99.599032
3582.000000	99.603569
3581.000000	99.604006
3580.000000	99.602234
3579.000000	99.601528
3578.000000	99.602016
3577.000000	99.600733
3576.000000	99.595666
3575.000000	99.588022
3574.000000	99.580557
3573.000000	99.574816
3572.000000	99.570413
3571.000000	99.566121
3570.000000	99.561014
3569.000000	99.555226
3568.000000	99.550129
3567.000000	99.547510
3566.000000	99.547980
3565.000000	99.550885
3564.000000	99.555360
3563.000000	99.559714
3562.000000	99.561295
3561.000000	99.558527
3560.000000	99.552650
3559.000000	99.546927
3558.000000	99.543987
3557.000000	99.543846
3556.000000	99.544413
3555.000000	99.543719
3554.000000	99.541609
3553.000000	99.539241
3552.000000	99.537186
3551.000000	99.534625
3550.000000	99.530687
3549.000000	99.525981
3548.000000	99.522398
3547.000000	99.521410
3546.000000	99.522790
3545.000000	99.524767
3544.000000	99.525524
3543.000000	99.524560
3542.000000	99.522454
3541.000000	99.520009
3540.000000	99.517691
3539.000000	99.515650
3538.000000	99.514047
3537.000000	99.513123
3536.000000	99.512908
3535.000000	99.512994
3534.000000	99.512813
3533.000000	99.512129
3532.000000	99.511224
3531.000000	99.510620
3530.000000	99.510571
3529.000000	99.510732
3528.000000	99.510382
3527.000000	99.508991
3526.000000	99.506722
3525.000000	99.504434
3524.000000	99.502947
3523.000000	99.502226
3522.000000	99.501489
3521.000000	99.500315
3520.000000	99.499380
3519.000000	99.499746
3518.000000	99.501552
3517.000000	99.503665
3516.000000	99.504673
3515.000000	99.503889
3514.000000	99.501587
3513.000000	99.498697
3512.000000	99.496344
3511.000000	99.495118
3510.000000	99.494579
3509.000000	99.493742
3508.000000	99.492166
3507.000000	99.490318
3506.000000	99.488795
3505.000000	99.487396
3504.000000	99.485174
3503.000000	99.481436
3502.000000	99.476657
3501.000000	99.472521
3500.000000	99.470853
3499.000000	99.472319
3498.000000	99.476137
3497.000000	99.480868
3496.000000	99.485638
3495.000000	99.490612
3494.000000	99.496166
3493.000000	99.501740
3492.000000	99.505785
3491.000000	99.506939
3490.000000	99.505376
3489.000000	99.502898
3488.000000	99.501364
3487.000000	99.501093
3486.000000	99.500992
3485.000000	99.499877
3484.000000	99.497099
3483.000000	99.492355
3482.000000	99.486057
3481.000000	99.479980
3480.000000	99.476309
3479.000000	99.475372
3478.000000	99.475094
3477.000000	99.473301
3476.000000	99.469956
3475.000000	99.466513
3474.000000	99.463661
3473.000000	99.460917
3472.000000	99.458243
3471.000000	99.456708
3470.000000	99.457049
3469.000000	99.458428
3468.000000	99.459071
3467.000000	99.457827
3466.000000	99.454843
3465.000000	99.451205
3464.000000	99.448181
3463.000000	99.446311
3462.000000	99.444971
3461.000000	99.443122
3460.000000	99.440746
3459.000000	99.439156
3458.000000	99.439525
3457.000000	99.441348
3456.000000	99.442544
3455.000000	99.441238
3454.000000	99.437202
3453.000000	99.431623
3452.000000	99.425971
3451.000000	99.421062
3450.000000	99.417109
3449.000000	99.414199
3448.000000	99.412420
3447.000000	99.411566
3446.000000	99.411016
3445.000000	99.410140
3444.000000	99.408761
3443.000000	99.407057
3442.000000	99.405142
3441.000000	99.402896
3440.000000	99.400197
3439.000000	99.397187
3438.000000	99.394202
3437.000000	99.391470
3436.000000	99.388958
3435.000000	99.386506
3434.000000	99.384034
3433.000000	99.381613
3432.000000	99.379364
3431.000000	99.377295
3430.000000	99.375249
3429.000000	99.373030
3428.000000	99.370656
3427.000000	99.368517
3426.000000	99.367106
3425.000000	99.366420
3424.000000	99.365601
3423.000000	99.363431
3422.000000	99.359444
3421.000000	99.354590
3420.000000	99.350608
3419.000000	99.348554
3418.000000	99.348184
3417.000000	99.348691
3416.000000	99.349711
3415.000000	99.351282
3414.000000	99.352977
3413.000000	99.353662
3412.000000	99.352375
3411.000000	99.349298
3410.000000	99.345773
3409.000000	99.343347
3408.000000	99.342774
3407.000000	99.343742
3406.000000	99.345176
3405.000000	99.345786
3404.000000	99.344712
3403.000000	99.341929
3402.000000	99.338289
3401.000000	99.335125
3400.000000	99.333615
3399.000000	99.334313
3398.000000	99.336898
3397.000000	99.340256
3396.000000	99.343115
3395.000000	99.344902
3394.000000	99.345929
3393.000000	99.346801
3392.000000	99.347712
3391.000000	99.348338
3390.000000	99.348368
3389.000000	99.347979
3388.000000	99.347742
3387.000000	99.348060
3386.000000	99.348752
3385.000000	99.349260
3384.000000	99.349362
3383.000000	99.349544
3382.000000	99.350467
3381.000000	99.352137
3380.000000	99.353830
3379.000000	99.354872
3378.000000	99.355303
3377.000000	99.355714
3376.000000	99.356717
3375.000000	99.358614
3374.000000	99.361267
3373.000000	99.364006
3372.000000	99.365934
3371.000000	99.366692
3370.000000	99.366845
3369.000000	99.367284
3368.000000	99.368203
3367.000000	99.369003
3366.000000	99.369192
3365.000000	99.369018
3364.000000	99.369104
3363.000000	99.369788
3362.000000	99.371076
3361.000000	99.372963
3360.000000	99.375467
3359.000000	99.378409
3358.000000	99.381381
3357.000000	99.383951
3356.000000	99.385973
3355.000000	99.387753
3354.000000	99.389844
3353.000000	99.392477
3352.000000	99.395084
3351.000000	99.396674
3350.000000	99.396862
3349.000000	99.396364
3348.000000	99.396377
3347.000000	99.397409
3346.000000	99.398978
3345.000000	99.400393
3344.000000	99.401573
3343.000000	99.403007
3342.000000	99.405127
3341.000000	99.407905
3340.000000	99.410890
3339.000000	99.413456
3338.000000	99.415114
3337.000000	99.415805
3336.000000	99.415974
3335.000000	99.416258
3334.000000	99.417049
3333.000000	99.418438
3332.000000	99.420505
3331.000000	99.423417
3330.000000	99.427157
3329.000000	99.431271
3328.000000	99.435030
3327.000000	99.437891
3326.000000	99.439731
3325.000000	99.440752
3324.000000	99.441271
3323.000000	99.441654
3322.000000	99.442231
3321.000000	99.443147
3320.000000	99.444426
3319.000000	99.446154
3318.000000	99.448482
3317.000000	99.451344
3316.000000	99.454237
3315.000000	99.456509
3314.000000	99.457951
3313.000000	99.458986
3312.000000	99.460259
3311.000000	99.462005
3310.000000	99.463923
3309.000000	99.465588
3308.000000	99.466887
3307.000000	99.468104
3306.000000	99.469649
3305.000000	99.471730
3304.000000	99.474236
3303.000000	99.476851
3302.000000	99.479293
3301.000000	99.481459
3300.000000	99.483387
3299.000000	99.485139
3298.000000	99.486762
3297.000000	99.488349
3296.000000	99.490067
3295.000000	99.492059
3294.000000	99.494311
3293.000000	99.496624
3292.000000	99.498761
3291.000000	99.500610
3290.000000	99.502218
3289.000000	99.503679
3288.000000	99.505031
3287.000000	99.506286
3286.000000	99.507541
3285.000000	99.509004
3284.000000	99.510830
3283.000000	99.512975
3282.000000	99.515188
3281.000000	99.517176
3280.000000	99.518830
3279.000000	99.520283
3278.000000	99.521814
3277.000000	99.523582
3276.000000	99.525489
3275.000000	99.527289
3274.000000	99.528883
3273.000000	99.530465
3272.000000	99.532332
3271.000000	99.534566
3270.000000	99.536973
3269.000000	99.539282
3268.000000	99.541319
3267.000000	99.543048
3266.000000	99.544558
3265.000000	99.546008
3264.000000	99.547431
3263.000000	99.548620
3262.000000	99.549397
3261.000000	99.550002
3260.000000	99.550981
3259.000000	99.552577
3258.000000	99.554481
3257.000000	99.556392
3256.000000	99.558606
3255.000000	99.561638
3254.000000	99.565379
3253.000000	99.568913
3252.000000	99.571311
3251.000000	99.572356
3250.000000	99.572500
3249.000000	99.572476
3248.000000	99.572972
3247.000000	99.574419
3246.000000	99.576857
3245.000000	99.579961
3244.000000	99.583305
3243.000000	99.586528
3242.000000	99.589204
3241.000000	99.590873
3240.000000	99.591495
3239.000000	99.591684
3238.000000	99.592225
3237.000000	99.593339
3236.000000	99.594621
3235.000000	99.595746
3234.000000	99.597008
3233.000000	99.599141
3232.000000	99.602663
3231.000000	99.607275
3230.000000	99.611860
3229.000000	99.615287
3228.000000	99.617440
3227.000000	99.619319
3226.000000	99.622065
3225.000000	99.625944
3224.000000	99.630271
3223.000000	99.634103
3222.000000	99.636886
3221.000000	99.638660
3220.000000	99.639965
3219.000000	99.641500
3218.000000	99.643588
3217.000000	99.645965
3216.000000	99.648224
3215.000000	99.650393
3214.000000	99.652900
3213.000000	99.655979
3212.000000	99.659254
3211.000000	99.661967
3210.000000	99.663553
3209.000000	99.664056
3208.000000	99.664270
3207.000000	99.665346
3206.000000	99.667989
3205.000000	99.671819
3204.000000	99.675562
3203.000000	99.678161
3202.000000	99.679642
3201.000000	99.680814
3200.000000	99.682187
3199.000000	99.683409
3198.000000	99.683881
3197.000000	99.683791
3196.000000	99.684250
3195.000000	99.686276
3194.000000	99.689789
3193.000000	99.693742
3192.000000	99.697251
3191.000000	99.700452
3190.000000	99.704022
3189.000000	99.707971
3188.000000	99.711224
3187.000000	99.712606
3186.000000	99.712036
3185.000000	99.710677
3184.000000	99.709892
3183.000000	99.710306
3182.000000	99.711930
3181.000000	99.714768
3180.000000	99.718878
3179.000000	99.723939
3178.000000	99.729256
3177.000000	99.734362
3176.000000	99.739285
3175.000000	99.743982
3174.000000	99.747824
3173.000000	99.750025
3172.000000	99.750478
3171.000000	99.749954
3170.000000	99.749483
3169.000000	99.749644
3168.000000	99.750330
3167.000000	99.750914
3166.000000	99.750786
3165.000000	99.750139
3164.000000	99.750187
3163.000000	99.752146
3162.000000	99.755968
3161.000000	99.760373
3160.000000	99.764104
3159.000000	99.766872
3158.000000	99.768992
3157.000000	99.770631
3156.000000	99.771811
3155.000000	99.772814
3154.000000	99.774140
3153.000000	99.776072
3152.000000	99.778556
3151.000000	99.781424
3150.000000	99.784528
3149.000000	99.787640
3148.000000	99.790444
3147.000000	99.792670
3146.000000	99.794221
3145.000000	99.795286
3144.000000	99.796408
3143.000000	99.798202
3142.000000	99.800749
3141.000000	99.803395
3140.000000	99.805407
3139.000000	99.806792
3138.000000	99.808194
3137.000000	99.810073
3136.000000	99.812249
3135.000000	99.814315
3134.000000	99.816151
3133.000000	99.817844
3132.000000	99.819388
3131.000000	99.820765
3130.000000	99.822249
3129.000000	99.824308
3128.000000	99.827032
3127.000000	99.829833
3126.000000	99.831981
3125.000000	99.833459
3124.000000	99.834994
3123.000000	99.837175
3122.000000	99.839770
3121.000000	99.842038
3120.000000	99.843537
3119.000000	99.844474
3118.000000	99.845398
3117.000000	99.846696
3116.000000	99.848341
3115.000000	99.850059
3114.000000	99.851695
3113.000000	99.853337
3112.000000	99.854979
3111.000000	99.856256
3110.000000	99.856856
3109.000000	99.857165
3108.000000	99.858037
3107.000000	99.859768
3106.000000	99.861752
3105.000000	99.863389
3104.000000	99.864954
3103.000000	99.867141
3102.000000	99.870098
3101.000000	99.873371
3100.000000	99.876588
3099.000000	99.879653
3098.000000	99.882326
3097.000000	99.884211
3096.000000	99.885355
3095.000000	99.886481
3094.000000	99.888354
3093.000000	99.891093
3092.000000	99.894154
3091.000000	99.896699
3090.000000	99.898009
3089.000000	99.897992
3088.000000	99.897569
3087.000000	99.898179
3086.000000	99.900355
3085.000000	99.903053
3084.000000	99.904731
3083.000000	99.905035
3082.000000	99.905016
3081.000000	99.905785
3080.000000	99.907308
3079.000000	99.908770
3078.000000	99.909612
3077.000000	99.909896
3076.000000	99.909969
3075.000000	99.910199
3074.000000	99.910952
3073.000000	99.912440
3072.000000	99.914411
3071.000000	99.916180
3070.000000	99.917174
3069.000000	99.917412
3068.000000	99.917463
3067.000000	99.917936
3066.000000	99.919025
3065.000000	99.920484
3064.000000	99.921898
3063.000000	99.922974
3062.000000	99.923668
3061.000000	99.924190
3060.000000	99.924909
3059.000000	99.926125
3058.000000	99.927791
3057.000000	99.929459
3056.000000	99.930636
3055.000000	99.931244
3054.000000	99.931639
3053.000000	99.932187
3052.000000	99.932920
3051.000000	99.933657
3050.000000	99.934350
3049.000000	99.935187
3048.000000	99.936456
3047.000000	99.938318
3046.000000	99.940595
3045.000000	99.942679
3044.000000	99.943858
3043.000000	99.943938
3042.000000	99.943334
3041.000000	99.942438
3040.000000	99.941148
3039.000000	99.939297
3038.000000	99.937356
3037.000000	99.936261
3036.000000	99.936526
3035.000000	99.937996
3034.000000	99.940470
3033.000000	99.944054
3032.000000	99.948475
3031.000000	99.952423
3030.000000	99.954312
3029.000000	99.953745
3028.000000	99.951882
3027.000000	99.950354
3026.000000	99.949780
3025.000000	99.949494
3024.000000	99.948540
3023.000000	99.946731
3022.000000	99.944810
3021.000000	99.943672
3020.000000	99.943502
3019.000000	99.943780
3018.000000	99.944107
3017.000000	99.944685
3016.000000	99.945681
3015.000000	99.946418
3014.000000	99.945852
3013.000000	99.943909
3012.000000	99.941858
3011.000000	99.941036
3010.000000	99.941591
3009.000000	99.942843
3008.000000	99.944431
3007.000000	99.946316
3006.000000	99.947772
3005.000000	99.947413
3004.000000	99.944866
3003.000000	99.941791
3002.000000	99.940359
3001.000000	99.940751
3000.000000	99.940997
2999.000000	99.939521
2998.000000	99.936996
2997.000000	99.935161
2996.000000	99.934514
2995.000000	99.934176
2994.000000	99.933736
2993.000000	99.933802
2992.000000	99.934336
2991.000000	99.933663
2990.000000	99.930118
2989.000000	99.924117
2988.000000	99.917757
2987.000000	99.912586
2986.000000	99.908477
2985.000000	99.904649
2984.000000	99.900920
2983.000000	99.897695
2982.000000	99.895492
2981.000000	99.894955
2980.000000	99.896748
2979.000000	99.900707
2978.000000	99.905135
2977.000000	99.907479
2976.000000	99.906159
2975.000000	99.901877
2974.000000	99.897236
2973.000000	99.894963
2972.000000	99.896163
2971.000000	99.900017
2970.000000	99.904969
2969.000000	99.910122
2968.000000	99.915292
2967.000000	99.919960
2966.000000	99.922987
2965.000000	99.923881
2964.000000	99.923984
2963.000000	99.925569
2962.000000	99.929513
2961.000000	99.934325
2960.000000	99.937859
2959.000000	99.939668
2958.000000	99.941044
2957.000000	99.942817
2956.000000	99.943989
2955.000000	99.943204
2954.000000	99.941112
2953.000000	99.940351
2952.000000	99.942871
2951.000000	99.947928
2950.000000	99.952861
2949.000000	99.955551
2948.000000	99.955789
2947.000000	99.954720
2946.000000	99.953789
2945.000000	99.954039
2944.000000	99.955748
2943.000000	99.958371
2942.000000	99.960993
2941.000000	99.963026
2940.000000	99.964370
2939.000000	99.964992
2938.000000	99.964786
2937.000000	99.963995
2936.000000	99.963446
2935.000000	99.964014
2934.000000	99.965907
2933.000000	99.968556
2932.000000	99.971131
2931.000000	99.973184
2930.000000	99.974788
2929.000000	99.976255
2928.000000	99.977754
2927.000000	99.979083
2926.000000	99.979911
2925.000000	99.980318
2924.000000	99.980920
2923.000000	99.982222
2922.000000	99.983953
2921.000000	99.985358
2920.000000	99.986127
2919.000000	99.986741
2918.000000	99.987815
2917.000000	99.989340
2916.000000	99.990699
2915.000000	99.991277
2914.000000	99.990948
2913.000000	99.990165
2912.000000	99.989673
2911.000000	99.989938
2910.000000	99.990769
2909.000000	99.991546
2908.000000	99.991859
2907.000000	99.991797
2906.000000	99.991648
2905.000000	99.991625
2904.000000	99.991986
2903.000000	99.993096
2902.000000	99.995082
2901.000000	99.997481
2900.000000	99.999431
2899.000000	100.000323
2898.000000	100.000116
2897.000000	99.999268
2896.000000	99.998545
2895.000000	99.998674
2894.000000	99.999935
2893.000000	100.001932
2892.000000	100.003808
2891.000000	100.004942
2890.000000	100.005471
2889.000000	100.006157
2888.000000	100.007694
2887.000000	100.010123
2886.000000	100.012827
2885.000000	100.015058
2884.000000	100.016528
2883.000000	100.017497
2882.000000	100.018426
2881.000000	100.019556
2880.000000	100.020810
2879.000000	100.022044
2878.000000	100.023294
2877.000000	100.024753
2876.000000	100.026491
2875.000000	100.028281
2874.000000	100.029759
2873.000000	100.030834
2872.000000	100.031844
2871.000000	100.033234
2870.000000	100.035143
2869.000000	100.037451
2868.000000	100.040088
2867.000000	100.043004
2866.000000	100.045811
2865.000000	100.047850
2864.000000	100.048912
2863.000000	100.049676
2862.000000	100.051121
2861.000000	100.053566
2860.000000	100.056549
2859.000000	100.059513
2858.000000	100.062308
2857.000000	100.064897
2856.000000	100.067002
2855.000000	100.068359
2854.000000	100.069133
2853.000000	100.069857
2852.000000	100.071005
2851.000000	100.072663
2850.000000	100.074526
2849.000000	100.076192
2848.000000	100.077500
2847.000000	100.078573
2846.000000	100.079495
2845.000000	100.080201
2844.000000	100.080794
2843.000000	100.081706
2842.000000	100.083295
2841.000000	100.085358
2840.000000	100.087297
2839.000000	100.088782
2838.000000	100.089988
2837.000000	100.091211
2836.000000	100.092519
2835.000000	100.093823
2834.000000	100.095083
2833.000000	100.096304
2832.000000	100.097481
2831.000000	100.098646
2830.000000	100.099877
2829.000000	100.101190
2828.000000	100.102489
2827.000000	100.103669
2826.000000	100.104723
2825.000000	100.105711
2824.000000	100.106691
2823.000000	100.107700
2822.000000	100.108769
2821.000000	100.109887
2820.000000	100.110981
2819.000000	100.111968
2818.000000	100.112857
2817.000000	100.113722
2816.000000	100.114618
2815.000000	100.115545
2814.000000	100.116482
2813.000000	100.117423
2812.000000	100.118380
2811.000000	100.119356
2810.000000	100.120346
2809.000000	100.121336
2808.000000	100.122324
2807.000000	100.123313
2806.000000	100.124285
2805.000000	100.125213
2804.000000	100.126110
2803.000000	100.127042
2802.000000	100.128051
2801.000000	100.129085
2800.000000	100.130031
2799.000000	100.130850
2798.000000	100.131640
2797.000000	100.132533
2796.000000	100.133561
2795.000000	100.134666
2794.000000	100.135780
2793.000000	100.136883
2792.000000	100.137971
2791.000000	100.139019
2790.000000	100.139981
2789.000000	100.140820
2788.000000	100.141531
2787.000000	100.142183
2786.000000	100.142919
2785.000000	100.143857
2784.000000	100.144921
2783.000000	100.145830
2782.000000	100.146391
2781.000000	100.146828
2780.000000	100.147648
2779.000000	100.149108
2778.000000	100.150984
2777.000000	100.152890
2776.000000	100.154680
2775.000000	100.156291
2774.000000	100.157434
2773.000000	100.157804
2772.000000	100.157582
2771.000000	100.157453
2770.000000	100.157892
2769.000000	100.158746
2768.000000	100.159598
2767.000000	100.160332
2766.000000	100.161166
2765.000000	100.162219
2764.000000	100.163373
2763.000000	100.164554
2762.000000	100.165851
2761.000000	100.167256
2760.000000	100.168495
2759.000000	100.169280
2758.000000	100.169639
2757.000000	100.169911
2756.000000	100.170436
2755.000000	100.171271
2754.000000	100.172240
2753.000000	100.173123
2752.000000	100.173829
2751.000000	100.174386
2750.000000	100.174837
2749.000000	100.175190
2748.000000	100.175479
2747.000000	100.175814
2746.000000	100.176312
2745.000000	100.176962
2744.000000	100.177644
2743.000000	100.178240
2742.000000	100.178716
2741.000000	100.179104
2740.000000	100.179450
2739.000000	100.179787
2738.000000	100.180143
2737.000000	100.180526
2736.000000	100.180923
2735.000000	100.181311
2734.000000	100.181677
2733.000000	100.182031
2732.000000	100.182389
2731.000000	100.182762
2730.000000	100.183157
2729.000000	100.183565
2728.000000	100.183968
2727.000000	100.184343
2726.000000	100.184685
2725.000000	100.185004
2724.000000	100.185316
2723.000000	100.185634
2722.000000	100.185966
2721.000000	100.186304
2720.000000	100.186628
2719.000000	100.186928
2718.000000	100.187221
2717.000000	100.187531
2716.000000	100.187855
2715.000000	100.188175
2714.000000	100.188489
2713.000000	100.188791
2712.000000	100.189024
2711.000000	100.189112
2710.000000	100.189095
2709.000000	100.189179
2708.000000	100.189594
2707.000000	100.190434
2706.000000	100.191579
2705.000000	100.192682
2704.000000	100.193339
2703.000000	100.193317
2702.000000	100.192753
2701.000000	100.192114
2700.000000	100.191790
2699.000000	100.191868
2698.000000	100.192294
2697.000000	100.193072
2696.000000	100.194156
2695.000000	100.195284
2694.000000	100.196175
2693.000000	100.196849
2692.000000	100.197513
2691.000000	100.198123
2690.000000	100.198330
2689.000000	100.197978
2688.000000	100.197373
2687.000000	100.196968
2686.000000	100.196951
2685.000000	100.197239
2684.000000	100.197749
2683.000000	100.198467
2682.000000	100.199281
2681.000000	100.199935
2680.000000	100.200271
2679.000000	100.200501
2678.000000	100.201035
2677.000000	100.201907
2676.000000	100.202436
2675.000000	100.201750
2674.000000	100.199682
2673.000000	100.197019
2672.000000	100.194752
2671.000000	100.193251
2670.000000	100.192314
2669.000000	100.191693
2668.000000	100.191274
2667.000000	100.190950
2666.000000	100.190772
2665.000000	100.191111
2664.000000	100.192256
2663.000000	100.193874
2662.000000	100.195177
2661.000000	100.195685
2660.000000	100.195637
2659.000000	100.195637
2658.000000	100.196144
2657.000000	100.197248
2656.000000	100.198612
2655.000000	100.199614
2654.000000	100.199856
2653.000000	100.199551
2652.000000	100.199165
2651.000000	100.198719
2650.000000	100.197889
2649.000000	100.196858
2648.000000	100.196570
2647.000000	100.197737
2646.000000	100.199853
2645.000000	100.201455
2644.000000	100.201533
2643.000000	100.200224
2642.000000	100.198370
2641.000000	100.196770
2640.000000	100.195743
2639.000000	100.195209
2638.000000	100.194889
2637.000000	100.194558
2636.000000	100.194334
2635.000000	100.194618
2634.000000	100.195611
2633.000000	100.196944
2632.000000	100.197927
2631.000000	100.198225
2630.000000	100.198162
2629.000000	100.198301
2628.000000	100.198770
2627.000000	100.199114
2626.000000	100.198834
2625.000000	100.197981
2624.000000	100.197140
2623.000000	100.196833
2622.000000	100.196992
2621.000000	100.197077
2620.000000	100.196635
2619.000000	100.195698
2618.000000	100.194677
2617.000000	100.193996
2616.000000	100.193838
2615.000000	100.194142
2614.000000	100.194651
2613.000000	100.195002
2612.000000	100.194925
2611.000000	100.194478
2610.000000	100.194133
2609.000000	100.194482
2608.000000	100.195706
2607.000000	100.197274
2606.000000	100.198327
2605.000000	100.198553
2604.000000	100.198611
2603.000000	100.199521
2602.000000	100.201557
2601.000000	100.203802
2600.000000	100.204929
2599.000000	100.204376
2598.000000	100.202618
2597.000000	100.200671
2596.000000	100.199252
2595.000000	100.198456
2594.000000	100.198106
2593.000000	100.198135
2592.000000	100.198602
2591.000000	100.199398
2590.000000	100.200126
2589.000000	100.200388
2588.000000	100.200162
2587.000000	100.199757
2586.000000	100.199443
2585.000000	100.199265
2584.000000	100.199227
2583.000000	100.199454
2582.000000	100.199990
2581.000000	100.200574
2580.000000	100.200796
2579.000000	100.200503
2578.000000	100.199943
2577.000000	100.199542
2576.000000	100.199614
2575.000000	100.200230
2574.000000	100.201173
2573.000000	100.201968
2572.000000	100.202130
2571.000000	100.201501
2570.000000	100.200290
2569.000000	100.198782
2568.000000	100.197150
2567.000000	100.195641
2566.000000	100.194686
2565.000000	100.194605
2564.000000	100.195250
2563.000000	100.196060
2562.000000	100.196541
2561.000000	100.196571
2560.000000	100.196211
2559.000000	100.195515
2558.000000	100.194632
2557.000000	100.193933
2556.000000	100.193792
2555.000000	100.194237
2554.000000	100.194962
2553.000000	100.195645
2552.000000	100.196168
2551.000000	100.196486
2550.000000	100.196459
2549.000000	100.196002
2548.000000	100.195328
2547.000000	100.194870
2546.000000	100.194868
2545.000000	100.195161
2544.000000	100.195420
2543.000000	100.195515
2542.000000	100.195544
2541.000000	100.195594
2540.000000	100.195632
2539.000000	100.195650
2538.000000	100.195749
2537.000000	100.196025
2536.000000	100.196441
2535.000000	100.196881
2534.000000	100.197278
2533.000000	100.197614
2532.000000	100.197872
2531.000000	100.198074
2530.000000	100.198356
2529.000000	100.198894
2528.000000	100.199744
2527.000000	100.200757
2526.000000	100.201641
2525.000000	100.202169
2524.000000	100.202337
2523.000000	100.202359
2522.000000	100.202522
2521.000000	100.202924
2520.000000	100.203415
2519.000000	100.203773
2518.000000	100.203983
2517.000000	100.204290
2516.000000	100.204897
2515.000000	100.205720
2514.000000	100.206495
2513.000000	100.207108
2512.000000	100.207722
2511.000000	100.208559
2510.000000	100.209626
2509.000000	100.210671
2508.000000	100.211418
2507.000000	100.211777
2506.000000	100.211879
2505.000000	100.211966
2504.000000	100.212218
2503.000000	100.212642
2502.000000	100.213084
2501.000000	100.213385
2500.000000	100.213570
2499.000000	100.213835
2498.000000	100.214341
2497.000000	100.215055
2496.000000	100.215787
2495.000000	100.216366
2494.000000	100.216761
2493.000000	100.217060
2492.000000	100.217375
2491.000000	100.217748
2490.000000	100.218147
2489.000000	100.218536
2488.000000	100.218920
2487.000000	100.219316
2486.000000	100.219696
2485.000000	100.220016
2484.000000	100.220282
2483.000000	100.220546
2482.000000	100.220830
2481.000000	100.221104
2480.000000	100.221342
2479.000000	100.221579
2478.000000	100.221870
2477.000000	100.222219
2476.000000	100.222585
2475.000000	100.222933
2474.000000	100.223251
2473.000000	100.223535
2472.000000	100.223774
2471.000000	100.223970
2470.000000	100.224149
2469.000000	100.224335
2468.000000	100.224532
2467.000000	100.224736
2466.000000	100.224948
2465.000000	100.225169
2464.000000	100.225397
2463.000000	100.225630
2462.000000	100.225867
2461.000000	100.226103
2460.000000	100.226337
2459.000000	100.226566
2458.000000	100.226788
2457.000000	100.227007
2456.000000	100.227229
2455.000000	100.227462
2454.000000	100.227711
2453.000000	100.227977
2452.000000	100.228254
2451.000000	100.228537
2450.000000	100.228822
2449.000000	100.229114
2448.000000	100.229411
2447.000000	100.229687
2446.000000	100.229915
2445.000000	100.230110
2444.000000	100.230341
2443.000000	100.230671
2442.000000	100.231097
2441.000000	100.231568
2440.000000	100.232053
2439.000000	100.232547
2438.000000	100.233036
2437.000000	100.233485
2436.000000	100.233861
2435.000000	100.234148
2434.000000	100.234351
2433.000000	100.234505
2432.000000	100.234663
2431.000000	100.234906
2430.000000	100.235340
2429.000000	100.236033
2428.000000	100.236888
2427.000000	100.237619
2426.000000	100.237972
2425.000000	100.237938
2424.000000	100.237692
2423.000000	100.237294
2422.000000	100.236679
2421.000000	100.236009
2420.000000	100.235833
2419.000000	100.236627
2418.000000	100.238239
2417.000000	100.239824
2416.000000	100.240589
2415.000000	100.240606
2414.000000	100.240799
2413.000000	100.241953
2412.000000	100.243768
2411.000000	100.245127
2410.000000	100.245363
2409.000000	100.244863
2408.000000	100.244432
2407.000000	100.244335
2406.000000	100.244344
2405.000000	100.244410
2404.000000	100.244696
2403.000000	100.245106
2402.000000	100.245286
2401.000000	100.245065
2400.000000	100.244459
2399.000000	100.243369
2398.000000	100.241806
2397.000000	100.240390
2396.000000	100.239932
2395.000000	100.240434
2394.000000	100.241004
2393.000000	100.240996
2392.000000	100.240730
2391.000000	100.240797
2390.000000	100.241264
2389.000000	100.241954
2388.000000	100.242889
2387.000000	100.243801
2386.000000	100.243752
2385.000000	100.242058
2384.000000	100.239329
2383.000000	100.236953
2382.000000	100.235481
2381.000000	100.234259
2380.000000	100.232703
2379.000000	100.231281
2378.000000	100.230854
2377.000000	100.231553
2376.000000	100.232658
2375.000000	100.233341
2374.000000	100.233210
2373.000000	100.232266
2372.000000	100.230752
2371.000000	100.228945
2370.000000	100.226883
2369.000000	100.224512
2368.000000	100.222280
2367.000000	100.221099
2366.000000	100.221344
2365.000000	100.222407
2364.000000	100.223583
2363.000000	100.224815
2362.000000	100.226245
2361.000000	100.227361
2360.000000	100.227290
2359.000000	100.226116
2358.000000	100.224626
2357.000000	100.223143
2356.000000	100.221282
2355.000000	100.218640
2354.000000	100.215606
2353.000000	100.213158
2352.000000	100.212445
2351.000000	100.213950
2350.000000	100.216881
2349.000000	100.219797
2348.000000	100.221396
2347.000000	100.221406
2346.000000	100.220428
2345.000000	100.219357
2344.000000	100.218882
2343.000000	100.219072
2342.000000	100.220075
2341.000000	100.221725
2340.000000	100.223202
2339.000000	100.223356
2338.000000	100.221599
2337.000000	100.218466
2336.000000	100.215211
2335.000000	100.212819
2334.000000	100.211621
2333.000000	100.211608
2332.000000	100.212883
2331.000000	100.215386
2330.000000	100.218331
2329.000000	100.220926
2328.000000	100.222685
2327.000000	100.223850
2326.000000	100.224569
2325.000000	100.224587
2324.000000	100.223720
2323.000000	100.222112
2322.000000	100.220356
2321.000000	100.218626
2320.000000	100.216886
2319.000000	100.215466
2318.000000	100.215242
2317.000000	100.216726
2316.000000	100.219283
2315.000000	100.221741
2314.000000	100.223435
2313.000000	100.224474
2312.000000	100.224893
2311.000000	100.224462
2310.000000	100.223140
2309.000000	100.221440
2308.000000	100.219954
2307.000000	100.219044
2306.000000	100.219024
2305.000000	100.220072
2304.000000	100.221535
2303.000000	100.221942
2302.000000	100.220370
2301.000000	100.217511
2300.000000	100.215032
2299.000000	100.213787
2298.000000	100.213240
2297.000000	100.212698
2296.000000	100.212358
2295.000000	100.212891
2294.000000	100.214397
2293.000000	100.216255
2292.000000	100.217679
2291.000000	100.218239
2290.000000	100.217992
2289.000000	100.217345
2288.000000	100.216680
2287.000000	100.215957
2286.000000	100.214903
2285.000000	100.213646
2284.000000	100.212864
2283.000000	100.213053
2282.000000	100.213960
2281.000000	100.214851
2280.000000	100.215271
2279.000000	100.215264
2278.000000	100.214963
2277.000000	100.214400
2276.000000	100.213740
2275.000000	100.213300
2274.000000	100.213132
2273.000000	100.212895
2272.000000	100.212363
2271.000000	100.211785
2270.000000	100.211487
2269.000000	100.211295
2268.000000	100.210744
2267.000000	100.209771
2266.000000	100.208867
2265.000000	100.208437
2264.000000	100.208268
2263.000000	100.207855
2262.000000	100.207096
2261.000000	100.206362
2260.000000	100.205926
2259.000000	100.205597
2258.000000	100.205015
2257.000000	100.204128
2256.000000	100.203244
2255.000000	100.202704
2254.000000	100.202621
2253.000000	100.202866
2252.000000	100.203142
2251.000000	100.203169
2250.000000	100.202875
2249.000000	100.202396
2248.000000	100.201916
2247.000000	100.201487
2246.000000	100.201058
2245.000000	100.200615
2244.000000	100.200206
2243.000000	100.199882
2242.000000	100.199670
2241.000000	100.199575
2240.000000	100.199507
2239.000000	100.199251
2238.000000	100.198657
2237.000000	100.197844
2236.000000	100.197181
2235.000000	100.196930
2234.000000	100.197026
2233.000000	100.197183
2232.000000	100.197197
2231.000000	100.197097
2230.000000	100.197034
2229.000000	100.197109
2228.000000	100.197305
2227.000000	100.197499
2226.000000	100.197570
2225.000000	100.197504
2224.000000	100.197389
2223.000000	100.197306
2222.000000	100.197250
2221.000000	100.197178
2220.000000	100.197103
2219.000000	100.197104
2218.000000	100.197274
2217.000000	100.197665
2216.000000	100.198221
2215.000000	100.198718
2214.000000	100.198901
2213.000000	100.198730
2212.000000	100.198409
2211.000000	100.198198
2210.000000	100.198144
2209.000000	100.198102
2208.000000	100.197959
2207.000000	100.197758
2206.000000	100.197645
2205.000000	100.197726
2204.000000	100.197987
2203.000000	100.198299
2202.000000	100.198509
2201.000000	100.198579
2200.000000	100.198577
2199.000000	100.198569
2198.000000	100.198556
2197.000000	100.198545
2196.000000	100.198600
2195.000000	100.198757
2194.000000	100.198937
2193.000000	100.199025
2192.000000	100.198997
2191.000000	100.198926
2190.000000	100.198881
2189.000000	100.198861
2188.000000	100.198822
2187.000000	100.198743
2186.000000	100.198667
2185.000000	100.198660
2184.000000	100.198746
2183.000000	100.198875
2182.000000	100.198967
2181.000000	100.198990
2180.000000	100.198984
2179.000000	100.199018
2178.000000	100.199112
2177.000000	100.199212
2176.000000	100.199266
2175.000000	100.199288
2174.000000	100.199306
2173.000000	100.199290
2172.000000	100.199184
2171.000000	100.199013
2170.000000	100.198898
2169.000000	100.198978
2168.000000	100.199300
2167.000000	100.199763
2166.000000	100.200159
2165.000000	100.200322
2164.000000	100.200215
2163.000000	100.199892
2162.000000	100.199422
2161.000000	100.198928
2160.000000	100.198647
2159.000000	100.198782
2158.000000	100.199269
2157.000000	100.199807
2156.000000	100.200194
2155.000000	100.200472
2154.000000	100.200660
2153.000000	100.200550
2152.000000	100.200004
2151.000000	100.199367
2150.000000	100.199271
2149.000000	100.200002
2148.000000	100.201286
2147.000000	100.202608
2146.000000	100.203571
2145.000000	100.203853
2144.000000	100.203208
2143.000000	100.201807
2142.000000	100.200402
2141.000000	100.199760
2140.000000	100.200005
2139.000000	100.200730
2138.000000	100.201582
2137.000000	100.202478
2136.000000	100.203352
2135.000000	100.204126
2134.000000	100.204997
2133.000000	100.206351
2132.000000	100.208259
2131.000000	100.210303
2130.000000	100.212056
2129.000000	100.213432
2128.000000	100.214355
2127.000000	100.214393
2126.000000	100.213170
2125.000000	100.211093
2124.000000	100.209229
2123.000000	100.208358
2122.000000	100.208486
2121.000000	100.209367
2120.000000	100.211098
2119.000000	100.213778
2118.000000	100.216862
2117.000000	100.219400
2116.000000	100.221004
2115.000000	100.222228
2114.000000	100.223778
2113.000000	100.225595
2112.000000	100.226979
2111.000000	100.227497
2110.000000	100.227511
2109.000000	100.227792
2108.000000	100.228733
2107.000000	100.229956
2106.000000	100.230675
2105.000000	100.230426
2104.000000	100.229470
2103.000000	100.228510
2102.000000	100.227954
2101.000000	100.227593
2100.000000	100.227067
2099.000000	100.226398
2098.000000	100.225875
2097.000000	100.225584
2096.000000	100.225395
2095.000000	100.225322
2094.000000	100.225587
2093.000000	100.226262
2092.000000	100.227143
2091.000000	100.228078
2090.000000	100.229179
2089.000000	100.230528
2088.000000	100.231902
2087.000000	100.233034
2086.000000	100.234042
2085.000000	100.235387
2084.000000	100.237427
2083.000000	100.240054
2082.000000	100.242588
2081.000000	100.243986
2080.000000	100.243532
2079.000000	100.241676
2078.000000	100.240044
2077.000000	100.240039
2076.000000	100.241433
2075.000000	100.242807
2074.000000	100.243370
2073.000000	100.243778
2072.000000	100.244893
2071.000000	100.246360
2070.000000	100.246991
2069.000000	100.246243
2068.000000	100.244688
2067.000000	100.243236
2066.000000	100.242472
2065.000000	100.242698
2064.000000	100.243939
2063.000000	100.245587
2062.000000	100.246452
2061.000000	100.245617
2060.000000	100.243208
2059.000000	100.240304
2058.000000	100.238143
2057.000000	100.237411
2056.000000	100.238082
2055.000000	100.239642
2054.000000	100.241464
2053.000000	100.243152
2052.000000	100.244570
2051.000000	100.245600
2050.000000	100.245952
2049.000000	100.245293
2048.000000	100.243504
2047.000000	100.240790
2046.000000	100.237616
2045.000000	100.234600
2044.000000	100.232299
2043.000000	100.230941
2042.000000	100.230366
2041.000000	100.230175
2040.000000	100.229919
2039.000000	100.229306
2038.000000	100.228354
2037.000000	100.227265
2036.000000	100.226036
2035.000000	100.224320
2034.000000	100.221952
2033.000000	100.219454
2032.000000	100.217578
2031.000000	100.216394
2030.000000	100.215320
2029.000000	100.214189
2028.000000	100.213726
2027.000000	100.214515
2026.000000	100.215890
2025.000000	100.216393
2024.000000	100.215343
2023.000000	100.213358
2022.000000	100.211408
2021.000000	100.209724
2020.000000	100.207965
2019.000000	100.206083
2018.000000	100.204490
2017.000000	100.203436
2016.000000	100.202566
2015.000000	100.201284
2014.000000	100.199368
2013.000000	100.197131
2012.000000	100.195084
2011.000000	100.193511
2010.000000	100.192318
2009.000000	100.191214
2008.000000	100.190062
2007.000000	100.189098
2006.000000	100.188735
2005.000000	100.189098
2004.000000	100.189714
2003.000000	100.189745
2002.000000	100.188670
2001.000000	100.186714
2000.000000	100.184679
1999.000000	100.183240
1998.000000	100.182489
1997.000000	100.182148
1996.000000	100.181969
1995.000000	100.181840
1994.000000	100.181608
1993.000000	100.181097
1992.000000	100.180356
1991.000000	100.179681
1990.000000	100.179274
1989.000000	100.179085
1988.000000	100.178988
1987.000000	100.178936
1986.000000	100.178842
1985.000000	100.178493
1984.000000	100.177752
1983.000000	100.176813
1982.000000	100.176081
1981.000000	100.175781
1980.000000	100.175797
1979.000000	100.175871
1978.000000	100.175842
1977.000000	100.175698
1976.000000	100.175541
1975.000000	100.175530
1974.000000	100.175710
1973.000000	100.175912
1972.000000	100.175943
1971.000000	100.175900
1970.000000	100.176118
1969.000000	100.176718
1968.000000	100.177332
1967.000000	100.177462
1966.000000	100.177056
1965.000000	100.176528
1964.000000	100.176235
1963.000000	100.176085
1962.000000	100.175771
1961.000000	100.175200
1960.000000	100.174613
1959.000000	100.174342
1958.000000	100.174508
1957.000000	100.174950
1956.000000	100.175301
1955.000000	100.175217
1954.000000	100.174606
1953.000000	100.173678
1952.000000	100.172830
1951.000000	100.172377
1950.000000	100.172373
1949.000000	100.172617
1948.000000	100.172783
1947.000000	100.172635
1946.000000	100.172130
1945.000000	100.171354
1944.000000	100.170413
1943.000000	100.169457
1942.000000	100.168653
1941.000000	100.167991
1940.000000	100.167306
1939.000000	100.166651
1938.000000	100.166372
1937.000000	100.166576
1936.000000	100.166702
1935.000000	100.166061
1934.000000	100.164743
1933.000000	100.163507
1932.000000	100.162679
1931.000000	100.161675
1930.000000	100.159957
1929.000000	100.157868
1928.000000	100.156082
1927.000000	100.154666
1926.000000	100.153162
1925.000000	100.151318
1924.000000	100.149305
1923.000000	100.147374
1922.000000	100.145744
1921.000000	100.144736
1920.000000	100.144546
1919.000000	100.144713
1918.000000	100.144191
1917.000000	100.142391
1916.000000	100.139823
1915.000000	100.137484
1914.000000	100.135856
1913.000000	100.134627
1912.000000	100.133082
1911.000000	100.130730
1910.000000	100.127801
1909.000000	100.125104
1908.000000	100.123022
1907.000000	100.121010
1906.000000	100.118500
1905.000000	100.115954
1904.000000	100.114352
1903.000000	100.113765
1902.000000	100.113396
1901.000000	100.112963
1900.000000	100.112873
1899.000000	100.112782
1898.000000	100.111055
1897.000000	100.106430
1896.000000	100.099698
1895.000000	100.093199
1894.000000	100.088861
1893.000000	100.087280
1892.000000	100.088109
1891.000000	100.090213
1890.000000	100.091681
1889.000000	100.090915
1888.000000	100.087941
1887.000000	100.084113
1886.000000	100.080707
1885.000000	100.078249
1884.000000	100.076875
1883.000000	100.076649
1882.000000	100.077345
1881.000000	100.078105
1880.000000	100.077665
1879.000000	100.075510
1878.000000	100.072717
1877.000000	100.071028
1876.000000	100.070886
1875.000000	100.070858
1874.000000	100.069580
1873.000000	100.067871
1872.000000	100.067820
1871.000000	100.070044
1870.000000	100.072979
1869.000000	100.075126
1868.000000	100.076590
1867.000000	100.077463
1866.000000	100.076877
1865.000000	100.074585
1864.000000	100.072101
1863.000000	100.071753
1862.000000	100.074726
1861.000000	100.080119
1860.000000	100.085701
1859.000000	100.089707
1858.000000	100.092312
1857.000000	100.095408
1856.000000	100.100580
1855.000000	100.107265
1854.000000	100.113366
1853.000000	100.117678
1852.000000	100.120728
1851.000000	100.123418
1850.000000	100.125775
1849.000000	100.127579
1848.000000	100.129666
1847.000000	100.133196
1846.000000	100.137733
1845.000000	100.141064
1844.000000	100.141736
1843.000000	100.140619
1842.000000	100.139462
1841.000000	100.139197
1840.000000	100.139512
1839.000000	100.139729
1838.000000	100.139644
1837.000000	100.139353
1836.000000	100.138714
1835.000000	100.137472
1834.000000	100.136135
1833.000000	100.136133
1832.000000	100.138604
1831.000000	100.143079
1830.000000	100.147321
1829.000000	100.149103
1828.000000	100.148409
1827.000000	100.147027
1826.000000	100.146082
1825.000000	100.145116
1824.000000	100.143293
1823.000000	100.140541
1822.000000	100.137719
1821.000000	100.136049
1820.000000	100.136373
1819.000000	100.138594
1818.000000	100.141606
1817.000000	100.144241
1816.000000	100.146082
1815.000000	100.147090
1814.000000	100.147229
1813.000000	100.146673
1812.000000	100.145996
1811.000000	100.145354
1810.000000	100.143802
1809.000000	100.140646
1808.000000	100.136915
1807.000000	100.134599
1806.000000	100.134836
1805.000000	100.137125
1804.000000	100.139726
1803.000000	100.140683
1802.000000	100.139248
1801.000000	100.136668
1800.000000	100.135081
1799.000000	100.135146
1798.000000	100.135811
1797.000000	100.136448
1796.000000	100.137728
1795.000000	100.140337
1794.000000	100.143858
1793.000000	100.147395
1792.000000	100.150979
1791.000000	100.154782
1790.000000	100.157821
1789.000000	100.159130
1788.000000	100.158752
1787.000000	100.157390
1786.000000	100.155980
1785.000000	100.155408
1784.000000	100.155960
1783.000000	100.156929
1782.000000	100.157420
1781.000000	100.157404
1780.000000	100.158185
1779.000000	100.161044
1778.000000	100.165470
1777.000000	100.169740
1776.000000	100.172627
1775.000000	100.174456
1774.000000	100.176398
1773.000000	100.179203
1772.000000	100.182941
1771.000000	100.186927
1770.000000	100.190252
1769.000000	100.192780
1768.000000	100.195082
1767.000000	100.197747
1766.000000	100.200678
1765.000000	100.203105
1764.000000	100.204329
1763.000000	100.204232
1762.000000	100.203627
1761.000000	100.203500
1760.000000	100.204390
1759.000000	100.206775
1758.000000	100.210741
1757.000000	100.215331
1756.000000	100.219019
1755.000000	100.221180
1754.000000	100.222239
1753.000000	100.222379
1752.000000	100.221452
1751.000000	100.220498
1750.000000	100.221165
1749.000000	100.223593
1748.000000	100.226550
1747.000000	100.228965
1746.000000	100.230696
1745.000000	100.232199
1744.000000	100.234300
1743.000000	100.237710
1742.000000	100.241932
1741.000000	100.245112
1740.000000	100.245716
1739.000000	100.244271
1738.000000	100.242774
1737.000000	100.242774
1736.000000	100.244503
1735.000000	100.247046
1734.000000	100.248872
1733.000000	100.247655
1732.000000	100.242943
1731.000000	100.237730
1730.000000	100.234699
1729.000000	100.233873
1728.000000	100.233462
1727.000000	100.232026
1726.000000	100.229754
1725.000000	100.227413
1724.000000	100.225479
1723.000000	100.224231
1722.000000	100.224075
1721.000000	100.225188
1720.000000	100.226609
1719.000000	100.226151
1718.000000	100.222503
1717.000000	100.217747
1716.000000	100.214907
1715.000000	100.214115
1714.000000	100.213851
1713.000000	100.213019
1712.000000	100.211372
1711.000000	100.209148
1710.000000	100.206805
1709.000000	100.204954
1708.000000	100.203731
1707.000000	100.202264
1706.000000	100.199284
1705.000000	100.194901
1704.000000	100.190647
1703.000000	100.187607
1702.000000	100.185463
1701.000000	100.183272
1700.000000	100.181057
1699.000000	100.178936
1698.000000	100.176866
1697.000000	100.175152
1696.000000	100.173358
1695.000000	100.170604
1694.000000	100.166766
1693.000000	100.162672
1692.000000	100.158928
1691.000000	100.155405
1690.000000	100.152076
1689.000000	100.149276
1688.000000	100.147071
1687.000000	100.144987
1686.000000	100.142199
1685.000000	100.138430
1684.000000	100.135455
1683.000000	100.134201
1682.000000	100.133154
1681.000000	100.131540
1680.000000	100.129655
1679.000000	100.127866
1678.000000	100.126380
1677.000000	100.124845
1676.000000	100.122673
1675.000000	100.119788
1674.000000	100.116762
1673.000000	100.114057
1672.000000	100.111808
1671.000000	100.109976
1670.000000	100.108642
1669.000000	100.107804
1668.000000	100.106848
1667.000000	100.105203
1666.000000	100.102878
1665.000000	100.100013
1664.000000	100.096714
1663.000000	100.093463
1662.000000	100.091044
1661.000000	100.089520
1660.000000	100.088266
1659.000000	100.086878
1658.000000	100.085485
1657.000000	100.084337
1656.000000	100.083163
1655.000000	100.080959
1654.000000	100.076740
1653.000000	100.073802
1652.000000	100.073736
1651.000000	100.073183
1650.000000	100.072741
1649.000000	100.073192
1648.000000	100.072468
1647.000000	100.069524
1646.000000	100.065469
1645.000000	100.061828
1644.000000	100.059281
1643.000000	100.058353
1642.000000	100.058681
1641.000000	100.059444
1640.000000	100.060113
1639.000000	100.060420
1638.000000	100.059725
1637.000000	100.056564
1636.000000	100.050984
1635.000000	100.046018
1634.000000	100.042750
1633.000000	100.040402
1632.000000	100.039144
1631.000000	100.038550
1630.000000	100.038345
1629.000000	100.039179
1628.000000	100.041484
1627.000000	100.044424
1626.000000	100.046931
1625.000000	100.049005
1624.000000	100.051221
1623.000000	100.053795
1622.000000	100.055992
1621.000000	100.057022
1620.000000	100.057188
1619.000000	100.057103
1618.000000	100.057036
1617.000000	100.058139
1616.000000	100.060417
1615.000000	100.061330
1614.000000	100.060411
1613.000000	100.060059
1612.000000	100.062036
1611.000000	100.066218
1610.000000	100.071025
1609.000000	100.074707
1608.000000	100.076726
1607.000000	100.077945
1606.000000	100.079729
1605.000000	100.083012
1604.000000	100.088226
1603.000000	100.095239
1602.000000	100.102474
1601.000000	100.107445
1600.000000	100.109317
1599.000000	100.110217
1598.000000	100.113082
1597.000000	100.118602
1596.000000	100.125170
1595.000000	100.131330
1594.000000	100.137111
1593.000000	100.142752
1592.000000	100.147560
1591.000000	100.150997
1590.000000	100.153922
1589.000000	100.157591
1588.000000	100.161779
1587.000000	100.165109
1586.000000	100.167128
1585.000000	100.169105
1584.000000	100.172295
1583.000000	100.176614
1582.000000	100.181054
1581.000000	100.184803
1580.000000	100.187793
1579.000000	100.190250
1578.000000	100.191866
1577.000000	100.192159
1576.000000	100.192519
1575.000000	100.194586
1574.000000	100.198103
1573.000000	100.202442
1572.000000	100.206749
1571.000000	100.209612
1570.000000	100.210690
1569.000000	100.211016
1568.000000	100.211182
1567.000000	100.211939
1566.000000	100.214470
1565.000000	100.218545
1564.000000	100.222440
1563.000000	100.225538
1562.000000	100.229122
1561.000000	100.235089
1560.000000	100.242456
1559.000000	100.249675
1558.000000	100.253610
1557.000000	100.250582
1556.000000	100.244996
1555.000000	100.241381
1554.000000	100.238748
1553.000000	100.235340
1552.000000	100.231003
1551.000000	100.227645
1550.000000	100.227097
1549.000000	100.229492
1548.000000	100.232672
1547.000000	100.234353
1546.000000	100.233869
1545.000000	100.232276
1544.000000	100.231431
1543.000000	100.231638
1542.000000	100.231229
1541.000000	100.229402
1540.000000	100.228665
1539.000000	100.229237
1538.000000	100.227660
1537.000000	100.224523
1536.000000	100.222404
1535.000000	100.221344
1534.000000	100.220665
1533.000000	100.220451
1532.000000	100.220822
1531.000000	100.221422
1530.000000	100.221887
1529.000000	100.221671
1528.000000	100.220392
1527.000000	100.218515
1526.000000	100.217063
1525.000000	100.216296
1524.000000	100.215409
1523.000000	100.213472
1522.000000	100.210734
1521.000000	100.208898
1520.000000	100.208357
1519.000000	100.208004
1518.000000	100.207483
1517.000000	100.207140
1516.000000	100.207075
1515.000000	100.206707
1514.000000	100.205707
1513.000000	100.204533
1512.000000	100.203842
1511.000000	100.203829
1510.000000	100.204167
1509.000000	100.204620
1508.000000	100.205265
1507.000000	100.206164
1506.000000	100.206381
1505.000000	100.204955
1504.000000	100.202952
1503.000000	100.201845
1502.000000	100.201606
1501.000000	100.201659
1500.000000	100.201861
1499.000000	100.202586
1498.000000	100.203777
1497.000000	100.204335
1496.000000	100.203269
1495.000000	100.200875
1494.000000	100.198367
1493.000000	100.196563
1492.000000	100.195446
1491.000000	100.194642
1490.000000	100.194000
1489.000000	100.193621
1488.000000	100.193382
1487.000000	100.192877
1486.000000	100.191947
1485.000000	100.190954
1484.000000	100.190318
1483.000000	100.190132
1482.000000	100.190128
1481.000000	100.189932
1480.000000	100.189288
1479.000000	100.188030
1478.000000	100.186131
1477.000000	100.184002
1476.000000	100.182466
1475.000000	100.181908
1474.000000	100.181928
1473.000000	100.182097
1472.000000	100.182513
1471.000000	100.183016
1470.000000	100.183067
1469.000000	100.182525
1468.000000	100.181628
1467.000000	100.180735
1466.000000	100.180147
1465.000000	100.179844
1464.000000	100.179237
1463.000000	100.177671
1462.000000	100.175333
1461.000000	100.173144
1460.000000	100.171742
1459.000000	100.171019
1458.000000	100.170250
1457.000000	100.169467
1456.000000	100.168914
1455.000000	100.168113
1454.000000	100.167283
1453.000000	100.166234
1452.000000	100.163840
1451.000000	100.159590
1450.000000	100.154280
1449.000000	100.149918
1448.000000	100.148501
1447.000000	100.149772
1446.000000	100.151185
1445.000000	100.150878
1444.000000	100.149254
1443.000000	100.147558
1442.000000	100.146088
1441.000000	100.144737
1440.000000	100.144348
1439.000000	100.146102
1438.000000	100.149018
1437.000000	100.149679
1436.000000	100.145938
1435.000000	100.139416
1434.000000	100.132896
1433.000000	100.127469
1432.000000	100.123013
1431.000000	100.119955
1430.000000	100.119320
1429.000000	100.121188
1428.000000	100.124213
1427.000000	100.126347
1426.000000	100.126133
1425.000000	100.123257
1424.000000	100.119279
1423.000000	100.116909
1422.000000	100.117197
1421.000000	100.119087
1420.000000	100.120944
1419.000000	100.122178
1418.000000	100.122833
1417.000000	100.122870
1416.000000	100.122824
1415.000000	100.122919
1414.000000	100.122838
1413.000000	100.123181
1412.000000	100.125617
1411.000000	100.130752
1410.000000	100.136645
1409.000000	100.141136
1408.000000	100.144618
1407.000000	100.148542
1406.000000	100.152699
1405.000000	100.155597
1404.000000	100.157368
1403.000000	100.160130
1402.000000	100.164984
1401.000000	100.170629
1400.000000	100.174682
1399.000000	100.175915
1398.000000	100.175079
1397.000000	100.173954
1396.000000	100.174434
1395.000000	100.177711
1394.000000	100.182956
1393.000000	100.187502
1392.000000	100.189790
1391.000000	100.190376
1390.000000	100.190526
1389.000000	100.191632
1388.000000	100.195130
1387.000000	100.201094
1386.000000	100.206949
1385.000000	100.209818
1384.000000	100.209517
1383.000000	100.208246
1382.000000	100.208203
1381.000000	100.209849
1380.000000	100.212260
1379.000000	100.214637
1378.000000	100.217016
1377.000000	100.219752
1376.000000	100.222759
1375.000000	100.225379
1374.000000	100.227038
1373.000000	100.227795
1372.000000	100.228390
1371.000000	100.229752
1370.000000	100.232371
1369.000000	100.235891
1368.000000	100.239374
1367.000000	100.241999
1366.000000	100.243515
1365.000000	100.244239
1364.000000	100.244600
1363.000000	100.244776
1362.000000	100.244825
1361.000000	100.245094
1360.000000	100.246083
1359.000000	100.247489
1358.000000	100.248009
1357.000000	100.246830
1356.000000	100.244803
1355.000000	100.243213
1354.000000	100.241991
1353.000000	100.240555
1352.000000	100.239859
1351.000000	100.241610
1350.000000	100.245704
1349.000000	100.249675
1348.000000	100.251213
1347.000000	100.250093
1346.000000	100.247329
1345.000000	100.243931
1344.000000	100.240816
1343.000000	100.238462
1342.000000	100.236022
1341.000000	100.232079
1340.000000	100.227410
1339.000000	100.225543
1338.000000	100.228678
1337.000000	100.234854
1336.000000	100.240534
1335.000000	100.244231
1334.000000	100.246393
1333.000000	100.247241
1332.000000	100.246303
1331.000000	100.243823
1330.000000	100.241352
1329.000000	100.240514
1328.000000	100.241699
1327.000000	100.243939
1326.000000	100.245707
1325.000000	100.246059
1324.000000	100.245528
1323.000000	100.245695
1322.000000	100.247411
1321.000000	100.249796
1320.000000	100.251233
1319.000000	100.250759
1318.000000	100.248193
1317.000000	100.243895
1316.000000	100.239114
1315.000000	100.235777
1314.000000	100.235055
1313.000000	100.236551
1312.000000	100.239386
1311.000000	100.243213
1310.000000	100.247469
1309.000000	100.250649
1308.000000	100.251474
1307.000000	100.250142
1306.000000	100.247640
1305.000000	100.244603
1304.000000	100.241889
1303.000000	100.241236
1302.000000	100.243563
1301.000000	100.247025
1300.000000	100.248412
1299.000000	100.246589
1298.000000	100.243481
1297.000000	100.241704
1296.000000	100.242079
1295.000000	100.243624
1294.000000	100.245002
1293.000000	100.245563
1292.000000	100.245354
1291.000000	100.244292
1290.000000	100.241519
1289.000000	100.236305
1288.000000	100.229674
1287.000000	100.223960
1286.000000	100.220253
1285.000000	100.217686
1284.000000	100.215735
1283.000000	100.215214
1282.000000	100.215712
1281.000000	100.214119
1280.000000	100.207892
1279.000000	100.198557
1278.000000	100.189898
1277.000000	100.183714
1276.000000	100.179707
1275.000000	100.178368
1274.000000	100.180923
1273.000000	100.186502
1272.000000	100.191981
1271.000000	100.195124
1270.000000	100.196074
1269.000000	100.195711
1268.000000	100.194659
1267.000000	100.194034
1266.000000	100.194902
1265.000000	100.196549
1264.000000	100.197165
1263.000000	100.196357
1262.000000	100.195098
1261.000000	100.193156
1260.000000	100.188920
1259.000000	100.182238
1258.000000	100.175090
1257.000000	100.168689
1256.000000	100.162070
1255.000000	100.154241
1254.000000	100.145531
1253.000000	100.135813
1252.000000	100.123698
1251.000000	100.109388
1250.000000	100.096633
1249.000000	100.089453
1248.000000	100.087401
1247.000000	100.085691
1246.000000	100.079653
1245.000000	100.067763
1244.000000	100.050947
1243.000000	100.031128
1242.000000	100.011001
1241.000000	99.993421
1240.000000	99.979574
1239.000000	99.968254
1238.000000	99.957948
1237.000000	99.949028
1236.000000	99.942417
1235.000000	99.936273
1234.000000	99.926203
1233.000000	99.909786
1232.000000	99.889109
1231.000000	99.867379
1230.000000	99.844457
1229.000000	99.817823
1228.000000	99.786825
1227.000000	99.753183
1226.000000	99.717659
1225.000000	99.679097
1224.000000	99.637021
1223.000000	99.592146
1222.000000	99.543396
1221.000000	99.487703
1220.000000	99.424663
1219.000000	99.358899
1218.000000	99.295500
1217.000000	99.234620
1216.000000	99.172587
1215.000000	99.106689
1214.000000	99.037053
1213.000000	98.965494
1212.000000	98.894342
1211.000000	98.824930
1210.000000	98.755709
1209.000000	98.683501
1208.000000	98.607745
1207.000000	98.531500
1206.000000	98.457060
1205.000000	98.382992
1204.000000	98.307046
1203.000000	98.229668
1202.000000	98.153333
1201.000000	98.080610
1200.000000	98.013641
1199.000000	97.952520
1198.000000	97.892820
1197.000000	97.827950
1196.000000	97.755684
1195.000000	97.679869
1194.000000	97.604603
1193.000000	97.529834
1192.000000	97.454266
1191.000000	97.379077
1190.000000	97.306051
1189.000000	97.234255
1188.000000	97.160945
1187.000000	97.084488
1186.000000	97.005323
1185.000000	96.925508
1184.000000	96.847324
1183.000000	96.769966
1182.000000	96.688057
1181.000000	96.597001
1180.000000	96.499697
1179.000000	96.403761
1178.000000	96.311764
1177.000000	96.218777
1176.000000	96.120039
1175.000000	96.015768
1174.000000	95.907400
1173.000000	95.794948
1172.000000	95.680502
1171.000000	95.569090
1170.000000	95.463244
1169.000000	95.361029
1168.000000	95.261408
1167.000000	95.167129
1166.000000	95.081331
1165.000000	95.007534
1164.000000	94.954765
1163.000000	94.935384
1162.000000	94.953389
1161.000000	94.998687
1160.000000	95.054549
1159.000000	95.106014
1158.000000	95.140353
1157.000000	95.147126
1156.000000	95.122907
1155.000000	95.072916
1154.000000	95.005284
1153.000000	94.925994
1152.000000	94.840122
1151.000000	94.753037
1150.000000	94.667579
1149.000000	94.583701
1148.000000	94.502530
1147.000000	94.426398
1146.000000	94.353577
1145.000000	94.278118
1144.000000	94.196699
1143.000000	94.111001
1142.000000	94.022572
1141.000000	93.931088
1140.000000	93.838839
1139.000000	93.750503
1138.000000	93.666468
1137.000000	93.582368
1136.000000	93.496890
1135.000000	93.413569
1134.000000	93.333009
1133.000000	93.250084
1132.000000	93.161114
1131.000000	93.067592
1130.000000	92.971252
1129.000000	92.872284
1128.000000	92.774011
1127.000000	92.681766
1126.000000	92.594674
1125.000000	92.505491
1124.000000	92.410452
1123.000000	92.312263
1122.000000	92.212608
1121.000000	92.110429
1120.000000	92.009054
1119.000000	91.915033
1118.000000	91.827302
1117.000000	91.737723
1116.000000	91.645161
1115.000000	91.558228
1114.000000	91.480280
1113.000000	91.403040
1112.000000	91.320101
1111.000000	91.235707
1110.000000	91.154451
1109.000000	91.073112
1108.000000	90.989003
1107.000000	90.906290
1106.000000	90.826980
1105.000000	90.744361
1104.000000	90.652182
1103.000000	90.553293
1102.000000	90.454402
1101.000000	90.359973
1100.000000	90.275189
1099.000000	90.205383
1098.000000	90.147171
1097.000000	90.088190
1096.000000	90.020466
1095.000000	89.947152
1094.000000	89.873819
1093.000000	89.802278
1092.000000	89.735689
1091.000000	89.679520
1090.000000	89.633209
1089.000000	89.589647
1088.000000	89.545860
1087.000000	89.505219
1086.000000	89.467266
1085.000000	89.425712
1084.000000	89.378787
1083.000000	89.331459
1082.000000	89.285840
1081.000000	89.240292
1080.000000	89.199082
1079.000000	89.170044
1078.000000	89.149948
1077.000000	89.124946
1076.000000	89.088522
1075.000000	89.045988
1074.000000	88.998262
1073.000000	88.934979
1072.000000	88.848381
1071.000000	88.741348
1070.000000	88.616797
1069.000000	88.470914
1068.000000	88.302675
1067.000000	88.119826
1066.000000	87.930396
1065.000000	87.737751
1064.000000	87.547503
1063.000000	87.367851
1062.000000	87.198991
1061.000000	87.033507
1060.000000	86.870221
1059.000000	86.715456
1058.000000	86.568453
1057.000000	86.419801
1056.000000	86.267703
1055.000000	86.121209
1054.000000	85.982891
1053.000000	85.842581
1052.000000	85.693388
1051.000000	85.539226
1050.000000	85.381193
1049.000000	85.213277
1048.000000	85.037441
1047.000000	84.864807
1046.000000	84.696277
1045.000000	84.519574
1044.000000	84.330178
1043.000000	84.138955
1042.000000	83.954782
1041.000000	83.775686
1040.000000	83.601751
1039.000000	83.439779
1038.000000	83.288933
1037.000000	83.138375
1036.000000	82.986141
1035.000000	82.844859
1034.000000	82.722442
1033.000000	82.612822
1032.000000	82.511436
1031.000000	82.423659
1030.000000	82.351362
1029.000000	82.286738
1028.000000	82.225866
1027.000000	82.173305
1026.000000	82.127309
1025.000000	82.076079
1024.000000	82.015124
1023.000000	81.954012
1022.000000	81.900541
1021.000000	81.852434
1020.000000	81.808331
1019.000000	81.771136
1018.000000	81.735949
1017.000000	81.690777
1016.000000	81.634750
1015.000000	81.580762
1014.000000	81.535484
1013.000000	81.491751
1012.000000	81.444775
1011.000000	81.400328
1010.000000	81.362156
1009.000000	81.326146
1008.000000	81.291316
1007.000000	81.262451
1006.000000	81.238643
1005.000000	81.213831
1004.000000	81.191187
1003.000000	81.181495
1002.000000	81.184745
1001.000000	81.188963
1000.000000	81.189470
999.000000	81.193048
998.000000	81.201000
997.000000	81.205967
996.000000	81.209116
995.000000	81.222933
994.000000	81.252102
993.000000	81.287247
992.000000	81.321273
991.000000	81.356507
990.000000	81.392966
989.000000	81.426518
988.000000	81.462411
987.000000	81.514021
986.000000	81.584086
985.000000	81.662711
984.000000	81.746863
983.000000	81.845520
982.000000	81.962275
981.000000	82.089615
980.000000	82.224107
979.000000	82.370923
978.000000	82.529746
977.000000	82.692949
976.000000	82.861772
975.000000	83.047705
974.000000	83.252977
973.000000	83.464969
972.000000	83.674616
971.000000	83.885790
970.000000	84.102230
969.000000	84.320070
968.000000	84.537913
967.000000	84.760203
966.000000	84.985652
965.000000	85.205281
964.000000	85.416351
963.000000	85.625964
962.000000	85.837131
961.000000	86.043278
960.000000	86.239984
959.000000	86.430520
958.000000	86.616764
957.000000	86.796210
956.000000	86.970364
955.000000	87.143778
954.000000	87.311985
953.000000	87.463051
952.000000	87.594615
951.000000	87.717712
950.000000	87.840619
949.000000	87.960618
948.000000	88.075171
947.000000	88.188030
946.000000	88.298846
945.000000	88.398783
944.000000	88.483249
943.000000	88.559717
942.000000	88.637294
941.000000	88.716580
940.000000	88.794438
939.000000	88.870395
938.000000	88.944143
937.000000	89.014637
936.000000	89.085066
935.000000	89.160907
934.000000	89.240756
933.000000	89.317788
932.000000	89.392274
931.000000	89.472919
930.000000	89.563023
929.000000	89.654946
928.000000	89.741535
927.000000	89.823715
926.000000	89.903586
925.000000	89.979290
924.000000	90.050777
923.000000	90.122423
922.000000	90.195956
921.000000	90.267717
920.000000	90.335542
919.000000	90.401339
918.000000	90.465185
917.000000	90.524552
916.000000	90.580992
915.000000	90.639902
914.000000	90.702834
913.000000	90.768775
912.000000	90.843962
911.000000	90.940051
910.000000	91.059422
909.000000	91.190849
908.000000	91.322891
907.000000	91.454639
906.000000	91.591938
905.000000	91.741402
904.000000	91.909521
903.000000	92.098703
902.000000	92.301489
901.000000	92.505215
900.000000	92.703157
899.000000	92.894971
898.000000	93.078658
897.000000	93.251656
896.000000	93.418723
895.000000	93.588196
894.000000	93.759497
893.000000	93.923619
892.000000	94.076998
891.000000	94.225637
890.000000	94.373957
889.000000	94.518315
888.000000	94.653988
887.000000	94.781295
886.000000	94.903057
885.000000	95.022625
884.000000	95.145138
883.000000	95.273215
882.000000	95.400596
881.000000	95.517769
880.000000	95.624780
879.000000	95.731133
878.000000	95.842896
877.000000	95.958431
876.000000	96.077058
875.000000	96.201499
874.000000	96.329622
873.000000	96.453469
872.000000	96.569832
871.000000	96.684519
870.000000	96.803978
869.000000	96.928742
868.000000	97.055777
867.000000	97.180955
866.000000	97.299411
865.000000	97.410010
864.000000	97.518882
863.000000	97.631707
862.000000	97.743833
861.000000	97.846250
860.000000	97.940320
859.000000	98.036966
858.000000	98.140190
857.000000	98.240875
856.000000	98.329408
855.000000	98.405695
854.000000	98.473613
853.000000	98.533437
852.000000	98.584186
851.000000	98.627775
850.000000	98.667229
849.000000	98.705258
848.000000	98.745922
847.000000	98.791172
846.000000	98.833771
845.000000	98.861092
844.000000	98.869033
843.000000	98.865400
842.000000	98.856171
841.000000	98.835712
840.000000	98.795972
839.000000	98.739577
838.000000	98.677723
837.000000	98.618533
836.000000	98.562289
835.000000	98.505258
834.000000	98.444356
833.000000	98.380889
832.000000	98.322999
831.000000	98.281737
830.000000	98.262133
829.000000	98.260524
828.000000	98.270797
827.000000	98.287791
826.000000	98.304448
825.000000	98.314424
824.000000	98.320754
823.000000	98.333746
822.000000	98.356346
821.000000	98.379018
820.000000	98.391050
819.000000	98.388314
818.000000	98.368564
817.000000	98.328231
816.000000	98.266920
815.000000	98.187176
814.000000	98.085190
813.000000	97.947916
812.000000	97.763784
811.000000	97.530216
810.000000	97.245956
809.000000	96.903172
808.000000	96.495302
807.000000	96.029013
806.000000	95.521683
805.000000	94.991164
804.000000	94.455469
803.000000	93.938165
802.000000	93.465442
801.000000	93.059981
800.000000	92.741445
799.000000	92.524655
798.000000	92.409614
797.000000	92.379580
796.000000	92.414833
795.000000	92.502493
794.000000	92.629818
793.000000	92.776682
792.000000	92.920714
791.000000	93.045340
790.000000	93.140124
789.000000	93.197801
788.000000	93.213080
787.000000	93.181428
786.000000	93.099721
785.000000	92.972081
784.000000	92.812899
783.000000	92.638394
782.000000	92.458241
781.000000	92.283769
780.000000	92.140628
779.000000	92.059531
778.000000	92.052542
777.000000	92.109574
776.000000	92.218384
775.000000	92.374246
774.000000	92.567895
773.000000	92.779320
772.000000	92.990314
771.000000	93.192672
770.000000	93.379190
769.000000	93.537428
768.000000	93.659700
767.000000	93.752323
766.000000	93.828652
765.000000	93.896994
764.000000	93.958575
763.000000	94.012483
762.000000	94.060143
761.000000	94.109323
760.000000	94.173690
759.000000	94.261457
758.000000	94.363769
757.000000	94.461820
756.000000	94.546134
755.000000	94.621284
754.000000	94.692728
753.000000	94.760040
752.000000	94.825141
751.000000	94.895761
750.000000	94.975345
749.000000	95.058070
748.000000	95.139297
747.000000	95.224188
746.000000	95.321280
745.000000	95.433608
744.000000	95.560084
743.000000	95.698844
742.000000	95.844534
741.000000	95.988360
740.000000	96.126049
739.000000	96.261615
738.000000	96.399142
737.000000	96.534170
736.000000	96.656421
735.000000	96.758298
734.000000	96.839176
733.000000	96.904622
732.000000	96.962568
731.000000	97.016999
730.000000	97.064289
729.000000	97.098351
728.000000	97.119081
727.000000	97.133422
726.000000	97.151006
725.000000	97.183075
724.000000	97.241176
723.000000	97.327641
722.000000	97.427732
721.000000	97.519882
720.000000	97.595774
719.000000	97.663803
718.000000	97.732087
717.000000	97.797612
716.000000	97.854924
715.000000	97.905887
714.000000	97.955537
713.000000	98.004240
712.000000	98.048556
711.000000	98.085642
710.000000	98.113334
709.000000	98.129780
708.000000	98.136008
707.000000	98.135497
706.000000	98.128940
705.000000	98.111752
704.000000	98.076505
703.000000	98.013528
702.000000	97.909087
701.000000	97.749000
700.000000	97.527226
699.000000	97.250507
698.000000	96.940264
697.000000	96.637049
696.000000	96.396676
695.000000	96.265547
694.000000	96.253401
693.000000	96.334300
692.000000	96.473027
691.000000	96.644351
690.000000	96.829758
689.000000	97.009578
688.000000	97.167137
687.000000	97.295962
686.000000	97.397885
685.000000	97.478704
684.000000	97.547948
683.000000	97.615465
682.000000	97.684558
681.000000	97.753137
680.000000	97.821475
679.000000	97.891239
678.000000	97.956795
677.000000	98.008688
676.000000	98.049591
675.000000	98.095488
674.000000	98.156879
673.000000	98.225282
672.000000	98.282948
671.000000	98.321511
670.000000	98.347805
669.000000	98.380642
668.000000	98.439964
667.000000	98.520233
666.000000	98.596475
665.000000	98.657837
664.000000	98.706804
663.000000	98.743832
662.000000	98.762987
661.000000	98.762265
660.000000	98.754157
659.000000	98.758370
658.000000	98.781817
657.000000	98.810644
656.000000	98.824712
655.000000	98.813432
654.000000	98.781212
653.000000	98.743453
652.000000	98.715892
651.000000	98.703821
650.000000	98.702513
