4000.000000	100.914657
3999.000000	100.914352
3998.000000	100.913586
3997.000000	100.911771
3996.000000	100.909330
3995.000000	100.907580
3994.000000	100.907682
3993.000000	100.909592
3992.000000	100.912048
3991.000000	100.913768
3990.000000	100.914616
3989.000000	100.915454
3988.000000	100.916905
3987.000000	100.918431
3986.000000	100.918856
3985.000000	100.917619
3984.000000	100.915415
3983.000000	100.913668
3982.000000	100.913250
3981.000000	100.913951
3980.000000	100.914950
3979.000000	100.915637
3978.000000	100.915986
3977.000000	100.916191
3976.000000	100.916218
3975.000000	100.915872
3974.000000	100.915220
3973.000000	100.914674
3972.000000	100.914560
3971.000000	100.914684
3970.000000	100.914532
3969.000000	100.913916
3968.000000	100.913298
3967.000000	100.913360
3966.000000	100.914289
3965.000000	100.915520
3964.000000	100.916230
3963.000000	100.916133
3962.000000	100.915748
3961.000000	100.915768
3960.000000	100.916220
3959.000000	100.916354
3958.000000	100.915399
3957.000000	100.913364
3956.000000	100.911142
3955.000000	100.909848
3954.000000	100.909918
3953.000000	100.910768
3952.000000	100.911173
3951.000000	100.910225
3950.000000	100.908130
3949.000000	100.906090
3948.000000	100.905226
3947.000000	100.905673
3946.000000	100.906864
3945.000000	100.908294
3944.000000	100.909705
3943.000000	100.910667
3942.000000	100.910419
3941.000000	100.908450
3940.000000	100.905245
3939.000000	100.902329
3938.000000	100.901229
3937.000000	100.902395
3936.000000	100.905101
3935.000000	100.908170
3934.000000	100.910841
3933.000000	100.912865
3932.000000	100.914058
3931.000000	100.914111
3930.000000	100.912964
3929.000000	100.911178
3928.000000	100.909762
3927.000000	100.909523
3926.000000	100.910408
3925.000000	100.911401
3924.000000	100.911391
3923.000000	100.910161
3922.000000	100.908470
3921.000000	100.907282
3920.000000	100.906978
3919.000000	100.907233
3918.000000	100.907460
3917.000000	100.907333
3916.000000	100.906869
3915.000000	100.906115
3914.000000	100.904972
3913.000000	100.903339
3912.000000	100.901463
3911.000000	100.899953
3910.000000	100.899363
3909.000000	100.899757
3908.000000	100.900586
3907.000000	100.901012
3906.000000	100.900472
3905.000000	100.899113
3904.000000	100.897823
3903.000000	100.897484
3902.000000	100.898093
3901.000000	100.898867
3900.000000	100.899185
3899.000000	100.899310
3898.000000	100.899987
3897.000000	100.901407
3896.000000	100.902865
3895.000000	100.903238
3894.000000	100.901799
3893.000000	100.898855
3892.000000	100.895949
3891.000000	100.894720
3890.000000	100.895267
3889.000000	100.896267
3888.000000	100.896574
3887.000000	100.896143
3886.000000	100.895692
3885.000000	100.895806
3884.000000	100.896209
3883.000000	100.895989
3882.000000	100.894695
3881.000000	100.893184
3880.000000	100.893137
3879.000000	100.895212
3878.000000	100.898238
3877.000000	100.900562
3876.000000	100.901621
3875.000000	100.902174
3874.000000	100.903556
3873.000000	100.906649
3872.000000	100.911037
3871.000000	100.914910
3870.000000	100.916440
3869.000000	100.915477
3868.000000	100.913357
3867.000000	100.911439
3866.000000	100.910113
3865.000000	100.908906
3864.000000	100.907519
3863.000000	100.906133
3862.000000	100.905055
3861.000000	100.904483
3860.000000	100.904617
3859.000000	100.905440
3858.000000	100.906658
3857.000000	100.907987
3856.000000	100.909416
3855.000000	100.910886
3854.000000	100.912130
3853.000000	100.913449
3852.000000	100.915148
3851.000000	100.916389
3850.000000	100.916462
3849.000000	100.915552
3848.000000	100.914383
3847.000000	100.913678
3846.000000	100.913702
3845.000000	100.914306
3844.000000	100.915181
3843.000000	100.915931
3842.000000	100.916229
3841.000000	100.915940
3840.000000	100.915198
3839.000000	100.914496
3838.000000	100.914434
3837.000000	100.915116
3836.000000	100.915921
3835.000000	100.916037
3834.000000	100.915169
3833.000000	100.913704
3832.000000	100.912500
3831.000000	100.912258
3830.000000	100.913039
3829.000000	100.914265
3828.000000	100.915159
3827.000000	100.915299
3826.000000	100.914797
3825.000000	100.914089
3824.000000	100.913553
3823.000000	100.913225
3822.000000	100.912870
3821.000000	100.912449
3820.000000	100.912255
3819.000000	100.912264
3818.000000	100.912110
3817.000000	100.911569
3816.000000	100.910631
3815.000000	100.909401
3814.000000	100.907923
3813.000000	100.906166
3812.000000	100.904280
3811.000000	100.902645
3810.000000	100.901678
3809.000000	100.901597
3808.000000	100.902371
3807.000000	100.903922
3806.000000	100.906133
3805.000000	100.908471
3804.000000	100.910102
3803.000000	100.910406
3802.000000	100.909567
3801.000000	100.908872
3800.000000	100.909281
3799.000000	100.910084
3798.000000	100.909948
3797.000000	100.908428
3796.000000	100.906363
3795.000000	100.905203
3794.000000	100.905637
3793.000000	100.907200
3792.000000	100.908828
3791.000000	100.909680
3790.000000	100.909645
3789.000000	100.909180
3788.000000	100.908833
3787.000000	100.908852
3786.000000	100.909157
3785.000000	100.909555
3784.000000	100.909920
3783.000000	100.910259
3782.000000	100.910675
3781.000000	100.911301
3780.000000	100.912186
3779.000000	100.913168
3778.000000	100.913918
3777.000000	100.914217
3776.000000	100.914189
3775.000000	100.914141
3774.000000	100.914233
3773.000000	100.914370
3772.000000	100.914435
3771.000000	100.914513
3770.000000	100.914861
3769.000000	100.915553
3768.000000	100.916182
3767.000000	100.916227
3766.000000	100.915642
3765.000000	100.914884
3764.000000	100.914442
3763.000000	100.914376
3762.000000	100.914364
3761.000000	100.914020
3760.000000	100.913268
3759.000000	100.912461
3758.000000	100.912005
3757.000000	100.911992
3756.000000	100.912366
3755.000000	100.913207
3754.000000	100.914487
3753.000000	100.915542
3752.000000	100.915200
3751.000000	100.913192
3750.000000	100.911185
3749.000000	100.910680
3748.000000	100.911226
3747.000000	100.911623
3746.000000	100.910991
3745.000000	100.909190
3744.000000	100.907464
3743.000000	100.907017
3742.000000	100.907251
3741.000000	100.906927
3740.000000	100.905767
3739.000000	100.904733
3738.000000	100.904930
3737.000000	100.906011
3736.000000	100.906188
3735.000000	100.904443
3734.000000	100.901767
3733.000000	100.899660
3732.000000	100.898814
3731.000000	100.899097
3730.000000	100.899546
3729.000000	100.898669
3728.000000	100.895145
3727.000000	100.889007
3726.000000	100.882493
3725.000000	100.878492
3724.000000	100.877517
3723.000000	100.877207
3722.000000	100.875151
3721.000000	100.871084
3720.000000	100.866391
3719.000000	100.862432
3718.000000	100.859422
3717.000000	100.856776
3716.000000	100.854208
3715.000000	100.852185
3714.000000	100.851228
3713.000000	100.850490
3712.000000	100.847680
3711.000000	100.841242
3710.000000	100.832148
3709.000000	100.823008
3708.000000	100.815775
3707.000000	100.810683
3706.000000	100.806741
3705.000000	100.802818
3704.000000	100.798463
3703.000000	100.794080
3702.000000	100.790352
3701.000000	100.787195
3700.000000	100.783356
3699.000000	100.777888
3698.000000	100.771549
3697.000000	100.766085
3696.000000	100.762341
3695.000000	100.759362
3694.000000	100.755381
3693.000000	100.749528
3692.000000	100.742701
3691.000000	100.736512
3690.000000	100.731695
3689.000000	100.728174
3688.000000	100.725826
3687.000000	100.723707
3686.000000	100.720355
3685.000000	100.715099
3684.000000	100.708188
3683.000000	100.700384
3682.000000	100.692416
3681.000000	100.684799
3680.000000	100.677531
3679.000000	100.670656
3678.000000	100.664650
3677.000000	100.659039
3676.000000	100.652269
3675.000000	100.645547
3674.000000	100.641110
3673.000000	100.637316
3672.000000	100.631644
3671.000000	100.623579
3670.000000	100.614871
3669.000000	100.608040
3668.000000	100.602378
3667.000000	100.594387
3666.000000	100.582841
3665.000000	100.569842
3664.000000	100.558165
3663.000000	100.549049
3662.000000	100.541746
3661.000000	100.534819
3660.000000	100.527548
3659.000000	100.520711
3658.000000	100.515883
3657.000000	100.513691
3656.000000	100.512855
3655.000000	100.511195
3654.000000	100.507702
3653.000000	100.503935
3652.000000	100.502757
3651.000000	100.504528
3650.000000	100.505110
3649.000000	100.500260
3648.000000	100.491309
3647.000000	100.482644
3646.000000	100.476360
3645.000000	100.471489
3644.000000	100.465953
3643.000000	100.458480
3642.000000	100.449268
3641.000000	100.439947
3640.000000	100.432474
3639.000000	100.427792
3638.000000	100.425630
3637.000000	100.425557
3636.000000	100.427588
3635.000000	100.431142
3634.000000	100.433941
3633.000000	100.433215
3632.000000	100.428266
3631.000000	100.421296
3630.000000	100.415646
3629.000000	100.413883
3628.000000	100.416695
3627.000000	100.420794
3626.000000	100.421406
3625.000000	100.417704
3624.000000	100.412815
3623.000000	100.410549
3622.000000	100.412710
3621.000000	100.417967
3620.000000	100.423805
3619.000000	100.430248
3618.000000	100.439577
3617.000000	100.451813
3616.000000	100.463789
3615.000000	100.471699
3614.000000	100.473331
3613.000000	100.469464
3612.000000	100.463786
3611.000000	100.460862
3610.000000	100.463588
3609.000000	100.471290
3608.000000	100.480046
3607.000000	100.486221
3606.000000	100.489291
3605.000000	100.491378
3604.000000	100.494734
3603.000000	100.499858
3602.000000	100.505551
3601.000000	100.510221
3600.000000	100.513407
3599.000000	100.515916
3598.000000	100.518389
3597.000000	100.520651
3596.000000	100.522521
3595.000000	100.524220
3594.000000	100.526086
3593.000000	100.527959
3592.000000	100.529368
3591.000000	100.530566
3590.000000	100.532701
3589.000000	100.536379
3588.000000	100.540673
3587.000000	100.544507
3586.000000	100.547621
3585.000000	100.549605
3584.000000	100.549440
3583.000000	100.546523
3582.000000	100.541518
3581.000000	100.536227
3580.000000	100.532385
3579.000000	100.530485
3578.000000	100.529821
3577.000000	100.529457
3576.000000	100.529168
3575.000000	100.529347
3574.000000	100.530440
3573.000000	100.532518
3572.000000	100.535083
3571.000000	100.537131
3570.000000	100.537734
3569.000000	100.536587
3568.000000	100.534423
3567.000000	100.532855
3566.000000	100.532768
3565.000000	100.533008
3564.000000	100.532019
3563.000000	100.529921
3562.000000	100.528250
3561.000000	100.528201
3560.000000	100.529375
3559.000000	100.530209
3558.000000	100.529494
3557.000000	100.527420
3556.000000	100.525269
3555.000000	100.524222
3554.000000	100.524328
3553.000000	100.524650
3552.000000	100.524268
3551.000000	100.523118
3550.000000	100.521794
3549.000000	100.520906
3548.000000	100.520631
3547.000000	100.520753
3546.000000	100.520896
3545.000000	100.520813
3544.000000	100.520524
3543.000000	100.520170
3542.000000	100.519846
3541.000000	100.519557
3540.000000	100.519263
3539.000000	100.518938
3538.000000	100.518642
3537.000000	100.518491
3536.000000	100.518526
3535.000000	100.518645
3534.000000	100.518686
3533.000000	100.518546
3532.000000	100.518220
3531.000000	100.517807
3530.000000	100.517490
3529.000000	100.517435
3528.000000	100.517629
3527.000000	100.517871
3526.000000	100.517998
3525.000000	100.518055
3524.000000	100.518166
3523.000000	100.518260
3522.000000	100.518104
3521.000000	100.517643
3520.000000	100.517166
3519.000000	100.517016
3518.000000	100.517170
3517.000000	100.517263
3516.000000	100.517064
3515.000000	100.516794
3514.000000	100.516879
3513.000000	100.517477
3512.000000	100.518345
3511.000000	100.519080
3510.000000	100.519468
3509.000000	100.519650
3508.000000	100.519997
3507.000000	100.520789
3506.000000	100.521886
3505.000000	100.522672
3504.000000	100.522557
3503.000000	100.521582
3502.000000	100.520429
3501.000000	100.519796
3500.000000	100.519749
3499.000000	100.519872
3498.000000	100.519778
3497.000000	100.519454
3496.000000	100.519141
3495.000000	100.518953
3494.000000	100.518736
3493.000000	100.518304
3492.000000	100.517720
3491.000000	100.517261
3490.000000	100.517121
3489.000000	100.517189
3488.000000	100.517144
3487.000000	100.516777
3486.000000	100.516139
3485.000000	100.515395
3484.000000	100.514625
3483.000000	100.513829
3482.000000	100.513072
3481.000000	100.512485
3480.000000	100.512104
3479.000000	100.511816
3478.000000	100.511464
3477.000000	100.510973
3476.000000	100.510350
3475.000000	100.509619
3474.000000	100.508808
3473.000000	100.507961
3472.000000	100.507140
3471.000000	100.506361
3470.000000	100.505583
3469.000000	100.504730
3468.000000	100.503770
3467.000000	100.502742
3466.000000	100.501740
3465.000000	100.500828
3464.000000	100.499992
3463.000000	100.499170
3462.000000	100.498307
3461.000000	100.497385
3460.000000	100.496403
3459.000000	100.495361
3458.000000	100.494250
3457.000000	100.493082
3456.000000	100.491900
3455.000000	100.490755
3454.000000	100.489669
3453.000000	100.488634
3452.000000	100.487607
3451.000000	100.486534
3450.000000	100.485361
3449.000000	100.484071
3448.000000	100.482689
3447.000000	100.481287
3446.000000	100.479938
3445.000000	100.478678
3444.000000	100.477508
3443.000000	100.476419
3442.000000	100.475400
3441.000000	100.474409
3440.000000	100.473361
3439.000000	100.472170
3438.000000	100.470817
3437.000000	100.469403
3436.000000	100.468098
3435.000000	100.467044
3434.000000	100.466288
3433.000000	100.465734
3432.000000	100.465154
3431.000000	100.464310
3430.000000	100.463138
3429.000000	100.461848
3428.000000	100.460771
3427.000000	100.460081
3426.000000	100.459713
3425.000000	100.459474
3424.000000	100.459101
3423.000000	100.458303
3422.000000	100.456921
3421.000000	100.455173
3420.000000	100.453600
3419.000000	100.452617
3418.000000	100.452249
3417.000000	100.452295
3416.000000	100.452583
3415.000000	100.452913
3414.000000	100.452924
3413.000000	100.452282
3412.000000	100.450996
3411.000000	100.449454
3410.000000	100.448125
3409.000000	100.447313
3408.000000	100.447189
3407.000000	100.447818
3406.000000	100.449052
3405.000000	100.450501
3404.000000	100.451723
3403.000000	100.452442
3402.000000	100.452630
3401.000000	100.452479
3400.000000	100.452276
3399.000000	100.452235
3398.000000	100.452385
3397.000000	100.452621
3396.000000	100.452841
3395.000000	100.453007
3394.000000	100.453095
3393.000000	100.453080
3392.000000	100.453013
3391.000000	100.453013
3390.000000	100.453081
3389.000000	100.452975
3388.000000	100.452425
3387.000000	100.451547
3386.000000	100.450940
3385.000000	100.451205
3384.000000	100.452361
3383.000000	100.453777
3382.000000	100.454693
3381.000000	100.454839
3380.000000	100.454439
3379.000000	100.453905
3378.000000	100.453601
3377.000000	100.453792
3376.000000	100.454579
3375.000000	100.455770
3374.000000	100.456939
3373.000000	100.457757
3372.000000	100.458242
3371.000000	100.458665
3370.000000	100.459263
3369.000000	100.460068
3368.000000	100.460979
3367.000000	100.461882
3366.000000	100.462697
3365.000000	100.463376
3364.000000	100.463899
3363.000000	100.464291
3362.000000	100.464634
3361.000000	100.465058
3360.000000	100.465672
3359.000000	100.466494
3358.000000	100.467442
3357.000000	100.468404
3356.000000	100.469328
3355.000000	100.470215
3354.000000	100.471049
3353.000000	100.471774
3352.000000	100.472365
3351.000000	100.472896
3350.000000	100.473522
3349.000000	100.474377
3348.000000	100.475496
3347.000000	100.476795
3346.000000	100.478094
3345.000000	100.479204
3344.000000	100.480032
3343.000000	100.480611
3342.000000	100.481071
3341.000000	100.481602
3340.000000	100.482353
3339.000000	100.483375
3338.000000	100.484584
3337.000000	100.485810
3336.000000	100.486930
3335.000000	100.487924
3334.000000	100.488834
3333.000000	100.489701
3332.000000	100.490540
3331.000000	100.491334
3330.000000	100.492049
3329.000000	100.492665
3328.000000	100.493224
3327.000000	100.493853
3326.000000	100.494691
3325.000000	100.495764
3324.000000	100.496951
3323.000000	100.498077
3322.000000	100.499060
3321.000000	100.499954
3320.000000	100.500871
3319.000000	100.501875
3318.000000	100.502962
3317.000000	100.504102
3316.000000	100.505268
3315.000000	100.506413
3314.000000	100.507474
3313.000000	100.508425
3312.000000	100.509318
3311.000000	100.510262
3310.000000	100.511323
3309.000000	100.512474
3308.000000	100.513621
3307.000000	100.514665
3306.000000	100.515563
3305.000000	100.516347
3304.000000	100.517114
3303.000000	100.517943
3302.000000	100.518849
3301.000000	100.519795
3300.000000	100.520723
3299.000000	100.521601
3298.000000	100.522439
3297.000000	100.523285
3296.000000	100.524183
3295.000000	100.525122
3294.000000	100.526041
3293.000000	100.526878
3292.000000	100.527625
3291.000000	100.528326
3290.000000	100.529033
3289.000000	100.529778
3288.000000	100.530584
3287.000000	100.531464
3286.000000	100.532408
3285.000000	100.533384
3284.000000	100.534361
3283.000000	100.535311
3282.000000	100.536184
3281.000000	100.536918
3280.000000	100.537499
3279.000000	100.538014
3278.000000	100.538613
3277.000000	100.539388
3276.000000	100.540299
3275.000000	100.541205
3274.000000	100.541982
3273.000000	100.542647
3272.000000	100.543356
3271.000000	100.544232
3270.000000	100.545184
3269.000000	100.545950
3268.000000	100.546352
3267.000000	100.546494
3266.000000	100.546702
3265.000000	100.547261
3264.000000	100.548293
3263.000000	100.549754
3262.000000	100.551456
3261.000000	100.553101
3260.000000	100.554424
3259.000000	100.555395
3258.000000	100.556220
3257.000000	100.557156
3256.000000	100.558283
3255.000000	100.559475
3254.000000	100.560579
3253.000000	100.561580
3252.000000	100.562590
3251.000000	100.563715
3250.000000	100.564958
3249.000000	100.566251
3248.000000	100.567543
3247.000000	100.568826
3246.000000	100.570098
3245.000000	100.571335
3244.000000	100.572527
3243.000000	100.573700
3242.000000	100.574903
3241.000000	100.576172
3240.000000	100.577528
3239.000000	100.578980
3238.000000	100.580507
3237.000000	100.582058
3236.000000	100.583578
3235.000000	100.585051
3234.000000	100.586494
3233.000000	100.587935
3232.000000	100.589395
3231.000000	100.590882
3230.000000	100.592398
3229.000000	100.593942
3228.000000	100.595508
3227.000000	100.597085
3226.000000	100.598666
3225.000000	100.600246
3224.000000	100.601822
3223.000000	100.603387
3222.000000	100.604940
3221.000000	100.606484
3220.000000	100.608030
3219.000000	100.609586
3218.000000	100.611158
3217.000000	100.612743
3216.000000	100.614331
3215.000000	100.615912
3214.000000	100.617477
3213.000000	100.619027
3212.000000	100.620571
3211.000000	100.622113
3210.000000	100.623650
3209.000000	100.625172
3208.000000	100.626669
3207.000000	100.628134
3206.000000	100.629570
3205.000000	100.630983
3204.000000	100.632378
3203.000000	100.633759
3202.000000	100.635129
3201.000000	100.636487
3200.000000	100.637835
3199.000000	100.639175
3198.000000	100.640509
3197.000000	100.641838
3196.000000	100.643155
3195.000000	100.644440
3194.000000	100.645674
3193.000000	100.646860
3192.000000	100.648038
3191.000000	100.649267
3190.000000	100.650600
3189.000000	100.652034
3188.000000	100.653462
3187.000000	100.654736
3186.000000	100.655765
3185.000000	100.656555
3184.000000	100.657214
3183.000000	100.657922
3182.000000	100.658844
3181.000000	100.660051
3180.000000	100.661441
3179.000000	100.662811
3178.000000	100.664031
3177.000000	100.665093
3176.000000	100.665998
3175.000000	100.666701
3174.000000	100.667228
3173.000000	100.667796
3172.000000	100.668679
3171.000000	100.669925
3170.000000	100.671233
3169.000000	100.672162
3168.000000	100.672507
3167.000000	100.672487
3166.000000	100.672575
3165.000000	100.673096
3164.000000	100.674042
3163.000000	100.675265
3162.000000	100.676769
3161.000000	100.678598
3160.000000	100.680589
3159.000000	100.682461
3158.000000	100.684117
3157.000000	100.685696
3156.000000	100.687254
3155.000000	100.688559
3154.000000	100.689317
3153.000000	100.689500
3152.000000	100.689401
3151.000000	100.689462
3150.000000	100.690056
3149.000000	100.691318
3148.000000	100.693034
3147.000000	100.694722
3146.000000	100.696013
3145.000000	100.696928
3144.000000	100.697751
3143.000000	100.698734
3142.000000	100.699944
3141.000000	100.701325
3140.000000	100.702780
3139.000000	100.704178
3138.000000	100.705428
3137.000000	100.706595
3136.000000	100.707884
3135.000000	100.709462
3134.000000	100.711321
3133.000000	100.713276
3132.000000	100.715082
3131.000000	100.716595
3130.000000	100.717872
3129.000000	100.719118
3128.000000	100.720489
3127.000000	100.721931
3126.000000	100.723259
3125.000000	100.724377
3124.000000	100.725398
3123.000000	100.726572
3122.000000	100.728058
3121.000000	100.729828
3120.000000	100.731655
3119.000000	100.733248
3118.000000	100.734493
3117.000000	100.735532
3116.000000	100.736626
3115.000000	100.737848
3114.000000	100.739033
3113.000000	100.740029
3112.000000	100.740892
3111.000000	100.741826
3110.000000	100.742977
3109.000000	100.744338
3108.000000	100.745805
3107.000000	100.747277
3106.000000	100.748711
3105.000000	100.750113
3104.000000	100.751446
3103.000000	100.752548
3102.000000	100.753237
3101.000000	100.753525
3100.000000	100.753679
3099.000000	100.754048
3098.000000	100.754889
3097.000000	100.756357
3096.000000	100.758464
3095.000000	100.760926
3094.000000	100.763166
3093.000000	100.764660
3092.000000	100.765235
3091.000000	100.765059
3090.000000	100.764452
3089.000000	100.763764
3088.000000	100.763312
3087.000000	100.763207
3086.000000	100.763305
3085.000000	100.763457
3084.000000	100.763679
3083.000000	100.764025
3082.000000	100.764429
3081.000000	100.764779
3080.000000	100.764985
3079.000000	100.764892
3078.000000	100.764371
3077.000000	100.763691
3076.000000	100.763563
3075.000000	100.764401
3074.000000	100.765699
3073.000000	100.766453
3072.000000	100.766306
3071.000000	100.765988
3070.000000	100.766475
3069.000000	100.767874
3068.000000	100.769287
3067.000000	100.769734
3066.000000	100.769039
3065.000000	100.767739
3064.000000	100.766394
3063.000000	100.765141
3062.000000	100.763909
3061.000000	100.762818
3060.000000	100.762194
3059.000000	100.762244
3058.000000	100.762841
3057.000000	100.763599
3056.000000	100.764123
3055.000000	100.764249
3054.000000	100.764179
3053.000000	100.764292
3052.000000	100.764655
3051.000000	100.764844
3050.000000	100.764467
3049.000000	100.763703
3048.000000	100.762898
3047.000000	100.761691
3046.000000	100.759283
3045.000000	100.755929
3044.000000	100.753549
3043.000000	100.754031
3042.000000	100.756990
3041.000000	100.759706
3040.000000	100.759673
3039.000000	100.756944
3038.000000	100.753943
3037.000000	100.753048
3036.000000	100.754247
3035.000000	100.755111
3034.000000	100.753143
3033.000000	100.748207
3032.000000	100.742669
3031.000000	100.739061
3030.000000	100.737576
3029.000000	100.736113
3028.000000	100.732648
3027.000000	100.727297
3026.000000	100.722056
3025.000000	100.718730
3024.000000	100.717393
3023.000000	100.716976
3022.000000	100.716868
3021.000000	100.717294
3020.000000	100.718151
3019.000000	100.718254
3018.000000	100.716298
3017.000000	100.712275
3016.000000	100.707338
3015.000000	100.702441
3014.000000	100.697896
3013.000000	100.694058
3012.000000	100.691307
3011.000000	100.689010
3010.000000	100.685452
3009.000000	100.679528
3008.000000	100.672066
3007.000000	100.665108
3006.000000	100.660083
3005.000000	100.656621
3004.000000	100.652568
3003.000000	100.645415
3002.000000	100.634788
3001.000000	100.623758
3000.000000	100.616411
2999.000000	100.613430
2998.000000	100.611172
2997.000000	100.606102
2996.000000	100.599047
2995.000000	100.593615
2994.000000	100.590957
2993.000000	100.587994
2992.000000	100.581009
2991.000000	100.569598
2990.000000	100.556539
2989.000000	100.544931
2988.000000	100.536327
2987.000000	100.531022
2986.000000	100.528984
2985.000000	100.529939
2984.000000	100.532360
2983.000000	100.532561
2982.000000	100.525900
2981.000000	100.510517
2980.000000	100.490531
2979.000000	100.474285
2978.000000	100.468163
2977.000000	100.472134
2976.000000	100.481218
2975.000000	100.490682
2974.000000	100.499323
2973.000000	100.508430
2972.000000	100.519556
2971.000000	100.533969
2970.000000	100.552513
2969.000000	100.574070
2968.000000	100.594525
2967.000000	100.609213
2966.000000	100.617258
2965.000000	100.622301
2964.000000	100.628337
2963.000000	100.635989
2962.000000	100.643918
2961.000000	100.652474
2960.000000	100.663513
2959.000000	100.676701
2958.000000	100.688361
2957.000000	100.695135
2956.000000	100.697513
2955.000000	100.698958
2954.000000	100.702744
2953.000000	100.710383
2952.000000	100.721411
2951.000000	100.732903
2950.000000	100.740189
2949.000000	100.740333
2948.000000	100.735146
2947.000000	100.729576
2946.000000	100.727008
2945.000000	100.727473
2944.000000	100.730222
2943.000000	100.735910
2942.000000	100.745180
2941.000000	100.756495
2940.000000	100.766781
2939.000000	100.773813
2938.000000	100.777269
2937.000000	100.778399
2936.000000	100.779880
2935.000000	100.785329
2934.000000	100.796920
2933.000000	100.812693
2932.000000	100.827128
2931.000000	100.835479
2930.000000	100.837572
2929.000000	100.837281
2928.000000	100.838474
2927.000000	100.841688
2926.000000	100.844855
2925.000000	100.846599
2924.000000	100.847930
2923.000000	100.850450
2922.000000	100.853667
2921.000000	100.855013
2920.000000	100.852441
2919.000000	100.846098
2918.000000	100.837334
2917.000000	100.826995
2916.000000	100.815240
2915.000000	100.802472
2914.000000	100.789609
2913.000000	100.777438
2912.000000	100.766156
2911.000000	100.755551
2910.000000	100.745235
2909.000000	100.734768
2908.000000	100.724208
2907.000000	100.714674
2906.000000	100.707775
2905.000000	100.703977
2904.000000	100.701950
2903.000000	100.699963
2902.000000	100.697698
2901.000000	100.695949
2900.000000	100.694967
2899.000000	100.693734
2898.000000	100.691546
2897.000000	100.689383
2896.000000	100.688811
2895.000000	100.689892
2894.000000	100.691168
2893.000000	100.691716
2892.000000	100.692042
2891.000000	100.692456
2890.000000	100.691646
2889.000000	100.688212
2888.000000	100.683348
2887.000000	100.680644
2886.000000	100.682711
2885.000000	100.688624
2884.000000	100.695046
2883.000000	100.699377
2882.000000	100.701286
2881.000000	100.701790
2880.000000	100.702229
2879.000000	100.704290
2878.000000	100.709620
2877.000000	100.718089
2876.000000	100.726876
2875.000000	100.732671
2874.000000	100.735141
2873.000000	100.737237
2872.000000	100.741634
2871.000000	100.747712
2870.000000	100.752877
2869.000000	100.756157
2868.000000	100.759269
2867.000000	100.764188
2866.000000	100.770787
2865.000000	100.777319
2864.000000	100.782456
2863.000000	100.786335
2862.000000	100.790249
2861.000000	100.796134
2860.000000	100.805937
2859.000000	100.820297
2858.000000	100.837247
2857.000000	100.852780
2856.000000	100.863495
2855.000000	100.868818
2854.000000	100.870629
2853.000000	100.870945
2852.000000	100.870308
2851.000000	100.868281
2850.000000	100.864725
2849.000000	100.859916
2848.000000	100.853987
2847.000000	100.847367
2846.000000	100.841724
2845.000000	100.839215
2844.000000	100.840154
2843.000000	100.842194
2842.000000	100.842547
2841.000000	100.840490
2840.000000	100.837165
2839.000000	100.833647
2838.000000	100.830191
2837.000000	100.827030
2836.000000	100.824703
2835.000000	100.823322
2834.000000	100.822233
2833.000000	100.820666
2832.000000	100.818484
2831.000000	100.816410
2830.000000	100.815717
2829.000000	100.817164
2828.000000	100.819644
2827.000000	100.820635
2826.000000	100.819016
2825.000000	100.816950
2824.000000	100.817604
2823.000000	100.821296
2822.000000	100.825390
2821.000000	100.827877
2820.000000	100.829371
2819.000000	100.830974
2818.000000	100.831970
2817.000000	100.830999
2816.000000	100.828502
2815.000000	100.826597
2814.000000	100.826832
2813.000000	100.828949
2812.000000	100.831561
2811.000000	100.833477
2810.000000	100.834573
2809.000000	100.835741
2808.000000	100.837893
2807.000000	100.840827
2806.000000	100.843264
2805.000000	100.844127
2804.000000	100.843615
2803.000000	100.842974
2802.000000	100.843335
2801.000000	100.844856
2800.000000	100.846878
2799.000000	100.848613
2798.000000	100.849723
2797.000000	100.850364
2796.000000	100.850819
2795.000000	100.851210
2794.000000	100.851610
2793.000000	100.852252
2792.000000	100.853344
2791.000000	100.854742
2790.000000	100.856021
2789.000000	100.856923
2788.000000	100.857551
2787.000000	100.858124
2786.000000	100.858740
2785.000000	100.859400
2784.000000	100.860075
2783.000000	100.860698
2782.000000	100.861196
2781.000000	100.861604
2780.000000	100.862074
2779.000000	100.862714
2778.000000	100.863467
2777.000000	100.864171
2776.000000	100.864732
2775.000000	100.865206
2774.000000	100.865716
2773.000000	100.866312
2772.000000	100.866946
2771.000000	100.867541
2770.000000	100.868056
2769.000000	100.868509
2768.000000	100.868954
2767.000000	100.869438
2766.000000	100.869980
2765.000000	100.870584
2764.000000	100.871252
2763.000000	100.871944
2762.000000	100.872548
2761.000000	100.872967
2760.000000	100.873217
2759.000000	100.873429
2758.000000	100.873717
2757.000000	100.874091
2756.000000	100.874485
2755.000000	100.874830
2754.000000	100.875105
2753.000000	100.875334
2752.000000	100.875565
2751.000000	100.875841
2750.000000	100.876177
2749.000000	100.876568
2748.000000	100.877005
2747.000000	100.877474
2746.000000	100.877935
2745.000000	100.878328
2744.000000	100.878621
2743.000000	100.878852
2742.000000	100.879094
2741.000000	100.879366
2740.000000	100.879618
2739.000000	100.879799
2738.000000	100.879941
2737.000000	100.880160
2736.000000	100.880546
2735.000000	100.881064
2734.000000	100.881572
2733.000000	100.881942
2732.000000	100.882131
2731.000000	100.882164
2730.000000	100.882108
2729.000000	100.882096
2728.000000	100.882301
2727.000000	100.882806
2726.000000	100.883513
2725.000000	100.884235
2724.000000	100.884880
2723.000000	100.885417
2722.000000	100.885703
2721.000000	100.885547
2720.000000	100.884996
2719.000000	100.884446
2718.000000	100.884292
2717.000000	100.884582
2716.000000	100.885126
2715.000000	100.885832
2714.000000	100.886692
2713.000000	100.887509
2712.000000	100.887949
2711.000000	100.887953
2710.000000	100.887885
2709.000000	100.888141
2708.000000	100.888784
2707.000000	100.889659
2706.000000	100.890600
2705.000000	100.891342
2704.000000	100.891481
2703.000000	100.890889
2702.000000	100.890036
2701.000000	100.889530
2700.000000	100.889343
2699.000000	100.888908
2698.000000	100.888083
2697.000000	100.887593
2696.000000	100.888115
2695.000000	100.889392
2694.000000	100.890557
2693.000000	100.891168
2692.000000	100.891606
2691.000000	100.892344
2690.000000	100.893322
2689.000000	100.894151
2688.000000	100.894670
2687.000000	100.895122
2686.000000	100.895844
2685.000000	100.896858
2684.000000	100.897784
2683.000000	100.898210
2682.000000	100.898129
2681.000000	100.897957
2680.000000	100.898106
2679.000000	100.898535
2678.000000	100.898886
2677.000000	100.898963
2676.000000	100.898919
2675.000000	100.898999
2674.000000	100.899237
2673.000000	100.899475
2672.000000	100.899591
2671.000000	100.899617
2670.000000	100.899620
2669.000000	100.899566
2668.000000	100.899371
2667.000000	100.899059
2666.000000	100.898818
2665.000000	100.898857
2664.000000	100.899206
2663.000000	100.899666
2662.000000	100.899938
2661.000000	100.899869
2660.000000	100.899542
2659.000000	100.899219
2658.000000	100.899167
2657.000000	100.899473
2656.000000	100.899903
2655.000000	100.899977
2654.000000	100.899394
2653.000000	100.898395
2652.000000	100.897704
2651.000000	100.897793
2650.000000	100.898331
2649.000000	100.898459
2648.000000	100.897763
2647.000000	100.896693
2646.000000	100.895985
2645.000000	100.895784
2644.000000	100.895654
2643.000000	100.895257
2642.000000	100.894720
2641.000000	100.894297
2640.000000	100.893887
2639.000000	100.893053
2638.000000	100.891451
2637.000000	100.889157
2636.000000	100.886657
2635.000000	100.884574
2634.000000	100.883368
2633.000000	100.883147
2632.000000	100.883584
2631.000000	100.884068
2630.000000	100.884124
2629.000000	100.883722
2628.000000	100.883088
2627.000000	100.882263
2626.000000	100.881115
2625.000000	100.879878
2624.000000	100.879340
2623.000000	100.880139
2622.000000	100.881975
2621.000000	100.883699
2620.000000	100.884320
2619.000000	100.883751
2618.000000	100.882614
2617.000000	100.881577
2616.000000	100.880852
2615.000000	100.880270
2614.000000	100.879708
2613.000000	100.879395
2612.000000	100.879757
2611.000000	100.880867
2610.000000	100.882174
2609.000000	100.882903
2608.000000	100.882715
2607.000000	100.881982
2606.000000	100.881443
2605.000000	100.881602
2604.000000	100.882394
2603.000000	100.883315
2602.000000	100.883862
2601.000000	100.883971
2600.000000	100.883951
2599.000000	100.884090
2598.000000	100.884380
2597.000000	100.884641
2596.000000	100.884778
2595.000000	100.884849
2594.000000	100.884949
2593.000000	100.885110
2592.000000	100.885300
2591.000000	100.885465
2590.000000	100.885575
2589.000000	100.885655
2588.000000	100.885765
2587.000000	100.885940
2586.000000	100.886173
2585.000000	100.886434
2584.000000	100.886697
2583.000000	100.886930
2582.000000	100.887098
2581.000000	100.887183
2580.000000	100.887195
2579.000000	100.887173
2578.000000	100.887154
2577.000000	100.887160
2576.000000	100.887197
2575.000000	100.887262
2574.000000	100.887346
2573.000000	100.887433
2572.000000	100.887505
2571.000000	100.887548
2570.000000	100.887554
2569.000000	100.887524
2568.000000	100.887463
2567.000000	100.887382
2566.000000	100.887291
2565.000000	100.887196
2564.000000	100.887094
2563.000000	100.886980
2562.000000	100.886846
2561.000000	100.886687
2560.000000	100.886502
2559.000000	100.886301
2558.000000	100.886095
2557.000000	100.885895
2556.000000	100.885704
2555.000000	100.885514
2554.000000	100.885313
2553.000000	100.885092
2552.000000	100.884852
2551.000000	100.884599
2550.000000	100.884344
2549.000000	100.884094
2548.000000	100.883852
2547.000000	100.883611
2546.000000	100.883358
2545.000000	100.883083
2544.000000	100.882783
2543.000000	100.882466
2542.000000	100.882140
2541.000000	100.881813
2540.000000	100.881492
2539.000000	100.881184
2538.000000	100.880886
2537.000000	100.880592
2536.000000	100.880294
2535.000000	100.879986
2534.000000	100.879665
2533.000000	100.879335
2532.000000	100.879002
2531.000000	100.878670
2530.000000	100.878348
2529.000000	100.878049
2528.000000	100.877791
2527.000000	100.877576
2526.000000	100.877384
2525.000000	100.877188
2524.000000	100.876973
2523.000000	100.876773
2522.000000	100.876630
2521.000000	100.876534
2520.000000	100.876441
2519.000000	100.876357
2518.000000	100.876361
2517.000000	100.876485
2516.000000	100.876635
2515.000000	100.876665
2514.000000	100.876499
2513.000000	100.876202
2512.000000	100.875933
2511.000000	100.875832
2510.000000	100.875972
2509.000000	100.876350
2508.000000	100.876926
2507.000000	100.877585
2506.000000	100.878098
2505.000000	100.878288
2504.000000	100.878227
2503.000000	100.878210
2502.000000	100.878459
2501.000000	100.878913
2500.000000	100.879345
2499.000000	100.879597
2498.000000	100.879620
2497.000000	100.879413
2496.000000	100.879080
2495.000000	100.878893
2494.000000	100.879134
2493.000000	100.879895
2492.000000	100.881046
2491.000000	100.882324
2490.000000	100.883408
2489.000000	100.884112
2488.000000	100.884606
2487.000000	100.885285
2486.000000	100.886301
2485.000000	100.887351
2484.000000	100.888075
2483.000000	100.888495
2482.000000	100.888944
2481.000000	100.889606
2480.000000	100.890302
2479.000000	100.890730
2478.000000	100.890797
2477.000000	100.890758
2476.000000	100.891026
2475.000000	100.891752
2474.000000	100.892629
2473.000000	100.893210
2472.000000	100.893417
2471.000000	100.893565
2470.000000	100.893908
2469.000000	100.894398
2468.000000	100.894938
2467.000000	100.895600
2466.000000	100.896464
2465.000000	100.897436
2464.000000	100.898353
2463.000000	100.899176
2462.000000	100.899923
2461.000000	100.900520
2460.000000	100.900885
2459.000000	100.901089
2458.000000	100.901316
2457.000000	100.901670
2456.000000	100.902114
2455.000000	100.902579
2454.000000	100.903047
2453.000000	100.903541
2452.000000	100.904064
2451.000000	100.904591
2450.000000	100.905090
2449.000000	100.905542
2448.000000	100.905951
2447.000000	100.906337
2446.000000	100.906716
2445.000000	100.907097
2444.000000	100.907478
2443.000000	100.907856
2442.000000	100.908224
2441.000000	100.908575
2440.000000	100.908905
2439.000000	100.909218
2438.000000	100.909519
2437.000000	100.909815
2436.000000	100.910108
2435.000000	100.910398
2434.000000	100.910683
2433.000000	100.910965
2432.000000	100.911245
2431.000000	100.911522
2430.000000	100.911793
2429.000000	100.912051
2428.000000	100.912291
2427.000000	100.912513
2426.000000	100.912716
2425.000000	100.912899
2424.000000	100.913061
2423.000000	100.913199
2422.000000	100.913319
2421.000000	100.913428
2420.000000	100.913537
2419.000000	100.913652
2418.000000	100.913779
2417.000000	100.913914
2416.000000	100.914050
2415.000000	100.914181
2414.000000	100.914304
2413.000000	100.914419
2412.000000	100.914528
2411.000000	100.914628
2410.000000	100.914721
2409.000000	100.914807
2408.000000	100.914887
2407.000000	100.914963
2406.000000	100.915036
2405.000000	100.915107
2404.000000	100.915172
2403.000000	100.915228
2402.000000	100.915276
2401.000000	100.915322
2400.000000	100.915376
2399.000000	100.915446
2398.000000	100.915533
2397.000000	100.915634
2396.000000	100.915741
2395.000000	100.915850
2394.000000	100.915960
2393.000000	100.916075
2392.000000	100.916193
2391.000000	100.916312
2390.000000	100.916424
2389.000000	100.916524
2388.000000	100.916617
2387.000000	100.916711
2386.000000	100.916811
2385.000000	100.916914
2384.000000	100.917019
2383.000000	100.917127
2382.000000	100.917240
2381.000000	100.917358
2380.000000	100.917474
2379.000000	100.917586
2378.000000	100.917692
2377.000000	100.917790
2376.000000	100.917877
2375.000000	100.917952
2374.000000	100.918018
2373.000000	100.918082
2372.000000	100.918152
2371.000000	100.918233
2370.000000	100.918328
2369.000000	100.918438
2368.000000	100.918565
2367.000000	100.918702
2366.000000	100.918842
2365.000000	100.918971
2364.000000	100.919082
2363.000000	100.919174
2362.000000	100.919256
2361.000000	100.919338
2360.000000	100.919432
2359.000000	100.919544
2358.000000	100.919667
2357.000000	100.919791
2356.000000	100.919909
2355.000000	100.920015
2354.000000	100.920111
2353.000000	100.920201
2352.000000	100.920292
2351.000000	100.920387
2350.000000	100.920452
2349.000000	100.920438
2348.000000	100.920321
2347.000000	100.920158
2346.000000	100.920062
2345.000000	100.920074
2344.000000	100.920124
2343.000000	100.920057
2342.000000	100.919845
2341.000000	100.919462
2340.000000	100.918862
2339.000000	100.918190
2338.000000	100.917790
2337.000000	100.917930
2336.000000	100.918401
2335.000000	100.918741
2334.000000	100.918660
2333.000000	100.918446
2332.000000	100.918461
2331.000000	100.919020
2330.000000	100.919691
2329.000000	100.920273
2328.000000	100.920400
2327.000000	100.920169
2326.000000	100.919426
2325.000000	100.918003
2324.000000	100.916070
2323.000000	100.914109
2322.000000	100.912823
2321.000000	100.912377
2320.000000	100.912434
2319.000000	100.912678
2318.000000	100.912920
2317.000000	100.913319
2316.000000	100.913463
2315.000000	100.913174
2314.000000	100.912148
2313.000000	100.910913
2312.000000	100.909647
2311.000000	100.908676
2310.000000	100.907635
2309.000000	100.906627
2308.000000	100.905669
2307.000000	100.905217
2306.000000	100.905206
2305.000000	100.905571
2304.000000	100.906024
2303.000000	100.906653
2302.000000	100.907172
2301.000000	100.907416
2300.000000	100.907136
2299.000000	100.906696
2298.000000	100.906245
2297.000000	100.905805
2296.000000	100.905086
2295.000000	100.904355
2294.000000	100.904058
2293.000000	100.904467
2292.000000	100.905281
2291.000000	100.905940
2290.000000	100.905973
2289.000000	100.905244
2288.000000	100.904102
2287.000000	100.903194
2286.000000	100.902978
2285.000000	100.903326
2284.000000	100.903803
2283.000000	100.904115
2282.000000	100.904307
2281.000000	100.904418
2280.000000	100.904288
2279.000000	100.903757
2278.000000	100.902925
2277.000000	100.901986
2276.000000	100.901031
2275.000000	100.900203
2274.000000	100.899756
2273.000000	100.899783
2272.000000	100.899986
2271.000000	100.900063
2270.000000	100.900184
2269.000000	100.900785
2268.000000	100.901875
2267.000000	100.902806
2266.000000	100.902874
2265.000000	100.901944
2264.000000	100.900421
2263.000000	100.898846
2262.000000	100.897531
2261.000000	100.896542
2260.000000	100.895891
2259.000000	100.895636
2258.000000	100.895849
2257.000000	100.896390
2256.000000	100.896837
2255.000000	100.896808
2254.000000	100.896402
2253.000000	100.896174
2252.000000	100.896474
2251.000000	100.896951
2250.000000	100.896886
2249.000000	100.896008
2248.000000	100.894731
2247.000000	100.893667
2246.000000	100.893008
2245.000000	100.892506
2244.000000	100.891890
2243.000000	100.891164
2242.000000	100.890546
2241.000000	100.890227
2240.000000	100.890192
2239.000000	100.890223
2238.000000	100.890129
2237.000000	100.889939
2236.000000	100.889837
2235.000000	100.889927
2234.000000	100.890097
2233.000000	100.890136
2232.000000	100.889934
2231.000000	100.889533
2230.000000	100.889035
2229.000000	100.888544
2228.000000	100.888175
2227.000000	100.888011
2226.000000	100.888039
2225.000000	100.888141
2224.000000	100.888208
2223.000000	100.888183
2222.000000	100.888038
2221.000000	100.887771
2220.000000	100.887467
2219.000000	100.887290
2218.000000	100.887343
2217.000000	100.887570
2216.000000	100.887814
2215.000000	100.887942
2214.000000	100.887908
2213.000000	100.887716
2212.000000	100.887410
2211.000000	100.887089
2210.000000	100.886887
2209.000000	100.886879
2208.000000	100.887043
2207.000000	100.887290
2206.000000	100.887511
2205.000000	100.887617
2204.000000	100.887574
2203.000000	100.887451
2202.000000	100.887397
2201.000000	100.887508
2200.000000	100.887714
2199.000000	100.887802
2198.000000	100.887584
2197.000000	100.887037
2196.000000	100.886368
2195.000000	100.885921
2194.000000	100.885898
2193.000000	100.886238
2192.000000	100.886715
2191.000000	100.887189
2190.000000	100.887669
2189.000000	100.888138
2188.000000	100.888464
2187.000000	100.888522
2186.000000	100.888338
2185.000000	100.888074
2184.000000	100.887902
2183.000000	100.887898
2182.000000	100.888039
2181.000000	100.888228
2180.000000	100.888359
2179.000000	100.888423
2178.000000	100.888537
2177.000000	100.888805
2176.000000	100.889133
2175.000000	100.889267
2174.000000	100.889079
2173.000000	100.888719
2172.000000	100.888439
2171.000000	100.888307
2170.000000	100.888256
2169.000000	100.888319
2168.000000	100.888613
2167.000000	100.889078
2166.000000	100.889407
2165.000000	100.889362
2164.000000	100.889044
2163.000000	100.888773
2162.000000	100.888793
2161.000000	100.889146
2160.000000	100.889729
2159.000000	100.890297
2158.000000	100.890518
2157.000000	100.890185
2156.000000	100.889430
2155.000000	100.888701
2154.000000	100.888469
2153.000000	100.888942
2152.000000	100.890000
2151.000000	100.891242
2150.000000	100.892130
2149.000000	100.892187
2148.000000	100.891190
2147.000000	100.889355
2146.000000	100.887377
2145.000000	100.886037
2144.000000	100.885598
2143.000000	100.885615
2142.000000	100.885494
2141.000000	100.885135
2140.000000	100.884790
2139.000000	100.884503
2138.000000	100.884131
2137.000000	100.883850
2136.000000	100.884120
2135.000000	100.885045
2134.000000	100.886237
2133.000000	100.887366
2132.000000	100.888446
2131.000000	100.889518
2130.000000	100.890486
2129.000000	100.891364
2128.000000	100.892321
2127.000000	100.893360
2126.000000	100.894254
2125.000000	100.894876
2124.000000	100.895278
2123.000000	100.895381
2122.000000	100.894968
2121.000000	100.894162
2120.000000	100.893553
2119.000000	100.893635
2118.000000	100.894366
2117.000000	100.895447
2116.000000	100.896740
2115.000000	100.898141
2114.000000	100.899265
2113.000000	100.899675
2112.000000	100.899368
2111.000000	100.898845
2110.000000	100.898650
2109.000000	100.898931
2108.000000	100.899445
2107.000000	100.899833
2106.000000	100.899933
2105.000000	100.899932
2104.000000	100.900194
2103.000000	100.900867
2102.000000	100.901722
2101.000000	100.902396
2100.000000	100.902764
2099.000000	100.903021
2098.000000	100.903498
2097.000000	100.904430
2096.000000	100.905794
2095.000000	100.907258
2094.000000	100.908349
2093.000000	100.908811
2092.000000	100.908750
2091.000000	100.908495
2090.000000	100.908329
2089.000000	100.908389
2088.000000	100.908760
2087.000000	100.909440
2086.000000	100.910237
2085.000000	100.910876
2084.000000	100.911296
2083.000000	100.911717
2082.000000	100.912374
2081.000000	100.913276
2080.000000	100.914225
2079.000000	100.914981
2078.000000	100.915357
2077.000000	100.915275
2076.000000	100.914847
2075.000000	100.914358
2074.000000	100.914090
2073.000000	100.914150
2072.000000	100.914458
2071.000000	100.914826
2070.000000	100.915090
2069.000000	100.915196
2068.000000	100.915174
2067.000000	100.915034
2066.000000	100.914768
2065.000000	100.914488
2064.000000	100.914434
2063.000000	100.914748
2062.000000	100.915299
2061.000000	100.915771
2060.000000	100.915949
2059.000000	100.915836
2058.000000	100.915528
2057.000000	100.915108
2056.000000	100.914662
2055.000000	100.914303
2054.000000	100.914117
2053.000000	100.914099
2052.000000	100.914165
2051.000000	100.914205
2050.000000	100.914120
2049.000000	100.913860
2048.000000	100.913445
2047.000000	100.912957
2046.000000	100.912496
2045.000000	100.912117
2044.000000	100.911809
2043.000000	100.911516
2042.000000	100.911189
2041.000000	100.910823
2040.000000	100.910443
2039.000000	100.910063
2038.000000	100.909673
2037.000000	100.909272
2036.000000	100.908870
2035.000000	100.908470
2034.000000	100.908058
2033.000000	100.907621
2032.000000	100.907157
2031.000000	100.906675
2030.000000	100.906188
2029.000000	100.905699
2028.000000	100.905206
2027.000000	100.904705
2026.000000	100.904193
2025.000000	100.903666
2024.000000	100.903128
2023.000000	100.902579
2022.000000	100.902018
2021.000000	100.901443
2020.000000	100.900848
2019.000000	100.900228
2018.000000	100.899586
2017.000000	100.898931
2016.000000	100.898276
2015.000000	100.897627
2014.000000	100.896985
2013.000000	100.896346
2012.000000	100.895704
2011.000000	100.895067
2010.000000	100.894448
2009.000000	100.893846
2008.000000	100.893245
2007.000000	100.892637
2006.000000	100.892028
2005.000000	100.891425
2004.000000	100.890827
2003.000000	100.890230
2002.000000	100.889633
2001.000000	100.889032
2000.000000	100.888421
1999.000000	100.887811
1998.000000	100.887238
1997.000000	100.886721
1996.000000	100.886233
1995.000000	100.885719
1994.000000	100.885155
1993.000000	100.884574
1992.000000	100.884041
1991.000000	100.883602
1990.000000	100.883258
1989.000000	100.882957
1988.000000	100.882622
1987.000000	100.882221
1986.000000	100.881789
1985.000000	100.881367
1984.000000	100.880919
1983.000000	100.880373
1982.000000	100.879733
1981.000000	100.879128
1980.000000	100.878710
1979.000000	100.878526
1978.000000	100.878485
1977.000000	100.878441
1976.000000	100.878283
1975.000000	100.877983
1974.000000	100.877594
1973.000000	100.877226
1972.000000	100.876977
1971.000000	100.876876
1970.000000	100.876892
1969.000000	100.876949
1968.000000	100.876964
1967.000000	100.876907
1966.000000	100.876813
1965.000000	100.876728
1964.000000	100.876649
1963.000000	100.876548
1962.000000	100.876462
1961.000000	100.876516
1960.000000	100.876787
1959.000000	100.877170
1958.000000	100.877443
1957.000000	100.877492
1956.000000	100.877428
1955.000000	100.877451
1954.000000	100.877575
1953.000000	100.877476
1952.000000	100.876787
1951.000000	100.875624
1950.000000	100.874713
1949.000000	100.874694
1948.000000	100.875434
1947.000000	100.876087
1946.000000	100.875956
1945.000000	100.875085
1944.000000	100.874000
1943.000000	100.873120
1942.000000	100.872582
1941.000000	100.872407
1940.000000	100.872556
1939.000000	100.872879
1938.000000	100.873229
1937.000000	100.873538
1936.000000	100.873694
1935.000000	100.873477
1934.000000	100.872819
1933.000000	100.872050
1932.000000	100.871660
1931.000000	100.871665
1930.000000	100.871498
1929.000000	100.870675
1928.000000	100.869533
1927.000000	100.869048
1926.000000	100.869693
1925.000000	100.870835
1924.000000	100.871203
1923.000000	100.870200
1922.000000	100.868452
1921.000000	100.866898
1920.000000	100.865526
1919.000000	100.863480
1918.000000	100.860329
1917.000000	100.857022
1916.000000	100.854951
1915.000000	100.854379
1914.000000	100.854369
1913.000000	100.853761
1912.000000	100.852014
1911.000000	100.849344
1910.000000	100.846493
1909.000000	100.844314
1908.000000	100.843160
1907.000000	100.842538
1906.000000	100.841528
1905.000000	100.839831
1904.000000	100.837912
1903.000000	100.836274
1902.000000	100.834941
1901.000000	100.833834
1900.000000	100.833017
1899.000000	100.832186
1898.000000	100.830438
1897.000000	100.827287
1896.000000	100.823625
1895.000000	100.821076
1894.000000	100.820247
1893.000000	100.820297
1892.000000	100.820147
1891.000000	100.819501
1890.000000	100.818679
1889.000000	100.818059
1888.000000	100.817734
1887.000000	100.817337
1886.000000	100.816264
1885.000000	100.814434
1884.000000	100.812749
1883.000000	100.812237
1882.000000	100.812736
1881.000000	100.812983
1880.000000	100.812016
1879.000000	100.809974
1878.000000	100.807473
1877.000000	100.804998
1876.000000	100.803151
1875.000000	100.802688
1874.000000	100.803640
1873.000000	100.804738
1872.000000	100.804517
1871.000000	100.802964
1870.000000	100.801570
1869.000000	100.801678
1868.000000	100.803161
1867.000000	100.804835
1866.000000	100.805761
1865.000000	100.806087
1864.000000	100.806658
1863.000000	100.807931
1862.000000	100.809281
1861.000000	100.809497
1860.000000	100.808168
1859.000000	100.806392
1858.000000	100.805843
1857.000000	100.807254
1856.000000	100.809827
1855.000000	100.811872
1854.000000	100.812365
1853.000000	100.812009
1852.000000	100.812420
1851.000000	100.814474
1850.000000	100.817398
1849.000000	100.819992
1848.000000	100.821979
1847.000000	100.823949
1846.000000	100.826314
1845.000000	100.828797
1844.000000	100.831003
1843.000000	100.833084
1842.000000	100.835151
1841.000000	100.836702
1840.000000	100.837071
1839.000000	100.836056
1838.000000	100.834133
1837.000000	100.832399
1836.000000	100.831876
1835.000000	100.832729
1834.000000	100.834058
1833.000000	100.834552
1832.000000	100.833389
1831.000000	100.830899
1830.000000	100.828534
1829.000000	100.827957
1828.000000	100.829518
1827.000000	100.832480
1826.000000	100.835907
1825.000000	100.838639
1824.000000	100.839566
1823.000000	100.838498
1822.000000	100.836315
1821.000000	100.834192
1820.000000	100.832749
1819.000000	100.831723
1818.000000	100.830498
1817.000000	100.829159
1816.000000	100.828616
1815.000000	100.829516
1814.000000	100.831240
1813.000000	100.832393
1812.000000	100.832360
1811.000000	100.831800
1810.000000	100.831344
1809.000000	100.830550
1808.000000	100.829044
1807.000000	100.827457
1806.000000	100.826474
1805.000000	100.826063
1804.000000	100.826040
1803.000000	100.826695
1802.000000	100.828301
1801.000000	100.830232
1800.000000	100.831644
1799.000000	100.832305
1798.000000	100.832212
1797.000000	100.831249
1796.000000	100.829931
1795.000000	100.829588
1794.000000	100.831294
1793.000000	100.834507
1792.000000	100.837373
1791.000000	100.839074
1790.000000	100.840113
1789.000000	100.840739
1788.000000	100.841003
1787.000000	100.841227
1786.000000	100.841760
1785.000000	100.842598
1784.000000	100.843568
1783.000000	100.844627
1782.000000	100.845860
1781.000000	100.847244
1780.000000	100.849019
1779.000000	100.851107
1778.000000	100.852842
1777.000000	100.853504
1776.000000	100.853105
1775.000000	100.852518
1774.000000	100.852838
1773.000000	100.854760
1772.000000	100.858063
1771.000000	100.861916
1770.000000	100.865211
1769.000000	100.866997
1768.000000	100.867412
1767.000000	100.867976
1766.000000	100.869912
1765.000000	100.872792
1764.000000	100.875778
1763.000000	100.878935
1762.000000	100.882999
1761.000000	100.887727
1760.000000	100.891832
1759.000000	100.894400
1758.000000	100.895724
1757.000000	100.896405
1756.000000	100.896697
1755.000000	100.896548
1754.000000	100.895926
1753.000000	100.895127
1752.000000	100.894797
1751.000000	100.895551
1750.000000	100.897610
1749.000000	100.900769
1748.000000	100.903853
1747.000000	100.905688
1746.000000	100.905987
1745.000000	100.905268
1744.000000	100.904804
1743.000000	100.906113
1742.000000	100.909811
1741.000000	100.914318
1740.000000	100.916814
1739.000000	100.916520
1738.000000	100.915848
1737.000000	100.916398
1736.000000	100.917659
1735.000000	100.918066
1734.000000	100.915803
1733.000000	100.912193
1732.000000	100.909999
1731.000000	100.909006
1730.000000	100.908253
1729.000000	100.907774
1728.000000	100.907573
1727.000000	100.907277
1726.000000	100.906719
1725.000000	100.906076
1724.000000	100.905627
1723.000000	100.905384
1722.000000	100.905312
1721.000000	100.905091
1720.000000	100.904325
1719.000000	100.903250
1718.000000	100.902695
1717.000000	100.902566
1716.000000	100.902210
1715.000000	100.901527
1714.000000	100.900384
1713.000000	100.898894
1712.000000	100.897553
1711.000000	100.896713
1710.000000	100.896426
1709.000000	100.896349
1708.000000	100.895896
1707.000000	100.894719
1706.000000	100.892755
1705.000000	100.890339
1704.000000	100.887920
1703.000000	100.885429
1702.000000	100.882332
1701.000000	100.878282
1700.000000	100.874414
1699.000000	100.873076
1698.000000	100.873709
1697.000000	100.873925
1696.000000	100.872665
1695.000000	100.871086
1694.000000	100.870323
1693.000000	100.869783
1692.000000	100.868592
1691.000000	100.866653
1690.000000	100.864584
1689.000000	100.863044
1688.000000	100.862176
1687.000000	100.861774
1686.000000	100.861485
1685.000000	100.860640
1684.000000	100.858619
1683.000000	100.856811
1682.000000	100.856205
1681.000000	100.856161
1680.000000	100.855992
1679.000000	100.855619
1678.000000	100.855166
1677.000000	100.854692
1676.000000	100.854252
1675.000000	100.853908
1674.000000	100.853746
1673.000000	100.853628
1672.000000	100.853308
1671.000000	100.852678
1670.000000	100.851852
1669.000000	100.851131
1668.000000	100.850793
1667.000000	100.850766
1666.000000	100.850781
1665.000000	100.850594
1664.000000	100.850114
1663.000000	100.849433
1662.000000	100.848863
1661.000000	100.848697
1660.000000	100.849048
1659.000000	100.849833
1658.000000	100.850797
1657.000000	100.851433
1656.000000	100.851388
1655.000000	100.850966
1654.000000	100.850696
1653.000000	100.849700
1652.000000	100.848735
1651.000000	100.848904
1650.000000	100.849474
1649.000000	100.849620
1648.000000	100.849789
1647.000000	100.850148
1646.000000	100.850217
1645.000000	100.850384
1644.000000	100.851262
1643.000000	100.852618
1642.000000	100.853754
1641.000000	100.854222
1640.000000	100.854430
1639.000000	100.855075
1638.000000	100.856263
1637.000000	100.857164
1636.000000	100.856032
1635.000000	100.852559
1634.000000	100.849518
1633.000000	100.848749
1632.000000	100.849655
1631.000000	100.850954
1630.000000	100.851520
1629.000000	100.850824
1628.000000	100.849533
1627.000000	100.849008
1626.000000	100.850184
1625.000000	100.853255
1624.000000	100.857695
1623.000000	100.861578
1622.000000	100.863163
1621.000000	100.863118
1620.000000	100.863330
1619.000000	100.865156
1618.000000	100.868938
1617.000000	100.873571
1616.000000	100.877578
1615.000000	100.880477
1614.000000	100.881828
1613.000000	100.881502
1612.000000	100.880493
1611.000000	100.880260
1610.000000	100.881082
1609.000000	100.882377
1608.000000	100.884156
1607.000000	100.886541
1606.000000	100.888971
1605.000000	100.890849
1604.000000	100.892741
1603.000000	100.895637
1602.000000	100.899460
1601.000000	100.903006
1600.000000	100.905170
1599.000000	100.905666
1598.000000	100.905017
1597.000000	100.904108
1596.000000	100.903901
1595.000000	100.905132
1594.000000	100.907764
1593.000000	100.910844
1592.000000	100.913106
1591.000000	100.913763
1590.000000	100.913037
1589.000000	100.911994
1588.000000	100.911553
1587.000000	100.911841
1586.000000	100.912766
1585.000000	100.914484
1584.000000	100.916660
1583.000000	100.918259
1582.000000	100.918338
1581.000000	100.917291
1580.000000	100.915926
1579.000000	100.914389
1578.000000	100.912877
1577.000000	100.912683
1576.000000	100.914107
1575.000000	100.914879
1574.000000	100.913467
1573.000000	100.910366
1572.000000	100.906631
1571.000000	100.903262
1570.000000	100.900721
1569.000000	100.899486
1568.000000	100.899644
1567.000000	100.899687
1566.000000	100.898099
1565.000000	100.895131
1564.000000	100.892132
1563.000000	100.889850
1562.000000	100.888057
1561.000000	100.887722
1560.000000	100.889726
1559.000000	100.887731
1558.000000	100.878454
1557.000000	100.872258
1556.000000	100.870691
1555.000000	100.869464
1554.000000	100.866191
1553.000000	100.861059
1552.000000	100.855194
1551.000000	100.849349
1550.000000	100.844229
1549.000000	100.840708
1548.000000	100.838600
1547.000000	100.837080
1546.000000	100.835572
1545.000000	100.833769
1544.000000	100.831329
1543.000000	100.828425
1542.000000	100.826145
1541.000000	100.824950
1540.000000	100.821849
1539.000000	100.814887
1538.000000	100.807214
1537.000000	100.801177
1536.000000	100.795960
1535.000000	100.789713
1534.000000	100.780475
1533.000000	100.768263
1532.000000	100.756945
1531.000000	100.749180
1530.000000	100.744185
1529.000000	100.740430
1528.000000	100.736965
1527.000000	100.733261
1526.000000	100.729139
1525.000000	100.724907
1524.000000	100.721521
1523.000000	100.719742
1522.000000	100.718633
1521.000000	100.715685
1520.000000	100.710724
1519.000000	100.705554
1518.000000	100.700871
1517.000000	100.696597
1516.000000	100.692744
1515.000000	100.688954
1514.000000	100.684392
1513.000000	100.678471
1512.000000	100.671492
1511.000000	100.664380
1510.000000	100.658020
1509.000000	100.653136
1508.000000	100.650668
1507.000000	100.649849
1506.000000	100.647323
1505.000000	100.642415
1504.000000	100.636887
1503.000000	100.631341
1502.000000	100.625611
1501.000000	100.620220
1500.000000	100.616230
1499.000000	100.614484
1498.000000	100.614555
1497.000000	100.613951
1496.000000	100.610187
1495.000000	100.604325
1494.000000	100.599099
1493.000000	100.595826
1492.000000	100.594973
1491.000000	100.595962
1490.000000	100.595689
1489.000000	100.590380
1488.000000	100.580827
1487.000000	100.571796
1486.000000	100.566205
1485.000000	100.563588
1484.000000	100.562373
1483.000000	100.561658
1482.000000	100.560846
1481.000000	100.559348
1480.000000	100.557262
1479.000000	100.555726
1478.000000	100.555301
1477.000000	100.555031
1476.000000	100.554002
1475.000000	100.553681
1474.000000	100.556291
1473.000000	100.560847
1472.000000	100.563863
1471.000000	100.564947
1470.000000	100.565683
1469.000000	100.565950
1468.000000	100.565212
1467.000000	100.564752
1466.000000	100.566891
1465.000000	100.570982
1464.000000	100.573152
1463.000000	100.571560
1462.000000	100.567878
1461.000000	100.564080
1460.000000	100.560817
1459.000000	100.558190
1458.000000	100.556620
1457.000000	100.556134
1456.000000	100.556137
1455.000000	100.556146
1454.000000	100.554918
1453.000000	100.551123
1452.000000	100.545497
1451.000000	100.540650
1450.000000	100.538850
1449.000000	100.539903
1448.000000	100.541567
1447.000000	100.542539
1446.000000	100.543879
1445.000000	100.546036
1444.000000	100.547808
1443.000000	100.547488
1442.000000	100.545036
1441.000000	100.542342
1440.000000	100.540940
1439.000000	100.540746
1438.000000	100.541226
1437.000000	100.542104
1436.000000	100.542749
1435.000000	100.542994
1434.000000	100.542805
1433.000000	100.541986
1432.000000	100.541293
1431.000000	100.541900
1430.000000	100.544104
1429.000000	100.547196
1428.000000	100.549835
1427.000000	100.551019
1426.000000	100.551075
1425.000000	100.551700
1424.000000	100.554571
1423.000000	100.558764
1422.000000	100.561856
1421.000000	100.563046
1420.000000	100.563869
1419.000000	100.565875
1418.000000	100.568678
1417.000000	100.569749
1416.000000	100.567173
1415.000000	100.562557
1414.000000	100.559226
1413.000000	100.558809
1412.000000	100.560351
1411.000000	100.562238
1410.000000	100.564152
1409.000000	100.566656
1408.000000	100.570242
1407.000000	100.575403
1406.000000	100.582018
1405.000000	100.588288
1404.000000	100.592206
1403.000000	100.594538
1402.000000	100.598394
1401.000000	100.605676
1400.000000	100.615557
1399.000000	100.625489
1398.000000	100.633919
1397.000000	100.640609
1396.000000	100.644642
1395.000000	100.645342
1394.000000	100.645295
1393.000000	100.648925
1392.000000	100.657478
1391.000000	100.668757
1390.000000	100.679603
1389.000000	100.687551
1388.000000	100.691985
1387.000000	100.694930
1386.000000	100.699507
1385.000000	100.706151
1384.000000	100.712326
1383.000000	100.715944
1382.000000	100.717810
1381.000000	100.720680
1380.000000	100.726549
1379.000000	100.735483
1378.000000	100.746204
1377.000000	100.757057
1376.000000	100.766548
1375.000000	100.773928
1374.000000	100.779909
1373.000000	100.785997
1372.000000	100.792430
1371.000000	100.798253
1370.000000	100.803321
1369.000000	100.808834
1368.000000	100.815590
1367.000000	100.822813
1366.000000	100.829584
1365.000000	100.835949
1364.000000	100.841817
1363.000000	100.845828
1362.000000	100.846713
1361.000000	100.845716
1360.000000	100.845735
1359.000000	100.848397
1358.000000	100.852941
1357.000000	100.857307
1356.000000	100.860093
1355.000000	100.862074
1354.000000	100.865708
1353.000000	100.872388
1352.000000	100.880462
1351.000000	100.886546
1350.000000	100.888574
1349.000000	100.887467
1348.000000	100.885568
1347.000000	100.884018
1346.000000	100.882600
1345.000000	100.881338
1344.000000	100.881120
1343.000000	100.882917
1342.000000	100.886853
1341.000000	100.891745
1340.000000	100.895412
1339.000000	100.896416
1338.000000	100.895885
1337.000000	100.896173
1336.000000	100.897784
1335.000000	100.899237
1334.000000	100.899886
1333.000000	100.901418
1332.000000	100.905761
1331.000000	100.912136
1330.000000	100.917279
1329.000000	100.918700
1328.000000	100.916892
1327.000000	100.914507
1326.000000	100.913921
1325.000000	100.915372
1324.000000	100.916999
1323.000000	100.916882
1322.000000	100.915132
1321.000000	100.913400
1320.000000	100.912455
1319.000000	100.911503
1318.000000	100.910343
1317.000000	100.910478
1316.000000	100.912901
1315.000000	100.916202
1314.000000	100.918248
1313.000000	100.918782
1312.000000	100.918990
1311.000000	100.919196
1310.000000	100.918665
1309.000000	100.917275
1308.000000	100.915784
1307.000000	100.914546
1306.000000	100.913281
1305.000000	100.912316
1304.000000	100.912678
1303.000000	100.914655
1302.000000	100.917164
1301.000000	100.918766
1300.000000	100.918692
1299.000000	100.917028
1298.000000	100.914792
1297.000000	100.913769
1296.000000	100.915241
1295.000000	100.918376
1294.000000	100.920528
1293.000000	100.919568
1292.000000	100.915697
1291.000000	100.911225
1290.000000	100.908787
1289.000000	100.909339
1288.000000	100.911466
1287.000000	100.912765
1286.000000	100.912422
1285.000000	100.912015
1284.000000	100.913202
1283.000000	100.915342
1282.000000	100.916411
1281.000000	100.915679
1280.000000	100.914064
1279.000000	100.912116
1278.000000	100.909553
1277.000000	100.907059
1276.000000	100.906420
1275.000000	100.907734
1274.000000	100.908378
1273.000000	100.906377
1272.000000	100.903309
1271.000000	100.902217
1270.000000	100.903895
1269.000000	100.906982
1268.000000	100.910281
1267.000000	100.912791
1266.000000	100.912906
1265.000000	100.910359
1264.000000	100.908164
1263.000000	100.909569
1262.000000	100.912918
1261.000000	100.912525
1260.000000	100.905564
1259.000000	100.895624
1258.000000	100.888321
1257.000000	100.885380
1256.000000	100.884690
1255.000000	100.884043
1254.000000	100.882528
1253.000000	100.879318
1252.000000	100.873759
1251.000000	100.867039
1250.000000	100.861910
1249.000000	100.859682
1248.000000	100.858374
1247.000000	100.854745
1246.000000	100.847772
1245.000000	100.839474
1244.000000	100.832710
1243.000000	100.828885
1242.000000	100.827461
1241.000000	100.826863
1240.000000	100.825785
1239.000000	100.824185
1238.000000	100.822969
1237.000000	100.822001
1236.000000	100.818646
1235.000000	100.809702
1234.000000	100.795322
1233.000000	100.779761
1232.000000	100.767229
1231.000000	100.757969
1230.000000	100.749453
1229.000000	100.739895
1228.000000	100.728527
1227.000000	100.713470
1226.000000	100.692516
1225.000000	100.666722
1224.000000	100.640676
1223.000000	100.617639
1222.000000	100.595962
1221.000000	100.571729
1220.000000	100.543378
1219.000000	100.512331
1218.000000	100.480673
1217.000000	100.449987
1216.000000	100.421202
1215.000000	100.393361
1214.000000	100.363274
1213.000000	100.328367
1212.000000	100.289427
1211.000000	100.248914
1210.000000	100.207399
1209.000000	100.164040
1208.000000	100.119970
1207.000000	100.078321
1206.000000	100.040591
1205.000000	100.005304
1204.000000	99.970399
1203.000000	99.934646
1202.000000	99.896850
1201.000000	99.856329
1200.000000	99.814526
1199.000000	99.773790
1198.000000	99.734307
1197.000000	99.694486
1196.000000	99.654137
1195.000000	99.614411
1194.000000	99.574750
1193.000000	99.533333
1192.000000	99.490931
1191.000000	99.450518
1190.000000	99.411967
1189.000000	99.370990
1188.000000	99.325424
1187.000000	99.279385
1186.000000	99.238481
1185.000000	99.202804
1184.000000	99.166946
1183.000000	99.125348
1182.000000	99.075903
1181.000000	99.019943
1180.000000	98.960718
1179.000000	98.901318
1178.000000	98.843190
1177.000000	98.787162
1176.000000	98.735086
1175.000000	98.687880
1174.000000	98.642071
1173.000000	98.591727
1172.000000	98.534773
1171.000000	98.474571
1170.000000	98.414747
1169.000000	98.356082
1168.000000	98.299767
1167.000000	98.250022
1166.000000	98.211128
1165.000000	98.184265
1164.000000	98.168814
1163.000000	98.164244
1162.000000	98.169401
1161.000000	98.182008
1160.000000	98.199269
1159.000000	98.216566
1158.000000	98.226034
1157.000000	98.220318
1156.000000	98.198509
1155.000000	98.165813
1154.000000	98.127164
1153.000000	98.084030
1152.000000	98.037547
1151.000000	97.990482
1150.000000	97.944487
1149.000000	97.898714
1148.000000	97.852481
1147.000000	97.806315
1146.000000	97.759802
1145.000000	97.712102
1144.000000	97.665092
1143.000000	97.621588
1142.000000	97.579477
1141.000000	97.532504
1140.000000	97.478721
1139.000000	97.423811
1138.000000	97.373956
1137.000000	97.329187
1136.000000	97.285712
1135.000000	97.240669
1134.000000	97.192531
1133.000000	97.140782
1132.000000	97.087407
1131.000000	97.035272
1130.000000	96.983387
1129.000000	96.927530
1128.000000	96.866926
1127.000000	96.806280
1126.000000	96.749744
1125.000000	96.696988
1124.000000	96.646423
1123.000000	96.597248
1122.000000	96.546575
1121.000000	96.489814
1120.000000	96.426701
1119.000000	96.363041
1118.000000	96.304368
1117.000000	96.251515
1116.000000	96.203176
1115.000000	96.157526
1114.000000	96.109856
1113.000000	96.054694
1112.000000	95.992893
1111.000000	95.931377
1110.000000	95.873775
1109.000000	95.817171
1108.000000	95.760103
1107.000000	95.706885
1106.000000	95.660316
1105.000000	95.616397
1104.000000	95.570207
1103.000000	95.521591
1102.000000	95.471852
1101.000000	95.420814
1100.000000	95.370205
1099.000000	95.324550
1098.000000	95.283881
1097.000000	95.241817
1096.000000	95.194250
1095.000000	95.144368
1094.000000	95.095650
1093.000000	95.046123
1092.000000	94.994070
1091.000000	94.944112
1090.000000	94.902970
1089.000000	94.872992
1088.000000	94.852451
1087.000000	94.837140
1086.000000	94.819370
1085.000000	94.791714
1084.000000	94.755436
1083.000000	94.720485
1082.000000	94.694285
1081.000000	94.674968
1080.000000	94.657273
1079.000000	94.638747
1078.000000	94.617560
1077.000000	94.590687
1076.000000	94.557887
1075.000000	94.522503
1074.000000	94.485432
1073.000000	94.442582
1072.000000	94.389698
1071.000000	94.324735
1070.000000	94.245328
1069.000000	94.150753
1068.000000	94.047195
1067.000000	93.943418
1066.000000	93.839267
1065.000000	93.726598
1064.000000	93.603734
1063.000000	93.479766
1062.000000	93.361074
1061.000000	93.243121
1060.000000	93.121137
1059.000000	93.000138
1058.000000	92.887906
1057.000000	92.784788
1056.000000	92.686104
1055.000000	92.588333
1054.000000	92.488066
1053.000000	92.381464
1052.000000	92.270450
1051.000000	92.163836
1050.000000	92.067087
1049.000000	91.976546
1048.000000	91.886988
1047.000000	91.797013
1046.000000	91.704244
1045.000000	91.604200
1044.000000	91.497632
1043.000000	91.391736
1042.000000	91.291180
1041.000000	91.194404
1040.000000	91.100452
1039.000000	91.011766
1038.000000	90.928443
1037.000000	90.848055
1036.000000	90.772996
1035.000000	90.709236
1034.000000	90.655758
1033.000000	90.604123
1032.000000	90.550514
1031.000000	90.499115
1030.000000	90.452149
1029.000000	90.407060
1028.000000	90.365840
1027.000000	90.336095
1026.000000	90.319083
1025.000000	90.306511
1024.000000	90.292566
1023.000000	90.279389
1022.000000	90.267475
1021.000000	90.251107
1020.000000	90.227507
1019.000000	90.200864
1018.000000	90.173178
1017.000000	90.140576
1016.000000	90.102943
1015.000000	90.067889
1014.000000	90.040251
1013.000000	90.015978
1012.000000	89.990901
1011.000000	89.967715
1010.000000	89.949979
1009.000000	89.936334
1008.000000	89.924301
1007.000000	89.913424
1006.000000	89.902562
1005.000000	89.891143
1004.000000	89.884240
1003.000000	89.888279
1002.000000	89.900453
1001.000000	89.910944
1000.000000	89.916908
999.000000	89.924837
998.000000	89.937727
997.000000	89.950657
996.000000	89.961999
995.000000	89.978573
994.000000	90.004899
993.000000	90.035921
992.000000	90.064827
991.000000	90.091095
990.000000	90.117603
989.000000	90.146857
988.000000	90.182747
987.000000	90.228843
986.000000	90.282445
985.000000	90.337090
984.000000	90.392506
983.000000	90.454942
982.000000	90.527082
981.000000	90.605988
980.000000	90.691604
979.000000	90.787762
978.000000	90.892723
977.000000	90.998115
976.000000	91.100633
975.000000	91.206957
974.000000	91.323967
973.000000	91.450999
972.000000	91.583699
971.000000	91.718346
970.000000	91.850564
969.000000	91.977119
968.000000	92.101215
967.000000	92.229425
966.000000	92.361452
965.000000	92.489087
964.000000	92.606763
963.000000	92.717002
962.000000	92.824584
961.000000	92.931745
960.000000	93.039962
959.000000	93.149547
958.000000	93.256129
957.000000	93.354361
956.000000	93.446485
955.000000	93.540563
954.000000	93.638761
953.000000	93.734187
952.000000	93.820747
951.000000	93.898758
950.000000	93.969195
949.000000	94.030405
948.000000	94.083875
947.000000	94.136076
946.000000	94.190348
945.000000	94.242899
944.000000	94.290797
943.000000	94.337568
942.000000	94.386204
941.000000	94.432453
940.000000	94.471082
939.000000	94.504679
938.000000	94.540257
937.000000	94.579459
936.000000	94.617519
935.000000	94.650973
934.000000	94.682152
933.000000	94.716189
932.000000	94.756398
931.000000	94.802509
930.000000	94.851409
929.000000	94.899290
928.000000	94.943657
927.000000	94.983602
926.000000	95.019408
925.000000	95.053156
924.000000	95.088242
923.000000	95.126072
922.000000	95.164276
921.000000	95.200359
920.000000	95.235297
919.000000	95.270439
918.000000	95.302868
917.000000	95.328283
916.000000	95.347727
915.000000	95.367204
914.000000	95.391064
913.000000	95.420242
912.000000	95.456776
911.000000	95.504919
910.000000	95.566289
909.000000	95.637556
908.000000	95.714375
907.000000	95.795479
906.000000	95.882550
905.000000	95.978071
904.000000	96.082963
903.000000	96.194526
902.000000	96.307535
901.000000	96.418412
900.000000	96.525869
899.000000	96.626927
898.000000	96.717414
897.000000	96.799796
896.000000	96.885487
895.000000	96.984035
894.000000	97.092365
893.000000	97.198793
892.000000	97.294667
891.000000	97.377837
890.000000	97.448901
889.000000	97.510426
888.000000	97.567951
887.000000	97.625854
886.000000	97.682546
885.000000	97.733905
884.000000	97.780247
883.000000	97.825952
882.000000	97.873969
881.000000	97.924773
880.000000	97.978413
879.000000	98.033221
878.000000	98.085792
877.000000	98.137798
876.000000	98.198868
875.000000	98.275160
874.000000	98.357829
873.000000	98.431234
872.000000	98.491103
871.000000	98.546811
870.000000	98.607468
869.000000	98.674279
868.000000	98.746215
867.000000	98.823793
866.000000	98.904726
865.000000	98.982735
864.000000	99.053822
863.000000	99.119887
862.000000	99.185182
861.000000	99.253068
860.000000	99.325893
859.000000	99.402382
858.000000	99.474546
857.000000	99.533580
856.000000	99.581084
855.000000	99.629105
854.000000	99.685669
853.000000	99.744498
852.000000	99.793202
851.000000	99.828193
850.000000	99.857012
849.000000	99.887590
848.000000	99.919576
847.000000	99.946933
846.000000	99.966193
845.000000	99.979987
844.000000	99.992452
843.000000	100.002719
842.000000	100.005258
841.000000	99.997274
840.000000	99.982822
839.000000	99.966814
838.000000	99.947392
837.000000	99.919280
836.000000	99.884526
835.000000	99.854120
834.000000	99.835954
833.000000	99.825069
832.000000	99.810228
831.000000	99.788669
830.000000	99.770537
829.000000	99.767867
828.000000	99.780967
827.000000	99.797112
826.000000	99.803368
825.000000	99.800275
824.000000	99.800637
823.000000	99.814079
822.000000	99.836094
821.000000	99.854664
820.000000	99.862931
819.000000	99.860805
818.000000	99.848139
817.000000	99.822843
816.000000	99.785607
815.000000	99.741013
814.000000	99.691062
813.000000	99.630091
812.000000	99.548318
811.000000	99.438323
810.000000	99.295890
809.000000	99.117037
808.000000	98.899091
807.000000	98.646213
806.000000	98.371561
805.000000	98.092335
804.000000	97.823286
803.000000	97.574372
802.000000	97.352317
801.000000	97.163534
800.000000	97.015438
799.000000	96.914319
798.000000	96.862601
797.000000	96.858849
796.000000	96.897506
795.000000	96.966086
794.000000	97.046879
793.000000	97.126631
792.000000	97.201741
791.000000	97.270216
790.000000	97.323633
789.000000	97.353333
788.000000	97.360549
787.000000	97.352411
786.000000	97.328809
785.000000	97.280232
784.000000	97.199698
783.000000	97.092555
782.000000	96.974916
781.000000	96.866957
780.000000	96.786925
779.000000	96.745275
778.000000	96.742264
777.000000	96.773703
776.000000	96.837134
775.000000	96.928103
774.000000	97.034289
773.000000	97.141430
772.000000	97.243764
771.000000	97.341604
770.000000	97.430643
769.000000	97.502057
768.000000	97.553156
767.000000	97.589940
766.000000	97.617639
765.000000	97.635586
764.000000	97.643863
763.000000	97.648889
762.000000	97.658757
761.000000	97.676904
760.000000	97.702933
759.000000	97.735986
758.000000	97.774734
757.000000	97.816559
756.000000	97.858622
755.000000	97.898683
754.000000	97.935407
753.000000	97.970098
752.000000	98.007363
751.000000	98.051049
750.000000	98.099472
749.000000	98.147035
748.000000	98.190232
747.000000	98.230388
746.000000	98.272029
745.000000	98.320814
744.000000	98.380880
743.000000	98.451067
742.000000	98.525379
741.000000	98.599474
740.000000	98.673731
739.000000	98.747251
738.000000	98.813588
737.000000	98.868049
736.000000	98.916121
735.000000	98.967937
734.000000	99.025603
733.000000	99.081548
732.000000	99.128432
731.000000	99.165669
730.000000	99.196962
729.000000	99.225899
728.000000	99.253240
727.000000	99.274650
726.000000	99.282772
725.000000	99.276958
724.000000	99.270734
723.000000	99.284057
722.000000	99.325962
721.000000	99.386940
720.000000	99.448127
719.000000	99.495824
718.000000	99.528375
717.000000	99.553083
716.000000	99.578054
715.000000	99.605277
714.000000	99.630894
713.000000	99.652158
712.000000	99.671378
711.000000	99.691359
710.000000	99.710443
709.000000	99.725363
708.000000	99.736056
707.000000	99.744037
706.000000	99.748673
705.000000	99.748270
704.000000	99.741064
703.000000	99.720656
702.000000	99.674765
701.000000	99.594642
700.000000	99.483304
699.000000	99.350015
698.000000	99.201899
697.000000	99.050121
696.000000	98.920778
695.000000	98.846007
694.000000	98.840157
693.000000	98.889956
692.000000	98.967366
691.000000	99.048190
690.000000	99.120561
689.000000	99.184111
688.000000	99.245156
687.000000	99.308238
686.000000	99.369516
685.000000	99.420883
684.000000	99.459653
683.000000	99.490860
682.000000	99.521946
681.000000	99.558722
680.000000	99.603760
679.000000	99.653346
678.000000	99.697442
677.000000	99.727689
676.000000	99.746871
675.000000	99.766097
674.000000	99.793673
673.000000	99.829949
672.000000	99.871097
671.000000	99.912962
670.000000	99.951336
669.000000	99.982814
668.000000	100.008258
667.000000	100.027364
666.000000	100.034758
665.000000	100.034438
664.000000	100.038004
663.000000	100.055178
662.000000	100.085628
661.000000	100.119645
660.000000	100.148210
659.000000	100.165112
658.000000	100.163150
657.000000	100.139853
656.000000	100.106514
655.000000	100.080371
654.000000	100.065628
653.000000	100.052390
652.000000	100.037624
651.000000	100.033916
650.000000	100.051671
