4000.000000	100.312424
3999.000000	100.309352
3998.000000	100.311317
3997.000000	100.317065
3996.000000	100.323111
3995.000000	100.326506
3994.000000	100.326860
3993.000000	100.325422
3992.000000	100.323028
3991.000000	100.319391
3990.000000	100.313997
3989.000000	100.307189
3988.000000	100.300329
3987.000000	100.294854
3986.000000	100.291411
3985.000000	100.289986
3984.000000	100.290561
3983.000000	100.293337
3982.000000	100.298157
3981.000000	100.303930
3980.000000	100.309047
3979.000000	100.312572
3978.000000	100.314742
3977.000000	100.316091
3976.000000	100.316357
3975.000000	100.314826
3974.000000	100.311759
3973.000000	100.308919
3972.000000	100.308104
3971.000000	100.309270
3970.000000	100.310583
3969.000000	100.310432
3968.000000	100.309207
3967.000000	100.308831
3966.000000	100.310634
3965.000000	100.313714
3964.000000	100.315378
3963.000000	100.313313
3962.000000	100.307474
3961.000000	100.300227
3960.000000	100.294737
3959.000000	100.292849
3958.000000	100.294240
3957.000000	100.297069
3956.000000	100.299353
3955.000000	100.300384
3954.000000	100.301087
3953.000000	100.302923
3952.000000	100.306355
3951.000000	100.310206
3950.000000	100.312578
3949.000000	100.312488
3948.000000	100.310510
3947.000000	100.307963
3946.000000	100.305615
3945.000000	100.303307
3944.000000	100.300684
3943.000000	100.297986
3942.000000	100.296019
3941.000000	100.295399
3940.000000	100.295970
3939.000000	100.296944
3938.000000	100.297469
3937.000000	100.297169
3936.000000	100.296298
3935.000000	100.295508
3934.000000	100.295421
3933.000000	100.296149
3932.000000	100.297003
3931.000000	100.296785
3930.000000	100.294791
3929.000000	100.291578
3928.000000	100.288702
3927.000000	100.287479
3926.000000	100.287972
3925.000000	100.289162
3924.000000	100.290140
3923.000000	100.290850
3922.000000	100.291460
3921.000000	100.291444
3920.000000	100.289825
3919.000000	100.286384
3918.000000	100.282383
3917.000000	100.279656
3916.000000	100.278905
3915.000000	100.279290
3914.000000	100.279645
3913.000000	100.279674
3912.000000	100.279904
3911.000000	100.280784
3910.000000	100.282006
3909.000000	100.282840
3908.000000	100.282977
3907.000000	100.283024
3906.000000	100.284247
3905.000000	100.287630
3904.000000	100.292726
3903.000000	100.297222
3902.000000	100.298547
3901.000000	100.296160
3900.000000	100.291963
3899.000000	100.288314
3898.000000	100.285904
3897.000000	100.284095
3896.000000	100.282571
3895.000000	100.281987
3894.000000	100.283085
3893.000000	100.285470
3892.000000	100.287556
3891.000000	100.288272
3890.000000	100.288284
3889.000000	100.289196
3888.000000	100.291920
3887.000000	100.295834
3886.000000	100.299596
3885.000000	100.302727
3884.000000	100.305488
3883.000000	100.307418
3882.000000	100.307127
3881.000000	100.304136
3880.000000	100.300334
3879.000000	100.298382
3878.000000	100.299074
3877.000000	100.301230
3876.000000	100.303068
3875.000000	100.303560
3874.000000	100.303130
3873.000000	100.302971
3872.000000	100.303903
3871.000000	100.306067
3870.000000	100.309302
3869.000000	100.313290
3868.000000	100.317545
3867.000000	100.321522
3866.000000	100.324253
3865.000000	100.324252
3864.000000	100.320603
3863.000000	100.313957
3862.000000	100.306254
3861.000000	100.299869
3860.000000	100.296815
3859.000000	100.298027
3858.000000	100.303114
3857.000000	100.310812
3856.000000	100.319331
3855.000000	100.326094
3854.000000	100.328421
3853.000000	100.325753
3852.000000	100.319877
3851.000000	100.312511
3850.000000	100.305007
3849.000000	100.298938
3848.000000	100.295531
3847.000000	100.295310
3846.000000	100.297812
3845.000000	100.301561
3844.000000	100.304567
3843.000000	100.305211
3842.000000	100.303048
3841.000000	100.299163
3840.000000	100.295681
3839.000000	100.294465
3838.000000	100.295641
3837.000000	100.297412
3836.000000	100.297861
3835.000000	100.296824
3834.000000	100.295681
3833.000000	100.295796
3832.000000	100.297378
3831.000000	100.299570
3830.000000	100.301283
3829.000000	100.301799
3828.000000	100.300863
3827.000000	100.298708
3826.000000	100.296090
3825.000000	100.294091
3824.000000	100.293683
3823.000000	100.295282
3822.000000	100.298522
3821.000000	100.302536
3820.000000	100.306512
3819.000000	100.309796
3818.000000	100.311590
3817.000000	100.310775
3816.000000	100.306570
3815.000000	100.299929
3814.000000	100.293384
3813.000000	100.289162
3812.000000	100.288039
3811.000000	100.289368
3810.000000	100.291525
3809.000000	100.292489
3808.000000	100.291238
3807.000000	100.289188
3806.000000	100.289100
3805.000000	100.292268
3804.000000	100.297828
3803.000000	100.303939
3802.000000	100.309237
3801.000000	100.313318
3800.000000	100.315070
3799.000000	100.312333
3798.000000	100.304458
3797.000000	100.293892
3796.000000	100.285003
3795.000000	100.280725
3794.000000	100.280528
3793.000000	100.281746
3792.000000	100.281961
3791.000000	100.280322
3790.000000	100.277264
3789.000000	100.273522
3788.000000	100.269737
3787.000000	100.266664
3786.000000	100.264986
3785.000000	100.264441
3784.000000	100.263498
3783.000000	100.260552
3782.000000	100.255657
3781.000000	100.250987
3780.000000	100.249485
3779.000000	100.252757
3778.000000	100.259980
3777.000000	100.269068
3776.000000	100.278450
3775.000000	100.287205
3774.000000	100.294055
3773.000000	100.297592
3772.000000	100.297512
3771.000000	100.295345
3770.000000	100.293539
3769.000000	100.293136
3768.000000	100.293007
3767.000000	100.292078
3766.000000	100.291076
3765.000000	100.291235
3764.000000	100.292293
3763.000000	100.292763
3762.000000	100.291545
3761.000000	100.288867
3760.000000	100.286230
3759.000000	100.285305
3758.000000	100.286186
3757.000000	100.287463
3756.000000	100.288418
3755.000000	100.289985
3754.000000	100.293073
3753.000000	100.297173
3752.000000	100.301316
3751.000000	100.305970
3750.000000	100.311838
3749.000000	100.317015
3748.000000	100.319544
3747.000000	100.320803
3746.000000	100.322542
3745.000000	100.323889
3744.000000	100.322433
3743.000000	100.316454
3742.000000	100.306811
3741.000000	100.295932
3740.000000	100.285585
3739.000000	100.277000
3738.000000	100.270257
3737.000000	100.263858
3736.000000	100.257640
3735.000000	100.255103
3734.000000	100.259799
3733.000000	100.270228
3732.000000	100.280651
3731.000000	100.286502
3730.000000	100.287068
3729.000000	100.283626
3728.000000	100.276912
3727.000000	100.266936
3726.000000	100.255027
3725.000000	100.244840
3724.000000	100.240089
3723.000000	100.241495
3722.000000	100.246229
3721.000000	100.250073
3720.000000	100.250296
3719.000000	100.246628
3718.000000	100.240125
3717.000000	100.231957
3716.000000	100.223395
3715.000000	100.215879
3714.000000	100.210197
3713.000000	100.205728
3712.000000	100.201248
3711.000000	100.196734
3710.000000	100.193028
3709.000000	100.189679
3708.000000	100.185167
3707.000000	100.178741
3706.000000	100.170815
3705.000000	100.162209
3704.000000	100.153546
3703.000000	100.145696
3702.000000	100.140314
3701.000000	100.138713
3700.000000	100.139795
3699.000000	100.140496
3698.000000	100.138624
3697.000000	100.134556
3696.000000	100.130448
3695.000000	100.128099
3694.000000	100.127552
3693.000000	100.127783
3692.000000	100.128461
3691.000000	100.130462
3690.000000	100.134480
3689.000000	100.139041
3688.000000	100.140475
3687.000000	100.135787
3686.000000	100.125223
3685.000000	100.111820
3684.000000	100.099284
3683.000000	100.090296
3682.000000	100.085320
3681.000000	100.082527
3680.000000	100.079559
3679.000000	100.075976
3678.000000	100.073647
3677.000000	100.074521
3676.000000	100.077969
3675.000000	100.080543
3674.000000	100.079093
3673.000000	100.073581
3672.000000	100.066912
3671.000000	100.062318
3670.000000	100.060947
3669.000000	100.061299
3668.000000	100.060535
3667.000000	100.057224
3666.000000	100.052495
3665.000000	100.048293
3664.000000	100.045349
3663.000000	100.042999
3662.000000	100.040243
3661.000000	100.036892
3660.000000	100.033845
3659.000000	100.032290
3658.000000	100.032643
3657.000000	100.034055
3656.000000	100.035102
3655.000000	100.035051
3654.000000	100.034247
3653.000000	100.033197
3652.000000	100.031542
3651.000000	100.028550
3650.000000	100.025168
3649.000000	100.024317
3648.000000	100.026882
3647.000000	100.029505
3646.000000	100.029076
3645.000000	100.025974
3644.000000	100.021964
3643.000000	100.017684
3642.000000	100.012473
3641.000000	100.005738
3640.000000	99.997973
3639.000000	99.990461
3638.000000	99.984400
3637.000000	99.980520
3636.000000	99.979146
3635.000000	99.980133
3634.000000	99.982796
3633.000000	99.986219
3632.000000	99.989394
3631.000000	99.990543
3630.000000	99.987215
3629.000000	99.979137
3628.000000	99.970388
3627.000000	99.965241
3626.000000	99.964256
3625.000000	99.965608
3624.000000	99.966562
3623.000000	99.965240
3622.000000	99.962054
3621.000000	99.959037
3620.000000	99.957827
3619.000000	99.958191
3618.000000	99.958518
3617.000000	99.957777
3616.000000	99.956653
3615.000000	99.956436
3614.000000	99.957308
3613.000000	99.958460
3612.000000	99.959475
3611.000000	99.960859
3610.000000	99.963067
3609.000000	99.965316
3608.000000	99.966133
3607.000000	99.965215
3606.000000	99.963688
3605.000000	99.962557
3604.000000	99.961737
3603.000000	99.960745
3602.000000	99.959955
3601.000000	99.960582
3600.000000	99.962997
3599.000000	99.965808
3598.000000	99.967227
3597.000000	99.967024
3596.000000	99.966598
3595.000000	99.967142
3594.000000	99.968332
3593.000000	99.969095
3592.000000	99.969218
3591.000000	99.969704
3590.000000	99.971816
3589.000000	99.975878
3588.000000	99.980675
3587.000000	99.984038
3586.000000	99.984426
3585.000000	99.981858
3584.000000	99.977772
3583.000000	99.974095
3582.000000	99.971992
3581.000000	99.971636
3580.000000	99.972484
3579.000000	99.973490
3578.000000	99.973519
3577.000000	99.971939
3576.000000	99.969100
3575.000000	99.966323
3574.000000	99.965202
3573.000000	99.966522
3572.000000	99.969703
3571.000000	99.973097
3570.000000	99.975107
3569.000000	99.975246
3568.000000	99.974295
3567.000000	99.973361
3566.000000	99.972689
3565.000000	99.971814
3564.000000	99.970669
3563.000000	99.969658
3562.000000	99.968772
3561.000000	99.967582
3560.000000	99.965942
3559.000000	99.963979
3558.000000	99.961545
3557.000000	99.958364
3556.000000	99.954927
3555.000000	99.952709
3554.000000	99.953042
3553.000000	99.955943
3552.000000	99.960053
3551.000000	99.963598
3550.000000	99.965497
3549.000000	99.965603
3548.000000	99.964465
3547.000000	99.963052
3546.000000	99.962317
3545.000000	99.962644
3544.000000	99.963641
3543.000000	99.964472
3542.000000	99.964386
3541.000000	99.963129
3540.000000	99.961108
3539.000000	99.959214
3538.000000	99.958190
3537.000000	99.958134
3536.000000	99.958654
3535.000000	99.959388
3534.000000	99.960216
3533.000000	99.961041
3532.000000	99.961605
3531.000000	99.961667
3530.000000	99.961319
3529.000000	99.960940
3528.000000	99.960746
3527.000000	99.960522
3526.000000	99.959907
3525.000000	99.958847
3524.000000	99.957676
3523.000000	99.956793
3522.000000	99.956339
3521.000000	99.956201
3520.000000	99.956222
3519.000000	99.956257
3518.000000	99.956106
3517.000000	99.955583
3516.000000	99.954745
3515.000000	99.953943
3514.000000	99.953513
3513.000000	99.953443
3512.000000	99.953450
3511.000000	99.953396
3510.000000	99.953492
3509.000000	99.953963
3508.000000	99.954639
3507.000000	99.954973
3506.000000	99.954598
3505.000000	99.953602
3504.000000	99.952427
3503.000000	99.951537
3502.000000	99.951121
3501.000000	99.951157
3500.000000	99.951503
3499.000000	99.951863
3498.000000	99.951852
3497.000000	99.951252
3496.000000	99.950191
3495.000000	99.949022
3494.000000	99.947968
3493.000000	99.947017
3492.000000	99.946114
3491.000000	99.945273
3490.000000	99.944517
3489.000000	99.943824
3488.000000	99.943138
3487.000000	99.942383
3486.000000	99.941493
3485.000000	99.940485
3484.000000	99.939496
3483.000000	99.938660
3482.000000	99.937987
3481.000000	99.937419
3480.000000	99.936954
3479.000000	99.936633
3478.000000	99.936434
3477.000000	99.936307
3476.000000	99.936242
3475.000000	99.936114
3474.000000	99.935498
3473.000000	99.933983
3472.000000	99.931757
3471.000000	99.929728
3470.000000	99.928742
3469.000000	99.928830
3468.000000	99.929209
3467.000000	99.928994
3466.000000	99.927898
3465.000000	99.926215
3464.000000	99.924446
3463.000000	99.922957
3462.000000	99.921776
3461.000000	99.920568
3460.000000	99.918913
3459.000000	99.916758
3458.000000	99.914637
3457.000000	99.913349
3456.000000	99.913350
3455.000000	99.914367
3454.000000	99.915551
3453.000000	99.916110
3452.000000	99.915797
3451.000000	99.914872
3450.000000	99.913888
3449.000000	99.913498
3448.000000	99.914163
3447.000000	99.915682
3446.000000	99.917061
3445.000000	99.917278
3444.000000	99.916200
3443.000000	99.914592
3442.000000	99.913346
3441.000000	99.912743
3440.000000	99.912557
3439.000000	99.912570
3438.000000	99.912794
3437.000000	99.913338
3436.000000	99.914222
3435.000000	99.915238
3434.000000	99.916059
3433.000000	99.916610
3432.000000	99.917220
3431.000000	99.918153
3430.000000	99.919048
3429.000000	99.919168
3428.000000	99.918352
3427.000000	99.917450
3426.000000	99.917508
3425.000000	99.918737
3424.000000	99.920531
3423.000000	99.922164
3422.000000	99.923262
3421.000000	99.923621
3420.000000	99.923082
3419.000000	99.921858
3418.000000	99.920639
3417.000000	99.920042
3416.000000	99.920082
3415.000000	99.920355
3414.000000	99.920593
3413.000000	99.920900
3412.000000	99.921487
3411.000000	99.922316
3410.000000	99.923033
3409.000000	99.923197
3408.000000	99.922571
3407.000000	99.921287
3406.000000	99.919829
3405.000000	99.918763
3404.000000	99.918398
3403.000000	99.918673
3402.000000	99.919262
3401.000000	99.919739
3400.000000	99.919752
3399.000000	99.919141
3398.000000	99.918059
3397.000000	99.917004
3396.000000	99.916488
3395.000000	99.916586
3394.000000	99.916781
3393.000000	99.916360
3392.000000	99.915049
3391.000000	99.913311
3390.000000	99.912017
3389.000000	99.911686
3388.000000	99.912099
3387.000000	99.912477
3386.000000	99.912156
3385.000000	99.911198
3384.000000	99.910381
3383.000000	99.910473
3382.000000	99.911485
3381.000000	99.912731
3380.000000	99.913606
3379.000000	99.914100
3378.000000	99.914450
3377.000000	99.914595
3376.000000	99.914264
3375.000000	99.913481
3374.000000	99.912672
3373.000000	99.912242
3372.000000	99.912299
3371.000000	99.912835
3370.000000	99.913779
3369.000000	99.914710
3368.000000	99.914884
3367.000000	99.913918
3366.000000	99.912275
3365.000000	99.910944
3364.000000	99.910511
3363.000000	99.910740
3362.000000	99.910980
3361.000000	99.910904
3360.000000	99.910856
3359.000000	99.911507
3358.000000	99.913080
3357.000000	99.914822
3356.000000	99.915416
3355.000000	99.914199
3354.000000	99.911809
3353.000000	99.909592
3352.000000	99.908342
3351.000000	99.907845
3350.000000	99.907561
3349.000000	99.907329
3348.000000	99.907376
3347.000000	99.907955
3346.000000	99.909104
3345.000000	99.910583
3344.000000	99.911979
3343.000000	99.912869
3342.000000	99.913063
3341.000000	99.912733
3340.000000	99.912313
3339.000000	99.912277
3338.000000	99.912868
3337.000000	99.913938
3336.000000	99.915020
3335.000000	99.915727
3334.000000	99.916088
3333.000000	99.916431
3332.000000	99.916930
3331.000000	99.917326
3330.000000	99.917218
3329.000000	99.916551
3328.000000	99.915748
3327.000000	99.915365
3326.000000	99.915670
3325.000000	99.916550
3324.000000	99.917618
3323.000000	99.918418
3322.000000	99.918608
3321.000000	99.918062
3320.000000	99.916916
3319.000000	99.915566
3318.000000	99.914593
3317.000000	99.914481
3316.000000	99.915291
3315.000000	99.916601
3314.000000	99.917774
3313.000000	99.918423
3312.000000	99.918593
3311.000000	99.918594
3310.000000	99.918734
3309.000000	99.919096
3308.000000	99.919509
3307.000000	99.919723
3306.000000	99.919644
3305.000000	99.919438
3304.000000	99.919421
3303.000000	99.919778
3302.000000	99.920408
3301.000000	99.920992
3300.000000	99.921307
3299.000000	99.921407
3298.000000	99.921504
3297.000000	99.921749
3296.000000	99.922139
3295.000000	99.922604
3294.000000	99.923088
3293.000000	99.923542
3292.000000	99.923892
3291.000000	99.924060
3290.000000	99.923992
3289.000000	99.923696
3288.000000	99.923287
3287.000000	99.922993
3286.000000	99.923026
3285.000000	99.923406
3284.000000	99.923905
3283.000000	99.924203
3282.000000	99.924117
3281.000000	99.923641
3280.000000	99.922931
3279.000000	99.922327
3278.000000	99.922241
3277.000000	99.922828
3276.000000	99.923760
3275.000000	99.924445
3274.000000	99.924573
3273.000000	99.924344
3272.000000	99.924179
3271.000000	99.924313
3270.000000	99.924718
3269.000000	99.925280
3268.000000	99.925861
3267.000000	99.926172
3266.000000	99.925821
3265.000000	99.924655
3264.000000	99.923125
3263.000000	99.922164
3262.000000	99.922513
3261.000000	99.924235
3260.000000	99.926675
3259.000000	99.928909
3258.000000	99.930393
3257.000000	99.931148
3256.000000	99.931558
3255.000000	99.931946
3254.000000	99.932344
3253.000000	99.932623
3252.000000	99.932701
3251.000000	99.932527
3250.000000	99.931928
3249.000000	99.930673
3248.000000	99.928858
3247.000000	99.927173
3246.000000	99.926566
3245.000000	99.927514
3244.000000	99.929681
3243.000000	99.932156
3242.000000	99.934084
3241.000000	99.935175
3240.000000	99.935688
3239.000000	99.936108
3238.000000	99.936698
3237.000000	99.937315
3236.000000	99.937759
3235.000000	99.938208
3234.000000	99.939066
3233.000000	99.940324
3232.000000	99.941347
3231.000000	99.941540
3230.000000	99.941059
3229.000000	99.940670
3228.000000	99.940939
3227.000000	99.941770
3226.000000	99.942755
3225.000000	99.943695
3224.000000	99.944623
3223.000000	99.945452
3222.000000	99.945930
3221.000000	99.945999
3220.000000	99.945960
3219.000000	99.946181
3218.000000	99.946730
3217.000000	99.947418
3216.000000	99.948144
3215.000000	99.948962
3214.000000	99.949839
3213.000000	99.950548
3212.000000	99.950912
3211.000000	99.951037
3210.000000	99.951247
3209.000000	99.951785
3208.000000	99.952663
3207.000000	99.953738
3206.000000	99.954846
3205.000000	99.955873
3204.000000	99.956798
3203.000000	99.957693
3202.000000	99.958634
3201.000000	99.959576
3200.000000	99.960362
3199.000000	99.960877
3198.000000	99.961230
3197.000000	99.961680
3196.000000	99.962391
3195.000000	99.963334
3194.000000	99.964390
3193.000000	99.965461
3192.000000	99.966491
3191.000000	99.967480
3190.000000	99.968483
3189.000000	99.969536
3188.000000	99.970590
3187.000000	99.971567
3186.000000	99.972426
3185.000000	99.973086
3184.000000	99.973424
3183.000000	99.973484
3182.000000	99.973634
3181.000000	99.974249
3180.000000	99.975254
3179.000000	99.976238
3178.000000	99.977089
3177.000000	99.978235
3176.000000	99.980065
3175.000000	99.982340
3174.000000	99.984303
3173.000000	99.985356
3172.000000	99.985472
3171.000000	99.985176
3170.000000	99.985198
3169.000000	99.985942
3168.000000	99.987254
3167.000000	99.988673
3166.000000	99.989908
3165.000000	99.990951
3164.000000	99.991773
3163.000000	99.992189
3162.000000	99.992183
3161.000000	99.992106
3160.000000	99.992318
3159.000000	99.992825
3158.000000	99.993501
3157.000000	99.994479
3156.000000	99.995963
3155.000000	99.997748
3154.000000	99.999305
3153.000000	100.000374
3152.000000	100.001240
3151.000000	100.002424
3150.000000	100.004253
3149.000000	100.006677
3148.000000	100.009167
3147.000000	100.010819
3146.000000	100.011026
3145.000000	100.010006
3144.000000	100.008564
3143.000000	100.007470
3142.000000	100.007039
3141.000000	100.007292
3140.000000	100.008183
3139.000000	100.009461
3138.000000	100.010628
3137.000000	100.011341
3136.000000	100.011680
3135.000000	100.011968
3134.000000	100.012415
3133.000000	100.012998
3132.000000	100.013602
3131.000000	100.014154
3130.000000	100.014651
3129.000000	100.015116
3128.000000	100.015585
3127.000000	100.016085
3126.000000	100.016632
3125.000000	100.017217
3124.000000	100.017808
3123.000000	100.018356
3122.000000	100.018833
3121.000000	100.019261
3120.000000	100.019709
3119.000000	100.020233
3118.000000	100.020822
3117.000000	100.021426
3116.000000	100.022009
3115.000000	100.022583
3114.000000	100.023172
3113.000000	100.023786
3112.000000	100.024419
3111.000000	100.025063
3110.000000	100.025710
3109.000000	100.026357
3108.000000	100.027005
3107.000000	100.027665
3106.000000	100.028357
3105.000000	100.029096
3104.000000	100.029890
3103.000000	100.030730
3102.000000	100.031592
3101.000000	100.032452
3100.000000	100.033298
3099.000000	100.034134
3098.000000	100.034975
3097.000000	100.035835
3096.000000	100.036725
3095.000000	100.037651
3094.000000	100.038603
3093.000000	100.039544
3092.000000	100.040437
3091.000000	100.041277
3090.000000	100.042079
3089.000000	100.042852
3088.000000	100.043599
3087.000000	100.044342
3086.000000	100.045102
3085.000000	100.045866
3084.000000	100.046601
3083.000000	100.047320
3082.000000	100.048095
3081.000000	100.048979
3080.000000	100.049936
3079.000000	100.050852
3078.000000	100.051607
3077.000000	100.052136
3076.000000	100.052485
3075.000000	100.052842
3074.000000	100.053454
3073.000000	100.054445
3072.000000	100.055712
3071.000000	100.057030
3070.000000	100.058220
3069.000000	100.059156
3068.000000	100.059687
3067.000000	100.059734
3066.000000	100.059442
3065.000000	100.059039
3064.000000	100.058583
3063.000000	100.058058
3062.000000	100.057670
3061.000000	100.057840
3060.000000	100.058838
3059.000000	100.060635
3058.000000	100.062934
3057.000000	100.065202
3056.000000	100.066831
3055.000000	100.067402
3054.000000	100.066976
3053.000000	100.066063
3052.000000	100.065245
3051.000000	100.064857
3050.000000	100.065005
3049.000000	100.065644
3048.000000	100.066588
3047.000000	100.067613
3046.000000	100.068612
3045.000000	100.069599
3044.000000	100.070496
3043.000000	100.071047
3042.000000	100.071014
3041.000000	100.070444
3040.000000	100.069717
3039.000000	100.069310
3038.000000	100.069478
3037.000000	100.070164
3036.000000	100.071112
3035.000000	100.072042
3034.000000	100.072794
3033.000000	100.073391
3032.000000	100.074020
3031.000000	100.074854
3030.000000	100.075855
3029.000000	100.076780
3028.000000	100.077423
3027.000000	100.077818
3026.000000	100.078157
3025.000000	100.078593
3024.000000	100.079126
3023.000000	100.079687
3022.000000	100.080220
3021.000000	100.080700
3020.000000	100.081109
3019.000000	100.081428
3018.000000	100.081662
3017.000000	100.081865
3016.000000	100.082116
3015.000000	100.082473
3014.000000	100.082891
3013.000000	100.083191
3012.000000	100.083206
3011.000000	100.083009
3010.000000	100.082942
3009.000000	100.083240
3008.000000	100.083757
3007.000000	100.084125
3006.000000	100.084179
3005.000000	100.084083
3004.000000	100.084071
3003.000000	100.084190
3002.000000	100.084321
3001.000000	100.084280
3000.000000	100.083904
2999.000000	100.083261
2998.000000	100.082797
2997.000000	100.083022
2996.000000	100.083907
2995.000000	100.084780
2994.000000	100.085028
2993.000000	100.084776
2992.000000	100.084709
2991.000000	100.085327
2990.000000	100.086514
2989.000000	100.087746
2988.000000	100.088483
2987.000000	100.088328
2986.000000	100.087002
2985.000000	100.084432
2984.000000	100.081067
2983.000000	100.078043
2982.000000	100.076651
2981.000000	100.077290
2980.000000	100.078970
2979.000000	100.080226
2978.000000	100.080593
2977.000000	100.080670
2976.000000	100.080825
2975.000000	100.080541
2974.000000	100.079417
2973.000000	100.078269
2972.000000	100.078611
2971.000000	100.081240
2970.000000	100.085746
2969.000000	100.090844
2968.000000	100.094987
2967.000000	100.097109
2966.000000	100.097230
2965.000000	100.096474
2964.000000	100.096114
2963.000000	100.096628
2962.000000	100.097909
2961.000000	100.099914
2960.000000	100.102497
2959.000000	100.104821
2958.000000	100.105808
2957.000000	100.105386
2956.000000	100.104816
2955.000000	100.105378
2954.000000	100.106980
2953.000000	100.108518
2952.000000	100.109349
2951.000000	100.109943
2950.000000	100.111077
2949.000000	100.112858
2948.000000	100.114722
2947.000000	100.116088
2946.000000	100.116804
2945.000000	100.117140
2944.000000	100.117621
2943.000000	100.118773
2942.000000	100.120716
2941.000000	100.122936
2940.000000	100.124657
2939.000000	100.125669
2938.000000	100.126647
2937.000000	100.128435
2936.000000	100.131057
2935.000000	100.133603
2934.000000	100.135174
2933.000000	100.135658
2932.000000	100.135551
2931.000000	100.135419
2930.000000	100.135756
2929.000000	100.136973
2928.000000	100.138903
2927.000000	100.140425
2926.000000	100.140335
2925.000000	100.138791
2924.000000	100.137494
2923.000000	100.137897
2922.000000	100.139637
2921.000000	100.141218
2920.000000	100.141880
2919.000000	100.142165
2918.000000	100.142717
2917.000000	100.143262
2916.000000	100.143172
2915.000000	100.142457
2914.000000	100.141575
2913.000000	100.140448
2912.000000	100.138426
2911.000000	100.135514
2910.000000	100.133064
2909.000000	100.132623
2908.000000	100.134120
2907.000000	100.135705
2906.000000	100.135767
2905.000000	100.134704
2904.000000	100.134109
2903.000000	100.134617
2902.000000	100.135349
2901.000000	100.135471
2900.000000	100.135476
2899.000000	100.136438
2898.000000	100.138564
2897.000000	100.141003
2896.000000	100.142739
2895.000000	100.143265
2894.000000	100.142511
2893.000000	100.140752
2892.000000	100.138714
2891.000000	100.137380
2890.000000	100.137377
2889.000000	100.138522
2888.000000	100.139916
2887.000000	100.140529
2886.000000	100.139967
2885.000000	100.138847
2884.000000	100.138324
2883.000000	100.139054
2882.000000	100.140734
2881.000000	100.142705
2880.000000	100.144681
2879.000000	100.146631
2878.000000	100.148317
2877.000000	100.149406
2876.000000	100.150016
2875.000000	100.150798
2874.000000	100.152397
2873.000000	100.155013
2872.000000	100.158338
2871.000000	100.161563
2870.000000	100.163559
2869.000000	100.163630
2868.000000	100.162186
2867.000000	100.160615
2866.000000	100.160119
2865.000000	100.160774
2864.000000	100.161869
2863.000000	100.162845
2862.000000	100.163769
2861.000000	100.164987
2860.000000	100.166572
2859.000000	100.168129
2858.000000	100.169010
2857.000000	100.168775
2856.000000	100.167600
2855.000000	100.166301
2854.000000	100.165827
2853.000000	100.166568
2852.000000	100.168196
2851.000000	100.169975
2850.000000	100.171255
2849.000000	100.171795
2848.000000	100.171772
2847.000000	100.171589
2846.000000	100.171574
2845.000000	100.171813
2844.000000	100.172293
2843.000000	100.173078
2842.000000	100.174219
2841.000000	100.175530
2840.000000	100.176616
2839.000000	100.177260
2838.000000	100.177639
2837.000000	100.178066
2836.000000	100.178556
2835.000000	100.178769
2834.000000	100.178437
2833.000000	100.177729
2832.000000	100.177156
2831.000000	100.177099
2830.000000	100.177431
2829.000000	100.177622
2828.000000	100.177249
2827.000000	100.176388
2826.000000	100.175524
2825.000000	100.175068
2824.000000	100.175128
2823.000000	100.175767
2822.000000	100.177155
2821.000000	100.179249
2820.000000	100.181452
2819.000000	100.182904
2818.000000	100.183264
2817.000000	100.183011
2816.000000	100.183065
2815.000000	100.183965
2814.000000	100.185518
2813.000000	100.187099
2812.000000	100.188214
2811.000000	100.188771
2810.000000	100.188985
2809.000000	100.189146
2808.000000	100.189406
2807.000000	100.189751
2806.000000	100.190205
2805.000000	100.191021
2804.000000	100.192421
2803.000000	100.194050
2802.000000	100.194977
2801.000000	100.194568
2800.000000	100.193289
2799.000000	100.192487
2798.000000	100.193100
2797.000000	100.195001
2796.000000	100.197456
2795.000000	100.199905
2794.000000	100.202042
2793.000000	100.203455
2792.000000	100.203767
2791.000000	100.203130
2790.000000	100.202221
2789.000000	100.201655
2788.000000	100.201654
2787.000000	100.202277
2786.000000	100.203583
2785.000000	100.205434
2784.000000	100.207525
2783.000000	100.209793
2782.000000	100.212506
2781.000000	100.215763
2780.000000	100.219161
2779.000000	100.222127
2778.000000	100.224394
2777.000000	100.226006
2776.000000	100.227088
2775.000000	100.227837
2774.000000	100.228440
2773.000000	100.228749
2772.000000	100.228463
2771.000000	100.227782
2770.000000	100.227346
2769.000000	100.227328
2768.000000	100.227073
2767.000000	100.226115
2766.000000	100.225205
2765.000000	100.225610
2764.000000	100.227413
2763.000000	100.229178
2762.000000	100.229587
2761.000000	100.228892
2760.000000	100.228351
2759.000000	100.228680
2758.000000	100.229600
2757.000000	100.230592
2756.000000	100.231375
2755.000000	100.231663
2754.000000	100.231194
2753.000000	100.230290
2752.000000	100.229966
2751.000000	100.231010
2750.000000	100.233076
2749.000000	100.234940
2748.000000	100.235618
2747.000000	100.235062
2746.000000	100.233919
2745.000000	100.232943
2744.000000	100.232572
2743.000000	100.232689
2742.000000	100.232701
2741.000000	100.232037
2740.000000	100.230676
2739.000000	100.229081
2738.000000	100.227687
2737.000000	100.226673
2736.000000	100.226239
2735.000000	100.226735
2734.000000	100.228295
2733.000000	100.230425
2732.000000	100.232159
2731.000000	100.232664
2730.000000	100.231601
2729.000000	100.229156
2728.000000	100.226039
2727.000000	100.223341
2726.000000	100.221998
2725.000000	100.222277
2724.000000	100.223806
2723.000000	100.226054
2722.000000	100.228623
2721.000000	100.231123
2720.000000	100.233122
2719.000000	100.234363
2718.000000	100.234927
2717.000000	100.235086
2716.000000	100.235070
2715.000000	100.234985
2714.000000	100.234823
2713.000000	100.234494
2712.000000	100.233960
2711.000000	100.233478
2710.000000	100.233600
2709.000000	100.234756
2708.000000	100.236791
2707.000000	100.238877
2706.000000	100.240018
2705.000000	100.239751
2704.000000	100.238404
2703.000000	100.236843
2702.000000	100.235874
2701.000000	100.235760
2700.000000	100.236326
2699.000000	100.237373
2698.000000	100.238853
2697.000000	100.240622
2696.000000	100.242207
2695.000000	100.242995
2694.000000	100.242734
2693.000000	100.241715
2692.000000	100.240577
2691.000000	100.239933
2690.000000	100.240067
2689.000000	100.240927
2688.000000	100.242266
2687.000000	100.243776
2686.000000	100.245197
2685.000000	100.246329
2684.000000	100.246980
2683.000000	100.246993
2682.000000	100.246371
2681.000000	100.245364
2680.000000	100.244360
2679.000000	100.243643
2678.000000	100.243238
2677.000000	100.243042
2676.000000	100.243075
2675.000000	100.243505
2674.000000	100.244362
2673.000000	100.245343
2672.000000	100.246034
2671.000000	100.246290
2670.000000	100.246318
2669.000000	100.246386
2668.000000	100.246570
2667.000000	100.246778
2666.000000	100.246947
2665.000000	100.247160
2664.000000	100.247635
2663.000000	100.248585
2662.000000	100.249973
2661.000000	100.251318
2660.000000	100.251943
2659.000000	100.251554
2658.000000	100.250549
2657.000000	100.249718
2656.000000	100.249542
2655.000000	100.249976
2654.000000	100.250839
2653.000000	100.252165
2652.000000	100.254011
2651.000000	100.255957
2650.000000	100.257120
2649.000000	100.256867
2648.000000	100.255278
2647.000000	100.253065
2646.000000	100.251104
2645.000000	100.249994
2644.000000	100.250007
2643.000000	100.251119
2642.000000	100.252974
2641.000000	100.254954
2640.000000	100.256473
2639.000000	100.257275
2638.000000	100.257495
2637.000000	100.257479
2636.000000	100.257496
2635.000000	100.257608
2634.000000	100.257769
2633.000000	100.257986
2632.000000	100.258329
2631.000000	100.258823
2630.000000	100.259393
2629.000000	100.259890
2628.000000	100.260166
2627.000000	100.260181
2626.000000	100.260117
2625.000000	100.260343
2624.000000	100.261107
2623.000000	100.262157
2622.000000	100.262834
2621.000000	100.262722
2620.000000	100.262095
2619.000000	100.261623
2618.000000	100.261635
2617.000000	100.261870
2616.000000	100.261904
2615.000000	100.261595
2614.000000	100.261103
2613.000000	100.260712
2612.000000	100.260705
2611.000000	100.261240
2610.000000	100.262192
2609.000000	100.263255
2608.000000	100.264256
2607.000000	100.265236
2606.000000	100.266132
2605.000000	100.266635
2604.000000	100.266506
2603.000000	100.265866
2602.000000	100.265057
2601.000000	100.264319
2600.000000	100.263735
2599.000000	100.263387
2598.000000	100.263357
2597.000000	100.263632
2596.000000	100.264145
2595.000000	100.264903
2594.000000	100.265902
2593.000000	100.266953
2592.000000	100.267739
2591.000000	100.268058
2590.000000	100.267908
2589.000000	100.267384
2588.000000	100.266660
2587.000000	100.266088
2586.000000	100.266051
2585.000000	100.266666
2584.000000	100.267703
2583.000000	100.268744
2582.000000	100.269446
2581.000000	100.269637
2580.000000	100.269298
2579.000000	100.268592
2578.000000	100.267859
2577.000000	100.267483
2576.000000	100.267693
2575.000000	100.268478
2574.000000	100.269608
2573.000000	100.270710
2572.000000	100.271447
2571.000000	100.271687
2570.000000	100.271509
2569.000000	100.271066
2568.000000	100.270511
2567.000000	100.270023
2566.000000	100.269799
2565.000000	100.269917
2564.000000	100.270254
2563.000000	100.270630
2562.000000	100.270982
2561.000000	100.271352
2560.000000	100.271724
2559.000000	100.271973
2558.000000	100.271967
2557.000000	100.271692
2556.000000	100.271265
2555.000000	100.270856
2554.000000	100.270571
2553.000000	100.270377
2552.000000	100.270157
2551.000000	100.269861
2550.000000	100.269599
2549.000000	100.269522
2548.000000	100.269664
2547.000000	100.269913
2546.000000	100.270083
2545.000000	100.270046
2544.000000	100.269800
2543.000000	100.269456
2542.000000	100.269178
2541.000000	100.269035
2540.000000	100.268975
2539.000000	100.268930
2538.000000	100.268917
2537.000000	100.268992
2536.000000	100.269135
2535.000000	100.269227
2534.000000	100.269169
2533.000000	100.268963
2532.000000	100.268686
2531.000000	100.268441
2530.000000	100.268295
2529.000000	100.268269
2528.000000	100.268339
2527.000000	100.268459
2526.000000	100.268598
2525.000000	100.268743
2524.000000	100.268879
2523.000000	100.268998
2522.000000	100.269109
2521.000000	100.269226
2520.000000	100.269352
2519.000000	100.269477
2518.000000	100.269605
2517.000000	100.269757
2516.000000	100.269957
2515.000000	100.270214
2514.000000	100.270521
2513.000000	100.270856
2512.000000	100.271192
2511.000000	100.271511
2510.000000	100.271807
2509.000000	100.272086
2508.000000	100.272355
2507.000000	100.272620
2506.000000	100.272882
2505.000000	100.273157
2504.000000	100.273473
2503.000000	100.273841
2502.000000	100.274229
2501.000000	100.274593
2500.000000	100.274906
2499.000000	100.275165
2498.000000	100.275431
2497.000000	100.275821
2496.000000	100.276410
2495.000000	100.277105
2494.000000	100.277671
2493.000000	100.277982
2492.000000	100.278132
2491.000000	100.278304
2490.000000	100.278605
2489.000000	100.279073
2488.000000	100.279684
2487.000000	100.280278
2486.000000	100.280625
2485.000000	100.280693
2484.000000	100.280725
2483.000000	100.280962
2482.000000	100.281331
2481.000000	100.281514
2480.000000	100.281321
2479.000000	100.280924
2478.000000	100.280763
2477.000000	100.281203
2476.000000	100.282264
2475.000000	100.283596
2474.000000	100.284729
2473.000000	100.285393
2472.000000	100.285504
2471.000000	100.285009
2470.000000	100.283968
2469.000000	100.282835
2468.000000	100.282325
2467.000000	100.282792
2466.000000	100.283965
2465.000000	100.285366
2464.000000	100.286843
2463.000000	100.288445
2462.000000	100.289987
2461.000000	100.291033
2460.000000	100.291321
2459.000000	100.291067
2458.000000	100.290872
2457.000000	100.291326
2456.000000	100.292566
2455.000000	100.294041
2454.000000	100.294825
2453.000000	100.294453
2452.000000	100.293365
2451.000000	100.292479
2450.000000	100.292230
2449.000000	100.292265
2448.000000	100.292104
2447.000000	100.291843
2446.000000	100.291958
2445.000000	100.292519
2444.000000	100.292950
2443.000000	100.292736
2442.000000	100.292220
2441.000000	100.292357
2440.000000	100.293653
2439.000000	100.295564
2438.000000	100.297005
2437.000000	100.297476
2436.000000	100.297380
2435.000000	100.297362
2434.000000	100.297555
2433.000000	100.297590
2432.000000	100.297067
2431.000000	100.295886
2430.000000	100.294390
2429.000000	100.293268
2428.000000	100.293094
2427.000000	100.293846
2426.000000	100.295020
2425.000000	100.296239
2424.000000	100.297462
2423.000000	100.298505
2422.000000	100.298764
2421.000000	100.297834
2420.000000	100.296181
2419.000000	100.294696
2418.000000	100.293730
2417.000000	100.293058
2416.000000	100.292620
2415.000000	100.292744
2414.000000	100.293536
2413.000000	100.294609
2412.000000	100.295652
2411.000000	100.296787
2410.000000	100.298084
2409.000000	100.299148
2408.000000	100.299524
2407.000000	100.299263
2406.000000	100.298924
2405.000000	100.299107
2404.000000	100.299968
2403.000000	100.301192
2402.000000	100.302343
2401.000000	100.303214
2400.000000	100.303830
2399.000000	100.304298
2398.000000	100.304666
2397.000000	100.304923
2396.000000	100.305066
2395.000000	100.305111
2394.000000	100.305105
2393.000000	100.305125
2392.000000	100.305248
2391.000000	100.305499
2390.000000	100.305823
2389.000000	100.306122
2388.000000	100.306331
2387.000000	100.306464
2386.000000	100.306581
2385.000000	100.306713
2384.000000	100.306832
2383.000000	100.306877
2382.000000	100.306825
2381.000000	100.306720
2380.000000	100.306657
2379.000000	100.306710
2378.000000	100.306866
2377.000000	100.307049
2376.000000	100.307153
2375.000000	100.307129
2374.000000	100.306989
2373.000000	100.306774
2372.000000	100.306531
2371.000000	100.306298
2370.000000	100.306096
2369.000000	100.305925
2368.000000	100.305755
2367.000000	100.305511
2366.000000	100.305122
2365.000000	100.304577
2364.000000	100.303924
2363.000000	100.303215
2362.000000	100.302473
2361.000000	100.301704
2360.000000	100.300904
2359.000000	100.300064
2358.000000	100.299192
2357.000000	100.298308
2356.000000	100.297447
2355.000000	100.296637
2354.000000	100.295884
2353.000000	100.295179
2352.000000	100.294503
2351.000000	100.293841
2350.000000	100.293180
2349.000000	100.292512
2348.000000	100.291835
2347.000000	100.291151
2346.000000	100.290457
2345.000000	100.289742
2344.000000	100.288996
2343.000000	100.288217
2342.000000	100.287419
2341.000000	100.286623
2340.000000	100.285839
2339.000000	100.285059
2338.000000	100.284269
2337.000000	100.283463
2336.000000	100.282647
2335.000000	100.281844
2334.000000	100.281082
2333.000000	100.280379
2332.000000	100.279728
2331.000000	100.279093
2330.000000	100.278427
2329.000000	100.277693
2328.000000	100.276941
2327.000000	100.276248
2326.000000	100.275690
2325.000000	100.275246
2324.000000	100.274835
2323.000000	100.274340
2322.000000	100.273646
2321.000000	100.272757
2320.000000	100.271783
2319.000000	100.270976
2318.000000	100.270642
2317.000000	100.270948
2316.000000	100.271852
2315.000000	100.272952
2314.000000	100.273869
2313.000000	100.274267
2312.000000	100.274215
2311.000000	100.273874
2310.000000	100.273701
2309.000000	100.273811
2308.000000	100.274033
2307.000000	100.273683
2306.000000	100.272423
2305.000000	100.270382
2304.000000	100.268273
2303.000000	100.266714
2302.000000	100.266209
2301.000000	100.266874
2300.000000	100.268413
2299.000000	100.269764
2298.000000	100.270017
2297.000000	100.269131
2296.000000	100.268335
2295.000000	100.268806
2294.000000	100.270719
2293.000000	100.273083
2292.000000	100.275037
2291.000000	100.276532
2290.000000	100.278005
2289.000000	100.279278
2288.000000	100.279391
2287.000000	100.277845
2286.000000	100.275536
2285.000000	100.274077
2284.000000	100.274066
2283.000000	100.274452
2282.000000	100.273816
2281.000000	100.272093
2280.000000	100.270509
2279.000000	100.269948
2278.000000	100.269899
2277.000000	100.269375
2276.000000	100.268280
2275.000000	100.267439
2274.000000	100.267512
2273.000000	100.268381
2272.000000	100.269573
2271.000000	100.270700
2270.000000	100.271370
2269.000000	100.271082
2268.000000	100.269676
2267.000000	100.267762
2266.000000	100.266385
2265.000000	100.266047
2264.000000	100.266411
2263.000000	100.266817
2262.000000	100.266890
2261.000000	100.266559
2260.000000	100.265789
2259.000000	100.264663
2258.000000	100.263556
2257.000000	100.262913
2256.000000	100.262792
2255.000000	100.262861
2254.000000	100.262859
2253.000000	100.262900
2252.000000	100.263173
2251.000000	100.263577
2250.000000	100.263833
2249.000000	100.263772
2248.000000	100.263457
2247.000000	100.263092
2246.000000	100.262918
2245.000000	100.263042
2244.000000	100.263255
2243.000000	100.263103
2242.000000	100.262280
2241.000000	100.260991
2240.000000	100.259805
2239.000000	100.259160
2238.000000	100.259109
2237.000000	100.259411
2236.000000	100.259691
2235.000000	100.259608
2234.000000	100.259123
2233.000000	100.258593
2232.000000	100.258428
2231.000000	100.258654
2230.000000	100.258933
2229.000000	100.258979
2228.000000	100.258779
2227.000000	100.258506
2226.000000	100.258478
2225.000000	100.259137
2224.000000	100.260789
2223.000000	100.263224
2222.000000	100.265592
2221.000000	100.266919
2220.000000	100.266745
2219.000000	100.265313
2218.000000	100.263417
2217.000000	100.261954
2216.000000	100.261376
2215.000000	100.261561
2214.000000	100.262117
2213.000000	100.262726
2212.000000	100.263222
2211.000000	100.263508
2210.000000	100.263589
2209.000000	100.263646
2208.000000	100.263883
2207.000000	100.264324
2206.000000	100.264861
2205.000000	100.265470
2204.000000	100.266158
2203.000000	100.266717
2202.000000	100.266765
2201.000000	100.266097
2200.000000	100.264893
2199.000000	100.263573
2198.000000	100.262514
2197.000000	100.261953
2196.000000	100.261954
2195.000000	100.262333
2194.000000	100.262700
2193.000000	100.262730
2192.000000	100.262427
2191.000000	100.262079
2190.000000	100.261970
2189.000000	100.262131
2188.000000	100.262361
2187.000000	100.262431
2186.000000	100.262261
2185.000000	100.261931
2184.000000	100.261567
2183.000000	100.261235
2182.000000	100.260939
2181.000000	100.260668
2180.000000	100.260432
2179.000000	100.260266
2178.000000	100.260192
2177.000000	100.260187
2176.000000	100.260189
2175.000000	100.260137
2174.000000	100.260015
2173.000000	100.259861
2172.000000	100.259730
2171.000000	100.259641
2170.000000	100.259567
2169.000000	100.259482
2168.000000	100.259384
2167.000000	100.259278
2166.000000	100.259149
2165.000000	100.258967
2164.000000	100.258722
2163.000000	100.258440
2162.000000	100.258174
2161.000000	100.257983
2160.000000	100.257887
2159.000000	100.257849
2158.000000	100.257784
2157.000000	100.257672
2156.000000	100.257589
2155.000000	100.257617
2154.000000	100.257740
2153.000000	100.257845
2152.000000	100.257848
2151.000000	100.257753
2150.000000	100.257624
2149.000000	100.257527
2148.000000	100.257522
2147.000000	100.257636
2146.000000	100.257829
2145.000000	100.258027
2144.000000	100.258190
2143.000000	100.258301
2142.000000	100.258322
2141.000000	100.258215
2140.000000	100.258010
2139.000000	100.257819
2138.000000	100.257771
2137.000000	100.257960
2136.000000	100.258437
2135.000000	100.259127
2134.000000	100.259736
2133.000000	100.259908
2132.000000	100.259527
2131.000000	100.258807
2130.000000	100.258091
2129.000000	100.257554
2128.000000	100.257216
2127.000000	100.257117
2126.000000	100.257326
2125.000000	100.257788
2124.000000	100.258246
2123.000000	100.258419
2122.000000	100.258241
2121.000000	100.257902
2120.000000	100.257691
2119.000000	100.257797
2118.000000	100.258273
2117.000000	100.259059
2116.000000	100.260010
2115.000000	100.260908
2114.000000	100.261547
2113.000000	100.261830
2112.000000	100.261770
2111.000000	100.261491
2110.000000	100.261228
2109.000000	100.261251
2108.000000	100.261659
2107.000000	100.262279
2106.000000	100.262799
2105.000000	100.263056
2104.000000	100.263110
2103.000000	100.263071
2102.000000	100.262988
2101.000000	100.262965
2100.000000	100.263211
2099.000000	100.263842
2098.000000	100.264681
2097.000000	100.265366
2096.000000	100.265704
2095.000000	100.265826
2094.000000	100.266017
2093.000000	100.266441
2092.000000	100.267068
2091.000000	100.267813
2090.000000	100.268630
2089.000000	100.269469
2088.000000	100.270227
2087.000000	100.270794
2086.000000	100.271150
2085.000000	100.271398
2084.000000	100.271593
2083.000000	100.271581
2082.000000	100.271144
2081.000000	100.270426
2080.000000	100.270034
2079.000000	100.270499
2078.000000	100.271705
2077.000000	100.273022
2076.000000	100.273965
2075.000000	100.274568
2074.000000	100.275155
2073.000000	100.275932
2072.000000	100.276693
2071.000000	100.276751
2070.000000	100.275359
2069.000000	100.272572
2068.000000	100.269684
2067.000000	100.268257
2066.000000	100.268635
2065.000000	100.269755
2064.000000	100.270463
2063.000000	100.270673
2062.000000	100.270857
2061.000000	100.271094
2060.000000	100.271193
2059.000000	100.271339
2058.000000	100.271913
2057.000000	100.272708
2056.000000	100.272951
2055.000000	100.272214
2054.000000	100.270903
2053.000000	100.269740
2052.000000	100.268917
2051.000000	100.267877
2050.000000	100.265840
2049.000000	100.262539
2048.000000	100.258624
2047.000000	100.255351
2046.000000	100.253623
2045.000000	100.253250
2044.000000	100.253126
2043.000000	100.252263
2042.000000	100.250601
2041.000000	100.248762
2040.000000	100.247277
2039.000000	100.246200
2038.000000	100.245317
2037.000000	100.244398
2036.000000	100.243252
2035.000000	100.241806
2034.000000	100.240246
2033.000000	100.238883
2032.000000	100.237745
2031.000000	100.236424
2030.000000	100.234496
2029.000000	100.232020
2028.000000	100.229548
2027.000000	100.227696
2026.000000	100.226776
2025.000000	100.226733
2024.000000	100.227135
2023.000000	100.227251
2022.000000	100.226479
2021.000000	100.224761
2020.000000	100.222606
2019.000000	100.220682
2018.000000	100.219383
2017.000000	100.218703
2016.000000	100.218305
2015.000000	100.217723
2014.000000	100.216680
2013.000000	100.215267
2012.000000	100.213698
2011.000000	100.211885
2010.000000	100.209455
2009.000000	100.206344
2008.000000	100.203268
2007.000000	100.201286
2006.000000	100.200902
2005.000000	100.201761
2004.000000	100.202990
2003.000000	100.203741
2002.000000	100.203607
2001.000000	100.202728
2000.000000	100.201596
1999.000000	100.200628
1998.000000	100.199826
1997.000000	100.198950
1996.000000	100.197889
1995.000000	100.196771
1994.000000	100.195862
1993.000000	100.195490
1992.000000	100.195857
1991.000000	100.196671
1990.000000	100.197202
1989.000000	100.197001
1988.000000	100.196413
1987.000000	100.196139
1986.000000	100.196379
1985.000000	100.196734
1984.000000	100.196858
1983.000000	100.196752
1982.000000	100.196328
1981.000000	100.195252
1980.000000	100.193533
1979.000000	100.191959
1978.000000	100.191369
1977.000000	100.191686
1976.000000	100.192059
1975.000000	100.191892
1974.000000	100.191421
1973.000000	100.191155
1972.000000	100.191179
1971.000000	100.191192
1970.000000	100.191011
1969.000000	100.190784
1968.000000	100.190778
1967.000000	100.191083
1966.000000	100.191508
1965.000000	100.191677
1964.000000	100.191291
1963.000000	100.190424
1962.000000	100.189653
1961.000000	100.189741
1960.000000	100.191031
1959.000000	100.193102
1958.000000	100.195072
1957.000000	100.196301
1956.000000	100.196731
1955.000000	100.196745
1954.000000	100.196751
1953.000000	100.196755
1952.000000	100.196381
1951.000000	100.195426
1950.000000	100.194339
1949.000000	100.193853
1948.000000	100.194042
1947.000000	100.194042
1946.000000	100.193050
1945.000000	100.191366
1944.000000	100.189998
1943.000000	100.189316
1942.000000	100.188778
1941.000000	100.188154
1940.000000	100.188169
1939.000000	100.189377
1938.000000	100.191049
1937.000000	100.191815
1936.000000	100.191235
1935.000000	100.190170
1934.000000	100.189713
1933.000000	100.190284
1932.000000	100.191660
1931.000000	100.193213
1930.000000	100.194103
1929.000000	100.193823
1928.000000	100.192710
1927.000000	100.191543
1926.000000	100.190614
1925.000000	100.189670
1924.000000	100.188652
1923.000000	100.187862
1922.000000	100.187126
1921.000000	100.185685
1920.000000	100.183368
1919.000000	100.181133
1918.000000	100.179942
1917.000000	100.179327
1916.000000	100.177947
1915.000000	100.175484
1914.000000	100.173083
1913.000000	100.172114
1912.000000	100.172878
1911.000000	100.174306
1910.000000	100.174753
1909.000000	100.173307
1908.000000	100.170434
1907.000000	100.167298
1906.000000	100.164406
1905.000000	100.161306
1904.000000	100.157710
1903.000000	100.154575
1902.000000	100.153301
1901.000000	100.153983
1900.000000	100.155027
1899.000000	100.154838
1898.000000	100.153513
1897.000000	100.152379
1896.000000	100.152194
1895.000000	100.152267
1894.000000	100.151393
1893.000000	100.149338
1892.000000	100.147105
1891.000000	100.145931
1890.000000	100.146092
1889.000000	100.146523
1888.000000	100.145871
1887.000000	100.144039
1886.000000	100.142217
1885.000000	100.141566
1884.000000	100.142192
1883.000000	100.143351
1882.000000	100.144391
1881.000000	100.145189
1880.000000	100.145760
1879.000000	100.145916
1878.000000	100.145558
1877.000000	100.145096
1876.000000	100.145099
1875.000000	100.145583
1874.000000	100.146047
1873.000000	100.146254
1872.000000	100.146635
1871.000000	100.147690
1870.000000	100.149115
1869.000000	100.149889
1868.000000	100.149472
1867.000000	100.148336
1866.000000	100.147080
1865.000000	100.145904
1864.000000	100.145124
1863.000000	100.145446
1862.000000	100.147168
1861.000000	100.149465
1860.000000	100.151235
1859.000000	100.152493
1858.000000	100.154034
1857.000000	100.155897
1856.000000	100.157128
1855.000000	100.157282
1854.000000	100.157329
1853.000000	100.158532
1852.000000	100.160911
1851.000000	100.163359
1850.000000	100.164902
1849.000000	100.165455
1848.000000	100.165426
1847.000000	100.165224
1846.000000	100.165281
1845.000000	100.166178
1844.000000	100.168199
1843.000000	100.170904
1842.000000	100.173580
1841.000000	100.175729
1840.000000	100.176811
1839.000000	100.176261
1838.000000	100.174201
1837.000000	100.171796
1836.000000	100.170435
1835.000000	100.170756
1834.000000	100.172547
1833.000000	100.175038
1832.000000	100.177207
1831.000000	100.178217
1830.000000	100.178095
1829.000000	100.177761
1828.000000	100.177731
1827.000000	100.177618
1826.000000	100.177061
1825.000000	100.176342
1824.000000	100.175826
1823.000000	100.175188
1822.000000	100.174018
1821.000000	100.172767
1820.000000	100.172456
1819.000000	100.173533
1818.000000	100.175412
1817.000000	100.177091
1816.000000	100.177975
1815.000000	100.178037
1814.000000	100.177476
1813.000000	100.176528
1812.000000	100.175419
1811.000000	100.174214
1810.000000	100.172901
1809.000000	100.171720
1808.000000	100.171219
1807.000000	100.171810
1806.000000	100.173367
1805.000000	100.175331
1804.000000	100.177118
1803.000000	100.178457
1802.000000	100.179462
1801.000000	100.180354
1800.000000	100.181002
1799.000000	100.180984
1798.000000	100.180324
1797.000000	100.179700
1796.000000	100.179671
1795.000000	100.179965
1794.000000	100.179917
1793.000000	100.179657
1792.000000	100.180288
1791.000000	100.182125
1790.000000	100.184171
1789.000000	100.185534
1788.000000	100.186242
1787.000000	100.186685
1786.000000	100.187151
1785.000000	100.187766
1784.000000	100.188553
1783.000000	100.189401
1782.000000	100.190102
1781.000000	100.190586
1780.000000	100.191064
1779.000000	100.191769
1778.000000	100.192679
1777.000000	100.193631
1776.000000	100.194534
1775.000000	100.195394
1774.000000	100.196223
1773.000000	100.197032
1772.000000	100.197864
1771.000000	100.198733
1770.000000	100.199590
1769.000000	100.200407
1768.000000	100.201209
1767.000000	100.202032
1766.000000	100.202878
1765.000000	100.203723
1764.000000	100.204530
1763.000000	100.205259
1762.000000	100.205909
1761.000000	100.206581
1760.000000	100.207406
1759.000000	100.208374
1758.000000	100.209258
1757.000000	100.209782
1756.000000	100.210041
1755.000000	100.210534
1754.000000	100.211482
1753.000000	100.212455
1752.000000	100.212692
1751.000000	100.211950
1750.000000	100.211034
1749.000000	100.210816
1748.000000	100.211300
1747.000000	100.212110
1746.000000	100.213062
1745.000000	100.214131
1744.000000	100.215249
1743.000000	100.216286
1742.000000	100.217158
1741.000000	100.217796
1740.000000	100.218209
1739.000000	100.218526
1738.000000	100.218605
1737.000000	100.217918
1736.000000	100.216195
1735.000000	100.214140
1734.000000	100.213541
1733.000000	100.214985
1732.000000	100.216826
1731.000000	100.217985
1730.000000	100.218452
1729.000000	100.218267
1728.000000	100.217663
1727.000000	100.217194
1726.000000	100.217148
1725.000000	100.217163
1724.000000	100.216707
1723.000000	100.215850
1722.000000	100.215131
1721.000000	100.214538
1720.000000	100.213346
1719.000000	100.210919
1718.000000	100.207589
1717.000000	100.204468
1716.000000	100.201924
1715.000000	100.199684
1714.000000	100.197842
1713.000000	100.196580
1712.000000	100.195781
1711.000000	100.195143
1710.000000	100.194304
1709.000000	100.192872
1708.000000	100.190648
1707.000000	100.187804
1706.000000	100.184847
1705.000000	100.182228
1704.000000	100.179823
1703.000000	100.177282
1702.000000	100.174627
1701.000000	100.172384
1700.000000	100.170924
1699.000000	100.169585
1698.000000	100.167506
1697.000000	100.164674
1696.000000	100.161546
1695.000000	100.158711
1694.000000	100.156264
1693.000000	100.153955
1692.000000	100.151626
1691.000000	100.149264
1690.000000	100.146902
1689.000000	100.144533
1688.000000	100.142137
1687.000000	100.139708
1686.000000	100.137244
1685.000000	100.134737
1684.000000	100.132247
1683.000000	100.129866
1682.000000	100.127584
1681.000000	100.125368
1680.000000	100.123198
1679.000000	100.121055
1678.000000	100.118933
1677.000000	100.116838
1676.000000	100.114785
1675.000000	100.112784
1674.000000	100.110829
1673.000000	100.108903
1672.000000	100.106993
1671.000000	100.105093
1670.000000	100.103212
1669.000000	100.101362
1668.000000	100.099557
1667.000000	100.097800
1666.000000	100.096093
1665.000000	100.094438
1664.000000	100.092835
1663.000000	100.091287
1662.000000	100.089790
1661.000000	100.088344
1660.000000	100.086944
1659.000000	100.085594
1658.000000	100.084301
1657.000000	100.083071
1656.000000	100.081903
1655.000000	100.080784
1654.000000	100.079697
1653.000000	100.078635
1652.000000	100.077607
1651.000000	100.076629
1650.000000	100.075710
1649.000000	100.074859
1648.000000	100.074076
1647.000000	100.073354
1646.000000	100.072677
1645.000000	100.072035
1644.000000	100.071432
1643.000000	100.070882
1642.000000	100.070399
1641.000000	100.069982
1640.000000	100.069623
1639.000000	100.069301
1638.000000	100.068996
1637.000000	100.068703
1636.000000	100.068470
1635.000000	100.068370
1634.000000	100.068398
1633.000000	100.068453
1632.000000	100.068463
1631.000000	100.068406
1630.000000	100.068321
1629.000000	100.068284
1628.000000	100.068359
1627.000000	100.068566
1626.000000	100.068896
1625.000000	100.069327
1624.000000	100.069834
1623.000000	100.070441
1622.000000	100.071205
1621.000000	100.072084
1620.000000	100.072932
1619.000000	100.073627
1618.000000	100.074267
1617.000000	100.075289
1616.000000	100.076944
1615.000000	100.078738
1614.000000	100.080051
1613.000000	100.080739
1612.000000	100.080935
1611.000000	100.080991
1610.000000	100.081434
1609.000000	100.082661
1608.000000	100.084576
1607.000000	100.086536
1606.000000	100.088020
1605.000000	100.089264
1604.000000	100.090964
1603.000000	100.093325
1602.000000	100.095705
1601.000000	100.097326
1600.000000	100.098081
1599.000000	100.098463
1598.000000	100.098984
1597.000000	100.099813
1596.000000	100.100935
1595.000000	100.102516
1594.000000	100.104919
1593.000000	100.108350
1592.000000	100.112472
1591.000000	100.116549
1590.000000	100.120082
1589.000000	100.123179
1588.000000	100.126132
1587.000000	100.128584
1586.000000	100.129658
1585.000000	100.129043
1584.000000	100.127652
1583.000000	100.126941
1582.000000	100.127629
1581.000000	100.129422
1580.000000	100.131801
1579.000000	100.134739
1578.000000	100.138472
1577.000000	100.142678
1576.000000	100.145991
1575.000000	100.147516
1574.000000	100.148100
1573.000000	100.148933
1572.000000	100.150336
1571.000000	100.152178
1570.000000	100.154399
1569.000000	100.156757
1568.000000	100.158532
1567.000000	100.159233
1566.000000	100.159011
1565.000000	100.158496
1564.000000	100.158525
1563.000000	100.159714
1562.000000	100.161967
1561.000000	100.164803
1560.000000	100.167039
1559.000000	100.167944
1558.000000	100.168662
1557.000000	100.169418
1556.000000	100.170109
1555.000000	100.170799
1554.000000	100.171470
1553.000000	100.172128
1552.000000	100.172581
1551.000000	100.172637
1550.000000	100.172653
1549.000000	100.173107
1548.000000	100.173750
1547.000000	100.173946
1546.000000	100.173538
1545.000000	100.173112
1544.000000	100.173352
1543.000000	100.174100
1542.000000	100.174650
1541.000000	100.174853
1540.000000	100.175509
1539.000000	100.176903
1538.000000	100.178344
1537.000000	100.179381
1536.000000	100.180024
1535.000000	100.180366
1534.000000	100.180583
1533.000000	100.180924
1532.000000	100.181437
1531.000000	100.181993
1530.000000	100.182522
1529.000000	100.183048
1528.000000	100.183607
1527.000000	100.184200
1526.000000	100.184801
1525.000000	100.185396
1524.000000	100.185985
1523.000000	100.186561
1522.000000	100.187117
1521.000000	100.187651
1520.000000	100.188176
1519.000000	100.188715
1518.000000	100.189283
1517.000000	100.189889
1516.000000	100.190525
1515.000000	100.191169
1514.000000	100.191803
1513.000000	100.192428
1512.000000	100.193052
1511.000000	100.193683
1510.000000	100.194312
1509.000000	100.194930
1508.000000	100.195559
1507.000000	100.196254
1506.000000	100.197012
1505.000000	100.197706
1504.000000	100.198307
1503.000000	100.198926
1502.000000	100.199667
1501.000000	100.200590
1500.000000	100.201628
1499.000000	100.202579
1498.000000	100.203263
1497.000000	100.203733
1496.000000	100.204217
1495.000000	100.204710
1494.000000	100.204962
1493.000000	100.204883
1492.000000	100.204714
1491.000000	100.204870
1490.000000	100.205598
1489.000000	100.206761
1488.000000	100.208057
1487.000000	100.209270
1486.000000	100.210189
1485.000000	100.210698
1484.000000	100.211041
1483.000000	100.211684
1482.000000	100.212886
1481.000000	100.214504
1480.000000	100.216135
1479.000000	100.217385
1478.000000	100.217930
1477.000000	100.217699
1476.000000	100.217181
1475.000000	100.217131
1474.000000	100.217864
1473.000000	100.219247
1472.000000	100.220959
1471.000000	100.222314
1470.000000	100.222668
1469.000000	100.221985
1468.000000	100.220916
1467.000000	100.220473
1466.000000	100.221013
1465.000000	100.221417
1464.000000	100.220166
1463.000000	100.217200
1462.000000	100.213820
1461.000000	100.211268
1460.000000	100.210239
1459.000000	100.211114
1458.000000	100.213797
1457.000000	100.217110
1456.000000	100.219096
1455.000000	100.219389
1454.000000	100.219113
1453.000000	100.218849
1452.000000	100.218684
1451.000000	100.218565
1450.000000	100.218057
1449.000000	100.216387
1448.000000	100.213434
1447.000000	100.210364
1446.000000	100.208486
1445.000000	100.208230
1444.000000	100.209425
1443.000000	100.211534
1442.000000	100.213865
1441.000000	100.215870
1440.000000	100.217422
1439.000000	100.218647
1438.000000	100.219532
1437.000000	100.219858
1436.000000	100.219633
1435.000000	100.219151
1434.000000	100.218655
1433.000000	100.218435
1432.000000	100.218924
1431.000000	100.220327
1430.000000	100.221806
1429.000000	100.221820
1428.000000	100.219871
1427.000000	100.217142
1426.000000	100.215153
1425.000000	100.214521
1424.000000	100.215033
1423.000000	100.215994
1422.000000	100.216674
1421.000000	100.216765
1420.000000	100.216781
1419.000000	100.217840
1418.000000	100.219754
1417.000000	100.220693
1416.000000	100.220076
1415.000000	100.219440
1414.000000	100.220449
1413.000000	100.223165
1412.000000	100.226114
1411.000000	100.228052
1410.000000	100.229221
1409.000000	100.230487
1408.000000	100.232139
1407.000000	100.233902
1406.000000	100.235501
1405.000000	100.236846
1404.000000	100.237887
1403.000000	100.238606
1402.000000	100.239120
1401.000000	100.239581
1400.000000	100.240101
1399.000000	100.240772
1398.000000	100.241559
1397.000000	100.242340
1396.000000	100.243249
1395.000000	100.244728
1394.000000	100.246902
1393.000000	100.249148
1392.000000	100.250727
1391.000000	100.251536
1390.000000	100.252008
1389.000000	100.252575
1388.000000	100.253262
1387.000000	100.253891
1386.000000	100.254521
1385.000000	100.255432
1384.000000	100.256770
1383.000000	100.258451
1382.000000	100.260295
1381.000000	100.262105
1380.000000	100.263686
1379.000000	100.264909
1378.000000	100.265802
1377.000000	100.266552
1376.000000	100.267381
1375.000000	100.268438
1374.000000	100.269799
1373.000000	100.271442
1372.000000	100.273243
1371.000000	100.275021
1370.000000	100.276559
1369.000000	100.277706
1368.000000	100.278476
1367.000000	100.279053
1366.000000	100.279661
1365.000000	100.280468
1364.000000	100.281567
1363.000000	100.282918
1362.000000	100.284282
1361.000000	100.285406
1360.000000	100.286315
1359.000000	100.287275
1358.000000	100.288478
1357.000000	100.289882
1356.000000	100.291330
1355.000000	100.292752
1354.000000	100.294152
1353.000000	100.295424
1352.000000	100.296380
1351.000000	100.297049
1350.000000	100.297849
1349.000000	100.299303
1348.000000	100.301550
1347.000000	100.304100
1346.000000	100.306123
1345.000000	100.307049
1344.000000	100.306972
1343.000000	100.306577
1342.000000	100.306624
1341.000000	100.307462
1340.000000	100.308949
1339.000000	100.310678
1338.000000	100.312264
1337.000000	100.313463
1336.000000	100.314124
1335.000000	100.314201
1334.000000	100.313799
1333.000000	100.313194
1332.000000	100.312914
1331.000000	100.313638
1330.000000	100.315604
1329.000000	100.317978
1328.000000	100.319202
1327.000000	100.318358
1326.000000	100.315990
1325.000000	100.313557
1324.000000	100.312015
1323.000000	100.311326
1322.000000	100.311067
1321.000000	100.310996
1320.000000	100.311133
1319.000000	100.311645
1318.000000	100.312739
1317.000000	100.314422
1316.000000	100.316291
1315.000000	100.317819
1314.000000	100.318804
1313.000000	100.319309
1312.000000	100.319239
1311.000000	100.318386
1310.000000	100.317021
1309.000000	100.315971
1308.000000	100.315784
1307.000000	100.315992
1306.000000	100.315565
1305.000000	100.314155
1304.000000	100.312630
1303.000000	100.312218
1302.000000	100.313196
1301.000000	100.314582
1300.000000	100.315182
1299.000000	100.314819
1298.000000	100.314448
1297.000000	100.315175
1296.000000	100.317310
1295.000000	100.320143
1294.000000	100.322306
1293.000000	100.322514
1292.000000	100.320466
1291.000000	100.317311
1290.000000	100.314933
1289.000000	100.314304
1288.000000	100.314835
1287.000000	100.315337
1286.000000	100.315233
1285.000000	100.314787
1284.000000	100.314643
1283.000000	100.315355
1282.000000	100.316813
1281.000000	100.317794
1280.000000	100.316641
1279.000000	100.313059
1278.000000	100.309091
1277.000000	100.307398
1276.000000	100.308502
1275.000000	100.310384
1274.000000	100.310846
1273.000000	100.309923
1272.000000	100.309507
1271.000000	100.311176
1270.000000	100.314753
1269.000000	100.318373
1268.000000	100.319623
1267.000000	100.317397
1266.000000	100.313357
1265.000000	100.311048
1264.000000	100.312757
1263.000000	100.317450
1262.000000	100.321907
1261.000000	100.323425
1260.000000	100.321473
1259.000000	100.317826
1258.000000	100.315222
1257.000000	100.314804
1256.000000	100.314810
1255.000000	100.312919
1254.000000	100.309843
1253.000000	100.308711
1252.000000	100.310328
1251.000000	100.311277
1250.000000	100.308120
1249.000000	100.301887
1248.000000	100.296818
1247.000000	100.295823
1246.000000	100.298464
1245.000000	100.302029
1244.000000	100.303133
1243.000000	100.299719
1242.000000	100.293485
1241.000000	100.289122
1240.000000	100.288954
1239.000000	100.289342
1238.000000	100.285041
1237.000000	100.276578
1236.000000	100.270057
1235.000000	100.268815
1234.000000	100.268307
1233.000000	100.261459
1232.000000	100.247248
1231.000000	100.232009
1230.000000	100.223161
1229.000000	100.223241
1228.000000	100.229368
1227.000000	100.235786
1226.000000	100.236300
1225.000000	100.226850
1224.000000	100.208346
1223.000000	100.186947
1222.000000	100.169530
1221.000000	100.157900
1220.000000	100.148453
1219.000000	100.137643
1218.000000	100.125851
1217.000000	100.114504
1216.000000	100.101198
1215.000000	100.081085
1214.000000	100.053550
1213.000000	100.024694
1212.000000	100.001625
1211.000000	99.985846
1210.000000	99.973572
1209.000000	99.960404
1208.000000	99.943080
1207.000000	99.918392
1206.000000	99.884806
1205.000000	99.845837
1204.000000	99.808507
1203.000000	99.776859
1202.000000	99.749148
1201.000000	99.722585
1200.000000	99.697356
1199.000000	99.672928
1198.000000	99.643733
1197.000000	99.604345
1196.000000	99.558797
1195.000000	99.519485
1194.000000	99.494281
1193.000000	99.478154
1192.000000	99.460100
1191.000000	99.435093
1190.000000	99.405708
1189.000000	99.374485
1188.000000	99.339710
1187.000000	99.299399
1186.000000	99.255467
1185.000000	99.211532
1184.000000	99.168418
1183.000000	99.124141
1182.000000	99.077777
1181.000000	99.031348
1180.000000	98.987116
1179.000000	98.944024
1178.000000	98.898429
1177.000000	98.848837
1176.000000	98.798417
1175.000000	98.750905
1174.000000	98.704409
1173.000000	98.651908
1172.000000	98.589161
1171.000000	98.520543
1170.000000	98.455603
1169.000000	98.400849
1168.000000	98.356257
1167.000000	98.318902
1166.000000	98.288577
1165.000000	98.269717
1164.000000	98.267682
1163.000000	98.282486
1162.000000	98.306885
1161.000000	98.332277
1160.000000	98.355358
1159.000000	98.376427
1158.000000	98.392185
1157.000000	98.394550
1156.000000	98.377891
1155.000000	98.344186
1154.000000	98.299524
1153.000000	98.248415
1152.000000	98.194491
1151.000000	98.144181
1150.000000	98.103978
1149.000000	98.073352
1148.000000	98.044379
1147.000000	98.009977
1146.000000	97.970334
1145.000000	97.930144
1144.000000	97.892025
1143.000000	97.854880
1142.000000	97.817403
1141.000000	97.780618
1140.000000	97.746717
1139.000000	97.716749
1138.000000	97.689568
1137.000000	97.662150
1136.000000	97.631195
1135.000000	97.595989
1134.000000	97.560107
1133.000000	97.528643
1132.000000	97.502812
1131.000000	97.478539
1130.000000	97.451552
1129.000000	97.422576
1128.000000	97.395717
1127.000000	97.372789
1126.000000	97.351262
1125.000000	97.327133
1124.000000	97.298093
1123.000000	97.265136
1122.000000	97.233525
1121.000000	97.210501
1120.000000	97.197833
1119.000000	97.186252
1118.000000	97.162532
1117.000000	97.124921
1116.000000	97.086736
1115.000000	97.061065
1114.000000	97.046595
1113.000000	97.032955
1112.000000	97.014831
1111.000000	96.993423
1110.000000	96.968087
1109.000000	96.936490
1108.000000	96.902540
1107.000000	96.875713
1106.000000	96.861139
1105.000000	96.856039
1104.000000	96.855540
1103.000000	96.855677
1102.000000	96.850768
1101.000000	96.834519
1100.000000	96.805584
1099.000000	96.768533
1098.000000	96.729869
1097.000000	96.696261
1096.000000	96.673732
1095.000000	96.662472
1094.000000	96.653847
1093.000000	96.638791
1092.000000	96.617851
1091.000000	96.597062
1090.000000	96.576778
1089.000000	96.553007
1088.000000	96.528470
1087.000000	96.512455
1086.000000	96.507893
1085.000000	96.506172
1084.000000	96.497069
1083.000000	96.478317
1082.000000	96.455179
1081.000000	96.436277
1080.000000	96.428784
1079.000000	96.430578
1078.000000	96.427890
1077.000000	96.408579
1076.000000	96.376488
1075.000000	96.344166
1074.000000	96.312729
1073.000000	96.270528
1072.000000	96.212991
1071.000000	96.150962
1070.000000	96.094400
1069.000000	96.038372
1068.000000	95.971937
1067.000000	95.891883
1066.000000	95.800705
1065.000000	95.698471
1064.000000	95.584575
1063.000000	95.462911
1062.000000	95.338829
1061.000000	95.214850
1060.000000	95.094381
1059.000000	94.984738
1058.000000	94.890750
1057.000000	94.808760
1056.000000	94.730712
1055.000000	94.650499
1054.000000	94.564535
1053.000000	94.472013
1052.000000	94.377103
1051.000000	94.284262
1050.000000	94.189615
1049.000000	94.086803
1048.000000	93.983552
1047.000000	93.899020
1046.000000	93.839828
1045.000000	93.791308
1044.000000	93.738126
1043.000000	93.682113
1042.000000	93.631291
1041.000000	93.581550
1040.000000	93.521274
1039.000000	93.448532
1038.000000	93.371764
1037.000000	93.296424
1036.000000	93.222388
1035.000000	93.153447
1034.000000	93.098463
1033.000000	93.061695
1032.000000	93.039902
1031.000000	93.029796
1030.000000	93.031087
1029.000000	93.040267
1028.000000	93.047954
1027.000000	93.046516
1026.000000	93.036917
1025.000000	93.024620
1024.000000	93.011454
1023.000000	92.995589
1022.000000	92.977994
1021.000000	92.963884
1020.000000	92.956518
1019.000000	92.953355
1018.000000	92.950822
1017.000000	92.949467
1016.000000	92.950158
1015.000000	92.947931
1014.000000	92.936089
1013.000000	92.916059
1012.000000	92.896359
1011.000000	92.880634
1010.000000	92.863643
1009.000000	92.841705
1008.000000	92.820248
1007.000000	92.806644
1006.000000	92.801336
1005.000000	92.800754
1004.000000	92.803213
1003.000000	92.806751
1002.000000	92.807180
1001.000000	92.804403
1000.000000	92.805554
999.000000	92.815764
998.000000	92.830275
997.000000	92.841574
996.000000	92.849762
995.000000	92.859649
994.000000	92.872274
993.000000	92.885739
992.000000	92.900014
991.000000	92.914771
990.000000	92.927115
989.000000	92.937614
988.000000	92.953144
987.000000	92.977300
986.000000	93.003929
985.000000	93.026732
984.000000	93.048576
983.000000	93.074086
982.000000	93.101401
981.000000	93.130263
980.000000	93.169005
979.000000	93.221769
978.000000	93.277398
977.000000	93.325060
976.000000	93.373592
975.000000	93.438941
974.000000	93.518717
973.000000	93.596991
972.000000	93.671214
971.000000	93.755108
970.000000	93.854555
969.000000	93.959511
968.000000	94.062230
967.000000	94.164920
966.000000	94.263514
965.000000	94.341920
964.000000	94.393174
963.000000	94.434037
962.000000	94.488070
961.000000	94.562165
960.000000	94.647881
959.000000	94.737200
958.000000	94.827365
957.000000	94.915952
956.000000	95.000180
955.000000	95.078712
954.000000	95.149241
953.000000	95.208198
952.000000	95.256798
951.000000	95.302396
950.000000	95.349482
949.000000	95.394404
948.000000	95.433803
947.000000	95.473029
946.000000	95.520290
945.000000	95.576098
944.000000	95.633670
943.000000	95.686299
942.000000	95.729685
941.000000	95.761079
940.000000	95.781874
939.000000	95.798444
938.000000	95.815091
937.000000	95.828444
936.000000	95.834230
935.000000	95.837612
934.000000	95.851031
933.000000	95.881664
932.000000	95.924786
931.000000	95.968720
930.000000	96.003006
929.000000	96.023485
928.000000	96.034449
927.000000	96.046573
926.000000	96.068594
925.000000	96.099423
924.000000	96.130873
923.000000	96.158702
922.000000	96.188082
921.000000	96.226320
920.000000	96.272197
919.000000	96.314848
918.000000	96.342878
917.000000	96.353222
916.000000	96.351146
915.000000	96.344077
914.000000	96.337781
913.000000	96.338269
912.000000	96.354195
911.000000	96.393293
910.000000	96.455249
909.000000	96.529911
908.000000	96.603938
907.000000	96.668936
906.000000	96.722945
905.000000	96.766685
904.000000	96.801722
903.000000	96.832465
902.000000	96.866415
901.000000	96.909449
900.000000	96.962169
899.000000	97.023470
898.000000	97.096116
897.000000	97.183601
896.000000	97.280349
895.000000	97.370818
894.000000	97.443671
893.000000	97.503797
892.000000	97.565299
891.000000	97.634728
890.000000	97.705670
889.000000	97.767389
888.000000	97.812973
887.000000	97.841653
886.000000	97.860429
885.000000	97.882037
884.000000	97.914292
883.000000	97.951873
882.000000	97.985281
881.000000	98.016798
880.000000	98.058391
879.000000	98.113416
878.000000	98.171427
877.000000	98.224263
876.000000	98.276094
875.000000	98.332336
874.000000	98.390661
873.000000	98.450699
872.000000	98.520943
871.000000	98.604721
870.000000	98.687916
869.000000	98.753335
868.000000	98.802033
867.000000	98.849146
866.000000	98.901177
865.000000	98.947753
864.000000	98.977045
863.000000	98.990989
862.000000	99.003090
861.000000	99.026674
860.000000	99.066979
859.000000	99.119888
858.000000	99.174924
857.000000	99.221577
856.000000	99.255084
855.000000	99.276912
854.000000	99.290572
853.000000	99.297030
852.000000	99.293187
851.000000	99.276590
850.000000	99.256045
849.000000	99.255281
848.000000	99.296186
847.000000	99.374189
846.000000	99.456932
845.000000	99.512885
844.000000	99.535693
843.000000	99.537812
842.000000	99.531629
841.000000	99.523823
840.000000	99.517199
839.000000	99.506838
838.000000	99.482456
837.000000	99.445750
836.000000	99.416497
835.000000	99.407107
834.000000	99.399812
833.000000	99.369559
832.000000	99.326206
831.000000	99.310227
830.000000	99.341765
829.000000	99.396324
828.000000	99.441305
827.000000	99.474272
826.000000	99.506834
825.000000	99.531348
824.000000	99.531986
823.000000	99.517788
822.000000	99.514265
821.000000	99.525622
820.000000	99.532263
819.000000	99.523983
818.000000	99.511068
817.000000	99.499982
816.000000	99.479317
815.000000	99.441094
814.000000	99.401698
813.000000	99.383580
812.000000	99.378863
811.000000	99.346710
810.000000	99.250795
809.000000	99.089085
808.000000	98.882659
807.000000	98.645942
806.000000	98.378951
805.000000	98.085225
804.000000	97.785008
803.000000	97.506835
802.000000	97.272998
801.000000	97.095876
800.000000	96.978538
799.000000	96.909451
798.000000	96.864653
797.000000	96.829655
796.000000	96.814809
795.000000	96.833628
794.000000	96.869193
793.000000	96.881847
792.000000	96.855589
791.000000	96.818471
790.000000	96.805748
789.000000	96.816812
788.000000	96.821624
787.000000	96.799684
786.000000	96.757417
785.000000	96.711985
784.000000	96.673905
783.000000	96.644995
782.000000	96.617801
781.000000	96.574292
780.000000	96.500407
779.000000	96.409649
778.000000	96.339606
777.000000	96.314147
776.000000	96.317593
775.000000	96.318057
774.000000	96.312891
773.000000	96.335515
772.000000	96.414721
771.000000	96.540575
770.000000	96.675040
769.000000	96.788149
768.000000	96.875995
767.000000	96.949833
766.000000	97.020752
765.000000	97.093042
764.000000	97.161384
763.000000	97.214874
762.000000	97.253015
761.000000	97.295543
760.000000	97.363496
759.000000	97.448333
758.000000	97.512522
757.000000	97.527979
756.000000	97.505622
755.000000	97.482336
754.000000	97.486937
753.000000	97.524816
752.000000	97.586616
751.000000	97.660224
750.000000	97.735451
749.000000	97.804735
748.000000	97.862551
747.000000	97.904719
746.000000	97.931145
745.000000	97.949027
744.000000	97.968139
743.000000	97.991761
742.000000	98.016720
741.000000	98.042070
740.000000	98.071380
739.000000	98.107010
738.000000	98.150432
737.000000	98.207040
736.000000	98.279340
735.000000	98.353494
734.000000	98.405684
733.000000	98.430218
732.000000	98.451005
731.000000	98.493550
730.000000	98.550544
729.000000	98.588648
728.000000	98.587037
727.000000	98.556636
726.000000	98.524053
725.000000	98.509733
724.000000	98.521506
723.000000	98.555102
722.000000	98.597756
721.000000	98.641729
720.000000	98.695652
719.000000	98.769208
718.000000	98.845801
717.000000	98.889193
716.000000	98.882825
715.000000	98.852009
714.000000	98.840739
713.000000	98.869082
712.000000	98.918209
711.000000	98.951398
710.000000	98.944914
709.000000	98.905186
708.000000	98.863484
707.000000	98.850263
706.000000	98.868487
705.000000	98.893404
704.000000	98.900162
703.000000	98.887604
702.000000	98.872315
701.000000	98.862526
700.000000	98.839855
699.000000	98.767899
698.000000	98.625269
697.000000	98.438518
696.000000	98.276645
695.000000	98.198174
694.000000	98.204720
693.000000	98.249260
692.000000	98.287277
691.000000	98.314805
690.000000	98.356543
689.000000	98.434461
688.000000	98.553694
687.000000	98.700864
686.000000	98.844637
685.000000	98.951278
684.000000	99.010649
683.000000	99.036845
682.000000	99.037285
681.000000	98.998349
680.000000	98.918193
679.000000	98.839488
678.000000	98.824238
677.000000	98.897323
676.000000	99.028778
675.000000	99.165653
674.000000	99.271691
673.000000	99.335827
672.000000	99.363811
671.000000	99.370405
670.000000	99.370900
669.000000	99.368835
668.000000	99.349642
667.000000	99.323592
666.000000	99.333534
665.000000	99.386041
664.000000	99.450280
663.000000	99.489911
662.000000	99.487062
661.000000	99.465297
660.000000	99.471332
659.000000	99.530398
658.000000	99.626235
657.000000	99.721407
656.000000	99.786832
655.000000	99.810251
654.000000	99.790137
653.000000	99.734856
652.000000	99.666243
651.000000	99.614419
650.000000	99.596068
