4000.000000	99.721414
3999.000000	99.724375
3998.000000	99.730968
3997.000000	99.737681
3996.000000	99.740337
3995.000000	99.737584
3994.000000	99.731763
3993.000000	99.727244
3992.000000	99.725774
3991.000000	99.724972
3990.000000	99.721486
3989.000000	99.714377
3988.000000	99.705779
3987.000000	99.698609
3986.000000	99.693812
3985.000000	99.690540
3984.000000	99.688151
3983.000000	99.687347
3982.000000	99.689091
3981.000000	99.692970
3980.000000	99.697146
3979.000000	99.699927
3978.000000	99.700939
3977.000000	99.700692
3976.000000	99.699508
3975.000000	99.697331
3974.000000	99.694539
3973.000000	99.692470
3972.000000	99.692584
3971.000000	99.694950
3970.000000	99.697791
3969.000000	99.698911
3968.000000	99.697643
3967.000000	99.695200
3966.000000	99.693285
3965.000000	99.692499
3964.000000	99.692070
3963.000000	99.690809
3962.000000	99.688246
3961.000000	99.685049
3960.000000	99.682489
3959.000000	99.681376
3958.000000	99.681269
3957.000000	99.680934
3956.000000	99.679668
3955.000000	99.678040
3954.000000	99.677190
3953.000000	99.677607
3952.000000	99.678800
3951.000000	99.680134
3950.000000	99.681809
3949.000000	99.684625
3948.000000	99.688637
3947.000000	99.692232
3946.000000	99.693240
3945.000000	99.690871
3944.000000	99.686280
3943.000000	99.681680
3942.000000	99.678506
3941.000000	99.676616
3940.000000	99.675336
3939.000000	99.674548
3938.000000	99.674422
3937.000000	99.674662
3936.000000	99.674582
3935.000000	99.673879
3934.000000	99.673084
3933.000000	99.673115
3932.000000	99.674413
3931.000000	99.676417
3930.000000	99.677959
3929.000000	99.678190
3928.000000	99.677112
3927.000000	99.675338
3926.000000	99.673564
3925.000000	99.672505
3924.000000	99.673053
3923.000000	99.675592
3922.000000	99.678927
3921.000000	99.680603
3920.000000	99.678964
3919.000000	99.674783
3918.000000	99.670613
3917.000000	99.668185
3916.000000	99.667028
3915.000000	99.665820
3914.000000	99.664267
3913.000000	99.663188
3912.000000	99.663367
3911.000000	99.664883
3910.000000	99.667029
3909.000000	99.668923
3908.000000	99.670205
3907.000000	99.671302
3906.000000	99.673062
3905.000000	99.676328
3904.000000	99.681616
3903.000000	99.688441
3902.000000	99.694666
3901.000000	99.697352
3900.000000	99.694946
3899.000000	99.688570
3898.000000	99.681122
3897.000000	99.674972
3896.000000	99.670805
3895.000000	99.668136
3894.000000	99.666212
3893.000000	99.664695
3892.000000	99.664007
3891.000000	99.665153
3890.000000	99.668472
3889.000000	99.673462
3888.000000	99.679182
3887.000000	99.684433
3886.000000	99.689091
3885.000000	99.694657
3884.000000	99.701744
3883.000000	99.707928
3882.000000	99.708954
3881.000000	99.703109
3880.000000	99.693781
3879.000000	99.685799
3878.000000	99.680821
3877.000000	99.677844
3876.000000	99.675658
3875.000000	99.674413
3874.000000	99.675500
3873.000000	99.679996
3872.000000	99.687666
3871.000000	99.697031
3870.000000	99.706384
3869.000000	99.714775
3868.000000	99.722207
3867.000000	99.728640
3866.000000	99.731602
3865.000000	99.726981
3864.000000	99.713757
3863.000000	99.696150
3862.000000	99.679908
3861.000000	99.668478
3860.000000	99.663345
3859.000000	99.665400
3858.000000	99.674867
3857.000000	99.691384
3856.000000	99.713276
3855.000000	99.735216
3854.000000	99.749060
3853.000000	99.751126
3852.000000	99.744984
3851.000000	99.735123
3850.000000	99.723129
3849.000000	99.710100
3848.000000	99.698858
3847.000000	99.692244
3846.000000	99.690284
3845.000000	99.690422
3844.000000	99.690079
3843.000000	99.688197
3842.000000	99.684896
3841.000000	99.681055
3840.000000	99.678107
3839.000000	99.678009
3838.000000	99.682258
3837.000000	99.689665
3836.000000	99.696230
3835.000000	99.698644
3834.000000	99.696697
3833.000000	99.692497
3832.000000	99.688587
3831.000000	99.686746
3830.000000	99.687620
3829.000000	99.690453
3828.000000	99.693203
3827.000000	99.693981
3826.000000	99.692773
3825.000000	99.691483
3824.000000	99.691797
3823.000000	99.693120
3822.000000	99.693797
3821.000000	99.694764
3820.000000	99.699373
3819.000000	99.709222
3818.000000	99.720992
3817.000000	99.727692
3816.000000	99.724969
3815.000000	99.715361
3814.000000	99.705461
3813.000000	99.699251
3812.000000	99.695807
3811.000000	99.692768
3810.000000	99.689240
3809.000000	99.684812
3808.000000	99.679134
3807.000000	99.673657
3806.000000	99.671597
3805.000000	99.675487
3804.000000	99.685093
3803.000000	99.696646
3802.000000	99.705142
3801.000000	99.708237
3800.000000	99.706550
3799.000000	99.701333
3798.000000	99.692912
3797.000000	99.681903
3796.000000	99.670978
3795.000000	99.662999
3794.000000	99.658366
3793.000000	99.655173
3792.000000	99.651515
3791.000000	99.647708
3790.000000	99.645831
3789.000000	99.646888
3788.000000	99.649446
3787.000000	99.650942
3786.000000	99.649704
3785.000000	99.645707
3784.000000	99.639911
3783.000000	99.633491
3782.000000	99.627490
3781.000000	99.622428
3780.000000	99.618388
3779.000000	99.616134
3778.000000	99.617357
3777.000000	99.623261
3776.000000	99.632850
3775.000000	99.643052
3774.000000	99.650833
3773.000000	99.655270
3772.000000	99.657096
3771.000000	99.656989
3770.000000	99.655633
3769.000000	99.654754
3768.000000	99.656166
3767.000000	99.659503
3766.000000	99.661786
3765.000000	99.660107
3764.000000	99.654517
3763.000000	99.647737
3762.000000	99.642200
3761.000000	99.638382
3760.000000	99.636534
3759.000000	99.638276
3758.000000	99.644147
3757.000000	99.651436
3756.000000	99.657243
3755.000000	99.662096
3754.000000	99.668060
3753.000000	99.675552
3752.000000	99.684315
3751.000000	99.696123
3750.000000	99.711458
3749.000000	99.724802
3748.000000	99.731773
3747.000000	99.736000
3746.000000	99.741461
3745.000000	99.745127
3744.000000	99.741094
3743.000000	99.728233
3742.000000	99.712138
3741.000000	99.697071
3740.000000	99.682553
3739.000000	99.670595
3738.000000	99.663938
3737.000000	99.660215
3736.000000	99.656190
3735.000000	99.654649
3734.000000	99.660978
3733.000000	99.673921
3732.000000	99.685688
3731.000000	99.690698
3730.000000	99.689035
3729.000000	99.682000
3728.000000	99.669145
3727.000000	99.651121
3726.000000	99.633179
3725.000000	99.622572
3724.000000	99.621780
3723.000000	99.625719
3722.000000	99.626642
3721.000000	99.621046
3720.000000	99.610935
3719.000000	99.600254
3718.000000	99.591260
3717.000000	99.583959
3716.000000	99.577951
3715.000000	99.573421
3714.000000	99.569992
3713.000000	99.566371
3712.000000	99.562119
3711.000000	99.558682
3710.000000	99.556809
3709.000000	99.554378
3708.000000	99.549490
3707.000000	99.542945
3706.000000	99.536135
3705.000000	99.528368
3704.000000	99.517268
3703.000000	99.501926
3702.000000	99.485706
3701.000000	99.474435
3700.000000	99.470376
3699.000000	99.470557
3698.000000	99.470401
3697.000000	99.467699
3696.000000	99.463947
3695.000000	99.462733
3694.000000	99.466111
3693.000000	99.473120
3692.000000	99.481861
3691.000000	99.491401
3690.000000	99.500853
3689.000000	99.508065
3688.000000	99.510500
3687.000000	99.507174
3686.000000	99.500163
3685.000000	99.492223
3684.000000	99.484084
3683.000000	99.475839
3682.000000	99.468023
3681.000000	99.461062
3680.000000	99.455538
3679.000000	99.453408
3678.000000	99.457619
3677.000000	99.468572
3676.000000	99.481650
3675.000000	99.490869
3674.000000	99.493802
3673.000000	99.492118
3672.000000	99.488220
3671.000000	99.482199
3670.000000	99.474305
3669.000000	99.466771
3668.000000	99.460055
3667.000000	99.452031
3666.000000	99.442161
3665.000000	99.432922
3664.000000	99.426954
3663.000000	99.424681
3662.000000	99.424640
3661.000000	99.425600
3660.000000	99.428239
3659.000000	99.434161
3658.000000	99.443429
3657.000000	99.453588
3656.000000	99.461964
3655.000000	99.468319
3654.000000	99.474349
3653.000000	99.480433
3652.000000	99.483914
3651.000000	99.481754
3650.000000	99.475552
3649.000000	99.472428
3648.000000	99.476367
3647.000000	99.481943
3646.000000	99.482796
3645.000000	99.479653
3644.000000	99.476298
3643.000000	99.473951
3642.000000	99.470941
3641.000000	99.465499
3640.000000	99.457634
3639.000000	99.448703
3638.000000	99.440078
3637.000000	99.432570
3636.000000	99.426834
3635.000000	99.423729
3634.000000	99.424144
3633.000000	99.428438
3632.000000	99.435359
3631.000000	99.440939
3630.000000	99.440145
3629.000000	99.432649
3628.000000	99.424818
3627.000000	99.421723
3626.000000	99.421835
3625.000000	99.421036
3624.000000	99.417036
3623.000000	99.410762
3622.000000	99.405012
3621.000000	99.401933
3620.000000	99.401542
3619.000000	99.402112
3618.000000	99.401740
3617.000000	99.399577
3616.000000	99.396103
3615.000000	99.392593
3614.000000	99.390276
3613.000000	99.389916
3612.000000	99.391541
3611.000000	99.394256
3610.000000	99.396502
3609.000000	99.396868
3608.000000	99.395031
3607.000000	99.391936
3606.000000	99.388870
3605.000000	99.386512
3604.000000	99.384894
3603.000000	99.383801
3602.000000	99.383136
3601.000000	99.383053
3600.000000	99.383637
3599.000000	99.384576
3598.000000	99.385209
3597.000000	99.384961
3596.000000	99.383827
3595.000000	99.382426
3594.000000	99.381511
3593.000000	99.381398
3592.000000	99.381859
3591.000000	99.382432
3590.000000	99.382739
3589.000000	99.382659
3588.000000	99.382501
3587.000000	99.382631
3586.000000	99.382584
3585.000000	99.381223
3584.000000	99.378213
3583.000000	99.374610
3582.000000	99.371913
3581.000000	99.371029
3580.000000	99.371798
3579.000000	99.373199
3578.000000	99.374069
3577.000000	99.373838
3576.000000	99.372609
3575.000000	99.370836
3574.000000	99.369153
3573.000000	99.368297
3572.000000	99.368855
3571.000000	99.370785
3570.000000	99.373114
3569.000000	99.374347
3568.000000	99.373831
3567.000000	99.372750
3566.000000	99.372884
3565.000000	99.374049
3564.000000	99.374449
3563.000000	99.372983
3562.000000	99.369987
3561.000000	99.366724
3560.000000	99.364426
3559.000000	99.363245
3558.000000	99.362185
3557.000000	99.360268
3556.000000	99.357785
3555.000000	99.356118
3554.000000	99.356333
3553.000000	99.358310
3552.000000	99.361213
3551.000000	99.364313
3550.000000	99.367131
3549.000000	99.369200
3548.000000	99.370075
3547.000000	99.369645
3546.000000	99.368280
3545.000000	99.366504
3544.000000	99.364751
3543.000000	99.363451
3542.000000	99.362839
3541.000000	99.362550
3540.000000	99.361781
3539.000000	99.360149
3538.000000	99.358172
3537.000000	99.356663
3536.000000	99.355885
3535.000000	99.355542
3534.000000	99.355450
3533.000000	99.355882
3532.000000	99.357120
3531.000000	99.358816
3530.000000	99.360050
3529.000000	99.360135
3528.000000	99.359291
3527.000000	99.358384
3526.000000	99.358115
3525.000000	99.358620
3524.000000	99.359663
3523.000000	99.360811
3522.000000	99.361429
3521.000000	99.361032
3520.000000	99.359895
3519.000000	99.358992
3518.000000	99.358945
3517.000000	99.359280
3516.000000	99.359035
3515.000000	99.357937
3514.000000	99.356616
3513.000000	99.355757
3512.000000	99.355336
3511.000000	99.354878
3510.000000	99.354238
3509.000000	99.353768
3508.000000	99.353746
3507.000000	99.353943
3506.000000	99.353881
3505.000000	99.353359
3504.000000	99.352615
3503.000000	99.352049
3502.000000	99.351833
3501.000000	99.351864
3500.000000	99.351950
3499.000000	99.351926
3498.000000	99.351651
3497.000000	99.351054
3496.000000	99.350216
3495.000000	99.349299
3494.000000	99.348364
3493.000000	99.347357
3492.000000	99.346290
3491.000000	99.345351
3490.000000	99.344785
3489.000000	99.344712
3488.000000	99.345040
3487.000000	99.345498
3486.000000	99.345705
3485.000000	99.345342
3484.000000	99.344350
3483.000000	99.342968
3482.000000	99.341521
3481.000000	99.340213
3480.000000	99.339214
3479.000000	99.338792
3478.000000	99.339121
3477.000000	99.340005
3476.000000	99.340909
3475.000000	99.341285
3474.000000	99.340819
3473.000000	99.339505
3472.000000	99.337813
3471.000000	99.336693
3470.000000	99.336983
3469.000000	99.338665
3468.000000	99.340672
3467.000000	99.341692
3466.000000	99.341128
3465.000000	99.339226
3464.000000	99.336681
3463.000000	99.334283
3462.000000	99.332705
3461.000000	99.332265
3460.000000	99.332725
3459.000000	99.333382
3458.000000	99.333477
3457.000000	99.332658
3456.000000	99.331199
3455.000000	99.329689
3454.000000	99.328336
3453.000000	99.326698
3452.000000	99.324416
3451.000000	99.322138
3450.000000	99.321234
3449.000000	99.322494
3448.000000	99.325507
3447.000000	99.329213
3446.000000	99.332723
3445.000000	99.335487
3444.000000	99.337147
3443.000000	99.337659
3442.000000	99.337397
3441.000000	99.336916
3440.000000	99.336622
3439.000000	99.336791
3438.000000	99.337697
3437.000000	99.339422
3436.000000	99.341558
3435.000000	99.343295
3434.000000	99.343962
3433.000000	99.343468
3432.000000	99.342157
3431.000000	99.340281
3430.000000	99.337750
3429.000000	99.334663
3428.000000	99.332028
3427.000000	99.331283
3426.000000	99.332741
3425.000000	99.334926
3424.000000	99.335948
3423.000000	99.335608
3422.000000	99.335479
3421.000000	99.336899
3420.000000	99.339452
3419.000000	99.341554
3418.000000	99.342140
3417.000000	99.341325
3416.000000	99.339771
3415.000000	99.338023
3414.000000	99.336437
3413.000000	99.335377
3412.000000	99.335207
3411.000000	99.336029
3410.000000	99.337468
3409.000000	99.338705
3408.000000	99.339037
3407.000000	99.338431
3406.000000	99.337520
3405.000000	99.336968
3404.000000	99.336763
3403.000000	99.336331
3402.000000	99.335286
3401.000000	99.333931
3400.000000	99.332930
3399.000000	99.332652
3398.000000	99.332915
3397.000000	99.333240
3396.000000	99.333359
3395.000000	99.333368
3394.000000	99.333475
3393.000000	99.333670
3392.000000	99.333687
3391.000000	99.333319
3390.000000	99.332727
3389.000000	99.332326
3388.000000	99.332328
3387.000000	99.332475
3386.000000	99.332327
3385.000000	99.331862
3384.000000	99.331622
3383.000000	99.332138
3382.000000	99.333360
3381.000000	99.334678
3380.000000	99.335476
3379.000000	99.335645
3378.000000	99.335459
3377.000000	99.335173
3376.000000	99.334796
3375.000000	99.334290
3374.000000	99.333759
3373.000000	99.333353
3372.000000	99.333154
3371.000000	99.333221
3370.000000	99.333628
3369.000000	99.334296
3368.000000	99.334837
3367.000000	99.334801
3366.000000	99.334111
3365.000000	99.333154
3364.000000	99.332418
3363.000000	99.332007
3362.000000	99.331681
3361.000000	99.331292
3360.000000	99.331044
3359.000000	99.331239
3358.000000	99.331839
3357.000000	99.332343
3356.000000	99.332222
3355.000000	99.331386
3354.000000	99.330201
3353.000000	99.329235
3352.000000	99.328738
3351.000000	99.328580
3350.000000	99.328485
3349.000000	99.328323
3348.000000	99.328127
3347.000000	99.327957
3346.000000	99.327851
3345.000000	99.327852
3344.000000	99.328009
3343.000000	99.328292
3342.000000	99.328560
3341.000000	99.328642
3340.000000	99.328493
3339.000000	99.328263
3338.000000	99.328132
3337.000000	99.328056
3336.000000	99.327770
3335.000000	99.327133
3334.000000	99.326418
3333.000000	99.326120
3332.000000	99.326414
3331.000000	99.326871
3330.000000	99.326804
3329.000000	99.325908
3328.000000	99.324496
3327.000000	99.323212
3326.000000	99.322545
3325.000000	99.322617
3324.000000	99.323223
3323.000000	99.323973
3322.000000	99.324550
3321.000000	99.324897
3320.000000	99.325131
3319.000000	99.325282
3318.000000	99.325201
3317.000000	99.324799
3316.000000	99.324291
3315.000000	99.324062
3314.000000	99.324290
3313.000000	99.324762
3312.000000	99.325076
3311.000000	99.324970
3310.000000	99.324358
3309.000000	99.323143
3308.000000	99.321123
3307.000000	99.318238
3306.000000	99.315027
3305.000000	99.312714
3304.000000	99.312512
3303.000000	99.314634
3302.000000	99.318038
3301.000000	99.321319
3300.000000	99.323927
3299.000000	99.326310
3298.000000	99.328943
3297.000000	99.331544
3296.000000	99.333294
3295.000000	99.333609
3294.000000	99.332640
3293.000000	99.331267
3292.000000	99.330533
3291.000000	99.330642
3290.000000	99.330541
3289.000000	99.329079
3288.000000	99.326703
3287.000000	99.325357
3286.000000	99.326257
3285.000000	99.328290
3284.000000	99.329273
3283.000000	99.328313
3282.000000	99.326201
3281.000000	99.323919
3280.000000	99.321880
3279.000000	99.320585
3278.000000	99.320749
3277.000000	99.322067
3276.000000	99.322615
3275.000000	99.320462
3274.000000	99.315860
3273.000000	99.311324
3272.000000	99.309348
3271.000000	99.310262
3270.000000	99.312298
3269.000000	99.313550
3268.000000	99.313767
3267.000000	99.314141
3266.000000	99.315504
3265.000000	99.317245
3264.000000	99.318317
3263.000000	99.318913
3262.000000	99.320358
3261.000000	99.323359
3260.000000	99.326998
3259.000000	99.329718
3258.000000	99.330915
3257.000000	99.331257
3256.000000	99.331791
3255.000000	99.332969
3254.000000	99.334345
3253.000000	99.335022
3252.000000	99.334437
3251.000000	99.332820
3250.000000	99.330901
3249.000000	99.329248
3248.000000	99.328120
3247.000000	99.327787
3246.000000	99.328462
3245.000000	99.329775
3244.000000	99.330740
3243.000000	99.330634
3242.000000	99.329731
3241.000000	99.328959
3240.000000	99.328929
3239.000000	99.329466
3238.000000	99.330034
3237.000000	99.330420
3236.000000	99.330897
3235.000000	99.331723
3234.000000	99.332623
3233.000000	99.332945
3232.000000	99.332388
3231.000000	99.331457
3230.000000	99.331072
3229.000000	99.331692
3228.000000	99.333051
3227.000000	99.334497
3226.000000	99.335553
3225.000000	99.336190
3224.000000	99.336636
3223.000000	99.337103
3222.000000	99.337635
3221.000000	99.338171
3220.000000	99.338690
3219.000000	99.339230
3218.000000	99.339779
3217.000000	99.340242
3216.000000	99.340590
3215.000000	99.340971
3214.000000	99.341539
3213.000000	99.342213
3212.000000	99.342761
3211.000000	99.343086
3210.000000	99.343322
3209.000000	99.343671
3208.000000	99.344229
3207.000000	99.344956
3206.000000	99.345736
3205.000000	99.346434
3204.000000	99.346963
3203.000000	99.347350
3202.000000	99.347719
3201.000000	99.348108
3200.000000	99.348388
3199.000000	99.348506
3198.000000	99.348752
3197.000000	99.349528
3196.000000	99.350886
3195.000000	99.352472
3194.000000	99.353898
3193.000000	99.355001
3192.000000	99.355799
3191.000000	99.356439
3190.000000	99.357220
3189.000000	99.358430
3188.000000	99.360038
3187.000000	99.361603
3186.000000	99.362581
3185.000000	99.362737
3184.000000	99.362325
3183.000000	99.361983
3182.000000	99.362286
3181.000000	99.363229
3180.000000	99.364173
3179.000000	99.364514
3178.000000	99.364464
3177.000000	99.364969
3176.000000	99.366797
3175.000000	99.369872
3174.000000	99.373231
3173.000000	99.375546
3172.000000	99.375885
3171.000000	99.374340
3170.000000	99.372242
3169.000000	99.371161
3168.000000	99.371534
3167.000000	99.372590
3166.000000	99.373496
3165.000000	99.374160
3164.000000	99.374798
3163.000000	99.375410
3162.000000	99.376052
3161.000000	99.377078
3160.000000	99.378760
3159.000000	99.381059
3158.000000	99.383962
3157.000000	99.387513
3156.000000	99.391208
3155.000000	99.393936
3154.000000	99.395030
3153.000000	99.395006
3152.000000	99.394925
3151.000000	99.395334
3150.000000	99.396284
3149.000000	99.397983
3148.000000	99.400729
3147.000000	99.404244
3146.000000	99.407558
3145.000000	99.409631
3144.000000	99.409968
3143.000000	99.408798
3142.000000	99.406979
3141.000000	99.405584
3140.000000	99.405190
3139.000000	99.405622
3138.000000	99.406394
3137.000000	99.407211
3136.000000	99.407970
3135.000000	99.408560
3134.000000	99.408850
3133.000000	99.408711
3132.000000	99.408003
3131.000000	99.406828
3130.000000	99.405929
3129.000000	99.406317
3128.000000	99.408178
3127.000000	99.410535
3126.000000	99.412120
3125.000000	99.412553
3124.000000	99.412368
3123.000000	99.412189
3122.000000	99.412193
3121.000000	99.412276
3120.000000	99.412418
3119.000000	99.412730
3118.000000	99.413230
3117.000000	99.413708
3116.000000	99.413891
3115.000000	99.413739
3114.000000	99.413539
3113.000000	99.413629
3112.000000	99.414047
3111.000000	99.414518
3110.000000	99.414761
3109.000000	99.414740
3108.000000	99.414650
3107.000000	99.414760
3106.000000	99.415244
3105.000000	99.416076
3104.000000	99.417062
3103.000000	99.417938
3102.000000	99.418568
3101.000000	99.418996
3100.000000	99.419387
3099.000000	99.419875
3098.000000	99.420424
3097.000000	99.420922
3096.000000	99.421352
3095.000000	99.421824
3094.000000	99.422436
3093.000000	99.423149
3092.000000	99.423802
3091.000000	99.424261
3090.000000	99.424569
3089.000000	99.424961
3088.000000	99.425653
3087.000000	99.426577
3086.000000	99.427411
3085.000000	99.427941
3084.000000	99.428300
3083.000000	99.428817
3082.000000	99.429702
3081.000000	99.430930
3080.000000	99.432317
3079.000000	99.433615
3078.000000	99.434599
3077.000000	99.435195
3076.000000	99.435582
3075.000000	99.436109
3074.000000	99.437029
3073.000000	99.438299
3072.000000	99.439652
3071.000000	99.440894
3070.000000	99.442073
3069.000000	99.443239
3068.000000	99.444076
3067.000000	99.444038
3066.000000	99.443006
3065.000000	99.441679
3064.000000	99.441054
3063.000000	99.441465
3062.000000	99.442393
3061.000000	99.443164
3060.000000	99.443757
3059.000000	99.444733
3058.000000	99.446545
3057.000000	99.449089
3056.000000	99.451657
3055.000000	99.453264
3054.000000	99.453262
3053.000000	99.451817
3052.000000	99.449940
3051.000000	99.448756
3050.000000	99.448643
3049.000000	99.449188
3048.000000	99.449734
3047.000000	99.450006
3046.000000	99.450356
3045.000000	99.451448
3044.000000	99.453576
3043.000000	99.456073
3042.000000	99.457537
3041.000000	99.457036
3040.000000	99.454860
3039.000000	99.452195
3038.000000	99.450004
3037.000000	99.448456
3036.000000	99.447459
3035.000000	99.447164
3034.000000	99.447727
3033.000000	99.448870
3032.000000	99.449998
3031.000000	99.450712
3030.000000	99.451026
3029.000000	99.451178
3028.000000	99.451381
3027.000000	99.451682
3026.000000	99.451903
3025.000000	99.451782
3024.000000	99.451293
3023.000000	99.450774
3022.000000	99.450611
3021.000000	99.450779
3020.000000	99.450822
3019.000000	99.450319
3018.000000	99.449311
3017.000000	99.448272
3016.000000	99.447661
3015.000000	99.447418
3014.000000	99.446899
3013.000000	99.445463
3012.000000	99.443225
3011.000000	99.441235
3010.000000	99.440609
3009.000000	99.441513
3008.000000	99.443009
3007.000000	99.443788
3006.000000	99.443189
3005.000000	99.441381
3004.000000	99.439010
3003.000000	99.436775
3002.000000	99.435098
3001.000000	99.433964
3000.000000	99.433090
2999.000000	99.432420
2998.000000	99.432258
2997.000000	99.432768
2996.000000	99.433590
2995.000000	99.434140
2994.000000	99.434252
2993.000000	99.434187
2992.000000	99.434016
2991.000000	99.433400
2990.000000	99.432214
2989.000000	99.431072
2988.000000	99.430779
2987.000000	99.431309
2986.000000	99.431668
2985.000000	99.430841
2984.000000	99.428681
2983.000000	99.425895
2982.000000	99.423486
2981.000000	99.422273
2980.000000	99.422639
2979.000000	99.424444
2978.000000	99.427002
2977.000000	99.429243
2976.000000	99.430157
2975.000000	99.429441
2974.000000	99.428005
2973.000000	99.427666
2972.000000	99.429853
2971.000000	99.434416
2970.000000	99.439667
2969.000000	99.443690
2968.000000	99.445623
2967.000000	99.445751
2966.000000	99.444848
2965.000000	99.443553
2964.000000	99.442162
2963.000000	99.440791
2962.000000	99.439696
2961.000000	99.439401
2960.000000	99.440374
2959.000000	99.442567
2958.000000	99.445594
2957.000000	99.449424
2956.000000	99.454337
2955.000000	99.459864
2954.000000	99.464273
2953.000000	99.465914
2952.000000	99.464907
2951.000000	99.462977
2950.000000	99.461588
2949.000000	99.460861
2948.000000	99.460340
2947.000000	99.459848
2946.000000	99.459235
2945.000000	99.458092
2944.000000	99.456487
2943.000000	99.455586
2942.000000	99.456644
2941.000000	99.459314
2940.000000	99.461568
2939.000000	99.461543
2938.000000	99.459147
2937.000000	99.455814
2936.000000	99.453106
2935.000000	99.451790
2934.000000	99.452019
2933.000000	99.453739
2932.000000	99.456588
2931.000000	99.459696
2930.000000	99.462007
2929.000000	99.462984
2928.000000	99.462930
2927.000000	99.462535
2926.000000	99.462290
2925.000000	99.462520
2924.000000	99.463672
2923.000000	99.465989
2922.000000	99.468771
2921.000000	99.470602
2920.000000	99.470674
2919.000000	99.469476
2918.000000	99.467846
2917.000000	99.465845
2916.000000	99.463274
2915.000000	99.460820
2914.000000	99.459588
2913.000000	99.459612
2912.000000	99.459955
2911.000000	99.460548
2910.000000	99.462648
2909.000000	99.466547
2908.000000	99.469821
2907.000000	99.469478
2906.000000	99.465424
2905.000000	99.460617
2904.000000	99.457444
2903.000000	99.455117
2902.000000	99.451811
2901.000000	99.448024
2900.000000	99.446298
2899.000000	99.447827
2898.000000	99.451102
2897.000000	99.453920
2896.000000	99.455460
2895.000000	99.455917
2894.000000	99.455292
2893.000000	99.453682
2892.000000	99.452135
2891.000000	99.452028
2890.000000	99.453603
2889.000000	99.455860
2888.000000	99.457824
2887.000000	99.459295
2886.000000	99.460306
2885.000000	99.460745
2884.000000	99.460856
2883.000000	99.461400
2882.000000	99.462681
2881.000000	99.463808
2880.000000	99.463644
2879.000000	99.462459
2878.000000	99.462046
2877.000000	99.464068
2876.000000	99.468706
2875.000000	99.474889
2874.000000	99.481326
2873.000000	99.487118
2872.000000	99.491644
2871.000000	99.494359
2870.000000	99.494991
2869.000000	99.493954
2868.000000	99.492440
2867.000000	99.491789
2866.000000	99.492487
2865.000000	99.493843
2864.000000	99.494866
2863.000000	99.495437
2862.000000	99.496394
2861.000000	99.498459
2860.000000	99.501265
2859.000000	99.503516
2858.000000	99.503999
2857.000000	99.502522
2856.000000	99.500236
2855.000000	99.499037
2854.000000	99.500279
2853.000000	99.503945
2852.000000	99.508893
2851.000000	99.513762
2850.000000	99.517586
2849.000000	99.519755
2848.000000	99.520098
2847.000000	99.519317
2846.000000	99.518758
2845.000000	99.519200
2844.000000	99.520156
2843.000000	99.520770
2842.000000	99.521107
2841.000000	99.522029
2840.000000	99.523990
2839.000000	99.526527
2838.000000	99.528998
2837.000000	99.531270
2836.000000	99.533485
2835.000000	99.535546
2834.000000	99.537086
2833.000000	99.537747
2832.000000	99.537389
2831.000000	99.536321
2830.000000	99.535193
2829.000000	99.534300
2828.000000	99.533200
2827.000000	99.531374
2826.000000	99.529245
2825.000000	99.528095
2824.000000	99.528796
2823.000000	99.530976
2822.000000	99.533581
2821.000000	99.535925
2820.000000	99.537930
2819.000000	99.539641
2818.000000	99.541053
2817.000000	99.542332
2816.000000	99.543777
2815.000000	99.545431
2814.000000	99.546936
2813.000000	99.547924
2812.000000	99.548416
2811.000000	99.548773
2810.000000	99.549291
2809.000000	99.549982
2808.000000	99.550708
2807.000000	99.551424
2806.000000	99.552241
2805.000000	99.553282
2804.000000	99.554517
2803.000000	99.555751
2802.000000	99.556778
2801.000000	99.557545
2800.000000	99.558184
2799.000000	99.558921
2798.000000	99.559933
2797.000000	99.561227
2796.000000	99.562684
2795.000000	99.564143
2794.000000	99.565475
2793.000000	99.566632
2792.000000	99.567652
2791.000000	99.568618
2790.000000	99.569632
2789.000000	99.570757
2788.000000	99.571995
2787.000000	99.573302
2786.000000	99.574610
2785.000000	99.575891
2784.000000	99.577161
2783.000000	99.578438
2782.000000	99.579714
2781.000000	99.580959
2780.000000	99.582146
2779.000000	99.583280
2778.000000	99.584387
2777.000000	99.585493
2776.000000	99.586599
2775.000000	99.587661
2774.000000	99.588595
2773.000000	99.589330
2772.000000	99.589879
2771.000000	99.590401
2770.000000	99.591112
2769.000000	99.592115
2768.000000	99.593310
2767.000000	99.594444
2766.000000	99.595377
2765.000000	99.596181
2764.000000	99.597035
2763.000000	99.598024
2762.000000	99.599076
2761.000000	99.600024
2760.000000	99.600681
2759.000000	99.600922
2758.000000	99.600820
2757.000000	99.600654
2756.000000	99.600676
2755.000000	99.600938
2754.000000	99.601371
2753.000000	99.601943
2752.000000	99.602638
2751.000000	99.603377
2750.000000	99.604088
2749.000000	99.604807
2748.000000	99.605539
2747.000000	99.606069
2746.000000	99.606135
2745.000000	99.605820
2744.000000	99.605532
2743.000000	99.605548
2742.000000	99.605761
2741.000000	99.605861
2740.000000	99.605626
2739.000000	99.605009
2738.000000	99.604091
2737.000000	99.603102
2736.000000	99.602416
2735.000000	99.602340
2734.000000	99.602897
2733.000000	99.603811
2732.000000	99.604719
2731.000000	99.605369
2730.000000	99.605626
2729.000000	99.605415
2728.000000	99.604756
2727.000000	99.603869
2726.000000	99.603139
2725.000000	99.602831
2724.000000	99.602938
2723.000000	99.603287
2722.000000	99.603797
2721.000000	99.604515
2720.000000	99.605370
2719.000000	99.606077
2718.000000	99.606416
2717.000000	99.606519
2716.000000	99.606747
2715.000000	99.607216
2714.000000	99.607577
2713.000000	99.607407
2712.000000	99.606772
2711.000000	99.606319
2710.000000	99.606685
2709.000000	99.607953
2708.000000	99.609620
2707.000000	99.610981
2706.000000	99.611622
2705.000000	99.611502
2704.000000	99.610837
2703.000000	99.609982
2702.000000	99.609350
2701.000000	99.609208
2700.000000	99.609538
2699.000000	99.610193
2698.000000	99.611082
2697.000000	99.612103
2696.000000	99.612961
2695.000000	99.613239
2694.000000	99.612748
2693.000000	99.611731
2692.000000	99.610730
2691.000000	99.610307
2690.000000	99.610831
2689.000000	99.612364
2688.000000	99.614573
2687.000000	99.616806
2686.000000	99.618526
2685.000000	99.619601
2684.000000	99.620074
2683.000000	99.619869
2682.000000	99.618979
2681.000000	99.617796
2680.000000	99.616893
2679.000000	99.616456
2678.000000	99.616175
2677.000000	99.615769
2676.000000	99.615410
2675.000000	99.615416
2674.000000	99.615705
2673.000000	99.615868
2672.000000	99.615756
2671.000000	99.615673
2670.000000	99.615886
2669.000000	99.616196
2668.000000	99.616244
2667.000000	99.616068
2666.000000	99.616083
2665.000000	99.616560
2664.000000	99.617415
2663.000000	99.618451
2662.000000	99.619517
2661.000000	99.620370
2660.000000	99.620661
2659.000000	99.620270
2658.000000	99.619490
2657.000000	99.618869
2656.000000	99.618733
2655.000000	99.619014
2654.000000	99.619496
2653.000000	99.620048
2652.000000	99.620648
2651.000000	99.621230
2650.000000	99.621633
2649.000000	99.621739
2648.000000	99.621577
2647.000000	99.621299
2646.000000	99.621113
2645.000000	99.621155
2644.000000	99.621439
2643.000000	99.621882
2642.000000	99.622362
2641.000000	99.622771
2640.000000	99.623045
2639.000000	99.623169
2638.000000	99.623199
2637.000000	99.623238
2636.000000	99.623344
2635.000000	99.623500
2634.000000	99.623668
2633.000000	99.623851
2632.000000	99.624077
2631.000000	99.624325
2630.000000	99.624508
2629.000000	99.624542
2628.000000	99.624414
2627.000000	99.624190
2626.000000	99.623972
2625.000000	99.623838
2624.000000	99.623800
2623.000000	99.623790
2622.000000	99.623727
2621.000000	99.623602
2620.000000	99.623481
2619.000000	99.623426
2618.000000	99.623438
2617.000000	99.623469
2616.000000	99.623450
2615.000000	99.623308
2614.000000	99.622993
2613.000000	99.622546
2612.000000	99.622131
2611.000000	99.621948
2610.000000	99.622108
2609.000000	99.622553
2608.000000	99.623083
2607.000000	99.623484
2606.000000	99.623592
2605.000000	99.623346
2604.000000	99.622833
2603.000000	99.622240
2602.000000	99.621716
2601.000000	99.621270
2600.000000	99.620815
2599.000000	99.620340
2598.000000	99.620010
2597.000000	99.620030
2596.000000	99.620436
2595.000000	99.621077
2594.000000	99.621764
2593.000000	99.622369
2592.000000	99.622803
2591.000000	99.622963
2590.000000	99.622747
2589.000000	99.622126
2588.000000	99.621227
2587.000000	99.620373
2586.000000	99.619971
2585.000000	99.620262
2584.000000	99.621154
2583.000000	99.622211
2582.000000	99.622901
2581.000000	99.622897
2580.000000	99.622161
2579.000000	99.620898
2578.000000	99.619503
2577.000000	99.618491
2576.000000	99.618356
2575.000000	99.619295
2574.000000	99.621033
2573.000000	99.622841
2572.000000	99.623956
2571.000000	99.624088
2570.000000	99.623466
2569.000000	99.622475
2568.000000	99.621321
2567.000000	99.620071
2566.000000	99.618866
2565.000000	99.617945
2564.000000	99.617521
2563.000000	99.617752
2562.000000	99.618770
2561.000000	99.620522
2560.000000	99.622526
2559.000000	99.623982
2558.000000	99.624316
2557.000000	99.623587
2556.000000	99.622367
2555.000000	99.621248
2554.000000	99.620438
2553.000000	99.619758
2552.000000	99.618939
2551.000000	99.617965
2550.000000	99.617211
2549.000000	99.617185
2548.000000	99.618071
2547.000000	99.619498
2546.000000	99.620707
2545.000000	99.621023
2544.000000	99.620267
2543.000000	99.618888
2542.000000	99.617674
2541.000000	99.617103
2540.000000	99.617082
2539.000000	99.617437
2538.000000	99.618440
2537.000000	99.620482
2536.000000	99.623300
2535.000000	99.625794
2534.000000	99.626891
2533.000000	99.626381
2532.000000	99.624958
2531.000000	99.623746
2530.000000	99.623559
2529.000000	99.624498
2528.000000	99.625965
2527.000000	99.627134
2526.000000	99.627686
2525.000000	99.627960
2524.000000	99.628304
2523.000000	99.628506
2522.000000	99.628148
2521.000000	99.627308
2520.000000	99.626543
2519.000000	99.626219
2518.000000	99.626192
2517.000000	99.626248
2516.000000	99.626536
2515.000000	99.627367
2514.000000	99.628751
2513.000000	99.630308
2512.000000	99.631570
2511.000000	99.632315
2510.000000	99.632634
2509.000000	99.632769
2508.000000	99.632937
2507.000000	99.633299
2506.000000	99.634036
2505.000000	99.635256
2504.000000	99.636766
2503.000000	99.638092
2502.000000	99.638901
2501.000000	99.639274
2500.000000	99.639428
2499.000000	99.639399
2498.000000	99.639236
2497.000000	99.639322
2496.000000	99.640082
2495.000000	99.641432
2494.000000	99.642787
2493.000000	99.643703
2492.000000	99.644222
2491.000000	99.644476
2490.000000	99.644464
2489.000000	99.644365
2488.000000	99.644668
2487.000000	99.645657
2486.000000	99.646970
2485.000000	99.648012
2484.000000	99.648607
2483.000000	99.648936
2482.000000	99.649064
2481.000000	99.648898
2480.000000	99.648599
2479.000000	99.648704
2478.000000	99.649700
2477.000000	99.651634
2476.000000	99.654096
2475.000000	99.656437
2474.000000	99.658040
2473.000000	99.658505
2472.000000	99.657765
2471.000000	99.656053
2470.000000	99.653783
2469.000000	99.651585
2468.000000	99.650300
2467.000000	99.650599
2466.000000	99.652527
2465.000000	99.655458
2464.000000	99.658525
2463.000000	99.661107
2462.000000	99.662857
2461.000000	99.663586
2460.000000	99.663412
2459.000000	99.662971
2458.000000	99.663139
2457.000000	99.664277
2456.000000	99.665836
2455.000000	99.666837
2454.000000	99.666857
2453.000000	99.666402
2452.000000	99.666319
2451.000000	99.666943
2450.000000	99.667928
2449.000000	99.668751
2448.000000	99.669253
2447.000000	99.669695
2446.000000	99.670387
2445.000000	99.671316
2444.000000	99.672110
2443.000000	99.672472
2442.000000	99.672650
2441.000000	99.673326
2440.000000	99.674887
2439.000000	99.676913
2438.000000	99.678557
2437.000000	99.679446
2436.000000	99.679951
2435.000000	99.680491
2434.000000	99.680825
2433.000000	99.680366
2432.000000	99.679059
2431.000000	99.677687
2430.000000	99.677250
2429.000000	99.678057
2428.000000	99.679572
2427.000000	99.681007
2426.000000	99.682155
2425.000000	99.683370
2424.000000	99.684783
2423.000000	99.685870
2422.000000	99.686023
2421.000000	99.685302
2420.000000	99.684284
2419.000000	99.683228
2418.000000	99.681909
2417.000000	99.680464
2416.000000	99.679861
2415.000000	99.680953
2414.000000	99.683372
2413.000000	99.685733
2412.000000	99.686918
2411.000000	99.687097
2410.000000	99.687135
2409.000000	99.687423
2408.000000	99.687550
2407.000000	99.687034
2406.000000	99.686080
2405.000000	99.685528
2404.000000	99.686002
2403.000000	99.687207
2402.000000	99.688470
2401.000000	99.689578
2400.000000	99.690719
2399.000000	99.691816
2398.000000	99.692405
2397.000000	99.692288
2396.000000	99.691887
2395.000000	99.691707
2394.000000	99.691812
2393.000000	99.691947
2392.000000	99.691982
2391.000000	99.692027
2390.000000	99.692176
2389.000000	99.692352
2388.000000	99.692421
2387.000000	99.692325
2386.000000	99.692111
2385.000000	99.691822
2384.000000	99.691423
2383.000000	99.690865
2382.000000	99.690190
2381.000000	99.689573
2380.000000	99.689177
2379.000000	99.688972
2378.000000	99.688763
2377.000000	99.688399
2376.000000	99.687917
2375.000000	99.687397
2374.000000	99.686744
2373.000000	99.685746
2372.000000	99.684451
2371.000000	99.683353
2370.000000	99.682946
2369.000000	99.683243
2368.000000	99.683743
2367.000000	99.683897
2366.000000	99.683629
2365.000000	99.683243
2364.000000	99.682931
2363.000000	99.682330
2362.000000	99.680984
2361.000000	99.679009
2360.000000	99.676961
2359.000000	99.675377
2358.000000	99.674399
2357.000000	99.673800
2356.000000	99.673253
2355.000000	99.672505
2354.000000	99.671541
2353.000000	99.670575
2352.000000	99.669774
2351.000000	99.669099
2350.000000	99.668296
2349.000000	99.667296
2348.000000	99.666312
2347.000000	99.665523
2346.000000	99.664926
2345.000000	99.664253
2344.000000	99.663330
2343.000000	99.662217
2342.000000	99.661173
2341.000000	99.660424
2340.000000	99.659800
2339.000000	99.659062
2338.000000	99.658087
2337.000000	99.657005
2336.000000	99.656039
2335.000000	99.655404
2334.000000	99.655180
2333.000000	99.655335
2332.000000	99.655708
2331.000000	99.656141
2330.000000	99.656379
2329.000000	99.656252
2328.000000	99.655796
2327.000000	99.655153
2326.000000	99.654703
2325.000000	99.654499
2324.000000	99.654444
2323.000000	99.654291
2322.000000	99.654022
2321.000000	99.653874
2320.000000	99.653951
2319.000000	99.654196
2318.000000	99.654355
2317.000000	99.654434
2316.000000	99.654567
2315.000000	99.654819
2314.000000	99.655012
2313.000000	99.655010
2312.000000	99.654966
2311.000000	99.655148
2310.000000	99.655749
2309.000000	99.656652
2308.000000	99.657559
2307.000000	99.657981
2306.000000	99.657669
2305.000000	99.656716
2304.000000	99.655627
2303.000000	99.654905
2302.000000	99.654800
2301.000000	99.655311
2300.000000	99.656253
2299.000000	99.657274
2298.000000	99.658007
2297.000000	99.658279
2296.000000	99.658304
2295.000000	99.658405
2294.000000	99.658777
2293.000000	99.659359
2292.000000	99.660082
2291.000000	99.660825
2290.000000	99.661344
2289.000000	99.661270
2288.000000	99.660506
2287.000000	99.659455
2286.000000	99.658796
2285.000000	99.658850
2284.000000	99.659332
2283.000000	99.659575
2282.000000	99.659120
2281.000000	99.658074
2280.000000	99.656898
2279.000000	99.655952
2278.000000	99.655222
2277.000000	99.654540
2276.000000	99.653859
2275.000000	99.653287
2274.000000	99.652896
2273.000000	99.652644
2272.000000	99.652476
2271.000000	99.652339
2270.000000	99.652086
2269.000000	99.651479
2268.000000	99.650430
2267.000000	99.649221
2266.000000	99.648334
2265.000000	99.648005
2264.000000	99.648046
2263.000000	99.648023
2262.000000	99.647651
2261.000000	99.646888
2260.000000	99.645840
2259.000000	99.644702
2258.000000	99.643688
2257.000000	99.642852
2256.000000	99.641964
2255.000000	99.640777
2254.000000	99.639400
2253.000000	99.638256
2252.000000	99.637562
2251.000000	99.637134
2250.000000	99.636750
2249.000000	99.636401
2248.000000	99.635977
2247.000000	99.635011
2246.000000	99.633231
2245.000000	99.631232
2244.000000	99.630042
2243.000000	99.629864
2242.000000	99.629802
2241.000000	99.629172
2240.000000	99.628361
2239.000000	99.627866
2238.000000	99.627339
2237.000000	99.626232
2236.000000	99.624776
2235.000000	99.623605
2234.000000	99.622761
2233.000000	99.621802
2232.000000	99.620727
2231.000000	99.620150
2230.000000	99.620439
2229.000000	99.621146
2228.000000	99.621458
2227.000000	99.621147
2226.000000	99.620918
2225.000000	99.621721
2224.000000	99.623668
2223.000000	99.625724
2222.000000	99.626761
2221.000000	99.626898
2220.000000	99.627196
2219.000000	99.628091
2218.000000	99.628779
2217.000000	99.628417
2216.000000	99.627320
2215.000000	99.626496
2214.000000	99.626351
2213.000000	99.626453
2212.000000	99.626402
2211.000000	99.626389
2210.000000	99.626792
2209.000000	99.627611
2208.000000	99.628459
2207.000000	99.628997
2206.000000	99.629314
2205.000000	99.629805
2204.000000	99.630652
2203.000000	99.631462
2202.000000	99.631620
2201.000000	99.630960
2200.000000	99.629957
2199.000000	99.629282
2198.000000	99.629160
2197.000000	99.629384
2196.000000	99.629735
2195.000000	99.630145
2194.000000	99.630561
2193.000000	99.630869
2192.000000	99.631008
2191.000000	99.631030
2190.000000	99.631015
2189.000000	99.630993
2188.000000	99.630989
2187.000000	99.631066
2186.000000	99.631255
2185.000000	99.631463
2184.000000	99.631550
2183.000000	99.631499
2182.000000	99.631456
2181.000000	99.631549
2180.000000	99.631749
2179.000000	99.631959
2178.000000	99.632180
2177.000000	99.632497
2176.000000	99.632866
2175.000000	99.633059
2174.000000	99.632899
2173.000000	99.632451
2172.000000	99.631940
2171.000000	99.631540
2170.000000	99.631363
2169.000000	99.631575
2168.000000	99.632300
2167.000000	99.633340
2166.000000	99.634110
2165.000000	99.634090
2164.000000	99.633227
2163.000000	99.631991
2162.000000	99.631062
2161.000000	99.630891
2160.000000	99.631569
2159.000000	99.632818
2158.000000	99.634068
2157.000000	99.634774
2156.000000	99.634797
2155.000000	99.634466
2154.000000	99.634305
2153.000000	99.634677
2152.000000	99.635701
2151.000000	99.637268
2150.000000	99.639011
2149.000000	99.640444
2148.000000	99.641318
2147.000000	99.641846
2146.000000	99.642426
2145.000000	99.643137
2144.000000	99.643676
2143.000000	99.643859
2142.000000	99.643997
2141.000000	99.644586
2140.000000	99.645670
2139.000000	99.646725
2138.000000	99.647282
2137.000000	99.647498
2136.000000	99.647913
2135.000000	99.648677
2134.000000	99.649293
2133.000000	99.649262
2132.000000	99.648732
2131.000000	99.648335
2130.000000	99.648452
2129.000000	99.648892
2128.000000	99.649326
2127.000000	99.649785
2126.000000	99.650520
2125.000000	99.651485
2124.000000	99.652255
2123.000000	99.652511
2122.000000	99.652461
2121.000000	99.652661
2120.000000	99.653449
2119.000000	99.654717
2118.000000	99.656131
2117.000000	99.657446
2116.000000	99.658647
2115.000000	99.659803
2114.000000	99.660851
2113.000000	99.661569
2112.000000	99.661803
2111.000000	99.661685
2110.000000	99.661639
2109.000000	99.662054
2108.000000	99.662972
2107.000000	99.664115
2106.000000	99.665140
2105.000000	99.665929
2104.000000	99.666525
2103.000000	99.666925
2102.000000	99.667083
2101.000000	99.667106
2100.000000	99.667309
2099.000000	99.667941
2098.000000	99.668949
2097.000000	99.670003
2096.000000	99.670784
2095.000000	99.671286
2094.000000	99.671826
2093.000000	99.672736
2092.000000	99.674009
2091.000000	99.675363
2090.000000	99.676625
2089.000000	99.677848
2088.000000	99.678933
2087.000000	99.679473
2086.000000	99.679357
2085.000000	99.679338
2084.000000	99.680440
2083.000000	99.682721
2082.000000	99.685054
2081.000000	99.686341
2080.000000	99.686595
2079.000000	99.686680
2078.000000	99.687329
2077.000000	99.688516
2076.000000	99.689399
2075.000000	99.688795
2074.000000	99.686317
2073.000000	99.683280
2072.000000	99.681700
2071.000000	99.681932
2070.000000	99.682134
2069.000000	99.680665
2068.000000	99.678282
2067.000000	99.676921
2066.000000	99.677051
2065.000000	99.677649
2064.000000	99.678522
2063.000000	99.680764
2062.000000	99.684380
2061.000000	99.687242
2060.000000	99.687641
2059.000000	99.686835
2058.000000	99.687731
2057.000000	99.691207
2056.000000	99.694965
2055.000000	99.696191
2054.000000	99.694187
2053.000000	99.690236
2052.000000	99.686008
2051.000000	99.682466
2050.000000	99.679663
2049.000000	99.676937
2048.000000	99.673572
2047.000000	99.669804
2046.000000	99.666900
2045.000000	99.665751
2044.000000	99.665586
2043.000000	99.664695
2042.000000	99.662322
2041.000000	99.659245
2040.000000	99.656544
2039.000000	99.654586
2038.000000	99.653428
2037.000000	99.653203
2036.000000	99.653473
2035.000000	99.652905
2034.000000	99.650566
2033.000000	99.647344
2032.000000	99.645239
2031.000000	99.645150
2030.000000	99.646044
2029.000000	99.646327
2028.000000	99.645555
2027.000000	99.644530
2026.000000	99.644074
2025.000000	99.644094
2024.000000	99.643761
2023.000000	99.642441
2022.000000	99.640463
2021.000000	99.638915
2020.000000	99.638589
2019.000000	99.639259
2018.000000	99.640034
2017.000000	99.640169
2016.000000	99.639453
2015.000000	99.637998
2014.000000	99.636130
2013.000000	99.634381
2012.000000	99.633131
2011.000000	99.632198
2010.000000	99.630978
2009.000000	99.629128
2008.000000	99.627036
2007.000000	99.625492
2006.000000	99.624907
2005.000000	99.625096
2004.000000	99.625519
2003.000000	99.625628
2002.000000	99.625128
2001.000000	99.624101
2000.000000	99.622921
1999.000000	99.621860
1998.000000	99.620799
1997.000000	99.619455
1996.000000	99.617805
1995.000000	99.616182
1994.000000	99.615017
1993.000000	99.614631
1992.000000	99.615091
1991.000000	99.615994
1990.000000	99.616627
1989.000000	99.616603
1988.000000	99.616156
1987.000000	99.615705
1986.000000	99.615259
1985.000000	99.614583
1984.000000	99.613744
1983.000000	99.612955
1982.000000	99.611917
1981.000000	99.609987
1980.000000	99.607233
1979.000000	99.604800
1978.000000	99.603786
1977.000000	99.604099
1976.000000	99.604668
1975.000000	99.604594
1974.000000	99.603757
1973.000000	99.602408
1972.000000	99.600770
1971.000000	99.599164
1970.000000	99.598127
1969.000000	99.598106
1968.000000	99.599040
1967.000000	99.600271
1966.000000	99.600889
1965.000000	99.600380
1964.000000	99.599043
1963.000000	99.597871
1962.000000	99.597863
1961.000000	99.599334
1960.000000	99.601737
1959.000000	99.604063
1958.000000	99.605464
1957.000000	99.605579
1956.000000	99.604552
1955.000000	99.602944
1954.000000	99.601387
1953.000000	99.600152
1952.000000	99.599066
1951.000000	99.597959
1950.000000	99.597091
1949.000000	99.596980
1948.000000	99.597684
1947.000000	99.598501
1946.000000	99.598694
1945.000000	99.598417
1944.000000	99.598440
1943.000000	99.598845
1942.000000	99.598496
1941.000000	99.596444
1940.000000	99.593400
1939.000000	99.591134
1938.000000	99.590585
1937.000000	99.591160
1936.000000	99.591703
1935.000000	99.591764
1934.000000	99.591680
1933.000000	99.591784
1932.000000	99.591992
1931.000000	99.592007
1930.000000	99.591521
1929.000000	99.590482
1928.000000	99.589200
1927.000000	99.588076
1926.000000	99.587235
1925.000000	99.586515
1924.000000	99.585808
1923.000000	99.584840
1922.000000	99.582847
1921.000000	99.579257
1920.000000	99.574771
1919.000000	99.571066
1918.000000	99.569109
1917.000000	99.567993
1916.000000	99.566364
1915.000000	99.564547
1914.000000	99.563948
1913.000000	99.564911
1912.000000	99.566104
1911.000000	99.565927
1910.000000	99.564066
1909.000000	99.561442
1908.000000	99.558856
1907.000000	99.556147
1906.000000	99.552598
1905.000000	99.547789
1904.000000	99.542332
1903.000000	99.537734
1902.000000	99.535377
1901.000000	99.535351
1900.000000	99.536214
1899.000000	99.536230
1898.000000	99.534982
1897.000000	99.533497
1896.000000	99.532983
1895.000000	99.533422
1894.000000	99.533536
1893.000000	99.532184
1892.000000	99.529593
1891.000000	99.527241
1890.000000	99.526646
1889.000000	99.527830
1888.000000	99.529105
1887.000000	99.528996
1886.000000	99.527631
1885.000000	99.526114
1884.000000	99.525382
1883.000000	99.525729
1882.000000	99.527083
1881.000000	99.529159
1880.000000	99.531155
1879.000000	99.531998
1878.000000	99.531304
1877.000000	99.529798
1876.000000	99.528595
1875.000000	99.528141
1874.000000	99.528171
1873.000000	99.528478
1872.000000	99.529130
1871.000000	99.529878
1870.000000	99.529924
1869.000000	99.528830
1868.000000	99.527343
1867.000000	99.526526
1866.000000	99.526648
1865.000000	99.527437
1864.000000	99.528869
1863.000000	99.531296
1862.000000	99.534559
1861.000000	99.537478
1860.000000	99.538882
1859.000000	99.538925
1858.000000	99.538972
1857.000000	99.540148
1856.000000	99.542314
1855.000000	99.544446
1854.000000	99.545646
1853.000000	99.545632
1852.000000	99.544670
1851.000000	99.543446
1850.000000	99.542902
1849.000000	99.543563
1848.000000	99.545085
1847.000000	99.546687
1846.000000	99.548068
1845.000000	99.549608
1844.000000	99.551577
1843.000000	99.553530
1842.000000	99.555061
1841.000000	99.556340
1840.000000	99.557312
1839.000000	99.557600
1838.000000	99.557245
1837.000000	99.556895
1836.000000	99.557222
1835.000000	99.558370
1834.000000	99.560171
1833.000000	99.562437
1832.000000	99.564849
1831.000000	99.566866
1830.000000	99.568045
1829.000000	99.568136
1828.000000	99.567078
1827.000000	99.565227
1826.000000	99.563254
1825.000000	99.561982
1824.000000	99.561772
1823.000000	99.562003
1822.000000	99.562005
1821.000000	99.561999
1820.000000	99.562781
1819.000000	99.564694
1818.000000	99.567021
1817.000000	99.568561
1816.000000	99.568752
1815.000000	99.567880
1814.000000	99.566695
1813.000000	99.565909
1812.000000	99.565781
1811.000000	99.565910
1810.000000	99.565563
1809.000000	99.564731
1808.000000	99.564342
1807.000000	99.565089
1806.000000	99.566634
1805.000000	99.568033
1804.000000	99.568680
1803.000000	99.568707
1802.000000	99.568700
1801.000000	99.569166
1800.000000	99.570069
1799.000000	99.570933
1798.000000	99.571388
1797.000000	99.571544
1796.000000	99.571718
1795.000000	99.571988
1794.000000	99.572180
1793.000000	99.572305
1792.000000	99.572738
1791.000000	99.573658
1790.000000	99.574864
1789.000000	99.576301
1788.000000	99.577948
1787.000000	99.579556
1786.000000	99.580717
1785.000000	99.581242
1784.000000	99.581432
1783.000000	99.581806
1782.000000	99.582615
1781.000000	99.583738
1780.000000	99.584924
1779.000000	99.586074
1778.000000	99.587153
1777.000000	99.588036
1776.000000	99.588461
1775.000000	99.588322
1774.000000	99.588032
1773.000000	99.588498
1772.000000	99.590276
1771.000000	99.592655
1770.000000	99.594622
1769.000000	99.596202
1768.000000	99.597862
1767.000000	99.599700
1766.000000	99.601346
1765.000000	99.602458
1764.000000	99.603093
1763.000000	99.603743
1762.000000	99.605074
1761.000000	99.607236
1760.000000	99.609668
1759.000000	99.611772
1758.000000	99.613122
1757.000000	99.613626
1756.000000	99.613659
1755.000000	99.613729
1754.000000	99.613921
1753.000000	99.613848
1752.000000	99.613279
1751.000000	99.612923
1750.000000	99.613926
1749.000000	99.616549
1748.000000	99.619923
1747.000000	99.622744
1746.000000	99.624365
1745.000000	99.625077
1744.000000	99.625526
1743.000000	99.625957
1742.000000	99.626063
1741.000000	99.625707
1740.000000	99.625469
1739.000000	99.625826
1738.000000	99.626103
1737.000000	99.625356
1736.000000	99.623345
1735.000000	99.620915
1734.000000	99.620001
1733.000000	99.621125
1732.000000	99.622894
1731.000000	99.624824
1730.000000	99.626486
1729.000000	99.627068
1728.000000	99.626407
1727.000000	99.625267
1726.000000	99.624391
1725.000000	99.623813
1724.000000	99.623426
1723.000000	99.623543
1722.000000	99.624297
1721.000000	99.625015
1720.000000	99.624526
1719.000000	99.622049
1718.000000	99.618118
1717.000000	99.614418
1716.000000	99.611836
1715.000000	99.610186
1714.000000	99.609197
1713.000000	99.608633
1712.000000	99.608327
1711.000000	99.608188
1710.000000	99.608096
1709.000000	99.607769
1708.000000	99.606774
1707.000000	99.604762
1706.000000	99.601695
1705.000000	99.597869
1704.000000	99.593623
1703.000000	99.589236
1702.000000	99.585122
1701.000000	99.582266
1700.000000	99.581523
1699.000000	99.581541
1698.000000	99.580381
1697.000000	99.577817
1696.000000	99.574224
1695.000000	99.570339
1694.000000	99.566733
1693.000000	99.563620
1692.000000	99.560908
1691.000000	99.558516
1690.000000	99.556575
1689.000000	99.555090
1688.000000	99.553617
1687.000000	99.551534
1686.000000	99.548305
1685.000000	99.543782
1684.000000	99.539231
1683.000000	99.535744
1682.000000	99.532815
1681.000000	99.530333
1680.000000	99.528080
1679.000000	99.525813
1678.000000	99.523498
1677.000000	99.521226
1676.000000	99.519148
1675.000000	99.517440
1674.000000	99.515934
1673.000000	99.514259
1672.000000	99.512287
1671.000000	99.509875
1670.000000	99.506890
1669.000000	99.503440
1668.000000	99.499816
1667.000000	99.496645
1666.000000	99.494355
1665.000000	99.492670
1664.000000	99.491153
1663.000000	99.489739
1662.000000	99.488471
1661.000000	99.487177
1660.000000	99.485952
1659.000000	99.485284
1658.000000	99.485469
1657.000000	99.486317
1656.000000	99.487075
1655.000000	99.486355
1654.000000	99.482218
1653.000000	99.474983
1652.000000	99.467258
1651.000000	99.461030
1650.000000	99.458173
1649.000000	99.455940
1648.000000	99.452554
1647.000000	99.449782
1646.000000	99.449446
1645.000000	99.449425
1644.000000	99.448500
1643.000000	99.447066
1642.000000	99.445405
1641.000000	99.444037
1640.000000	99.443452
1639.000000	99.443592
1638.000000	99.443899
1637.000000	99.444225
1636.000000	99.445956
1635.000000	99.449404
1634.000000	99.451594
1633.000000	99.450888
1632.000000	99.447814
1631.000000	99.443607
1630.000000	99.440536
1629.000000	99.440157
1628.000000	99.441557
1627.000000	99.442433
1626.000000	99.441876
1625.000000	99.440552
1624.000000	99.439133
1623.000000	99.438170
1622.000000	99.438075
1621.000000	99.438693
1620.000000	99.439272
1619.000000	99.438819
1618.000000	99.437283
1617.000000	99.436610
1616.000000	99.438135
1615.000000	99.440073
1614.000000	99.440905
1613.000000	99.440471
1612.000000	99.438937
1611.000000	99.437514
1610.000000	99.437905
1609.000000	99.440247
1608.000000	99.442745
1607.000000	99.444135
1606.000000	99.445326
1605.000000	99.447714
1604.000000	99.451067
1603.000000	99.454317
1602.000000	99.457095
1601.000000	99.459561
1600.000000	99.461366
1599.000000	99.461915
1598.000000	99.461358
1597.000000	99.460414
1596.000000	99.459668
1595.000000	99.459719
1594.000000	99.461515
1593.000000	99.465613
1592.000000	99.471236
1591.000000	99.476905
1590.000000	99.481907
1589.000000	99.486468
1588.000000	99.490603
1587.000000	99.493606
1586.000000	99.494798
1585.000000	99.494333
1584.000000	99.493067
1583.000000	99.492305
1582.000000	99.493431
1581.000000	99.496699
1580.000000	99.500869
1579.000000	99.504447
1578.000000	99.506851
1577.000000	99.508115
1576.000000	99.508231
1575.000000	99.507285
1574.000000	99.506758
1573.000000	99.508170
1572.000000	99.510577
1571.000000	99.511964
1570.000000	99.511602
1569.000000	99.510629
1568.000000	99.509897
1567.000000	99.509384
1566.000000	99.508835
1565.000000	99.508298
1564.000000	99.508343
1563.000000	99.509336
1562.000000	99.510911
1561.000000	99.512352
1560.000000	99.512764
1559.000000	99.512926
1558.000000	99.513322
1557.000000	99.512976
1556.000000	99.513568
1555.000000	99.515032
1554.000000	99.516384
1553.000000	99.517010
1552.000000	99.516980
1551.000000	99.516876
1550.000000	99.517383
1549.000000	99.518554
1548.000000	99.519702
1547.000000	99.520216
1546.000000	99.520113
1545.000000	99.519889
1544.000000	99.520031
1543.000000	99.520517
1542.000000	99.521125
1541.000000	99.521971
1540.000000	99.523248
1539.000000	99.524428
1538.000000	99.525156
1537.000000	99.525887
1536.000000	99.526745
1535.000000	99.527474
1534.000000	99.527956
1533.000000	99.528383
1532.000000	99.528932
1531.000000	99.529562
1530.000000	99.530167
1529.000000	99.530730
1528.000000	99.531435
1527.000000	99.532495
1526.000000	99.533896
1525.000000	99.535415
1524.000000	99.536869
1523.000000	99.538178
1522.000000	99.539335
1521.000000	99.540425
1520.000000	99.541485
1519.000000	99.542576
1518.000000	99.543842
1517.000000	99.545366
1516.000000	99.547070
1515.000000	99.548610
1514.000000	99.549795
1513.000000	99.550711
1512.000000	99.551519
1511.000000	99.552208
1510.000000	99.552459
1509.000000	99.552133
1508.000000	99.552077
1507.000000	99.553921
1506.000000	99.557010
1505.000000	99.558702
1504.000000	99.559650
1503.000000	99.561228
1502.000000	99.563454
1501.000000	99.565850
1500.000000	99.567934
1499.000000	99.569630
1498.000000	99.571110
1497.000000	99.572431
1496.000000	99.573489
1495.000000	99.574264
1494.000000	99.574926
1493.000000	99.575660
1492.000000	99.576630
1491.000000	99.578136
1490.000000	99.580195
1489.000000	99.582089
1488.000000	99.583258
1487.000000	99.584073
1486.000000	99.585125
1485.000000	99.586941
1484.000000	99.589992
1483.000000	99.594422
1482.000000	99.599412
1481.000000	99.603093
1480.000000	99.604145
1479.000000	99.602996
1478.000000	99.601207
1477.000000	99.600197
1476.000000	99.600467
1475.000000	99.601372
1474.000000	99.602006
1473.000000	99.602478
1472.000000	99.603651
1471.000000	99.605693
1470.000000	99.608049
1469.000000	99.610095
1468.000000	99.611332
1467.000000	99.611772
1466.000000	99.611616
1465.000000	99.610688
1464.000000	99.608708
1463.000000	99.606349
1462.000000	99.604792
1461.000000	99.604529
1460.000000	99.605264
1459.000000	99.606401
1458.000000	99.607227
1457.000000	99.607077
1456.000000	99.606144
1455.000000	99.605899
1454.000000	99.607221
1453.000000	99.609008
1452.000000	99.609771
1451.000000	99.609053
1450.000000	99.607547
1449.000000	99.606210
1448.000000	99.605400
1447.000000	99.604816
1446.000000	99.604229
1445.000000	99.603879
1444.000000	99.603996
1443.000000	99.604538
1442.000000	99.605319
1441.000000	99.606224
1440.000000	99.607154
1439.000000	99.607900
1438.000000	99.608157
1437.000000	99.607814
1436.000000	99.607212
1435.000000	99.606867
1434.000000	99.606929
1433.000000	99.607201
1432.000000	99.607437
1431.000000	99.607511
1430.000000	99.607425
1429.000000	99.607244
1428.000000	99.607061
1427.000000	99.606948
1426.000000	99.606942
1425.000000	99.607058
1424.000000	99.607289
1423.000000	99.607586
1422.000000	99.607863
1421.000000	99.608072
1420.000000	99.608234
1419.000000	99.608481
1418.000000	99.608880
1417.000000	99.609328
1416.000000	99.609720
1415.000000	99.610081
1414.000000	99.610508
1413.000000	99.611056
1412.000000	99.611695
1411.000000	99.612360
1410.000000	99.613028
1409.000000	99.613700
1408.000000	99.614352
1407.000000	99.614944
1406.000000	99.615463
1405.000000	99.615951
1404.000000	99.616508
1403.000000	99.617224
1402.000000	99.618107
1401.000000	99.619078
1400.000000	99.620014
1399.000000	99.620855
1398.000000	99.621665
1397.000000	99.622561
1396.000000	99.623604
1395.000000	99.624778
1394.000000	99.626020
1393.000000	99.627250
1392.000000	99.628393
1391.000000	99.629408
1390.000000	99.630345
1389.000000	99.631350
1388.000000	99.632542
1387.000000	99.633870
1386.000000	99.635166
1385.000000	99.636411
1384.000000	99.637794
1383.000000	99.639493
1382.000000	99.641506
1381.000000	99.643624
1380.000000	99.645578
1379.000000	99.647224
1378.000000	99.648639
1377.000000	99.650038
1376.000000	99.651529
1375.000000	99.653078
1374.000000	99.654748
1373.000000	99.656800
1372.000000	99.659402
1371.000000	99.662352
1370.000000	99.665110
1369.000000	99.667166
1368.000000	99.668371
1367.000000	99.668993
1366.000000	99.669574
1365.000000	99.670678
1364.000000	99.672693
1363.000000	99.675515
1362.000000	99.678354
1361.000000	99.680445
1360.000000	99.681864
1359.000000	99.683197
1358.000000	99.684723
1357.000000	99.686201
1356.000000	99.687263
1355.000000	99.687894
1354.000000	99.688472
1353.000000	99.689378
1352.000000	99.690756
1351.000000	99.692621
1350.000000	99.695076
1349.000000	99.698220
1348.000000	99.701842
1347.000000	99.705503
1346.000000	99.708796
1345.000000	99.711456
1344.000000	99.713306
1343.000000	99.714386
1342.000000	99.715131
1341.000000	99.716246
1340.000000	99.718204
1339.000000	99.720782
1338.000000	99.723216
1337.000000	99.724879
1336.000000	99.725646
1335.000000	99.725687
1334.000000	99.725164
1333.000000	99.724191
1332.000000	99.723187
1331.000000	99.723146
1330.000000	99.724961
1329.000000	99.728014
1328.000000	99.729965
1327.000000	99.728774
1326.000000	99.724816
1325.000000	99.720672
1324.000000	99.718579
1323.000000	99.718686
1322.000000	99.719819
1321.000000	99.721112
1320.000000	99.722656
1319.000000	99.724881
1318.000000	99.727720
1317.000000	99.730425
1316.000000	99.731977
1315.000000	99.731785
1314.000000	99.730177
1313.000000	99.728148
1312.000000	99.726375
1311.000000	99.724707
1310.000000	99.722920
1309.000000	99.721545
1308.000000	99.721516
1307.000000	99.722985
1306.000000	99.724877
1305.000000	99.725880
1304.000000	99.725651
1303.000000	99.724952
1302.000000	99.724803
1301.000000	99.725635
1300.000000	99.727077
1299.000000	99.728304
1298.000000	99.728627
1297.000000	99.728055
1296.000000	99.727376
1295.000000	99.727499
1294.000000	99.728582
1293.000000	99.729920
1292.000000	99.730742
1291.000000	99.730790
1290.000000	99.730145
1289.000000	99.728892
1288.000000	99.727206
1287.000000	99.725599
1286.000000	99.724542
1285.000000	99.723961
1284.000000	99.723516
1283.000000	99.723190
1282.000000	99.723201
1281.000000	99.723413
1280.000000	99.723310
1279.000000	99.722641
1278.000000	99.721773
1277.000000	99.721243
1276.000000	99.721158
1275.000000	99.721217
1274.000000	99.721094
1273.000000	99.720743
1272.000000	99.720348
1271.000000	99.720088
1270.000000	99.719933
1269.000000	99.719681
1268.000000	99.719162
1267.000000	99.718376
1266.000000	99.717466
1265.000000	99.716629
1264.000000	99.715949
1263.000000	99.715353
1262.000000	99.714730
1261.000000	99.714066
1260.000000	99.713370
1259.000000	99.712535
1258.000000	99.711454
1257.000000	99.710243
1256.000000	99.709237
1255.000000	99.708844
1254.000000	99.709414
1253.000000	99.710819
1252.000000	99.711876
1251.000000	99.710766
1250.000000	99.706705
1249.000000	99.701384
1248.000000	99.697720
1247.000000	99.696900
1246.000000	99.697713
1245.000000	99.698589
1244.000000	99.698925
1243.000000	99.698314
1242.000000	99.696418
1241.000000	99.693984
1240.000000	99.692153
1239.000000	99.690343
1238.000000	99.686966
1237.000000	99.683019
1236.000000	99.682449
1235.000000	99.687081
1234.000000	99.692758
1233.000000	99.692762
1232.000000	99.684529
1231.000000	99.671818
1230.000000	99.661179
1229.000000	99.657216
1228.000000	99.660456
1227.000000	99.667426
1226.000000	99.672385
1225.000000	99.670956
1224.000000	99.663489
1223.000000	99.654611
1222.000000	99.648664
1221.000000	99.645604
1220.000000	99.641902
1219.000000	99.635307
1218.000000	99.627587
1217.000000	99.621743
1216.000000	99.617357
1215.000000	99.610582
1214.000000	99.599308
1213.000000	99.586727
1212.000000	99.578559
1211.000000	99.577439
1210.000000	99.580816
1209.000000	99.583255
1208.000000	99.579452
1207.000000	99.566522
1206.000000	99.546084
1205.000000	99.524139
1204.000000	99.506678
1203.000000	99.494776
1202.000000	99.485477
1201.000000	99.476856
1200.000000	99.469016
1199.000000	99.459762
1198.000000	99.443492
1197.000000	99.417302
1196.000000	99.385928
1195.000000	99.357688
1194.000000	99.336591
1193.000000	99.321027
1192.000000	99.308550
1191.000000	99.297698
1190.000000	99.285233
1189.000000	99.266115
1188.000000	99.238284
1187.000000	99.205104
1186.000000	99.171338
1185.000000	99.138313
1184.000000	99.104800
1183.000000	99.070895
1182.000000	99.038597
1181.000000	99.009296
1180.000000	98.982462
1179.000000	98.956358
1178.000000	98.928984
1177.000000	98.899413
1176.000000	98.869388
1175.000000	98.842089
1174.000000	98.817276
1173.000000	98.789128
1172.000000	98.752018
1171.000000	98.708118
1170.000000	98.666068
1169.000000	98.631577
1168.000000	98.602768
1167.000000	98.576273
1166.000000	98.554601
1165.000000	98.543551
1164.000000	98.543325
1163.000000	98.546210
1162.000000	98.544868
1161.000000	98.540624
1160.000000	98.540734
1159.000000	98.548950
1158.000000	98.561327
1157.000000	98.570419
1156.000000	98.570647
1155.000000	98.559207
1154.000000	98.535649
1153.000000	98.503464
1152.000000	98.470418
1151.000000	98.443858
1150.000000	98.424859
1149.000000	98.408641
1148.000000	98.390839
1147.000000	98.371427
1146.000000	98.352036
1145.000000	98.331987
1144.000000	98.309414
1143.000000	98.285378
1142.000000	98.263992
1141.000000	98.247632
1140.000000	98.234116
1139.000000	98.220079
1138.000000	98.205682
1137.000000	98.193572
1136.000000	98.183544
1135.000000	98.171302
1134.000000	98.154096
1133.000000	98.135485
1132.000000	98.121929
1131.000000	98.115492
1130.000000	98.112094
1129.000000	98.106494
1128.000000	98.096867
1127.000000	98.084168
1126.000000	98.069448
1125.000000	98.053213
1124.000000	98.036334
1123.000000	98.020581
1122.000000	98.008294
1121.000000	98.001128
1120.000000	97.998018
1119.000000	97.994147
1118.000000	97.983937
1117.000000	97.966453
1116.000000	97.946823
1115.000000	97.931080
1114.000000	97.920454
1113.000000	97.912266
1112.000000	97.904651
1111.000000	97.897572
1110.000000	97.890237
1109.000000	97.881113
1108.000000	97.870726
1107.000000	97.861956
1106.000000	97.857495
1105.000000	97.858725
1104.000000	97.865793
1103.000000	97.875850
1102.000000	97.881846
1101.000000	97.875963
1100.000000	97.854719
1099.000000	97.820175
1098.000000	97.778593
1097.000000	97.739433
1096.000000	97.712214
1095.000000	97.699990
1094.000000	97.696102
1093.000000	97.690621
1092.000000	97.679675
1091.000000	97.666073
1090.000000	97.653149
1089.000000	97.642086
1088.000000	97.633911
1087.000000	97.629555
1086.000000	97.627723
1085.000000	97.625706
1084.000000	97.621971
1083.000000	97.615877
1082.000000	97.606792
1081.000000	97.596064
1080.000000	97.587175
1079.000000	97.580773
1078.000000	97.572844
1077.000000	97.561657
1076.000000	97.552225
1075.000000	97.548035
1074.000000	97.542185
1073.000000	97.524450
1072.000000	97.494812
1071.000000	97.462410
1070.000000	97.432464
1069.000000	97.402039
1068.000000	97.368222
1067.000000	97.331830
1066.000000	97.291966
1065.000000	97.244755
1064.000000	97.189204
1063.000000	97.127782
1062.000000	97.060551
1061.000000	96.986528
1060.000000	96.912328
1059.000000	96.850678
1058.000000	96.807039
1057.000000	96.775326
1056.000000	96.749374
1055.000000	96.729593
1054.000000	96.713659
1053.000000	96.689671
1052.000000	96.646439
1051.000000	96.585143
1050.000000	96.514738
1049.000000	96.443323
1048.000000	96.381688
1047.000000	96.345531
1046.000000	96.342297
1045.000000	96.360733
1044.000000	96.381797
1043.000000	96.396733
1042.000000	96.406898
1041.000000	96.410514
1040.000000	96.400937
1039.000000	96.377705
1038.000000	96.349055
1037.000000	96.321291
1036.000000	96.294135
1035.000000	96.269325
1034.000000	96.255171
1033.000000	96.256987
1032.000000	96.268247
1031.000000	96.276521
1030.000000	96.275622
1029.000000	96.267926
1028.000000	96.257665
1027.000000	96.247034
1026.000000	96.237299
1025.000000	96.228589
1024.000000	96.218265
1023.000000	96.203602
1022.000000	96.187213
1021.000000	96.176567
1020.000000	96.176233
1019.000000	96.182576
1018.000000	96.187455
1017.000000	96.185265
1016.000000	96.174623
1015.000000	96.155829
1014.000000	96.130554
1013.000000	96.103543
1012.000000	96.081305
1011.000000	96.067484
1010.000000	96.060427
1009.000000	96.055230
1008.000000	96.046670
1007.000000	96.030877
1006.000000	96.007764
1005.000000	95.983429
1004.000000	95.967433
1003.000000	95.964484
1002.000000	95.969322
1001.000000	95.971532
1000.000000	95.964921
999.000000	95.951225
998.000000	95.935855
997.000000	95.922040
996.000000	95.909548
995.000000	95.898036
994.000000	95.889910
993.000000	95.887680
992.000000	95.887833
991.000000	95.880577
990.000000	95.859589
989.000000	95.830709
988.000000	95.806706
987.000000	95.794338
986.000000	95.791185
985.000000	95.793101
984.000000	95.797063
983.000000	95.796627
982.000000	95.784750
981.000000	95.765156
980.000000	95.751660
979.000000	95.750495
978.000000	95.751832
977.000000	95.745799
976.000000	95.738551
975.000000	95.741794
974.000000	95.753430
973.000000	95.761121
972.000000	95.761828
971.000000	95.765452
970.000000	95.780268
969.000000	95.806702
968.000000	95.844243
967.000000	95.891131
966.000000	95.935297
965.000000	95.959113
964.000000	95.959475
963.000000	95.953653
962.000000	95.959372
961.000000	95.977297
960.000000	95.998703
959.000000	96.022101
958.000000	96.053948
957.000000	96.097320
956.000000	96.147485
955.000000	96.196407
954.000000	96.236863
953.000000	96.265279
952.000000	96.285281
951.000000	96.305959
950.000000	96.332208
949.000000	96.359208
948.000000	96.380629
947.000000	96.399312
946.000000	96.424696
945.000000	96.461331
944.000000	96.504533
943.000000	96.545915
942.000000	96.578887
941.000000	96.600252
940.000000	96.611516
939.000000	96.618863
938.000000	96.627973
937.000000	96.638706
936.000000	96.648154
935.000000	96.657907
934.000000	96.673766
933.000000	96.698131
932.000000	96.726774
931.000000	96.753616
930.000000	96.774770
929.000000	96.787730
928.000000	96.792028
927.000000	96.793085
926.000000	96.800510
925.000000	96.818143
924.000000	96.839091
923.000000	96.855173
922.000000	96.869006
921.000000	96.890912
920.000000	96.924197
919.000000	96.959168
918.000000	96.983045
917.000000	96.991239
916.000000	96.987065
915.000000	96.975835
914.000000	96.963547
913.000000	96.958235
912.000000	96.967036
911.000000	96.990903
910.000000	97.024077
909.000000	97.059215
908.000000	97.091835
907.000000	97.120275
906.000000	97.143982
905.000000	97.162765
904.000000	97.176578
903.000000	97.185936
902.000000	97.193304
901.000000	97.203520
900.000000	97.222086
899.000000	97.252951
898.000000	97.296722
897.000000	97.348812
896.000000	97.399535
895.000000	97.439912
894.000000	97.469476
893.000000	97.495675
892.000000	97.524476
891.000000	97.555448
890.000000	97.587424
889.000000	97.622477
888.000000	97.659573
887.000000	97.690378
886.000000	97.708762
885.000000	97.720294
884.000000	97.734956
883.000000	97.753720
882.000000	97.770540
881.000000	97.785690
880.000000	97.807631
879.000000	97.841040
878.000000	97.881953
877.000000	97.925880
876.000000	97.971580
875.000000	98.014629
874.000000	98.048067
873.000000	98.074188
872.000000	98.105770
871.000000	98.149445
870.000000	98.196126
869.000000	98.234331
868.000000	98.265429
867.000000	98.298143
866.000000	98.333609
865.000000	98.364123
864.000000	98.384037
863.000000	98.394863
862.000000	98.401667
861.000000	98.411051
860.000000	98.431510
859.000000	98.468227
858.000000	98.515751
857.000000	98.560838
856.000000	98.594194
855.000000	98.616381
854.000000	98.632200
853.000000	98.642461
852.000000	98.641853
851.000000	98.624263
850.000000	98.594066
849.000000	98.573902
848.000000	98.593040
847.000000	98.660346
846.000000	98.751260
845.000000	98.828346
844.000000	98.872388
843.000000	98.887049
842.000000	98.883218
841.000000	98.871265
840.000000	98.862586
839.000000	98.863130
838.000000	98.864988
837.000000	98.856315
836.000000	98.838695
835.000000	98.822645
834.000000	98.808493
833.000000	98.788566
832.000000	98.769699
831.000000	98.773759
830.000000	98.806978
829.000000	98.845730
828.000000	98.866040
827.000000	98.873445
826.000000	98.887948
825.000000	98.911725
824.000000	98.930880
823.000000	98.939179
822.000000	98.938648
821.000000	98.925028
820.000000	98.895157
819.000000	98.863568
818.000000	98.849535
817.000000	98.847805
816.000000	98.832414
815.000000	98.795370
814.000000	98.765045
813.000000	98.773219
812.000000	98.812099
811.000000	98.837206
810.000000	98.809593
809.000000	98.723812
808.000000	98.597014
807.000000	98.444801
806.000000	98.274021
805.000000	98.091323
804.000000	97.908416
803.000000	97.738002
802.000000	97.590171
801.000000	97.473518
800.000000	97.392791
799.000000	97.339927
798.000000	97.293346
797.000000	97.236753
796.000000	97.177087
795.000000	97.132591
794.000000	97.102454
793.000000	97.062024
792.000000	96.995909
791.000000	96.924342
790.000000	96.883049
789.000000	96.882066
788.000000	96.896272
787.000000	96.894505
786.000000	96.868104
785.000000	96.831335
784.000000	96.805460
783.000000	96.804387
782.000000	96.822469
781.000000	96.830015
780.000000	96.793368
779.000000	96.710856
778.000000	96.621035
777.000000	96.563757
776.000000	96.540390
775.000000	96.525355
774.000000	96.511791
773.000000	96.526081
772.000000	96.591619
771.000000	96.695271
770.000000	96.799365
769.000000	96.878676
768.000000	96.934702
767.000000	96.979900
766.000000	97.023120
765.000000	97.068366
764.000000	97.114418
763.000000	97.155120
762.000000	97.190355
761.000000	97.235496
760.000000	97.306564
759.000000	97.393245
758.000000	97.460070
757.000000	97.482270
756.000000	97.471020
755.000000	97.457292
754.000000	97.458956
753.000000	97.472209
752.000000	97.489179
751.000000	97.511956
750.000000	97.547923
749.000000	97.597722
748.000000	97.650905
747.000000	97.692575
746.000000	97.714853
745.000000	97.722422
744.000000	97.725918
743.000000	97.730916
742.000000	97.735927
741.000000	97.739748
740.000000	97.745829
739.000000	97.759475
738.000000	97.785712
737.000000	97.827920
736.000000	97.881659
735.000000	97.930620
734.000000	97.957482
733.000000	97.962884
732.000000	97.967364
731.000000	97.989208
730.000000	98.023446
729.000000	98.048400
728.000000	98.049611
727.000000	98.030612
726.000000	98.004402
725.000000	97.983764
724.000000	97.978518
723.000000	97.992209
722.000000	98.020335
721.000000	98.058407
720.000000	98.109797
719.000000	98.176256
718.000000	98.241877
717.000000	98.279266
716.000000	98.276110
715.000000	98.249665
714.000000	98.231905
713.000000	98.241139
712.000000	98.269144
711.000000	98.291298
710.000000	98.287112
709.000000	98.255593
708.000000	98.215877
707.000000	98.190819
706.000000	98.186406
705.000000	98.189799
704.000000	98.187746
703.000000	98.182520
702.000000	98.186582
701.000000	98.203380
700.000000	98.215186
699.000000	98.191414
698.000000	98.114221
697.000000	98.001776
696.000000	97.902325
695.000000	97.855022
694.000000	97.857838
693.000000	97.876723
692.000000	97.884170
691.000000	97.884046
690.000000	97.899187
689.000000	97.947324
688.000000	98.031974
687.000000	98.142036
686.000000	98.251672
685.000000	98.332405
684.000000	98.374275
683.000000	98.387822
682.000000	98.380824
681.000000	98.345677
680.000000	98.282722
679.000000	98.225575
678.000000	98.221763
677.000000	98.287903
676.000000	98.395326
675.000000	98.498316
674.000000	98.571961
673.000000	98.617016
672.000000	98.644295
671.000000	98.662929
670.000000	98.677921
669.000000	98.682059
668.000000	98.653437
667.000000	98.606895
666.000000	98.595652
665.000000	98.629919
664.000000	98.682433
663.000000	98.722573
662.000000	98.730756
661.000000	98.717725
660.000000	98.718223
659.000000	98.759822
658.000000	98.838379
657.000000	98.924287
656.000000	98.986310
655.000000	99.008614
654.000000	98.991273
653.000000	98.943799
652.000000	98.880717
651.000000	98.821618
650.000000	98.783334
