4000.000000	99.499226
3999.000000	99.499291
3998.000000	99.502701
3997.000000	99.506894
3996.000000	99.509539
3995.000000	99.510427
3994.000000	99.510827
3993.000000	99.511366
3992.000000	99.510853
3991.000000	99.507513
3990.000000	99.501140
3989.000000	99.493764
3988.000000	99.487888
3987.000000	99.484100
3986.000000	99.480834
3985.000000	99.476359
3984.000000	99.470984
3983.000000	99.467123
3982.000000	99.466970
3981.000000	99.470480
3980.000000	99.475495
3979.000000	99.479619
3978.000000	99.481908
3977.000000	99.482745
3976.000000	99.482641
3975.000000	99.481483
3974.000000	99.478960
3973.000000	99.475466
3972.000000	99.472296
3971.000000	99.470698
3970.000000	99.470944
3969.000000	99.472576
3968.000000	99.475238
3967.000000	99.478891
3966.000000	99.483058
3965.000000	99.486297
3964.000000	99.487031
3963.000000	99.484812
3962.000000	99.480592
3961.000000	99.475829
3960.000000	99.471537
3959.000000	99.468071
3958.000000	99.465449
3957.000000	99.463780
3956.000000	99.463536
3955.000000	99.465450
3954.000000	99.469825
3953.000000	99.475769
3952.000000	99.481225
3951.000000	99.484147
3950.000000	99.483957
3949.000000	99.481947
3948.000000	99.480206
3947.000000	99.479828
3946.000000	99.480370
3945.000000	99.480825
3944.000000	99.480790
3943.000000	99.480608
3942.000000	99.480468
3941.000000	99.479848
3940.000000	99.478298
3939.000000	99.476329
3938.000000	99.474977
3937.000000	99.474734
3936.000000	99.475206
3935.000000	99.475877
3934.000000	99.476945
3933.000000	99.479102
3932.000000	99.482500
3931.000000	99.486006
3930.000000	99.487955
3929.000000	99.487666
3928.000000	99.486064
3927.000000	99.485106
3926.000000	99.486336
3925.000000	99.489700
3924.000000	99.493446
3923.000000	99.495481
3922.000000	99.495002
3921.000000	99.492712
3920.000000	99.490009
3919.000000	99.488115
3918.000000	99.487489
3917.000000	99.487584
3916.000000	99.487161
3915.000000	99.485240
3914.000000	99.482002
3913.000000	99.478789
3912.000000	99.477233
3911.000000	99.478250
3910.000000	99.481564
3909.000000	99.485918
3908.000000	99.489696
3907.000000	99.491651
3906.000000	99.491600
3905.000000	99.490734
3904.000000	99.490923
3903.000000	99.492966
3902.000000	99.496040
3901.000000	99.499015
3900.000000	99.501143
3899.000000	99.501498
3898.000000	99.498987
3897.000000	99.493596
3896.000000	99.487264
3895.000000	99.482653
3894.000000	99.481060
3893.000000	99.481773
3892.000000	99.483099
3891.000000	99.483959
3890.000000	99.484039
3889.000000	99.483355
3888.000000	99.482026
3887.000000	99.480387
3886.000000	99.479880
3885.000000	99.482431
3884.000000	99.487821
3883.000000	99.493664
3882.000000	99.497562
3881.000000	99.498532
3880.000000	99.497295
3879.000000	99.494971
3878.000000	99.491880
3877.000000	99.488175
3876.000000	99.484261
3875.000000	99.480957
3874.000000	99.479294
3873.000000	99.479614
3872.000000	99.481797
3871.000000	99.486183
3870.000000	99.493080
3869.000000	99.501305
3868.000000	99.508475
3867.000000	99.513086
3866.000000	99.514461
3865.000000	99.511912
3864.000000	99.505774
3863.000000	99.498156
3862.000000	99.491597
3861.000000	99.487745
3860.000000	99.487189
3859.000000	99.489983
3858.000000	99.495860
3857.000000	99.503928
3856.000000	99.512079
3855.000000	99.516880
3854.000000	99.515618
3853.000000	99.508951
3852.000000	99.499294
3851.000000	99.489024
3850.000000	99.481124
3849.000000	99.477416
3848.000000	99.477646
3847.000000	99.480374
3846.000000	99.483977
3845.000000	99.487457
3844.000000	99.490558
3843.000000	99.492995
3842.000000	99.493750
3841.000000	99.491617
3840.000000	99.486575
3839.000000	99.480690
3838.000000	99.476873
3837.000000	99.476161
3836.000000	99.477137
3835.000000	99.477922
3834.000000	99.477935
3833.000000	99.477860
3832.000000	99.478471
3831.000000	99.479689
3830.000000	99.480682
3829.000000	99.480707
3828.000000	99.479735
3827.000000	99.478352
3826.000000	99.477096
3825.000000	99.475962
3824.000000	99.474631
3823.000000	99.473028
3822.000000	99.471676
3821.000000	99.471367
3820.000000	99.472114
3819.000000	99.473023
3818.000000	99.473206
3817.000000	99.472239
3816.000000	99.470258
3815.000000	99.467972
3814.000000	99.466118
3813.000000	99.464968
3812.000000	99.464432
3811.000000	99.464252
3810.000000	99.464137
3809.000000	99.463901
3808.000000	99.463540
3807.000000	99.463211
3806.000000	99.463000
3805.000000	99.462791
3804.000000	99.462431
3803.000000	99.461912
3802.000000	99.461487
3801.000000	99.461514
3800.000000	99.461984
3799.000000	99.462446
3798.000000	99.462431
3797.000000	99.461738
3796.000000	99.460558
3795.000000	99.459358
3794.000000	99.458497
3793.000000	99.458020
3792.000000	99.457800
3791.000000	99.457743
3790.000000	99.457895
3789.000000	99.458283
3788.000000	99.458709
3787.000000	99.458824
3786.000000	99.458426
3785.000000	99.457650
3784.000000	99.456792
3783.000000	99.456010
3782.000000	99.455292
3781.000000	99.454676
3780.000000	99.454409
3779.000000	99.454873
3778.000000	99.456238
3777.000000	99.458344
3776.000000	99.460935
3775.000000	99.463632
3774.000000	99.465707
3773.000000	99.466349
3772.000000	99.465191
3771.000000	99.462859
3770.000000	99.461080
3769.000000	99.461362
3768.000000	99.463807
3767.000000	99.467318
3766.000000	99.470488
3765.000000	99.472336
3764.000000	99.472531
3763.000000	99.471296
3762.000000	99.469259
3761.000000	99.467163
3760.000000	99.465727
3759.000000	99.465579
3758.000000	99.466426
3757.000000	99.466843
3756.000000	99.465712
3755.000000	99.463557
3754.000000	99.462210
3753.000000	99.463082
3752.000000	99.465704
3751.000000	99.468442
3750.000000	99.470413
3749.000000	99.471959
3748.000000	99.474143
3747.000000	99.477386
3746.000000	99.480146
3745.000000	99.481052
3744.000000	99.481221
3743.000000	99.479760
3742.000000	99.475100
3741.000000	99.470367
3740.000000	99.468238
3739.000000	99.467297
3738.000000	99.464805
3737.000000	99.460239
3736.000000	99.456844
3735.000000	99.458283
3734.000000	99.463325
3733.000000	99.467478
3732.000000	99.468545
3731.000000	99.467373
3730.000000	99.465526
3729.000000	99.463261
3728.000000	99.459261
3727.000000	99.452209
3726.000000	99.442920
3725.000000	99.434266
3724.000000	99.428993
3723.000000	99.427447
3722.000000	99.426949
3721.000000	99.423981
3720.000000	99.417545
3719.000000	99.409896
3718.000000	99.403577
3717.000000	99.398607
3716.000000	99.393028
3715.000000	99.385428
3714.000000	99.375429
3713.000000	99.363938
3712.000000	99.352882
3711.000000	99.343308
3710.000000	99.334478
3709.000000	99.325912
3708.000000	99.318222
3707.000000	99.311644
3706.000000	99.305160
3705.000000	99.297319
3704.000000	99.287835
3703.000000	99.278603
3702.000000	99.272588
3701.000000	99.270855
3700.000000	99.271294
3699.000000	99.270905
3698.000000	99.268438
3697.000000	99.264574
3696.000000	99.260622
3695.000000	99.257357
3694.000000	99.254767
3693.000000	99.252478
3692.000000	99.250203
3691.000000	99.247879
3690.000000	99.245522
3689.000000	99.243065
3688.000000	99.240399
3687.000000	99.237586
3686.000000	99.234837
3685.000000	99.232313
3684.000000	99.230055
3683.000000	99.228023
3682.000000	99.226156
3681.000000	99.224410
3680.000000	99.222768
3679.000000	99.221224
3678.000000	99.219775
3677.000000	99.218413
3676.000000	99.217131
3675.000000	99.215909
3674.000000	99.214764
3673.000000	99.213834
3672.000000	99.213113
3671.000000	99.212604
3670.000000	99.212274
3669.000000	99.212008
3668.000000	99.211781
3667.000000	99.211565
3666.000000	99.211359
3665.000000	99.211181
3664.000000	99.211068
3663.000000	99.211037
3662.000000	99.211085
3661.000000	99.211197
3660.000000	99.211358
3659.000000	99.211544
3658.000000	99.211732
3657.000000	99.211916
3656.000000	99.212148
3655.000000	99.212498
3654.000000	99.213040
3653.000000	99.213821
3652.000000	99.214506
3651.000000	99.214239
3650.000000	99.212689
3649.000000	99.211362
3648.000000	99.212212
3647.000000	99.215097
3646.000000	99.218117
3645.000000	99.219705
3644.000000	99.219590
3643.000000	99.218295
3642.000000	99.216122
3641.000000	99.212727
3640.000000	99.207758
3639.000000	99.201723
3638.000000	99.195860
3637.000000	99.191110
3636.000000	99.187762
3635.000000	99.186073
3634.000000	99.186657
3633.000000	99.189767
3632.000000	99.194136
3631.000000	99.196329
3630.000000	99.192465
3629.000000	99.182341
3628.000000	99.169514
3627.000000	99.157275
3626.000000	99.149031
3625.000000	99.147159
3624.000000	99.149957
3623.000000	99.153151
3622.000000	99.154017
3621.000000	99.153058
3620.000000	99.152167
3619.000000	99.151652
3618.000000	99.149652
3617.000000	99.145410
3616.000000	99.141413
3615.000000	99.140819
3614.000000	99.144510
3613.000000	99.150861
3612.000000	99.157077
3611.000000	99.160745
3610.000000	99.160701
3609.000000	99.157184
3608.000000	99.151862
3607.000000	99.146783
3606.000000	99.142911
3605.000000	99.140164
3604.000000	99.138114
3603.000000	99.136553
3602.000000	99.135855
3601.000000	99.136588
3600.000000	99.138640
3599.000000	99.140893
3598.000000	99.142069
3597.000000	99.141884
3596.000000	99.141385
3595.000000	99.141893
3594.000000	99.143568
3593.000000	99.145238
3592.000000	99.145893
3591.000000	99.145724
3590.000000	99.145670
3589.000000	99.146482
3588.000000	99.148288
3587.000000	99.150297
3586.000000	99.151010
3585.000000	99.149576
3584.000000	99.146524
3583.000000	99.143215
3582.000000	99.141151
3581.000000	99.141339
3580.000000	99.143752
3579.000000	99.147179
3578.000000	99.149987
3577.000000	99.151281
3576.000000	99.151162
3575.000000	99.150210
3574.000000	99.149069
3573.000000	99.148387
3572.000000	99.148722
3571.000000	99.150246
3570.000000	99.152649
3569.000000	99.155563
3568.000000	99.159056
3567.000000	99.162967
3566.000000	99.165614
3565.000000	99.164906
3564.000000	99.160753
3563.000000	99.155178
3562.000000	99.150548
3561.000000	99.148096
3560.000000	99.147661
3559.000000	99.148014
3558.000000	99.147749
3557.000000	99.146563
3556.000000	99.145749
3555.000000	99.147077
3554.000000	99.150923
3553.000000	99.155599
3552.000000	99.158786
3551.000000	99.159675
3550.000000	99.159286
3549.000000	99.159104
3548.000000	99.159850
3547.000000	99.161458
3546.000000	99.163426
3545.000000	99.164791
3544.000000	99.164583
3543.000000	99.162836
3542.000000	99.160688
3541.000000	99.159150
3540.000000	99.158048
3539.000000	99.156532
3538.000000	99.154328
3537.000000	99.152147
3536.000000	99.150947
3535.000000	99.151239
3534.000000	99.153123
3533.000000	99.156320
3532.000000	99.159907
3531.000000	99.162404
3530.000000	99.162909
3529.000000	99.162185
3528.000000	99.162148
3527.000000	99.163918
3526.000000	99.166630
3525.000000	99.168374
3524.000000	99.168054
3523.000000	99.166059
3522.000000	99.163410
3521.000000	99.160751
3520.000000	99.158122
3519.000000	99.155427
3518.000000	99.152774
3517.000000	99.150352
3516.000000	99.148248
3515.000000	99.146451
3514.000000	99.144961
3513.000000	99.143939
3512.000000	99.143880
3511.000000	99.145479
3510.000000	99.148922
3509.000000	99.153016
3508.000000	99.155493
3507.000000	99.154718
3506.000000	99.150848
3505.000000	99.145632
3504.000000	99.141323
3503.000000	99.139522
3502.000000	99.140700
3501.000000	99.144189
3500.000000	99.148350
3499.000000	99.151206
3498.000000	99.151525
3497.000000	99.149556
3496.000000	99.146592
3495.000000	99.143622
3494.000000	99.140578
3493.000000	99.136926
3492.000000	99.132582
3491.000000	99.128170
3490.000000	99.124801
3489.000000	99.123707
3488.000000	99.125599
3487.000000	99.129959
3486.000000	99.135210
3485.000000	99.139956
3484.000000	99.143765
3483.000000	99.146551
3482.000000	99.147787
3481.000000	99.146992
3480.000000	99.144864
3479.000000	99.143161
3478.000000	99.143145
3477.000000	99.144518
3476.000000	99.145917
3475.000000	99.145977
3474.000000	99.143885
3473.000000	99.139742
3472.000000	99.135034
3471.000000	99.132270
3470.000000	99.133165
3469.000000	99.136940
3468.000000	99.140579
3467.000000	99.141177
3466.000000	99.138078
3465.000000	99.132974
3464.000000	99.128429
3463.000000	99.125937
3462.000000	99.124891
3461.000000	99.123219
3460.000000	99.119293
3459.000000	99.113610
3458.000000	99.108557
3457.000000	99.106307
3456.000000	99.106961
3455.000000	99.108612
3454.000000	99.109235
3453.000000	99.108473
3452.000000	99.107558
3451.000000	99.107804
3450.000000	99.109537
3449.000000	99.112270
3448.000000	99.115308
3447.000000	99.117851
3446.000000	99.118973
3445.000000	99.118234
3444.000000	99.116352
3443.000000	99.114652
3442.000000	99.113631
3441.000000	99.112492
3440.000000	99.110478
3439.000000	99.108352
3438.000000	99.107998
3437.000000	99.110581
3436.000000	99.115407
3435.000000	99.120360
3434.000000	99.123420
3433.000000	99.123887
3432.000000	99.122438
3431.000000	99.120390
3430.000000	99.118745
3429.000000	99.117743
3428.000000	99.117255
3427.000000	99.117336
3426.000000	99.118098
3425.000000	99.119324
3424.000000	99.120607
3423.000000	99.121872
3422.000000	99.123338
3421.000000	99.124798
3420.000000	99.125412
3419.000000	99.124559
3418.000000	99.122450
3417.000000	99.119824
3416.000000	99.117367
3415.000000	99.115505
3414.000000	99.114584
3413.000000	99.114811
3412.000000	99.115991
3411.000000	99.117505
3410.000000	99.118614
3409.000000	99.118878
3408.000000	99.118454
3407.000000	99.118034
3406.000000	99.118253
3405.000000	99.118983
3404.000000	99.119388
3403.000000	99.118881
3402.000000	99.117858
3401.000000	99.117193
3400.000000	99.117146
3399.000000	99.117116
3398.000000	99.116460
3397.000000	99.115214
3396.000000	99.113917
3395.000000	99.112999
3394.000000	99.112457
3393.000000	99.111929
3392.000000	99.110932
3391.000000	99.109217
3390.000000	99.107123
3389.000000	99.105509
3388.000000	99.105047
3387.000000	99.105610
3386.000000	99.106420
3385.000000	99.106859
3384.000000	99.106988
3383.000000	99.107098
3382.000000	99.107116
3381.000000	99.106715
3380.000000	99.105909
3379.000000	99.105253
3378.000000	99.105286
3377.000000	99.106001
3376.000000	99.106908
3375.000000	99.107423
3374.000000	99.107341
3373.000000	99.106820
3372.000000	99.106185
3371.000000	99.105682
3370.000000	99.105378
3369.000000	99.105220
3368.000000	99.105123
3367.000000	99.105041
3366.000000	99.104997
3365.000000	99.105025
3364.000000	99.105104
3363.000000	99.105150
3362.000000	99.105092
3361.000000	99.104946
3360.000000	99.104815
3359.000000	99.104796
3358.000000	99.104881
3357.000000	99.104946
3356.000000	99.104873
3355.000000	99.104677
3354.000000	99.104481
3353.000000	99.104395
3352.000000	99.104415
3351.000000	99.104485
3350.000000	99.104595
3349.000000	99.104772
3348.000000	99.104988
3347.000000	99.105165
3346.000000	99.105263
3345.000000	99.105294
3344.000000	99.105296
3343.000000	99.105302
3342.000000	99.105320
3341.000000	99.105323
3340.000000	99.105269
3339.000000	99.105158
3338.000000	99.105051
3337.000000	99.105023
3336.000000	99.105078
3335.000000	99.105113
3334.000000	99.105022
3333.000000	99.104812
3332.000000	99.104535
3331.000000	99.104224
3330.000000	99.103901
3329.000000	99.103640
3328.000000	99.103548
3327.000000	99.103655
3326.000000	99.103873
3325.000000	99.104074
3324.000000	99.104163
3323.000000	99.104069
3322.000000	99.103758
3321.000000	99.103323
3320.000000	99.102991
3319.000000	99.102910
3318.000000	99.102962
3317.000000	99.102873
3316.000000	99.102596
3315.000000	99.102418
3314.000000	99.102602
3313.000000	99.103003
3312.000000	99.103167
3311.000000	99.102804
3310.000000	99.102046
3309.000000	99.101266
3308.000000	99.100671
3307.000000	99.100128
3306.000000	99.099371
3305.000000	99.098407
3304.000000	99.097649
3303.000000	99.097573
3302.000000	99.098264
3301.000000	99.099326
3300.000000	99.100191
3299.000000	99.100516
3298.000000	99.100302
3297.000000	99.099780
3296.000000	99.099290
3295.000000	99.099178
3294.000000	99.099692
3293.000000	99.100864
3292.000000	99.102398
3291.000000	99.103671
3290.000000	99.104019
3289.000000	99.103153
3288.000000	99.101464
3287.000000	99.099857
3286.000000	99.098874
3285.000000	99.098168
3284.000000	99.096996
3283.000000	99.095183
3282.000000	99.093344
3281.000000	99.092120
3280.000000	99.091483
3279.000000	99.091089
3278.000000	99.091056
3277.000000	99.091789
3276.000000	99.093020
3275.000000	99.093677
3274.000000	99.093099
3273.000000	99.091980
3272.000000	99.091652
3271.000000	99.092573
3270.000000	99.094007
3269.000000	99.095097
3268.000000	99.095729
3267.000000	99.096207
3266.000000	99.096503
3265.000000	99.096270
3264.000000	99.095443
3263.000000	99.094495
3262.000000	99.094010
3261.000000	99.094127
3260.000000	99.094439
3259.000000	99.094368
3258.000000	99.093686
3257.000000	99.092738
3256.000000	99.092149
3255.000000	99.092235
3254.000000	99.092800
3253.000000	99.093507
3252.000000	99.094308
3251.000000	99.095266
3250.000000	99.096183
3249.000000	99.096748
3248.000000	99.096962
3247.000000	99.097221
3246.000000	99.097904
3245.000000	99.099007
3244.000000	99.100251
3243.000000	99.101305
3242.000000	99.102052
3241.000000	99.102577
3240.000000	99.103053
3239.000000	99.103598
3238.000000	99.104207
3237.000000	99.104836
3236.000000	99.105473
3235.000000	99.106143
3234.000000	99.106852
3233.000000	99.107554
3232.000000	99.108191
3231.000000	99.108766
3230.000000	99.109347
3229.000000	99.110005
3228.000000	99.110741
3227.000000	99.111507
3226.000000	99.112256
3225.000000	99.112992
3224.000000	99.113743
3223.000000	99.114523
3222.000000	99.115323
3221.000000	99.116135
3220.000000	99.116952
3219.000000	99.117769
3218.000000	99.118580
3217.000000	99.119386
3216.000000	99.120197
3215.000000	99.121018
3214.000000	99.121844
3213.000000	99.122659
3212.000000	99.123445
3211.000000	99.124194
3210.000000	99.124913
3209.000000	99.125614
3208.000000	99.126302
3207.000000	99.126975
3206.000000	99.127634
3205.000000	99.128276
3204.000000	99.128904
3203.000000	99.129512
3202.000000	99.130083
3201.000000	99.130587
3200.000000	99.131004
3199.000000	99.131343
3198.000000	99.131650
3197.000000	99.131986
3196.000000	99.132407
3195.000000	99.132941
3194.000000	99.133568
3193.000000	99.134219
3192.000000	99.134813
3191.000000	99.135328
3190.000000	99.135859
3189.000000	99.136546
3188.000000	99.137437
3187.000000	99.138406
3186.000000	99.139223
3185.000000	99.139714
3184.000000	99.139909
3183.000000	99.140092
3182.000000	99.140631
3181.000000	99.141647
3180.000000	99.142772
3179.000000	99.143404
3178.000000	99.143372
3177.000000	99.143314
3176.000000	99.144147
3175.000000	99.146187
3174.000000	99.148813
3173.000000	99.150915
3172.000000	99.151667
3171.000000	99.150915
3170.000000	99.149205
3169.000000	99.147417
3168.000000	99.146149
3167.000000	99.145398
3166.000000	99.144950
3165.000000	99.144889
3164.000000	99.145496
3163.000000	99.146787
3162.000000	99.148479
3161.000000	99.150291
3160.000000	99.151973
3159.000000	99.153182
3158.000000	99.153808
3157.000000	99.154409
3156.000000	99.155837
3155.000000	99.158299
3154.000000	99.161130
3153.000000	99.163532
3152.000000	99.165279
3151.000000	99.166677
3150.000000	99.168242
3149.000000	99.170485
3148.000000	99.173578
3147.000000	99.177031
3146.000000	99.179968
3145.000000	99.181802
3144.000000	99.182333
3143.000000	99.181365
3142.000000	99.178903
3141.000000	99.175789
3140.000000	99.173488
3139.000000	99.172799
3138.000000	99.173080
3137.000000	99.173139
3136.000000	99.172569
3135.000000	99.171813
3134.000000	99.171186
3133.000000	99.170420
3132.000000	99.169271
3131.000000	99.168297
3130.000000	99.168762
3129.000000	99.171602
3128.000000	99.176437
3127.000000	99.181537
3126.000000	99.184951
3125.000000	99.185887
3124.000000	99.184955
3123.000000	99.183397
3122.000000	99.182215
3121.000000	99.181839
3120.000000	99.182210
3119.000000	99.182876
3118.000000	99.183228
3117.000000	99.183004
3116.000000	99.182646
3115.000000	99.183005
3114.000000	99.184644
3113.000000	99.187403
3112.000000	99.190439
3111.000000	99.192659
3110.000000	99.193416
3109.000000	99.192909
3108.000000	99.192008
3107.000000	99.191625
3106.000000	99.192204
3105.000000	99.193739
3104.000000	99.195919
3103.000000	99.198136
3102.000000	99.199664
3101.000000	99.200173
3100.000000	99.199938
3099.000000	99.199360
3098.000000	99.198482
3097.000000	99.197260
3096.000000	99.196144
3095.000000	99.195885
3094.000000	99.196699
3093.000000	99.197965
3092.000000	99.198843
3091.000000	99.199096
3090.000000	99.199116
3089.000000	99.199327
3088.000000	99.199793
3087.000000	99.200323
3086.000000	99.200731
3085.000000	99.200934
3084.000000	99.200958
3083.000000	99.200950
3082.000000	99.201123
3081.000000	99.201593
3080.000000	99.202308
3079.000000	99.203123
3078.000000	99.203869
3077.000000	99.204376
3076.000000	99.204522
3075.000000	99.204382
3074.000000	99.204289
3073.000000	99.204593
3072.000000	99.205345
3071.000000	99.206266
3070.000000	99.207026
3069.000000	99.207551
3068.000000	99.207941
3067.000000	99.208222
3066.000000	99.208326
3065.000000	99.208274
3064.000000	99.208192
3063.000000	99.208165
3062.000000	99.208178
3061.000000	99.208269
3060.000000	99.208628
3059.000000	99.209415
3058.000000	99.210523
3057.000000	99.211562
3056.000000	99.212170
3055.000000	99.212242
3054.000000	99.211961
3053.000000	99.211692
3052.000000	99.211783
3051.000000	99.212395
3050.000000	99.213364
3049.000000	99.214338
3048.000000	99.215166
3047.000000	99.216059
3046.000000	99.217220
3045.000000	99.218450
3044.000000	99.219302
3043.000000	99.219541
3042.000000	99.219275
3041.000000	99.218766
3040.000000	99.218313
3039.000000	99.218224
3038.000000	99.218604
3037.000000	99.219150
3036.000000	99.219387
3035.000000	99.219167
3034.000000	99.218776
3033.000000	99.218634
3032.000000	99.219037
3031.000000	99.220074
3030.000000	99.221433
3029.000000	99.222399
3028.000000	99.222509
3027.000000	99.222269
3026.000000	99.222854
3025.000000	99.224890
3024.000000	99.227760
3023.000000	99.230233
3022.000000	99.231515
3021.000000	99.231415
3020.000000	99.229846
3019.000000	99.226745
3018.000000	99.222603
3017.000000	99.218683
3016.000000	99.216245
3015.000000	99.215613
3014.000000	99.216037
3013.000000	99.216384
3012.000000	99.216070
3011.000000	99.215345
3010.000000	99.214722
3009.000000	99.214365
3008.000000	99.214104
3007.000000	99.213853
3006.000000	99.213792
3005.000000	99.214040
3004.000000	99.214272
3003.000000	99.213790
3002.000000	99.212043
3001.000000	99.209173
3000.000000	99.206159
2999.000000	99.204221
2998.000000	99.203870
2997.000000	99.204505
2996.000000	99.204930
2995.000000	99.204334
2994.000000	99.202709
2993.000000	99.200499
2992.000000	99.198155
2991.000000	99.196017
2990.000000	99.194321
2989.000000	99.193116
2988.000000	99.192208
2987.000000	99.191314
2986.000000	99.190199
2985.000000	99.188638
2984.000000	99.186417
2983.000000	99.183535
2982.000000	99.180405
2981.000000	99.177734
2980.000000	99.176199
2979.000000	99.176160
2978.000000	99.177394
2977.000000	99.178927
2976.000000	99.179369
2975.000000	99.177868
2974.000000	99.174883
2973.000000	99.171982
2972.000000	99.170626
2971.000000	99.171215
2970.000000	99.173208
2969.000000	99.175691
2968.000000	99.177711
2967.000000	99.178333
2966.000000	99.176808
2965.000000	99.172982
2964.000000	99.167660
2963.000000	99.162572
2962.000000	99.159657
2961.000000	99.159859
2960.000000	99.162309
2959.000000	99.164777
2958.000000	99.165392
2957.000000	99.164036
2956.000000	99.161950
2955.000000	99.159968
2954.000000	99.157442
2953.000000	99.153439
2952.000000	99.148920
2951.000000	99.146920
2950.000000	99.149759
2949.000000	99.156226
2948.000000	99.162175
2947.000000	99.164133
2946.000000	99.161835
2945.000000	99.157484
2944.000000	99.153527
2943.000000	99.151202
2942.000000	99.149979
2941.000000	99.147496
2940.000000	99.140866
2939.000000	99.129382
2938.000000	99.115768
2937.000000	99.103887
2936.000000	99.095499
2935.000000	99.090192
2934.000000	99.087696
2933.000000	99.088264
2932.000000	99.090632
2931.000000	99.091642
2930.000000	99.089078
2929.000000	99.083736
2928.000000	99.077796
2927.000000	99.072311
2926.000000	99.067695
2925.000000	99.065728
2924.000000	99.068964
2923.000000	99.077632
2922.000000	99.088206
2921.000000	99.096068
2920.000000	99.099647
2919.000000	99.101459
2918.000000	99.105058
2917.000000	99.111506
2916.000000	99.119109
2915.000000	99.126009
2914.000000	99.131895
2913.000000	99.136805
2912.000000	99.139863
2911.000000	99.140957
2910.000000	99.142861
2909.000000	99.149173
2908.000000	99.159456
2907.000000	99.168383
2906.000000	99.171172
2905.000000	99.168527
2904.000000	99.165004
2903.000000	99.163846
2902.000000	99.165030
2901.000000	99.167803
2900.000000	99.172387
2899.000000	99.178582
2898.000000	99.184887
2897.000000	99.189843
2896.000000	99.193610
2895.000000	99.197282
2894.000000	99.201363
2893.000000	99.205490
2892.000000	99.208964
2891.000000	99.210915
2890.000000	99.210593
2889.000000	99.208159
2888.000000	99.204890
2887.000000	99.202195
2886.000000	99.200644
2885.000000	99.200256
2884.000000	99.201006
2883.000000	99.202385
2882.000000	99.203176
2881.000000	99.202864
2880.000000	99.202995
2879.000000	99.205817
2878.000000	99.211216
2877.000000	99.216080
2876.000000	99.217670
2875.000000	99.216960
2874.000000	99.217728
2873.000000	99.222407
2872.000000	99.229654
2871.000000	99.235957
2870.000000	99.238691
2869.000000	99.237215
2868.000000	99.232127
2867.000000	99.224854
2866.000000	99.217883
2865.000000	99.213911
2864.000000	99.213699
2863.000000	99.215093
2862.000000	99.214992
2861.000000	99.212375
2860.000000	99.208797
2859.000000	99.206050
2858.000000	99.204264
2857.000000	99.202521
2856.000000	99.200418
2855.000000	99.198421
2854.000000	99.197434
2853.000000	99.198868
2852.000000	99.204502
2851.000000	99.214744
2850.000000	99.226732
2849.000000	99.235435
2848.000000	99.237980
2847.000000	99.236520
2846.000000	99.236206
2845.000000	99.240424
2844.000000	99.248520
2843.000000	99.257746
2842.000000	99.266204
2841.000000	99.273369
2840.000000	99.278701
2839.000000	99.281298
2838.000000	99.281245
2837.000000	99.280449
2836.000000	99.281224
2835.000000	99.284004
2834.000000	99.287021
2833.000000	99.288416
2832.000000	99.288390
2831.000000	99.288922
2830.000000	99.291486
2829.000000	99.295416
2828.000000	99.298648
2827.000000	99.299750
2826.000000	99.298883
2825.000000	99.297058
2824.000000	99.295208
2823.000000	99.294279
2822.000000	99.295574
2821.000000	99.299947
2820.000000	99.306498
2819.000000	99.312698
2818.000000	99.316446
2817.000000	99.317866
2816.000000	99.318792
2815.000000	99.320732
2814.000000	99.323532
2813.000000	99.325898
2812.000000	99.326826
2811.000000	99.326420
2810.000000	99.325670
2809.000000	99.325591
2808.000000	99.326378
2807.000000	99.327349
2806.000000	99.327859
2805.000000	99.328152
2804.000000	99.328925
2803.000000	99.330117
2802.000000	99.330760
2801.000000	99.330284
2800.000000	99.329541
2799.000000	99.330041
2798.000000	99.332445
2797.000000	99.336272
2796.000000	99.340638
2795.000000	99.344702
2794.000000	99.347567
2793.000000	99.348556
2792.000000	99.347990
2791.000000	99.347357
2790.000000	99.348135
2789.000000	99.350518
2788.000000	99.353461
2787.000000	99.355769
2786.000000	99.356971
2785.000000	99.357311
2784.000000	99.357443
2783.000000	99.358188
2782.000000	99.360152
2781.000000	99.363265
2780.000000	99.366731
2779.000000	99.369616
2778.000000	99.371537
2777.000000	99.372795
2776.000000	99.373923
2775.000000	99.375081
2774.000000	99.375812
2773.000000	99.375474
2772.000000	99.374090
2771.000000	99.372637
2770.000000	99.372239
2769.000000	99.373072
2768.000000	99.374304
2767.000000	99.375155
2766.000000	99.375767
2765.000000	99.376802
2764.000000	99.378401
2763.000000	99.379904
2762.000000	99.380631
2761.000000	99.380593
2760.000000	99.380294
2759.000000	99.380113
2758.000000	99.380087
2757.000000	99.380182
2756.000000	99.380448
2755.000000	99.380868
2754.000000	99.381246
2753.000000	99.381355
2752.000000	99.381202
2751.000000	99.381107
2750.000000	99.381449
2749.000000	99.382327
2748.000000	99.383445
2747.000000	99.384280
2746.000000	99.384529
2745.000000	99.384366
2744.000000	99.384263
2743.000000	99.384505
2742.000000	99.384956
2741.000000	99.385314
2740.000000	99.385456
2739.000000	99.385468
2738.000000	99.385441
2737.000000	99.385406
2736.000000	99.385453
2735.000000	99.385774
2734.000000	99.386502
2733.000000	99.387533
2732.000000	99.388500
2731.000000	99.389005
2730.000000	99.388875
2729.000000	99.388265
2728.000000	99.387607
2727.000000	99.387287
2726.000000	99.387398
2725.000000	99.387766
2724.000000	99.388206
2723.000000	99.388703
2722.000000	99.389348
2721.000000	99.390160
2720.000000	99.391048
2719.000000	99.391889
2718.000000	99.392607
2717.000000	99.393208
2716.000000	99.393771
2715.000000	99.394364
2714.000000	99.394939
2713.000000	99.395319
2712.000000	99.395372
2711.000000	99.395209
2710.000000	99.395197
2709.000000	99.395703
2708.000000	99.396792
2707.000000	99.398058
2706.000000	99.398814
2705.000000	99.398666
2704.000000	99.397786
2703.000000	99.396778
2702.000000	99.396178
2701.000000	99.396080
2700.000000	99.396282
2699.000000	99.396591
2698.000000	99.396960
2697.000000	99.397392
2696.000000	99.397769
2695.000000	99.397885
2694.000000	99.397622
2693.000000	99.397083
2692.000000	99.396562
2691.000000	99.396360
2690.000000	99.396580
2689.000000	99.397101
2688.000000	99.397717
2687.000000	99.398266
2686.000000	99.398678
2685.000000	99.398919
2684.000000	99.398940
2683.000000	99.398694
2682.000000	99.398210
2681.000000	99.397645
2680.000000	99.397229
2679.000000	99.397097
2678.000000	99.397184
2677.000000	99.397299
2676.000000	99.397329
2675.000000	99.397325
2674.000000	99.397370
2673.000000	99.397449
2672.000000	99.397485
2671.000000	99.397428
2670.000000	99.397260
2669.000000	99.396969
2668.000000	99.396606
2667.000000	99.396334
2666.000000	99.396340
2665.000000	99.396653
2664.000000	99.397136
2663.000000	99.397636
2662.000000	99.398061
2661.000000	99.398321
2660.000000	99.398303
2659.000000	99.397972
2658.000000	99.397516
2657.000000	99.397259
2656.000000	99.397392
2655.000000	99.397851
2654.000000	99.398401
2653.000000	99.398868
2652.000000	99.399252
2651.000000	99.399596
2650.000000	99.399800
2649.000000	99.399670
2648.000000	99.399150
2647.000000	99.398430
2646.000000	99.397851
2645.000000	99.397656
2644.000000	99.397872
2643.000000	99.398363
2642.000000	99.398945
2641.000000	99.399454
2640.000000	99.399732
2639.000000	99.399676
2638.000000	99.399333
2637.000000	99.398942
2636.000000	99.398782
2635.000000	99.398959
2634.000000	99.399376
2633.000000	99.399870
2632.000000	99.400378
2631.000000	99.400925
2630.000000	99.401482
2629.000000	99.401925
2628.000000	99.402169
2627.000000	99.402310
2626.000000	99.402565
2625.000000	99.403009
2624.000000	99.403424
2623.000000	99.403478
2622.000000	99.403084
2621.000000	99.402526
2620.000000	99.402209
2619.000000	99.402302
2618.000000	99.402634
2617.000000	99.402900
2616.000000	99.402953
2615.000000	99.402820
2614.000000	99.402478
2613.000000	99.401858
2612.000000	99.401139
2611.000000	99.400846
2610.000000	99.401414
2609.000000	99.402724
2608.000000	99.404135
2607.000000	99.405061
2606.000000	99.405370
2605.000000	99.405241
2604.000000	99.404889
2603.000000	99.404452
2602.000000	99.404031
2601.000000	99.403672
2600.000000	99.403359
2599.000000	99.403151
2598.000000	99.403239
2597.000000	99.403776
2596.000000	99.404686
2595.000000	99.405756
2594.000000	99.406838
2593.000000	99.407816
2592.000000	99.408455
2591.000000	99.408415
2590.000000	99.407507
2589.000000	99.405885
2588.000000	99.404053
2587.000000	99.402708
2586.000000	99.402367
2585.000000	99.403089
2584.000000	99.404497
2583.000000	99.406014
2582.000000	99.407157
2581.000000	99.407678
2580.000000	99.407552
2579.000000	99.406998
2578.000000	99.406406
2577.000000	99.406135
2576.000000	99.406357
2575.000000	99.407078
2574.000000	99.408230
2573.000000	99.409631
2572.000000	99.410924
2571.000000	99.411698
2570.000000	99.411730
2569.000000	99.411118
2568.000000	99.410254
2567.000000	99.409653
2566.000000	99.409623
2565.000000	99.410111
2564.000000	99.410822
2563.000000	99.411502
2562.000000	99.412114
2561.000000	99.412712
2560.000000	99.413275
2559.000000	99.413715
2558.000000	99.413964
2557.000000	99.413997
2556.000000	99.413833
2555.000000	99.413592
2554.000000	99.413465
2553.000000	99.413557
2552.000000	99.413777
2551.000000	99.413958
2550.000000	99.414076
2549.000000	99.414267
2548.000000	99.414658
2547.000000	99.415220
2546.000000	99.415772
2545.000000	99.416126
2544.000000	99.416228
2543.000000	99.416165
2542.000000	99.416117
2541.000000	99.416216
2540.000000	99.416471
2539.000000	99.416825
2538.000000	99.417278
2537.000000	99.417882
2536.000000	99.418600
2535.000000	99.419257
2534.000000	99.419678
2533.000000	99.419842
2532.000000	99.419863
2531.000000	99.419914
2530.000000	99.420087
2529.000000	99.420373
2528.000000	99.420721
2527.000000	99.421085
2526.000000	99.421447
2525.000000	99.421803
2524.000000	99.422139
2523.000000	99.422430
2522.000000	99.422677
2521.000000	99.422905
2520.000000	99.423124
2519.000000	99.423311
2518.000000	99.423456
2517.000000	99.423613
2516.000000	99.423884
2515.000000	99.424345
2514.000000	99.424987
2513.000000	99.425698
2512.000000	99.426321
2511.000000	99.426746
2510.000000	99.426975
2509.000000	99.427135
2508.000000	99.427398
2507.000000	99.427877
2506.000000	99.428565
2505.000000	99.429301
2504.000000	99.429876
2503.000000	99.430207
2502.000000	99.430422
2501.000000	99.430718
2500.000000	99.431119
2499.000000	99.431510
2498.000000	99.431881
2497.000000	99.432335
2496.000000	99.432817
2495.000000	99.433049
2494.000000	99.432877
2493.000000	99.432550
2492.000000	99.432483
2491.000000	99.432815
2490.000000	99.433307
2489.000000	99.433578
2488.000000	99.433367
2487.000000	99.432705
2486.000000	99.431962
2485.000000	99.431598
2484.000000	99.431815
2483.000000	99.432449
2482.000000	99.433175
2481.000000	99.433766
2480.000000	99.434136
2479.000000	99.434422
2478.000000	99.435039
2477.000000	99.436375
2476.000000	99.438342
2475.000000	99.440388
2474.000000	99.441902
2473.000000	99.442532
2472.000000	99.442193
2471.000000	99.441039
2470.000000	99.439553
2469.000000	99.438422
2468.000000	99.438116
2467.000000	99.438673
2466.000000	99.439848
2465.000000	99.441326
2464.000000	99.442841
2463.000000	99.444231
2462.000000	99.445430
2461.000000	99.446378
2460.000000	99.447022
2459.000000	99.447473
2458.000000	99.448048
2457.000000	99.448995
2456.000000	99.450202
2455.000000	99.451264
2454.000000	99.451906
2453.000000	99.452232
2452.000000	99.452554
2451.000000	99.453068
2450.000000	99.453738
2449.000000	99.454425
2448.000000	99.455036
2447.000000	99.455580
2446.000000	99.456125
2445.000000	99.456714
2444.000000	99.457323
2443.000000	99.457933
2442.000000	99.458612
2441.000000	99.459446
2440.000000	99.460413
2439.000000	99.461342
2438.000000	99.462062
2437.000000	99.462545
2436.000000	99.462910
2435.000000	99.463351
2434.000000	99.463978
2433.000000	99.464756
2432.000000	99.465504
2431.000000	99.466015
2430.000000	99.466239
2429.000000	99.466417
2428.000000	99.466914
2427.000000	99.467866
2426.000000	99.469062
2425.000000	99.470183
2424.000000	99.471040
2423.000000	99.471497
2422.000000	99.471430
2421.000000	99.470975
2420.000000	99.470544
2419.000000	99.470275
2418.000000	99.469734
2417.000000	99.468606
2416.000000	99.467501
2415.000000	99.467472
2414.000000	99.468787
2413.000000	99.470692
2412.000000	99.472477
2411.000000	99.474168
2410.000000	99.475816
2409.000000	99.476742
2408.000000	99.476094
2407.000000	99.473885
2406.000000	99.471066
2405.000000	99.468804
2404.000000	99.467783
2403.000000	99.468013
2402.000000	99.469192
2401.000000	99.470853
2400.000000	99.472470
2399.000000	99.473786
2398.000000	99.474920
2397.000000	99.476127
2396.000000	99.477377
2395.000000	99.478125
2394.000000	99.477662
2393.000000	99.475906
2392.000000	99.473725
2391.000000	99.472174
2390.000000	99.471403
2389.000000	99.470553
2388.000000	99.468859
2387.000000	99.466600
2386.000000	99.464750
2385.000000	99.463824
2384.000000	99.463419
2383.000000	99.462841
2382.000000	99.461830
2381.000000	99.460542
2380.000000	99.459122
2379.000000	99.457601
2378.000000	99.456096
2377.000000	99.454773
2376.000000	99.453573
2375.000000	99.452304
2374.000000	99.450995
2373.000000	99.449765
2372.000000	99.448250
2371.000000	99.445755
2370.000000	99.442337
2369.000000	99.439243
2368.000000	99.437739
2367.000000	99.438037
2366.000000	99.439803
2365.000000	99.442827
2364.000000	99.446096
2363.000000	99.447088
2362.000000	99.443657
2361.000000	99.436029
2360.000000	99.426930
2359.000000	99.419514
2358.000000	99.415040
2357.000000	99.412970
2356.000000	99.412054
2355.000000	99.411805
2354.000000	99.412949
2353.000000	99.415740
2352.000000	99.418616
2351.000000	99.419218
2350.000000	99.417128
2349.000000	99.414240
2348.000000	99.412796
2347.000000	99.413784
2346.000000	99.416068
2345.000000	99.417481
2344.000000	99.416682
2343.000000	99.414273
2342.000000	99.412013
2341.000000	99.410609
2340.000000	99.409125
2339.000000	99.405676
2338.000000	99.399677
2337.000000	99.393104
2336.000000	99.389195
2335.000000	99.389611
2334.000000	99.393663
2333.000000	99.399305
2332.000000	99.404474
2331.000000	99.407566
2330.000000	99.408112
2329.000000	99.407317
2328.000000	99.407116
2327.000000	99.408730
2326.000000	99.411385
2325.000000	99.413556
2324.000000	99.414241
2323.000000	99.413665
2322.000000	99.412634
2321.000000	99.411588
2320.000000	99.410839
2319.000000	99.410814
2318.000000	99.412097
2317.000000	99.414690
2316.000000	99.417845
2315.000000	99.420411
2314.000000	99.421526
2313.000000	99.420967
2312.000000	99.419072
2311.000000	99.416773
2310.000000	99.415298
2309.000000	99.415602
2308.000000	99.417558
2307.000000	99.419961
2306.000000	99.421372
2305.000000	99.421205
2304.000000	99.419790
2303.000000	99.417912
2302.000000	99.416408
2301.000000	99.416084
2300.000000	99.417390
2299.000000	99.420029
2298.000000	99.422888
2297.000000	99.424842
2296.000000	99.425637
2295.000000	99.425997
2294.000000	99.426772
2293.000000	99.428259
2292.000000	99.430191
2291.000000	99.432209
2290.000000	99.433966
2289.000000	99.434922
2288.000000	99.434514
2287.000000	99.432907
2286.000000	99.431237
2285.000000	99.430643
2284.000000	99.431143
2283.000000	99.431741
2282.000000	99.431664
2281.000000	99.431076
2280.000000	99.430468
2279.000000	99.429683
2278.000000	99.428107
2277.000000	99.425666
2276.000000	99.423235
2275.000000	99.421902
2274.000000	99.422082
2273.000000	99.423430
2272.000000	99.425297
2271.000000	99.427022
2270.000000	99.427906
2269.000000	99.427305
2268.000000	99.425010
2267.000000	99.421705
2266.000000	99.418858
2265.000000	99.417628
2264.000000	99.417912
2263.000000	99.418641
2262.000000	99.418822
2261.000000	99.418248
2260.000000	99.417148
2259.000000	99.415705
2258.000000	99.414209
2257.000000	99.413218
2256.000000	99.413150
2255.000000	99.413847
2254.000000	99.414785
2253.000000	99.415518
2252.000000	99.415898
2251.000000	99.416067
2250.000000	99.416422
2249.000000	99.417298
2248.000000	99.418362
2247.000000	99.418726
2246.000000	99.417959
2245.000000	99.416755
2244.000000	99.416206
2243.000000	99.416574
2242.000000	99.417203
2241.000000	99.417452
2240.000000	99.417186
2239.000000	99.416490
2238.000000	99.415482
2237.000000	99.414349
2236.000000	99.413079
2235.000000	99.411268
2234.000000	99.408763
2233.000000	99.406378
2232.000000	99.405246
2231.000000	99.405346
2230.000000	99.405383
2229.000000	99.404269
2228.000000	99.402191
2227.000000	99.400180
2226.000000	99.399294
2225.000000	99.400298
2224.000000	99.403416
2223.000000	99.407930
2222.000000	99.412375
2221.000000	99.415626
2220.000000	99.417514
2219.000000	99.418244
2218.000000	99.417793
2217.000000	99.416222
2216.000000	99.414267
2215.000000	99.413063
2214.000000	99.413201
2213.000000	99.414244
2212.000000	99.415231
2211.000000	99.415641
2210.000000	99.415860
2209.000000	99.416645
2208.000000	99.418192
2207.000000	99.419915
2206.000000	99.421181
2205.000000	99.421925
2204.000000	99.422308
2203.000000	99.422204
2202.000000	99.421394
2201.000000	99.420091
2200.000000	99.418913
2199.000000	99.418282
2198.000000	99.418170
2197.000000	99.418429
2196.000000	99.418947
2195.000000	99.419477
2194.000000	99.419663
2193.000000	99.419374
2192.000000	99.418905
2191.000000	99.418711
2190.000000	99.418998
2189.000000	99.419634
2188.000000	99.420360
2187.000000	99.420971
2186.000000	99.421371
2185.000000	99.421559
2184.000000	99.421597
2183.000000	99.421574
2182.000000	99.421560
2181.000000	99.421582
2180.000000	99.421638
2179.000000	99.421737
2178.000000	99.421914
2177.000000	99.422195
2176.000000	99.422553
2175.000000	99.422908
2174.000000	99.423177
2173.000000	99.423331
2172.000000	99.423401
2171.000000	99.423454
2170.000000	99.423574
2169.000000	99.423827
2168.000000	99.424230
2167.000000	99.424709
2166.000000	99.425117
2165.000000	99.425327
2164.000000	99.425318
2163.000000	99.425210
2162.000000	99.425233
2161.000000	99.425551
2160.000000	99.426151
2159.000000	99.426820
2158.000000	99.427308
2157.000000	99.427495
2156.000000	99.427431
2155.000000	99.427334
2154.000000	99.427528
2153.000000	99.428243
2152.000000	99.429407
2151.000000	99.430620
2150.000000	99.431517
2149.000000	99.432130
2148.000000	99.432786
2147.000000	99.433699
2146.000000	99.434729
2145.000000	99.435584
2144.000000	99.436133
2143.000000	99.436451
2142.000000	99.436672
2141.000000	99.436875
2140.000000	99.437095
2139.000000	99.437363
2138.000000	99.437723
2137.000000	99.438224
2136.000000	99.438854
2135.000000	99.439490
2134.000000	99.439999
2133.000000	99.440400
2132.000000	99.440828
2131.000000	99.441305
2130.000000	99.441680
2129.000000	99.441858
2128.000000	99.442020
2127.000000	99.442474
2126.000000	99.443293
2125.000000	99.444190
2124.000000	99.444762
2123.000000	99.444801
2122.000000	99.444420
2121.000000	99.444031
2120.000000	99.444125
2119.000000	99.445005
2118.000000	99.446583
2117.000000	99.448312
2116.000000	99.449532
2115.000000	99.449928
2114.000000	99.449780
2113.000000	99.449693
2112.000000	99.449941
2111.000000	99.450284
2110.000000	99.450456
2109.000000	99.450668
2108.000000	99.451343
2107.000000	99.452409
2106.000000	99.453205
2105.000000	99.453216
2104.000000	99.452609
2103.000000	99.451950
2102.000000	99.451656
2101.000000	99.451908
2100.000000	99.452792
2099.000000	99.454169
2098.000000	99.455544
2097.000000	99.456470
2096.000000	99.457086
2095.000000	99.458040
2094.000000	99.459844
2093.000000	99.462413
2092.000000	99.465100
2091.000000	99.467118
2090.000000	99.468033
2089.000000	99.468062
2088.000000	99.467882
2087.000000	99.467949
2086.000000	99.468130
2085.000000	99.468092
2084.000000	99.467809
2083.000000	99.467403
2082.000000	99.466763
2081.000000	99.465870
2080.000000	99.465477
2079.000000	99.466813
2078.000000	99.470227
2077.000000	99.474263
2076.000000	99.476619
2075.000000	99.476253
2074.000000	99.474181
2073.000000	99.472448
2072.000000	99.472148
2071.000000	99.472611
2070.000000	99.472388
2069.000000	99.470732
2068.000000	99.468121
2067.000000	99.465624
2066.000000	99.464011
2065.000000	99.463467
2064.000000	99.463845
2063.000000	99.464910
2062.000000	99.466277
2061.000000	99.467422
2060.000000	99.468047
2059.000000	99.468427
2058.000000	99.469241
2057.000000	99.470922
2056.000000	99.473218
2055.000000	99.475396
2054.000000	99.476824
2053.000000	99.477250
2052.000000	99.476614
2051.000000	99.474929
2050.000000	99.472421
2049.000000	99.469575
2048.000000	99.466958
2047.000000	99.464973
2046.000000	99.463725
2045.000000	99.462950
2044.000000	99.462056
2043.000000	99.460522
2042.000000	99.458406
2041.000000	99.456344
2040.000000	99.454914
2039.000000	99.454165
2038.000000	99.453802
2037.000000	99.453491
2036.000000	99.452848
2035.000000	99.451533
2034.000000	99.449702
2033.000000	99.448122
2032.000000	99.447429
2031.000000	99.447378
2030.000000	99.447148
2029.000000	99.446291
2028.000000	99.445115
2027.000000	99.444127
2026.000000	99.443397
2025.000000	99.442564
2024.000000	99.441278
2023.000000	99.439536
2022.000000	99.437705
2021.000000	99.436303
2020.000000	99.435639
2019.000000	99.435627
2018.000000	99.435853
2017.000000	99.435790
2016.000000	99.435084
2015.000000	99.433685
2014.000000	99.431861
2013.000000	99.430082
2012.000000	99.428687
2011.000000	99.427619
2010.000000	99.426542
2009.000000	99.425194
2008.000000	99.423638
2007.000000	99.422202
2006.000000	99.421161
2005.000000	99.420512
2004.000000	99.420013
2003.000000	99.419422
2002.000000	99.418712
2001.000000	99.418025
2000.000000	99.417452
1999.000000	99.416874
1998.000000	99.416064
1997.000000	99.414892
1996.000000	99.413394
1995.000000	99.411716
1994.000000	99.410121
1993.000000	99.408978
1992.000000	99.408511
1991.000000	99.408472
1990.000000	99.408361
1989.000000	99.408001
1988.000000	99.407631
1987.000000	99.407409
1986.000000	99.407116
1985.000000	99.406540
1984.000000	99.405846
1983.000000	99.405271
1982.000000	99.404625
1981.000000	99.403491
1980.000000	99.401859
1979.000000	99.400277
1978.000000	99.399273
1977.000000	99.398812
1976.000000	99.398443
1975.000000	99.397866
1974.000000	99.397218
1973.000000	99.396764
1972.000000	99.396515
1971.000000	99.396228
1970.000000	99.395707
1969.000000	99.395022
1968.000000	99.394417
1967.000000	99.394004
1966.000000	99.393632
1965.000000	99.393143
1964.000000	99.392594
1963.000000	99.392133
1962.000000	99.391826
1961.000000	99.391690
1960.000000	99.391757
1959.000000	99.391968
1958.000000	99.392064
1957.000000	99.391808
1956.000000	99.391286
1955.000000	99.390857
1954.000000	99.390704
1953.000000	99.390617
1952.000000	99.390316
1951.000000	99.389867
1950.000000	99.389629
1949.000000	99.389794
1948.000000	99.390077
1947.000000	99.389914
1946.000000	99.388999
1945.000000	99.387562
1944.000000	99.386260
1943.000000	99.385606
1942.000000	99.385499
1941.000000	99.385385
1940.000000	99.385002
1939.000000	99.384641
1938.000000	99.384553
1937.000000	99.384478
1936.000000	99.383962
1935.000000	99.383025
1934.000000	99.382237
1933.000000	99.382133
1932.000000	99.382769
1931.000000	99.383750
1930.000000	99.384479
1929.000000	99.384369
1928.000000	99.383015
1927.000000	99.380524
1926.000000	99.377768
1925.000000	99.375924
1924.000000	99.375473
1923.000000	99.375571
1922.000000	99.374768
1921.000000	99.372653
1920.000000	99.370263
1919.000000	99.368831
1918.000000	99.368398
1917.000000	99.367810
1916.000000	99.366245
1915.000000	99.364169
1914.000000	99.362544
1913.000000	99.361734
1912.000000	99.361277
1911.000000	99.360390
1910.000000	99.358614
1909.000000	99.356082
1908.000000	99.353257
1907.000000	99.350436
1906.000000	99.347483
1905.000000	99.344194
1904.000000	99.340944
1903.000000	99.338671
1902.000000	99.337978
1901.000000	99.338388
1900.000000	99.338709
1899.000000	99.338307
1898.000000	99.337620
1897.000000	99.337283
1896.000000	99.337140
1895.000000	99.336326
1894.000000	99.334280
1893.000000	99.331422
1892.000000	99.328840
1891.000000	99.327534
1890.000000	99.327781
1889.000000	99.328732
1888.000000	99.328957
1887.000000	99.327909
1886.000000	99.326407
1885.000000	99.325727
1884.000000	99.326420
1883.000000	99.327973
1882.000000	99.329410
1881.000000	99.330047
1880.000000	99.329667
1879.000000	99.328365
1878.000000	99.326595
1877.000000	99.325135
1876.000000	99.324626
1875.000000	99.325114
1874.000000	99.326142
1873.000000	99.327238
1872.000000	99.328212
1871.000000	99.329031
1870.000000	99.329628
1869.000000	99.329984
1868.000000	99.330180
1867.000000	99.330263
1866.000000	99.330223
1865.000000	99.330114
1864.000000	99.330191
1863.000000	99.330809
1862.000000	99.332056
1861.000000	99.333552
1860.000000	99.334785
1859.000000	99.335618
1858.000000	99.336286
1857.000000	99.336954
1856.000000	99.337474
1855.000000	99.337684
1854.000000	99.337783
1853.000000	99.338250
1852.000000	99.339355
1851.000000	99.340923
1850.000000	99.342495
1849.000000	99.343592
1848.000000	99.343948
1847.000000	99.343725
1846.000000	99.343580
1845.000000	99.344371
1844.000000	99.346422
1843.000000	99.349107
1842.000000	99.351595
1841.000000	99.353508
1840.000000	99.354556
1839.000000	99.354517
1838.000000	99.353666
1837.000000	99.352790
1836.000000	99.352607
1835.000000	99.353401
1834.000000	99.355159
1833.000000	99.357554
1832.000000	99.359796
1831.000000	99.360965
1830.000000	99.360861
1829.000000	99.360158
1828.000000	99.359437
1827.000000	99.358613
1826.000000	99.357495
1825.000000	99.356557
1824.000000	99.356463
1823.000000	99.356969
1822.000000	99.357262
1821.000000	99.357103
1820.000000	99.357127
1819.000000	99.358064
1818.000000	99.359809
1817.000000	99.361441
1816.000000	99.362037
1815.000000	99.361379
1814.000000	99.360081
1813.000000	99.359146
1812.000000	99.359151
1811.000000	99.359566
1810.000000	99.359162
1809.000000	99.357585
1808.000000	99.355964
1807.000000	99.355692
1806.000000	99.357197
1805.000000	99.359829
1804.000000	99.362363
1803.000000	99.363803
1802.000000	99.364091
1801.000000	99.364156
1800.000000	99.364894
1799.000000	99.366101
1798.000000	99.366972
1797.000000	99.367270
1796.000000	99.367353
1795.000000	99.367422
1794.000000	99.367387
1793.000000	99.367571
1792.000000	99.368837
1791.000000	99.371208
1790.000000	99.373644
1789.000000	99.375513
1788.000000	99.376893
1787.000000	99.378050
1786.000000	99.379225
1785.000000	99.380619
1784.000000	99.382214
1783.000000	99.383609
1782.000000	99.384386
1781.000000	99.384498
1780.000000	99.384216
1779.000000	99.383715
1778.000000	99.383049
1777.000000	99.382629
1776.000000	99.383021
1775.000000	99.384332
1774.000000	99.386189
1773.000000	99.388515
1772.000000	99.391802
1771.000000	99.395779
1770.000000	99.399171
1769.000000	99.400905
1768.000000	99.400780
1767.000000	99.399687
1766.000000	99.398810
1765.000000	99.398461
1764.000000	99.398336
1763.000000	99.398543
1762.000000	99.399980
1761.000000	99.403077
1760.000000	99.406887
1759.000000	99.409888
1758.000000	99.410901
1757.000000	99.409761
1756.000000	99.407649
1755.000000	99.406080
1754.000000	99.405487
1753.000000	99.405277
1752.000000	99.404846
1751.000000	99.404303
1750.000000	99.403823
1749.000000	99.403093
1748.000000	99.402016
1747.000000	99.400999
1746.000000	99.400583
1745.000000	99.401110
1744.000000	99.402665
1743.000000	99.404784
1742.000000	99.406305
1741.000000	99.406496
1740.000000	99.405846
1739.000000	99.405159
1738.000000	99.404134
1737.000000	99.402059
1736.000000	99.399103
1735.000000	99.396990
1734.000000	99.398244
1733.000000	99.401623
1732.000000	99.403915
1731.000000	99.404749
1730.000000	99.404579
1729.000000	99.403439
1728.000000	99.401781
1727.000000	99.400501
1726.000000	99.400048
1725.000000	99.399851
1724.000000	99.399213
1723.000000	99.398240
1722.000000	99.397572
1721.000000	99.397427
1720.000000	99.397294
1719.000000	99.396318
1718.000000	99.394022
1717.000000	99.390712
1716.000000	99.387144
1715.000000	99.383921
1714.000000	99.381188
1713.000000	99.378857
1712.000000	99.376885
1711.000000	99.375239
1710.000000	99.373787
1709.000000	99.372201
1708.000000	99.370001
1707.000000	99.366822
1706.000000	99.362707
1705.000000	99.358209
1704.000000	99.353687
1703.000000	99.349066
1702.000000	99.344317
1701.000000	99.340465
1700.000000	99.338823
1699.000000	99.338295
1698.000000	99.336685
1697.000000	99.333523
1696.000000	99.329495
1695.000000	99.325693
1694.000000	99.322511
1693.000000	99.319557
1692.000000	99.316428
1691.000000	99.313085
1690.000000	99.309828
1689.000000	99.306869
1688.000000	99.303995
1687.000000	99.300793
1686.000000	99.296965
1685.000000	99.292526
1684.000000	99.288203
1683.000000	99.284464
1682.000000	99.281112
1681.000000	99.278034
1680.000000	99.275142
1679.000000	99.272321
1678.000000	99.269459
1677.000000	99.266484
1676.000000	99.263442
1675.000000	99.260451
1674.000000	99.257513
1673.000000	99.254494
1672.000000	99.251301
1671.000000	99.247942
1670.000000	99.244578
1669.000000	99.241405
1668.000000	99.238437
1667.000000	99.235610
1666.000000	99.232849
1665.000000	99.230044
1664.000000	99.227169
1663.000000	99.224437
1662.000000	99.222063
1661.000000	99.219862
1660.000000	99.217512
1659.000000	99.215042
1658.000000	99.212853
1657.000000	99.211284
1656.000000	99.210090
1655.000000	99.208536
1654.000000	99.205721
1653.000000	99.202023
1652.000000	99.198629
1651.000000	99.196257
1650.000000	99.194977
1649.000000	99.194142
1648.000000	99.193334
1647.000000	99.192607
1646.000000	99.191510
1645.000000	99.189369
1644.000000	99.186373
1643.000000	99.183035
1642.000000	99.179824
1641.000000	99.177373
1640.000000	99.176128
1639.000000	99.175905
1638.000000	99.176067
1637.000000	99.176022
1636.000000	99.175793
1635.000000	99.175268
1634.000000	99.173949
1633.000000	99.171908
1632.000000	99.169259
1631.000000	99.166031
1630.000000	99.162846
1629.000000	99.160643
1628.000000	99.159898
1627.000000	99.160168
1626.000000	99.160495
1625.000000	99.160042
1624.000000	99.158803
1623.000000	99.158292
1622.000000	99.160012
1621.000000	99.163454
1620.000000	99.166612
1619.000000	99.167732
1618.000000	99.166469
1617.000000	99.164819
1616.000000	99.164824
1615.000000	99.165745
1614.000000	99.165950
1613.000000	99.164702
1612.000000	99.162253
1611.000000	99.160296
1610.000000	99.161073
1609.000000	99.165111
1608.000000	99.170190
1607.000000	99.173296
1606.000000	99.173553
1605.000000	99.172501
1604.000000	99.172371
1603.000000	99.174684
1602.000000	99.179475
1601.000000	99.185040
1600.000000	99.189125
1599.000000	99.190825
1598.000000	99.191297
1597.000000	99.192347
1596.000000	99.194538
1595.000000	99.196987
1594.000000	99.198894
1593.000000	99.200633
1592.000000	99.203243
1591.000000	99.207468
1590.000000	99.213326
1589.000000	99.219959
1588.000000	99.225783
1587.000000	99.229238
1586.000000	99.229673
1585.000000	99.227721
1584.000000	99.224937
1583.000000	99.223295
1582.000000	99.224456
1581.000000	99.228541
1580.000000	99.233827
1579.000000	99.238307
1578.000000	99.241215
1577.000000	99.242992
1576.000000	99.244125
1575.000000	99.244344
1574.000000	99.244495
1573.000000	99.245817
1572.000000	99.247867
1571.000000	99.249277
1570.000000	99.249471
1569.000000	99.248611
1568.000000	99.246494
1567.000000	99.243129
1566.000000	99.239007
1565.000000	99.235215
1564.000000	99.233081
1563.000000	99.233064
1562.000000	99.233922
1561.000000	99.234820
1560.000000	99.235907
1559.000000	99.241798
1558.000000	99.248326
1557.000000	99.249697
1556.000000	99.250344
1555.000000	99.252277
1554.000000	99.254526
1553.000000	99.255822
1552.000000	99.255364
1551.000000	99.253918
1550.000000	99.253061
1549.000000	99.253542
1548.000000	99.254205
1547.000000	99.253777
1546.000000	99.252385
1545.000000	99.251481
1544.000000	99.252009
1543.000000	99.253114
1542.000000	99.253851
1541.000000	99.255236
1540.000000	99.258917
1539.000000	99.263221
1538.000000	99.266242
1537.000000	99.268554
1536.000000	99.270454
1535.000000	99.271803
1534.000000	99.273172
1533.000000	99.275319
1532.000000	99.277890
1531.000000	99.280101
1530.000000	99.281795
1529.000000	99.283300
1528.000000	99.285068
1527.000000	99.287314
1526.000000	99.289928
1525.000000	99.292673
1524.000000	99.295346
1523.000000	99.297770
1522.000000	99.299855
1521.000000	99.301719
1520.000000	99.303570
1519.000000	99.305581
1518.000000	99.307930
1517.000000	99.310811
1516.000000	99.314109
1515.000000	99.317209
1514.000000	99.319676
1513.000000	99.321610
1512.000000	99.323392
1511.000000	99.325240
1510.000000	99.326874
1509.000000	99.328024
1508.000000	99.329191
1507.000000	99.331772
1506.000000	99.335444
1505.000000	99.338259
1504.000000	99.340221
1503.000000	99.342192
1502.000000	99.344578
1501.000000	99.347503
1500.000000	99.350642
1499.000000	99.353507
1498.000000	99.355879
1497.000000	99.358029
1496.000000	99.360034
1495.000000	99.361227
1494.000000	99.361083
1493.000000	99.359929
1492.000000	99.358769
1491.000000	99.358885
1490.000000	99.361072
1489.000000	99.364780
1488.000000	99.368682
1487.000000	99.371778
1486.000000	99.373548
1485.000000	99.374227
1484.000000	99.374814
1483.000000	99.376281
1482.000000	99.378598
1481.000000	99.380677
1480.000000	99.381567
1479.000000	99.381422
1478.000000	99.381061
1477.000000	99.381085
1476.000000	99.381317
1475.000000	99.380685
1474.000000	99.378360
1473.000000	99.375568
1472.000000	99.374741
1471.000000	99.376097
1470.000000	99.377771
1469.000000	99.378227
1468.000000	99.376927
1467.000000	99.374214
1466.000000	99.371022
1465.000000	99.368620
1464.000000	99.367595
1463.000000	99.367221
1462.000000	99.366542
1461.000000	99.365188
1460.000000	99.363586
1459.000000	99.362808
1458.000000	99.363733
1457.000000	99.365478
1456.000000	99.365695
1455.000000	99.364685
1454.000000	99.364291
1453.000000	99.364737
1452.000000	99.365340
1451.000000	99.365296
1450.000000	99.364099
1449.000000	99.361880
1448.000000	99.359490
1447.000000	99.357804
1446.000000	99.357027
1445.000000	99.357037
1444.000000	99.357737
1443.000000	99.358967
1442.000000	99.360438
1441.000000	99.361967
1440.000000	99.363533
1439.000000	99.364967
1438.000000	99.365577
1437.000000	99.364621
1436.000000	99.362456
1435.000000	99.360579
1434.000000	99.359859
1433.000000	99.359988
1432.000000	99.360380
1431.000000	99.360721
1430.000000	99.360979
1429.000000	99.361087
1428.000000	99.360944
1427.000000	99.360622
1426.000000	99.360423
1425.000000	99.360648
1424.000000	99.361288
1423.000000	99.361945
1422.000000	99.362224
1421.000000	99.362144
1420.000000	99.362195
1419.000000	99.363022
1418.000000	99.364490
1417.000000	99.365730
1416.000000	99.366279
1415.000000	99.366276
1414.000000	99.366184
1413.000000	99.366506
1412.000000	99.367409
1411.000000	99.368708
1410.000000	99.370145
1409.000000	99.371668
1408.000000	99.373340
1407.000000	99.375026
1406.000000	99.376410
1405.000000	99.377313
1404.000000	99.377885
1403.000000	99.378432
1402.000000	99.379141
1401.000000	99.380101
1400.000000	99.381465
1399.000000	99.383306
1398.000000	99.385331
1397.000000	99.387132
1396.000000	99.388623
1395.000000	99.390028
1394.000000	99.391583
1393.000000	99.393281
1392.000000	99.394949
1391.000000	99.396384
1390.000000	99.397464
1389.000000	99.398277
1388.000000	99.399075
1387.000000	99.400025
1386.000000	99.401126
1385.000000	99.402541
1384.000000	99.404698
1383.000000	99.407849
1382.000000	99.411678
1381.000000	99.415372
1380.000000	99.418212
1379.000000	99.419931
1378.000000	99.420703
1377.000000	99.420998
1376.000000	99.421389
1375.000000	99.422397
1374.000000	99.424326
1373.000000	99.427123
1372.000000	99.430560
1371.000000	99.434442
1370.000000	99.438401
1369.000000	99.441730
1368.000000	99.443796
1367.000000	99.444640
1366.000000	99.445035
1365.000000	99.445907
1364.000000	99.447682
1363.000000	99.450028
1362.000000	99.452082
1361.000000	99.453339
1360.000000	99.454179
1359.000000	99.455351
1358.000000	99.457240
1357.000000	99.459625
1356.000000	99.461891
1355.000000	99.463526
1354.000000	99.464505
1353.000000	99.465247
1352.000000	99.466204
1351.000000	99.467533
1350.000000	99.469263
1349.000000	99.471529
1348.000000	99.474453
1347.000000	99.477870
1346.000000	99.481356
1345.000000	99.484482
1344.000000	99.486896
1343.000000	99.488287
1342.000000	99.488566
1341.000000	99.488311
1340.000000	99.488777
1339.000000	99.490817
1338.000000	99.493876
1337.000000	99.496548
1336.000000	99.497996
1335.000000	99.498320
1334.000000	99.498004
1333.000000	99.497478
1332.000000	99.497151
1331.000000	99.497500
1330.000000	99.498819
1329.000000	99.500856
1328.000000	99.502765
1327.000000	99.503510
1326.000000	99.502531
1325.000000	99.500286
1324.000000	99.498175
1323.000000	99.497479
1322.000000	99.498283
1321.000000	99.499604
1320.000000	99.500728
1319.000000	99.501990
1318.000000	99.503806
1317.000000	99.505531
1316.000000	99.506054
1315.000000	99.505283
1314.000000	99.504312
1313.000000	99.503987
1312.000000	99.503867
1311.000000	99.503090
1310.000000	99.501892
1309.000000	99.501623
1308.000000	99.503204
1307.000000	99.505770
1306.000000	99.507145
1305.000000	99.505789
1304.000000	99.502229
1303.000000	99.498745
1302.000000	99.497484
1301.000000	99.498841
1300.000000	99.501458
1299.000000	99.503508
1298.000000	99.504094
1297.000000	99.503773
1296.000000	99.504013
1295.000000	99.505875
1294.000000	99.508816
1293.000000	99.510928
1292.000000	99.510725
1291.000000	99.508459
1290.000000	99.505408
1289.000000	99.502520
1288.000000	99.500283
1287.000000	99.499287
1286.000000	99.499867
1285.000000	99.501272
1284.000000	99.502139
1283.000000	99.502007
1282.000000	99.501556
1281.000000	99.501116
1280.000000	99.499923
1279.000000	99.497468
1278.000000	99.494781
1277.000000	99.493486
1276.000000	99.493987
1275.000000	99.495316
1274.000000	99.496475
1273.000000	99.497371
1272.000000	99.498389
1271.000000	99.499677
1270.000000	99.500950
1269.000000	99.501609
1268.000000	99.501093
1267.000000	99.499594
1266.000000	99.498419
1265.000000	99.499049
1264.000000	99.501590
1263.000000	99.504441
1262.000000	99.505857
1261.000000	99.505586
1260.000000	99.504677
1259.000000	99.504106
1258.000000	99.503960
1257.000000	99.503668
1256.000000	99.502520
1255.000000	99.500420
1254.000000	99.498840
1253.000000	99.500304
1252.000000	99.505599
1251.000000	99.511576
1250.000000	99.513236
1249.000000	99.508499
1248.000000	99.500202
1247.000000	99.493375
1246.000000	99.491001
1245.000000	99.492514
1244.000000	99.494926
1243.000000	99.495070
1242.000000	99.492323
1241.000000	99.489504
1240.000000	99.489559
1239.000000	99.491260
1238.000000	99.490674
1237.000000	99.487584
1236.000000	99.487106
1235.000000	99.492516
1234.000000	99.498978
1233.000000	99.497996
1232.000000	99.487154
1231.000000	99.472673
1230.000000	99.462833
1229.000000	99.461272
1228.000000	99.466587
1227.000000	99.474792
1226.000000	99.480649
1225.000000	99.479541
1224.000000	99.471014
1223.000000	99.460150
1222.000000	99.453348
1221.000000	99.451974
1220.000000	99.451134
1219.000000	99.445104
1218.000000	99.433083
1217.000000	99.418886
1216.000000	99.405711
1215.000000	99.393114
1214.000000	99.379759
1213.000000	99.367204
1212.000000	99.359039
1211.000000	99.356776
1210.000000	99.358177
1209.000000	99.359252
1208.000000	99.355937
1207.000000	99.344503
1206.000000	99.323680
1205.000000	99.297200
1204.000000	99.271591
1203.000000	99.250206
1202.000000	99.231489
1201.000000	99.213693
1200.000000	99.197417
1199.000000	99.181165
1198.000000	99.158563
1197.000000	99.124875
1196.000000	99.084685
1195.000000	99.048776
1194.000000	99.023598
1193.000000	99.007283
1192.000000	98.995024
1191.000000	98.983209
1190.000000	98.967796
1189.000000	98.944023
1188.000000	98.910689
1187.000000	98.872232
1186.000000	98.834306
1185.000000	98.798546
1184.000000	98.762984
1183.000000	98.725757
1182.000000	98.686891
1181.000000	98.647649
1180.000000	98.608967
1179.000000	98.569807
1178.000000	98.527785
1177.000000	98.483623
1176.000000	98.443782
1175.000000	98.414250
1174.000000	98.390853
1173.000000	98.360307
1172.000000	98.313712
1171.000000	98.256074
1170.000000	98.200115
1169.000000	98.153594
1168.000000	98.116061
1167.000000	98.085312
1166.000000	98.062322
1165.000000	98.049381
1164.000000	98.045875
1163.000000	98.047123
1162.000000	98.047743
1161.000000	98.046772
1160.000000	98.048533
1159.000000	98.056605
1158.000000	98.067372
1157.000000	98.071917
1156.000000	98.064093
1155.000000	98.043751
1154.000000	98.012636
1153.000000	97.971969
1152.000000	97.926307
1151.000000	97.885410
1150.000000	97.857103
1149.000000	97.839564
1148.000000	97.824213
1147.000000	97.805096
1146.000000	97.782307
1145.000000	97.757304
1144.000000	97.729313
1143.000000	97.697745
1142.000000	97.665189
1141.000000	97.635794
1140.000000	97.611670
1139.000000	97.591810
1138.000000	97.573423
1137.000000	97.553407
1136.000000	97.529622
1135.000000	97.502524
1134.000000	97.475947
1133.000000	97.455011
1132.000000	97.441959
1131.000000	97.433897
1130.000000	97.425213
1129.000000	97.412357
1128.000000	97.395632
1127.000000	97.376505
1126.000000	97.354878
1125.000000	97.329936
1124.000000	97.302651
1123.000000	97.276364
1122.000000	97.255019
1121.000000	97.240845
1120.000000	97.232495
1119.000000	97.224741
1118.000000	97.212060
1117.000000	97.194315
1116.000000	97.177142
1115.000000	97.164675
1114.000000	97.153708
1113.000000	97.137890
1112.000000	97.116189
1111.000000	97.093790
1110.000000	97.075712
1109.000000	97.063125
1108.000000	97.055195
1107.000000	97.050668
1106.000000	97.047901
1105.000000	97.046456
1104.000000	97.047827
1103.000000	97.051400
1102.000000	97.050862
1101.000000	97.038151
1100.000000	97.010782
1099.000000	96.973052
1098.000000	96.932358
1097.000000	96.897039
1096.000000	96.874436
1095.000000	96.865741
1094.000000	96.863811
1093.000000	96.860423
1092.000000	96.853799
1091.000000	96.844911
1090.000000	96.830664
1089.000000	96.808397
1088.000000	96.784690
1087.000000	96.770732
1086.000000	96.768387
1085.000000	96.768264
1084.000000	96.762421
1083.000000	96.751982
1082.000000	96.741412
1081.000000	96.732166
1080.000000	96.723465
1079.000000	96.713255
1078.000000	96.697102
1077.000000	96.672191
1076.000000	96.643264
1075.000000	96.618256
1074.000000	96.596882
1073.000000	96.570359
1072.000000	96.533715
1071.000000	96.490897
1070.000000	96.445584
1069.000000	96.394358
1068.000000	96.332566
1067.000000	96.261012
1066.000000	96.183734
1065.000000	96.104337
1064.000000	96.026209
1063.000000	95.949393
1062.000000	95.864857
1061.000000	95.760577
1060.000000	95.638697
1059.000000	95.520119
1058.000000	95.425688
1057.000000	95.357362
1056.000000	95.302055
1055.000000	95.247222
1054.000000	95.187390
1053.000000	95.121388
1052.000000	95.050378
1051.000000	94.976099
1050.000000	94.897163
1049.000000	94.811872
1048.000000	94.727799
1047.000000	94.660410
1046.000000	94.616941
1045.000000	94.588884
1044.000000	94.564929
1043.000000	94.543543
1042.000000	94.525961
1041.000000	94.504202
1040.000000	94.467285
1039.000000	94.417187
1038.000000	94.367665
1037.000000	94.325951
1036.000000	94.284950
1035.000000	94.237058
1034.000000	94.188458
1033.000000	94.153412
1032.000000	94.137483
1031.000000	94.131649
1030.000000	94.122438
1029.000000	94.104506
1028.000000	94.082218
1027.000000	94.061965
1026.000000	94.045834
1025.000000	94.031406
1024.000000	94.014661
1023.000000	93.993172
1022.000000	93.969317
1021.000000	93.950335
1020.000000	93.941804
1019.000000	93.940316
1018.000000	93.936141
1017.000000	93.924011
1016.000000	93.906799
1015.000000	93.887491
1014.000000	93.863872
1013.000000	93.834463
1012.000000	93.803600
1011.000000	93.775569
1010.000000	93.748703
1009.000000	93.720722
1008.000000	93.695181
1007.000000	93.676307
1006.000000	93.661683
1005.000000	93.647296
1004.000000	93.636007
1003.000000	93.632985
1002.000000	93.635227
1001.000000	93.633796
1000.000000	93.625616
999.000000	93.615909
998.000000	93.609309
997.000000	93.604979
996.000000	93.600874
995.000000	93.597708
994.000000	93.597999
993.000000	93.603854
992.000000	93.614242
991.000000	93.622567
990.000000	93.621576
989.000000	93.614306
988.000000	93.614231
987.000000	93.629113
986.000000	93.650140
985.000000	93.662758
984.000000	93.662642
983.000000	93.654948
982.000000	93.645876
981.000000	93.643535
980.000000	93.658062
979.000000	93.688665
978.000000	93.717598
977.000000	93.731435
976.000000	93.742782
975.000000	93.774154
974.000000	93.825217
973.000000	93.873754
972.000000	93.908364
971.000000	93.941750
970.000000	93.988507
969.000000	94.048361
968.000000	94.116033
967.000000	94.189689
966.000000	94.261306
965.000000	94.314658
964.000000	94.344827
963.000000	94.368600
962.000000	94.404541
961.000000	94.451642
960.000000	94.498076
959.000000	94.542887
958.000000	94.596677
957.000000	94.664958
956.000000	94.741367
955.000000	94.815291
954.000000	94.878713
953.000000	94.928073
952.000000	94.966497
951.000000	95.002847
950.000000	95.043009
949.000000	95.083848
948.000000	95.120254
947.000000	95.154974
946.000000	95.195903
945.000000	95.245809
944.000000	95.299862
943.000000	95.351331
942.000000	95.395048
941.000000	95.427655
940.000000	95.449526
939.000000	95.465307
938.000000	95.478955
937.000000	95.490376
936.000000	95.500496
935.000000	95.516130
934.000000	95.544227
933.000000	95.582837
932.000000	95.622744
931.000000	95.656643
930.000000	95.682038
929.000000	95.697555
928.000000	95.703479
927.000000	95.706428
926.000000	95.717018
925.000000	95.740040
924.000000	95.771375
923.000000	95.806258
922.000000	95.845657
921.000000	95.890753
920.000000	95.934446
919.000000	95.963697
918.000000	95.970998
917.000000	95.961032
916.000000	95.945847
915.000000	95.935545
914.000000	95.934246
913.000000	95.942703
912.000000	95.961811
911.000000	95.992404
910.000000	96.033068
909.000000	96.080245
908.000000	96.130717
907.000000	96.182615
906.000000	96.233678
905.000000	96.280562
904.000000	96.321184
903.000000	96.356680
902.000000	96.389991
901.000000	96.423819
900.000000	96.462004
899.000000	96.511634
898.000000	96.579233
897.000000	96.662150
896.000000	96.745928
895.000000	96.814656
894.000000	96.864779
893.000000	96.906220
892.000000	96.950633
891.000000	97.002324
890.000000	97.059704
889.000000	97.118207
888.000000	97.168689
887.000000	97.200745
886.000000	97.215120
885.000000	97.228203
884.000000	97.256217
883.000000	97.297725
882.000000	97.339418
881.000000	97.376427
880.000000	97.416579
879.000000	97.464450
878.000000	97.513439
877.000000	97.558028
876.000000	97.603163
875.000000	97.654575
874.000000	97.708776
873.000000	97.760509
872.000000	97.812300
871.000000	97.867705
870.000000	97.921567
869.000000	97.967026
868.000000	98.008248
867.000000	98.056274
866.000000	98.112658
865.000000	98.165064
864.000000	98.200602
863.000000	98.218063
862.000000	98.226893
861.000000	98.239515
860.000000	98.265662
859.000000	98.308479
858.000000	98.361752
857.000000	98.413494
856.000000	98.455719
855.000000	98.490155
854.000000	98.522423
853.000000	98.550414
852.000000	98.561007
851.000000	98.542425
850.000000	98.503002
849.000000	98.475245
848.000000	98.493168
847.000000	98.562161
846.000000	98.653449
845.000000	98.729741
844.000000	98.772805
843.000000	98.785924
842.000000	98.782146
841.000000	98.777272
840.000000	98.783404
839.000000	98.797151
838.000000	98.799407
837.000000	98.777328
836.000000	98.741256
835.000000	98.709235
834.000000	98.682025
833.000000	98.650116
832.000000	98.621666
831.000000	98.621452
830.000000	98.656794
829.000000	98.703823
828.000000	98.737827
827.000000	98.760407
826.000000	98.783403
825.000000	98.803642
824.000000	98.813347
823.000000	98.821006
822.000000	98.837871
821.000000	98.853940
820.000000	98.851800
819.000000	98.837302
818.000000	98.833152
817.000000	98.842926
816.000000	98.842562
815.000000	98.814870
814.000000	98.776520
813.000000	98.756941
812.000000	98.757322
811.000000	98.745052
810.000000	98.687884
809.000000	98.580954
808.000000	98.437607
807.000000	98.266094
806.000000	98.066245
805.000000	97.845264
804.000000	97.624386
803.000000	97.425541
802.000000	97.258832
801.000000	97.127300
800.000000	97.034693
799.000000	96.977486
798.000000	96.935331
797.000000	96.886016
796.000000	96.830780
795.000000	96.789251
794.000000	96.765859
793.000000	96.737968
792.000000	96.687400
791.000000	96.629984
790.000000	96.597892
789.000000	96.599162
788.000000	96.608797
787.000000	96.597556
786.000000	96.558524
785.000000	96.506432
784.000000	96.462558
783.000000	96.440913
782.000000	96.436166
781.000000	96.421107
780.000000	96.368316
779.000000	96.282166
778.000000	96.200059
777.000000	96.153433
776.000000	96.136151
775.000000	96.121714
774.000000	96.105675
773.000000	96.114550
772.000000	96.170603
771.000000	96.262914
770.000000	96.359903
769.000000	96.441990
768.000000	96.511635
767.000000	96.576718
766.000000	96.638389
765.000000	96.694739
764.000000	96.743918
763.000000	96.781925
762.000000	96.808371
761.000000	96.836783
760.000000	96.886358
759.000000	96.955815
758.000000	97.015141
757.000000	97.035101
756.000000	97.020793
755.000000	97.006930
754.000000	97.022388
753.000000	97.067703
752.000000	97.125529
751.000000	97.182779
750.000000	97.238170
749.000000	97.293150
748.000000	97.341966
747.000000	97.373255
746.000000	97.381636
745.000000	97.375826
744.000000	97.372376
743.000000	97.381274
742.000000	97.400171
741.000000	97.422167
740.000000	97.445046
739.000000	97.472717
738.000000	97.512052
737.000000	97.567762
736.000000	97.634543
735.000000	97.694062
734.000000	97.727988
733.000000	97.738855
732.000000	97.751606
731.000000	97.786966
730.000000	97.835713
729.000000	97.867613
728.000000	97.863912
727.000000	97.832690
726.000000	97.795894
725.000000	97.772042
724.000000	97.771237
723.000000	97.794138
722.000000	97.831398
721.000000	97.872679
720.000000	97.919391
719.000000	97.978714
718.000000	98.041440
717.000000	98.080427
716.000000	98.079704
715.000000	98.056954
714.000000	98.048895
713.000000	98.074906
712.000000	98.120153
711.000000	98.152325
710.000000	98.149951
709.000000	98.116820
708.000000	98.076400
707.000000	98.052559
706.000000	98.050509
705.000000	98.054998
704.000000	98.048642
703.000000	98.031553
702.000000	98.020399
701.000000	98.026398
700.000000	98.034362
699.000000	98.007005
698.000000	97.917052
697.000000	97.780660
696.000000	97.653879
695.000000	97.585803
694.000000	97.578233
693.000000	97.593705
692.000000	97.599358
691.000000	97.598224
690.000000	97.617518
689.000000	97.679143
688.000000	97.785377
687.000000	97.919623
686.000000	98.051763
685.000000	98.151812
684.000000	98.208661
683.000000	98.231286
682.000000	98.227298
681.000000	98.191406
680.000000	98.127569
679.000000	98.073355
678.000000	98.080348
677.000000	98.166987
676.000000	98.299163
675.000000	98.420332
674.000000	98.497820
673.000000	98.534505
672.000000	98.550424
671.000000	98.562787
670.000000	98.576977
669.000000	98.580671
668.000000	98.557888
667.000000	98.533173
666.000000	98.541113
665.000000	98.582393
664.000000	98.636226
663.000000	98.670515
662.000000	98.666114
661.000000	98.643679
660.000000	98.648087
659.000000	98.703853
658.000000	98.795255
657.000000	98.886900
656.000000	98.950885
655.000000	98.973907
654.000000	98.953066
653.000000	98.896826
652.000000	98.827613
651.000000	98.775223
650.000000	98.756200
