4000.000000	100.176845
3999.000000	100.176034
3998.000000	100.175180
3997.000000	100.174334
3996.000000	100.173628
3995.000000	100.173089
3994.000000	100.172657
3993.000000	100.172241
3992.000000	100.171754
3991.000000	100.171150
3990.000000	100.170384
3989.000000	100.169517
3988.000000	100.168730
3987.000000	100.168173
3986.000000	100.167889
3985.000000	100.167757
3984.000000	100.167549
3983.000000	100.167086
3982.000000	100.166304
3981.000000	100.165320
3980.000000	100.164405
3979.000000	100.163801
3978.000000	100.163542
3977.000000	100.163380
3976.000000	100.162924
3975.000000	100.161953
3974.000000	100.160572
3973.000000	100.159132
3972.000000	100.157939
3971.000000	100.157050
3970.000000	100.156340
3969.000000	100.155702
3968.000000	100.155162
3967.000000	100.154759
3966.000000	100.154365
3965.000000	100.153751
3964.000000	100.152833
3963.000000	100.151841
3962.000000	100.151173
3961.000000	100.151019
3960.000000	100.151176
3959.000000	100.151207
3958.000000	100.150824
3957.000000	100.150081
3956.000000	100.149262
3955.000000	100.148606
3954.000000	100.148133
3953.000000	100.147722
3952.000000	100.147303
3951.000000	100.146938
3950.000000	100.146747
3949.000000	100.146786
3948.000000	100.146960
3947.000000	100.147047
3946.000000	100.146824
3945.000000	100.146268
3944.000000	100.145718
3943.000000	100.145750
3942.000000	100.146715
3941.000000	100.148403
3940.000000	100.150042
3939.000000	100.150814
3938.000000	100.150411
3937.000000	100.149163
3936.000000	100.147844
3935.000000	100.147067
3934.000000	100.146921
3933.000000	100.147147
3932.000000	100.147450
3931.000000	100.147702
3930.000000	100.147887
3929.000000	100.148028
3928.000000	100.148234
3927.000000	100.148636
3926.000000	100.149160
3925.000000	100.149454
3924.000000	100.149260
3923.000000	100.148829
3922.000000	100.148757
3921.000000	100.149311
3920.000000	100.150052
3919.000000	100.150179
3918.000000	100.149340
3917.000000	100.148055
3916.000000	100.147291
3915.000000	100.147555
3914.000000	100.148510
3913.000000	100.149262
3912.000000	100.149089
3911.000000	100.147892
3910.000000	100.146099
3909.000000	100.144174
3908.000000	100.142354
3907.000000	100.140840
3906.000000	100.140061
3905.000000	100.140513
3904.000000	100.142295
3903.000000	100.145067
3902.000000	100.148358
3901.000000	100.151488
3900.000000	100.153281
3899.000000	100.152569
3898.000000	100.149206
3897.000000	100.144410
3896.000000	100.140067
3895.000000	100.137675
3894.000000	100.137832
3893.000000	100.140044
3892.000000	100.142760
3891.000000	100.144323
3890.000000	100.144613
3889.000000	100.144921
3888.000000	100.146166
3887.000000	100.148044
3886.000000	100.149586
3885.000000	100.150294
3884.000000	100.150941
3883.000000	100.152615
3882.000000	100.155130
3881.000000	100.157109
3880.000000	100.157328
3879.000000	100.155867
3878.000000	100.154002
3877.000000	100.152524
3876.000000	100.150858
3875.000000	100.147915
3874.000000	100.143353
3873.000000	100.138357
3872.000000	100.135247
3871.000000	100.135584
3870.000000	100.138618
3869.000000	100.142047
3868.000000	100.144546
3867.000000	100.146036
3866.000000	100.146346
3865.000000	100.145565
3864.000000	100.144784
3863.000000	100.145205
3862.000000	100.146678
3861.000000	100.147905
3860.000000	100.148089
3859.000000	100.147622
3858.000000	100.147332
3857.000000	100.147672
3856.000000	100.148762
3855.000000	100.150408
3854.000000	100.151633
3853.000000	100.151395
3852.000000	100.150662
3851.000000	100.151184
3850.000000	100.152689
3849.000000	100.153733
3848.000000	100.153754
3847.000000	100.153358
3846.000000	100.153430
3845.000000	100.154266
3844.000000	100.155357
3843.000000	100.155866
3842.000000	100.155488
3841.000000	100.154864
3840.000000	100.155064
3839.000000	100.156535
3838.000000	100.158554
3837.000000	100.159972
3836.000000	100.160591
3835.000000	100.161127
3834.000000	100.162009
3833.000000	100.162618
3832.000000	100.161819
3831.000000	100.159356
3830.000000	100.156585
3829.000000	100.155309
3828.000000	100.155842
3827.000000	100.156489
3826.000000	100.155270
3825.000000	100.152257
3824.000000	100.149803
3823.000000	100.150478
3822.000000	100.154714
3821.000000	100.159689
3820.000000	100.162280
3819.000000	100.162660
3818.000000	100.162281
3817.000000	100.161180
3816.000000	100.158550
3815.000000	100.154699
3814.000000	100.151470
3813.000000	100.149980
3812.000000	100.149597
3811.000000	100.149986
3810.000000	100.152430
3809.000000	100.158446
3808.000000	100.167373
3807.000000	100.175701
3806.000000	100.180533
3805.000000	100.182294
3804.000000	100.182353
3803.000000	100.180627
3802.000000	100.176660
3801.000000	100.171403
3800.000000	100.167665
3799.000000	100.167604
3798.000000	100.169973
3797.000000	100.171459
3796.000000	100.169861
3795.000000	100.165504
3794.000000	100.160452
3793.000000	100.156737
3792.000000	100.155199
3791.000000	100.155409
3790.000000	100.155967
3789.000000	100.155426
3788.000000	100.153633
3787.000000	100.152066
3786.000000	100.152422
3785.000000	100.154772
3784.000000	100.157404
3783.000000	100.158655
3782.000000	100.158379
3781.000000	100.157453
3780.000000	100.156543
3779.000000	100.155538
3778.000000	100.154260
3777.000000	100.153250
3776.000000	100.153325
3775.000000	100.154732
3774.000000	100.156953
3773.000000	100.158958
3772.000000	100.159527
3771.000000	100.157788
3770.000000	100.154057
3769.000000	100.150121
3768.000000	100.148116
3767.000000	100.148768
3766.000000	100.150681
3765.000000	100.151460
3764.000000	100.149916
3763.000000	100.146746
3762.000000	100.143256
3761.000000	100.140027
3760.000000	100.137194
3759.000000	100.135412
3758.000000	100.135630
3757.000000	100.137692
3756.000000	100.139964
3755.000000	100.140620
3754.000000	100.138969
3753.000000	100.135431
3752.000000	100.130432
3751.000000	100.123776
3750.000000	100.115830
3749.000000	100.108692
3748.000000	100.104505
3747.000000	100.103141
3746.000000	100.102699
3745.000000	100.101124
3744.000000	100.097493
3743.000000	100.094913
3742.000000	100.098064
3741.000000	100.106290
3740.000000	100.114589
3739.000000	100.118723
3738.000000	100.116837
3737.000000	100.109207
3736.000000	100.099649
3735.000000	100.095222
3734.000000	100.099367
3733.000000	100.106835
3732.000000	100.108940
3731.000000	100.102898
3730.000000	100.093361
3729.000000	100.086404
3728.000000	100.084246
3727.000000	100.084776
3726.000000	100.084142
3725.000000	100.079962
3724.000000	100.072307
3723.000000	100.062417
3722.000000	100.051557
3721.000000	100.040806
3720.000000	100.030908
3719.000000	100.022230
3718.000000	100.015103
3717.000000	100.009513
3716.000000	100.004494
3715.000000	99.997859
3714.000000	99.987173
3713.000000	99.972078
3712.000000	99.955902
3711.000000	99.943351
3710.000000	99.935847
3709.000000	99.930869
3708.000000	99.925582
3707.000000	99.919334
3706.000000	99.913099
3705.000000	99.907859
3704.000000	99.903665
3703.000000	99.899670
3702.000000	99.894671
3701.000000	99.887976
3700.000000	99.880258
3699.000000	99.873095
3698.000000	99.867513
3697.000000	99.863514
3696.000000	99.860923
3695.000000	99.859986
3694.000000	99.860821
3693.000000	99.862528
3692.000000	99.863303
3691.000000	99.861351
3690.000000	99.855603
3689.000000	99.845913
3688.000000	99.834012
3687.000000	99.823388
3686.000000	99.816278
3685.000000	99.812037
3684.000000	99.808680
3683.000000	99.804893
3682.000000	99.800380
3681.000000	99.794882
3680.000000	99.787604
3679.000000	99.778117
3678.000000	99.767694
3677.000000	99.759338
3676.000000	99.755003
3675.000000	99.753132
3674.000000	99.750641
3673.000000	99.746764
3672.000000	99.742223
3671.000000	99.737404
3670.000000	99.731944
3669.000000	99.725357
3668.000000	99.718105
3667.000000	99.711190
3666.000000	99.705055
3665.000000	99.699587
3664.000000	99.694564
3663.000000	99.689852
3662.000000	99.685389
3661.000000	99.681157
3660.000000	99.677250
3659.000000	99.673761
3658.000000	99.670180
3657.000000	99.664956
3656.000000	99.656480
3655.000000	99.645518
3654.000000	99.635389
3653.000000	99.628822
3652.000000	99.625835
3651.000000	99.624363
3650.000000	99.622473
3649.000000	99.620352
3648.000000	99.619135
3647.000000	99.618463
3646.000000	99.617169
3645.000000	99.614945
3644.000000	99.612122
3643.000000	99.608497
3642.000000	99.603625
3641.000000	99.597771
3640.000000	99.591664
3639.000000	99.584948
3638.000000	99.576062
3637.000000	99.564684
3636.000000	99.553027
3635.000000	99.543386
3634.000000	99.534973
3633.000000	99.524985
3632.000000	99.512699
3631.000000	99.501566
3630.000000	99.496510
3629.000000	99.497343
3628.000000	99.498175
3627.000000	99.497463
3626.000000	99.498855
3625.000000	99.502863
3624.000000	99.506443
3623.000000	99.506829
3622.000000	99.503413
3621.000000	99.497766
3620.000000	99.492397
3619.000000	99.488895
3618.000000	99.487556
3617.000000	99.489054
3616.000000	99.493855
3615.000000	99.499943
3614.000000	99.502901
3613.000000	99.499855
3612.000000	99.493663
3611.000000	99.491497
3610.000000	99.498043
3609.000000	99.510930
3608.000000	99.523090
3607.000000	99.529950
3606.000000	99.532663
3605.000000	99.534431
3604.000000	99.536808
3603.000000	99.539925
3602.000000	99.544032
3601.000000	99.549608
3600.000000	99.556041
3599.000000	99.561478
3598.000000	99.564360
3597.000000	99.564750
3596.000000	99.563747
3595.000000	99.561869
3594.000000	99.558424
3593.000000	99.553312
3592.000000	99.548541
3591.000000	99.547074
3590.000000	99.550390
3589.000000	99.557095
3588.000000	99.563734
3587.000000	99.567749
3586.000000	99.569418
3585.000000	99.570240
3584.000000	99.570508
3583.000000	99.569565
3582.000000	99.567540
3581.000000	99.565666
3580.000000	99.564980
3579.000000	99.565437
3578.000000	99.566513
3577.000000	99.568102
3576.000000	99.570311
3575.000000	99.572457
3574.000000	99.572767
3573.000000	99.569441
3572.000000	99.562171
3571.000000	99.552762
3570.000000	99.544367
3569.000000	99.539703
3568.000000	99.539455
3567.000000	99.542016
3566.000000	99.545350
3565.000000	99.549242
3564.000000	99.554533
3563.000000	99.561244
3562.000000	99.568453
3561.000000	99.575072
3560.000000	99.580058
3559.000000	99.582319
3558.000000	99.581247
3557.000000	99.577396
3556.000000	99.572340
3555.000000	99.567415
3554.000000	99.562816
3553.000000	99.558205
3552.000000	99.553897
3551.000000	99.550850
3550.000000	99.549456
3549.000000	99.548980
3548.000000	99.548629
3547.000000	99.548811
3546.000000	99.550510
3545.000000	99.553387
3544.000000	99.555650
3543.000000	99.556143
3542.000000	99.555685
3541.000000	99.555838
3540.000000	99.557177
3539.000000	99.559139
3538.000000	99.561180
3537.000000	99.563309
3536.000000	99.565370
3535.000000	99.566552
3534.000000	99.566062
3533.000000	99.564052
3532.000000	99.561587
3531.000000	99.559809
3530.000000	99.559034
3529.000000	99.558651
3528.000000	99.557923
3527.000000	99.556898
3526.000000	99.556386
3525.000000	99.556991
3524.000000	99.558387
3523.000000	99.559653
3522.000000	99.560238
3521.000000	99.560416
3520.000000	99.560731
3519.000000	99.561233
3518.000000	99.561454
3517.000000	99.561075
3516.000000	99.560333
3515.000000	99.559815
3514.000000	99.559906
3513.000000	99.560501
3512.000000	99.561173
3511.000000	99.561580
3510.000000	99.561733
3509.000000	99.561849
3508.000000	99.562082
3507.000000	99.562411
3506.000000	99.562790
3505.000000	99.563276
3504.000000	99.563944
3503.000000	99.564643
3502.000000	99.564946
3501.000000	99.564448
3500.000000	99.563096
3499.000000	99.561434
3498.000000	99.560392
3497.000000	99.560618
3496.000000	99.562076
3495.000000	99.564111
3494.000000	99.565940
3493.000000	99.567145
3492.000000	99.567681
3491.000000	99.567724
3490.000000	99.567599
3489.000000	99.567634
3488.000000	99.567936
3487.000000	99.568311
3486.000000	99.568490
3485.000000	99.568428
3484.000000	99.568319
3483.000000	99.568348
3482.000000	99.568507
3481.000000	99.568669
3480.000000	99.568809
3479.000000	99.569074
3478.000000	99.569597
3477.000000	99.570228
3476.000000	99.570494
3475.000000	99.569970
3474.000000	99.568766
3473.000000	99.567582
3472.000000	99.567140
3471.000000	99.567627
3470.000000	99.568763
3469.000000	99.570239
3468.000000	99.571803
3467.000000	99.572896
3466.000000	99.572655
3465.000000	99.570569
3464.000000	99.567023
3463.000000	99.563170
3462.000000	99.560212
3461.000000	99.558775
3460.000000	99.558859
3459.000000	99.560038
3458.000000	99.561623
3457.000000	99.562832
3456.000000	99.563042
3455.000000	99.562058
3454.000000	99.560335
3453.000000	99.558843
3452.000000	99.558442
3451.000000	99.559270
3450.000000	99.560605
3449.000000	99.561330
3448.000000	99.560747
3447.000000	99.559098
3446.000000	99.557465
3445.000000	99.556901
3444.000000	99.557579
3443.000000	99.558839
3442.000000	99.560014
3441.000000	99.560981
3440.000000	99.561715
3439.000000	99.561724
3438.000000	99.560463
3437.000000	99.558221
3436.000000	99.555988
3435.000000	99.554339
3434.000000	99.553009
3433.000000	99.551835
3432.000000	99.551465
3431.000000	99.552487
3430.000000	99.554316
3429.000000	99.555605
3428.000000	99.555845
3427.000000	99.556091
3426.000000	99.557853
3425.000000	99.561552
3424.000000	99.566105
3423.000000	99.569884
3422.000000	99.572135
3421.000000	99.573407
3420.000000	99.574498
3419.000000	99.575300
3418.000000	99.575106
3417.000000	99.573707
3416.000000	99.571522
3415.000000	99.568922
3414.000000	99.566237
3413.000000	99.564419
3412.000000	99.564668
3411.000000	99.566932
3410.000000	99.569470
3409.000000	99.570619
3408.000000	99.570509
3407.000000	99.570370
3406.000000	99.570605
3405.000000	99.570506
3404.000000	99.569624
3403.000000	99.568402
3402.000000	99.567355
3401.000000	99.566477
3400.000000	99.565830
3399.000000	99.566004
3398.000000	99.567369
3397.000000	99.569204
3396.000000	99.570176
3395.000000	99.569808
3394.000000	99.569043
3393.000000	99.569245
3392.000000	99.570777
3391.000000	99.572785
3390.000000	99.574134
3389.000000	99.574459
3388.000000	99.574260
3387.000000	99.574140
3386.000000	99.574180
3385.000000	99.574020
3384.000000	99.573385
3383.000000	99.572390
3382.000000	99.571475
3381.000000	99.570983
3380.000000	99.570907
3379.000000	99.570986
3378.000000	99.570994
3377.000000	99.570921
3376.000000	99.570851
3375.000000	99.570816
3374.000000	99.570799
3373.000000	99.570787
3372.000000	99.570773
3371.000000	99.570733
3370.000000	99.570641
3369.000000	99.570507
3368.000000	99.570346
3367.000000	99.570164
3366.000000	99.569985
3365.000000	99.569825
3364.000000	99.569689
3363.000000	99.569573
3362.000000	99.569475
3361.000000	99.569396
3360.000000	99.569336
3359.000000	99.569292
3358.000000	99.569256
3357.000000	99.569219
3356.000000	99.569177
3355.000000	99.569132
3354.000000	99.569087
3353.000000	99.569042
3352.000000	99.568991
3351.000000	99.568928
3350.000000	99.568853
3349.000000	99.568778
3348.000000	99.568713
3347.000000	99.568668
3346.000000	99.568636
3345.000000	99.568606
3344.000000	99.568563
3343.000000	99.568507
3342.000000	99.568451
3341.000000	99.568418
3340.000000	99.568418
3339.000000	99.568444
3338.000000	99.568471
3337.000000	99.568481
3336.000000	99.568472
3335.000000	99.568459
3334.000000	99.568454
3333.000000	99.568461
3332.000000	99.568475
3331.000000	99.568490
3330.000000	99.568505
3329.000000	99.568526
3328.000000	99.568561
3327.000000	99.568619
3326.000000	99.568708
3325.000000	99.568822
3324.000000	99.568947
3323.000000	99.569065
3322.000000	99.569167
3321.000000	99.569256
3320.000000	99.569336
3319.000000	99.569405
3318.000000	99.569454
3317.000000	99.569477
3316.000000	99.569476
3315.000000	99.569463
3314.000000	99.569453
3313.000000	99.569451
3312.000000	99.569459
3311.000000	99.569476
3310.000000	99.569503
3309.000000	99.569543
3308.000000	99.569592
3307.000000	99.569643
3306.000000	99.569693
3305.000000	99.569753
3304.000000	99.569839
3303.000000	99.569965
3302.000000	99.570140
3301.000000	99.570359
3300.000000	99.570609
3299.000000	99.570866
3298.000000	99.571109
3297.000000	99.571328
3296.000000	99.571531
3295.000000	99.571733
3294.000000	99.571949
3293.000000	99.572184
3292.000000	99.572438
3291.000000	99.572705
3290.000000	99.572979
3289.000000	99.573254
3288.000000	99.573528
3287.000000	99.573806
3286.000000	99.574099
3285.000000	99.574414
3284.000000	99.574753
3283.000000	99.575106
3282.000000	99.575461
3281.000000	99.575809
3280.000000	99.576146
3279.000000	99.576475
3278.000000	99.576804
3277.000000	99.577150
3276.000000	99.577530
3275.000000	99.577953
3274.000000	99.578413
3273.000000	99.578888
3272.000000	99.579362
3271.000000	99.579829
3270.000000	99.580297
3269.000000	99.580776
3268.000000	99.581270
3267.000000	99.581782
3266.000000	99.582315
3265.000000	99.582874
3264.000000	99.583461
3263.000000	99.584066
3262.000000	99.584672
3261.000000	99.585261
3260.000000	99.585825
3259.000000	99.586364
3258.000000	99.586888
3257.000000	99.587407
3256.000000	99.587935
3255.000000	99.588482
3254.000000	99.589053
3253.000000	99.589644
3252.000000	99.590247
3251.000000	99.590854
3250.000000	99.591456
3249.000000	99.592054
3248.000000	99.592651
3247.000000	99.593257
3246.000000	99.593882
3245.000000	99.594533
3244.000000	99.595209
3243.000000	99.595897
3242.000000	99.596580
3241.000000	99.597245
3240.000000	99.597898
3239.000000	99.598558
3238.000000	99.599247
3237.000000	99.599977
3236.000000	99.600745
3235.000000	99.601536
3234.000000	99.602327
3233.000000	99.603100
3232.000000	99.603850
3231.000000	99.604585
3230.000000	99.605321
3229.000000	99.606063
3228.000000	99.606809
3227.000000	99.607551
3226.000000	99.608284
3225.000000	99.609014
3224.000000	99.609738
3223.000000	99.610455
3222.000000	99.611158
3221.000000	99.611848
3220.000000	99.612548
3219.000000	99.613276
3218.000000	99.613984
3217.000000	99.614592
3216.000000	99.615096
3215.000000	99.615617
3214.000000	99.616280
3213.000000	99.617066
3212.000000	99.617825
3211.000000	99.618428
3210.000000	99.618890
3209.000000	99.619347
3208.000000	99.619959
3207.000000	99.620832
3206.000000	99.622027
3205.000000	99.623585
3204.000000	99.625440
3203.000000	99.627268
3202.000000	99.628578
3201.000000	99.629106
3200.000000	99.629116
3199.000000	99.629210
3198.000000	99.629732
3197.000000	99.630550
3196.000000	99.631413
3195.000000	99.632305
3194.000000	99.633315
3193.000000	99.634304
3192.000000	99.634918
3191.000000	99.634947
3190.000000	99.634531
3189.000000	99.634062
3188.000000	99.634049
3187.000000	99.635033
3186.000000	99.637253
3185.000000	99.640259
3184.000000	99.643027
3183.000000	99.644778
3182.000000	99.645621
3181.000000	99.646288
3180.000000	99.647326
3179.000000	99.648569
3178.000000	99.649495
3177.000000	99.649924
3176.000000	99.650285
3175.000000	99.651249
3174.000000	99.653151
3173.000000	99.655723
3172.000000	99.658228
3171.000000	99.660016
3170.000000	99.661027
3169.000000	99.661760
3168.000000	99.662758
3167.000000	99.664093
3166.000000	99.665480
3165.000000	99.666718
3164.000000	99.667824
3163.000000	99.668815
3162.000000	99.669599
3161.000000	99.670143
3160.000000	99.670606
3159.000000	99.671257
3158.000000	99.672290
3157.000000	99.673735
3156.000000	99.675449
3155.000000	99.677190
3154.000000	99.678812
3153.000000	99.680350
3152.000000	99.681802
3151.000000	99.682911
3150.000000	99.683418
3149.000000	99.683508
3148.000000	99.683760
3147.000000	99.684526
3146.000000	99.685616
3145.000000	99.686626
3144.000000	99.687399
3143.000000	99.688099
3142.000000	99.688916
3141.000000	99.689789
3140.000000	99.690454
3139.000000	99.690719
3138.000000	99.690667
3137.000000	99.690680
3136.000000	99.691227
3135.000000	99.692540
3134.000000	99.694474
3133.000000	99.696596
3132.000000	99.698417
3131.000000	99.699595
3130.000000	99.700083
3129.000000	99.700217
3128.000000	99.700564
3127.000000	99.701473
3126.000000	99.702816
3125.000000	99.704194
3124.000000	99.705314
3123.000000	99.706123
3122.000000	99.706669
3121.000000	99.707021
3120.000000	99.707331
3119.000000	99.707862
3118.000000	99.708824
3117.000000	99.710178
3116.000000	99.711627
3115.000000	99.712846
3114.000000	99.713812
3113.000000	99.714893
3112.000000	99.716530
3111.000000	99.718780
3110.000000	99.721237
3109.000000	99.723340
3108.000000	99.724693
3107.000000	99.725125
3106.000000	99.724804
3105.000000	99.724380
3104.000000	99.724669
3103.000000	99.725997
3102.000000	99.728101
3101.000000	99.730724
3100.000000	99.733967
3099.000000	99.737780
3098.000000	99.741453
3097.000000	99.744080
3096.000000	99.745382
3095.000000	99.745712
3094.000000	99.745479
3093.000000	99.744980
3092.000000	99.744734
3091.000000	99.745427
3090.000000	99.747347
3089.000000	99.750009
3088.000000	99.752391
3087.000000	99.753678
3086.000000	99.753947
3085.000000	99.754165
3084.000000	99.755261
3083.000000	99.757033
3082.000000	99.758355
3081.000000	99.758657
3080.000000	99.758752
3079.000000	99.759847
3078.000000	99.762210
3077.000000	99.765277
3076.000000	99.768606
3075.000000	99.772059
3074.000000	99.775316
3073.000000	99.777849
3072.000000	99.779245
3071.000000	99.779120
3070.000000	99.777079
3069.000000	99.773536
3068.000000	99.770360
3067.000000	99.769455
3066.000000	99.770794
3065.000000	99.772593
3064.000000	99.773454
3063.000000	99.773697
3062.000000	99.774228
3061.000000	99.775257
3060.000000	99.776670
3059.000000	99.778722
3058.000000	99.781533
3057.000000	99.784430
3056.000000	99.786499
3055.000000	99.787558
3054.000000	99.788055
3053.000000	99.788379
3052.000000	99.788662
3051.000000	99.789025
3050.000000	99.789608
3049.000000	99.790476
3048.000000	99.791707
3047.000000	99.793321
3046.000000	99.794953
3045.000000	99.795938
3044.000000	99.796062
3043.000000	99.795987
3042.000000	99.796636
3041.000000	99.798301
3040.000000	99.800495
3039.000000	99.802446
3038.000000	99.803563
3037.000000	99.803754
3036.000000	99.803555
3035.000000	99.803731
3034.000000	99.804443
3033.000000	99.805063
3032.000000	99.805097
3031.000000	99.805115
3030.000000	99.806334
3029.000000	99.809359
3028.000000	99.813702
3027.000000	99.818276
3026.000000	99.822220
3025.000000	99.825327
3024.000000	99.827738
3023.000000	99.829437
3022.000000	99.830239
3021.000000	99.830285
3020.000000	99.830382
3019.000000	99.831486
3018.000000	99.833853
3017.000000	99.836901
3016.000000	99.839790
3015.000000	99.842040
3014.000000	99.843555
3013.000000	99.844432
3012.000000	99.844985
3011.000000	99.845811
3010.000000	99.847489
3009.000000	99.850190
3008.000000	99.853634
3007.000000	99.857226
3006.000000	99.860195
3005.000000	99.862001
3004.000000	99.862999
3003.000000	99.864409
3002.000000	99.867223
3001.000000	99.871248
3000.000000	99.875551
2999.000000	99.879630
2998.000000	99.883604
2997.000000	99.887360
2996.000000	99.890130
2995.000000	99.891243
2994.000000	99.891108
2993.000000	99.891222
2992.000000	99.893064
2991.000000	99.896951
2990.000000	99.901818
2989.000000	99.906002
2988.000000	99.908323
2987.000000	99.908543
2986.000000	99.907434
2985.000000	99.906850
2984.000000	99.909202
2983.000000	99.915716
2982.000000	99.924759
2981.000000	99.932693
2980.000000	99.937388
2979.000000	99.940155
2978.000000	99.943696
2977.000000	99.948974
2976.000000	99.955108
2975.000000	99.961548
2974.000000	99.968469
2973.000000	99.974908
2972.000000	99.978404
2971.000000	99.977433
2970.000000	99.973377
2969.000000	99.969448
2968.000000	99.967887
2967.000000	99.968521
2966.000000	99.969601
2965.000000	99.969625
2964.000000	99.968803
2963.000000	99.969069
2962.000000	99.972220
2961.000000	99.977678
2960.000000	99.982463
2959.000000	99.983738
2958.000000	99.981181
2957.000000	99.976853
2956.000000	99.973447
2955.000000	99.972916
2954.000000	99.975869
2953.000000	99.981278
2952.000000	99.987052
2951.000000	99.991730
2950.000000	99.995348
2949.000000	99.997943
2948.000000	99.997931
2947.000000	99.993602
2946.000000	99.986668
2945.000000	99.982623
2944.000000	99.986114
2943.000000	99.996579
2942.000000	100.009264
2941.000000	100.020212
2940.000000	100.029104
2939.000000	100.037429
2938.000000	100.045607
2937.000000	100.052782
2936.000000	100.058395
2935.000000	100.062893
2934.000000	100.067309
2933.000000	100.072642
2932.000000	100.079085
2931.000000	100.085604
2930.000000	100.091155
2929.000000	100.096540
2928.000000	100.103578
2927.000000	100.111456
2926.000000	100.115749
2925.000000	100.113036
2924.000000	100.105358
2923.000000	100.098133
2922.000000	100.094178
2921.000000	100.091963
2920.000000	100.089347
2919.000000	100.086072
2918.000000	100.082365
2917.000000	100.077907
2916.000000	100.073399
2915.000000	100.070894
2914.000000	100.070927
2913.000000	100.070878
2912.000000	100.067689
2911.000000	100.061155
2910.000000	100.053316
2909.000000	100.045804
2908.000000	100.039147
2907.000000	100.033534
2906.000000	100.028413
2905.000000	100.022010
2904.000000	100.013296
2903.000000	100.004606
2902.000000	100.000587
2901.000000	100.003921
2900.000000	100.012824
2899.000000	100.022885
2898.000000	100.030423
2897.000000	100.034013
2896.000000	100.033959
2895.000000	100.031450
2894.000000	100.027972
2893.000000	100.024678
2892.000000	100.021939
2891.000000	100.019542
2890.000000	100.017390
2889.000000	100.016076
2888.000000	100.016647
2887.000000	100.019411
2886.000000	100.022884
2885.000000	100.024425
2884.000000	100.022543
2883.000000	100.018460
2882.000000	100.014996
2881.000000	100.013832
2880.000000	100.014344
2879.000000	100.015023
2878.000000	100.015444
2877.000000	100.016362
2876.000000	100.018093
2875.000000	100.019447
2874.000000	100.018617
2873.000000	100.015130
2872.000000	100.010726
2871.000000	100.008210
2870.000000	100.009541
2869.000000	100.014908
2868.000000	100.022835
2867.000000	100.030596
2866.000000	100.035211
2865.000000	100.035379
2864.000000	100.032987
2863.000000	100.031855
2862.000000	100.034197
2861.000000	100.038886
2860.000000	100.043785
2859.000000	100.048858
2858.000000	100.055700
2857.000000	100.064395
2856.000000	100.072415
2855.000000	100.077017
2854.000000	100.077462
2853.000000	100.074447
2852.000000	100.068491
2851.000000	100.060112
2850.000000	100.051166
2849.000000	100.044402
2848.000000	100.040977
2847.000000	100.039185
2846.000000	100.036413
2845.000000	100.031962
2844.000000	100.027218
2843.000000	100.023358
2842.000000	100.020147
2841.000000	100.017219
2840.000000	100.015059
2839.000000	100.013643
2838.000000	100.011304
2837.000000	100.006834
2836.000000	100.002361
2835.000000	100.001886
2834.000000	100.006330
2833.000000	100.011594
2832.000000	100.012719
2831.000000	100.009219
2830.000000	100.005070
2829.000000	100.004075
2828.000000	100.006584
2827.000000	100.010333
2826.000000	100.012976
2825.000000	100.013588
2824.000000	100.012619
2823.000000	100.011122
2822.000000	100.009846
2821.000000	100.008886
2820.000000	100.008335
2819.000000	100.009050
2818.000000	100.012171
2817.000000	100.017653
2816.000000	100.023541
2815.000000	100.027133
2814.000000	100.027186
2813.000000	100.024985
2812.000000	100.023281
2811.000000	100.023884
2810.000000	100.026176
2809.000000	100.028084
2808.000000	100.028337
2807.000000	100.027465
2806.000000	100.026703
2805.000000	100.026533
2804.000000	100.026672
2803.000000	100.026952
2802.000000	100.027461
2801.000000	100.028043
2800.000000	100.028396
2799.000000	100.028647
2798.000000	100.029203
2797.000000	100.029992
2796.000000	100.030403
2795.000000	100.030155
2794.000000	100.029783
2793.000000	100.030017
2792.000000	100.030985
2791.000000	100.032218
2790.000000	100.033170
2789.000000	100.033504
2788.000000	100.033105
2787.000000	100.032096
2786.000000	100.030888
2785.000000	100.030031
2784.000000	100.029920
2783.000000	100.030693
2782.000000	100.032234
2781.000000	100.034232
2780.000000	100.036255
2779.000000	100.037910
2778.000000	100.039011
2777.000000	100.039581
2776.000000	100.039750
2775.000000	100.039664
2774.000000	100.039489
2773.000000	100.039406
2772.000000	100.039576
2771.000000	100.040068
2770.000000	100.040810
2769.000000	100.041606
2768.000000	100.042234
2767.000000	100.042618
2766.000000	100.042863
2765.000000	100.043159
2764.000000	100.043630
2763.000000	100.044267
2762.000000	100.044966
2761.000000	100.045635
2760.000000	100.046258
2759.000000	100.046862
2758.000000	100.047467
2757.000000	100.048094
2756.000000	100.048777
2755.000000	100.049548
2754.000000	100.050397
2753.000000	100.051280
2752.000000	100.052151
2751.000000	100.052980
2750.000000	100.053757
2749.000000	100.054493
2748.000000	100.055237
2747.000000	100.056052
2746.000000	100.056963
2745.000000	100.057907
2744.000000	100.058764
2743.000000	100.059480
2742.000000	100.060122
2741.000000	100.060825
2740.000000	100.061658
2739.000000	100.062576
2738.000000	100.063462
2737.000000	100.064242
2736.000000	100.064895
2735.000000	100.065402
2734.000000	100.065751
2733.000000	100.066021
2732.000000	100.066387
2731.000000	100.067001
2730.000000	100.067862
2729.000000	100.068868
2728.000000	100.070010
2727.000000	100.071420
2726.000000	100.073135
2725.000000	100.074821
2724.000000	100.075900
2723.000000	100.076070
2722.000000	100.075652
2721.000000	100.075473
2720.000000	100.076253
2719.000000	100.078037
2718.000000	100.080056
2717.000000	100.081232
2716.000000	100.081064
2715.000000	100.080017
2714.000000	100.079108
2713.000000	100.078962
2712.000000	100.079407
2711.000000	100.079800
2710.000000	100.079543
2709.000000	100.078344
2708.000000	100.076371
2707.000000	100.074411
2706.000000	100.073538
2705.000000	100.074291
2704.000000	100.076155
2703.000000	100.078019
2702.000000	100.079244
2701.000000	100.079929
2700.000000	100.080244
2699.000000	100.080089
2698.000000	100.079533
2697.000000	100.079151
2696.000000	100.079541
2695.000000	100.080692
2694.000000	100.082114
2693.000000	100.083429
2692.000000	100.084548
2691.000000	100.085378
2690.000000	100.085737
2689.000000	100.085604
2688.000000	100.085164
2687.000000	100.084549
2686.000000	100.083768
2685.000000	100.082896
2684.000000	100.082110
2683.000000	100.081501
2682.000000	100.081077
2681.000000	100.080953
2680.000000	100.081240
2679.000000	100.081745
2678.000000	100.082070
2677.000000	100.082121
2676.000000	100.082219
2675.000000	100.082564
2674.000000	100.082949
2673.000000	100.083112
2672.000000	100.083112
2671.000000	100.083203
2670.000000	100.083501
2669.000000	100.083907
2668.000000	100.084281
2667.000000	100.084567
2666.000000	100.084784
2665.000000	100.084978
2664.000000	100.085174
2663.000000	100.085366
2662.000000	100.085551
2661.000000	100.085734
2660.000000	100.085914
2659.000000	100.086090
2658.000000	100.086258
2657.000000	100.086415
2656.000000	100.086560
2655.000000	100.086697
2654.000000	100.086829
2653.000000	100.086962
2652.000000	100.087097
2651.000000	100.087239
2650.000000	100.087394
2649.000000	100.087570
2648.000000	100.087769
2647.000000	100.087990
2646.000000	100.088223
2645.000000	100.088456
2644.000000	100.088682
2643.000000	100.088897
2642.000000	100.089098
2641.000000	100.089283
2640.000000	100.089448
2639.000000	100.089588
2638.000000	100.089705
2637.000000	100.089803
2636.000000	100.089884
2635.000000	100.089944
2634.000000	100.089980
2633.000000	100.089991
2632.000000	100.089990
2631.000000	100.089995
2630.000000	100.090018
2629.000000	100.090060
2628.000000	100.090113
2627.000000	100.090165
2626.000000	100.090215
2625.000000	100.090268
2624.000000	100.090324
2623.000000	100.090386
2622.000000	100.090461
2621.000000	100.090548
2620.000000	100.090636
2619.000000	100.090727
2618.000000	100.090857
2617.000000	100.091037
2616.000000	100.091179
2615.000000	100.091128
2614.000000	100.090837
2613.000000	100.090505
2612.000000	100.090451
2611.000000	100.090814
2610.000000	100.091379
2609.000000	100.091765
2608.000000	100.091862
2607.000000	100.091909
2606.000000	100.092110
2605.000000	100.092289
2604.000000	100.092123
2603.000000	100.091551
2602.000000	100.090800
2601.000000	100.090049
2600.000000	100.089309
2599.000000	100.088688
2598.000000	100.088476
2597.000000	100.088794
2596.000000	100.089358
2595.000000	100.089775
2594.000000	100.089978
2593.000000	100.090168
2592.000000	100.090478
2591.000000	100.090933
2590.000000	100.091628
2589.000000	100.092706
2588.000000	100.094139
2587.000000	100.095637
2586.000000	100.096923
2585.000000	100.097959
2584.000000	100.098771
2583.000000	100.099157
2582.000000	100.098757
2581.000000	100.097567
2580.000000	100.096260
2579.000000	100.095772
2578.000000	100.096497
2577.000000	100.098001
2576.000000	100.099433
2575.000000	100.100273
2574.000000	100.100518
2573.000000	100.100318
2572.000000	100.099807
2571.000000	100.099282
2570.000000	100.099235
2569.000000	100.099937
2568.000000	100.101075
2567.000000	100.102050
2566.000000	100.102648
2565.000000	100.103233
2564.000000	100.104276
2563.000000	100.105772
2562.000000	100.107164
2561.000000	100.107822
2560.000000	100.107590
2559.000000	100.106842
2558.000000	100.106108
2557.000000	100.105643
2556.000000	100.105432
2555.000000	100.105470
2554.000000	100.105839
2553.000000	100.106496
2552.000000	100.107108
2551.000000	100.107288
2550.000000	100.106969
2549.000000	100.106453
2548.000000	100.106093
2547.000000	100.106010
2546.000000	100.106144
2545.000000	100.106436
2544.000000	100.106823
2543.000000	100.107144
2542.000000	100.107239
2541.000000	100.107183
2540.000000	100.107304
2539.000000	100.107898
2538.000000	100.108956
2537.000000	100.110152
2536.000000	100.110991
2535.000000	100.111052
2534.000000	100.110203
2533.000000	100.108715
2532.000000	100.107265
2531.000000	100.106507
2530.000000	100.106601
2529.000000	100.107190
2528.000000	100.107784
2527.000000	100.108237
2526.000000	100.108691
2525.000000	100.109203
2524.000000	100.109625
2523.000000	100.109817
2522.000000	100.109843
2521.000000	100.109883
2520.000000	100.110029
2519.000000	100.110259
2518.000000	100.110561
2517.000000	100.110972
2516.000000	100.111487
2515.000000	100.112003
2514.000000	100.112415
2513.000000	100.112727
2512.000000	100.113032
2511.000000	100.113407
2510.000000	100.113867
2509.000000	100.114406
2508.000000	100.115007
2507.000000	100.115619
2506.000000	100.116173
2505.000000	100.116653
2504.000000	100.117116
2503.000000	100.117624
2502.000000	100.118196
2501.000000	100.118822
2500.000000	100.119492
2499.000000	100.120187
2498.000000	100.120852
2497.000000	100.121443
2496.000000	100.121967
2495.000000	100.122475
2494.000000	100.123011
2493.000000	100.123590
2492.000000	100.124215
2491.000000	100.124882
2490.000000	100.125580
2489.000000	100.126286
2488.000000	100.126955
2487.000000	100.127548
2486.000000	100.128059
2485.000000	100.128544
2484.000000	100.129059
2483.000000	100.129596
2482.000000	100.130094
2481.000000	100.130526
2480.000000	100.130955
2479.000000	100.131487
2478.000000	100.132148
2477.000000	100.132835
2476.000000	100.133407
2475.000000	100.133828
2474.000000	100.134199
2473.000000	100.134680
2472.000000	100.135410
2471.000000	100.136453
2470.000000	100.137658
2469.000000	100.138581
2468.000000	100.138740
2467.000000	100.138057
2466.000000	100.137062
2465.000000	100.136504
2464.000000	100.136726
2463.000000	100.137515
2462.000000	100.138440
2461.000000	100.139242
2460.000000	100.139854
2459.000000	100.140192
2458.000000	100.140183
2457.000000	100.140016
2456.000000	100.140163
2455.000000	100.140935
2454.000000	100.142054
2453.000000	100.142773
2452.000000	100.142464
2451.000000	100.141005
2450.000000	100.138804
2449.000000	100.136712
2448.000000	100.135796
2447.000000	100.136755
2446.000000	100.139285
2445.000000	100.142132
2444.000000	100.144168
2443.000000	100.145376
2442.000000	100.146520
2441.000000	100.148086
2440.000000	100.149866
2439.000000	100.151452
2438.000000	100.152748
2437.000000	100.153866
2436.000000	100.154798
2435.000000	100.155436
2434.000000	100.155849
2433.000000	100.156307
2432.000000	100.156955
2431.000000	100.157567
2430.000000	100.157855
2429.000000	100.158025
2428.000000	100.158729
2427.000000	100.160248
2426.000000	100.161899
2425.000000	100.162679
2424.000000	100.162502
2423.000000	100.162368
2422.000000	100.163188
2421.000000	100.164800
2420.000000	100.166398
2419.000000	100.167460
2418.000000	100.167928
2417.000000	100.167738
2416.000000	100.166790
2415.000000	100.165582
2414.000000	100.165070
2413.000000	100.165660
2412.000000	100.166899
2411.000000	100.168063
2410.000000	100.168887
2409.000000	100.169560
2408.000000	100.170209
2407.000000	100.170684
2406.000000	100.170898
2405.000000	100.171171
2404.000000	100.172030
2403.000000	100.173609
2402.000000	100.175360
2401.000000	100.176669
2400.000000	100.177508
2399.000000	100.178267
2398.000000	100.179150
2397.000000	100.179969
2396.000000	100.180591
2395.000000	100.181281
2394.000000	100.182404
2393.000000	100.183979
2392.000000	100.185716
2391.000000	100.187378
2390.000000	100.188931
2389.000000	100.190401
2388.000000	100.191760
2387.000000	100.193007
2386.000000	100.194220
2385.000000	100.195503
2384.000000	100.196889
2383.000000	100.198341
2382.000000	100.199813
2381.000000	100.201290
2380.000000	100.202783
2379.000000	100.204301
2378.000000	100.205800
2377.000000	100.207200
2376.000000	100.208451
2375.000000	100.209609
2374.000000	100.210824
2373.000000	100.212177
2372.000000	100.213646
2371.000000	100.215156
2370.000000	100.216615
2369.000000	100.217971
2368.000000	100.219213
2367.000000	100.220370
2366.000000	100.221454
2365.000000	100.222432
2364.000000	100.223274
2363.000000	100.223988
2362.000000	100.224604
2361.000000	100.225152
2360.000000	100.225658
2359.000000	100.226128
2358.000000	100.226559
2357.000000	100.226940
2356.000000	100.227268
2355.000000	100.227550
2354.000000	100.227801
2353.000000	100.228028
2352.000000	100.228218
2351.000000	100.228350
2350.000000	100.228404
2349.000000	100.228374
2348.000000	100.228265
2347.000000	100.228090
2346.000000	100.227868
2345.000000	100.227617
2344.000000	100.227338
2343.000000	100.227021
2342.000000	100.226657
2341.000000	100.226245
2340.000000	100.225787
2339.000000	100.225279
2338.000000	100.224710
2337.000000	100.224061
2336.000000	100.223319
2335.000000	100.222491
2334.000000	100.221609
2333.000000	100.220720
2332.000000	100.219853
2331.000000	100.219025
2330.000000	100.218155
2329.000000	100.217112
2328.000000	100.215800
2327.000000	100.214242
2326.000000	100.212582
2325.000000	100.210963
2324.000000	100.209436
2323.000000	100.207938
2322.000000	100.206459
2321.000000	100.205142
2320.000000	100.204129
2319.000000	100.203332
2318.000000	100.202516
2317.000000	100.201546
2316.000000	100.200383
2315.000000	100.199090
2314.000000	100.197724
2313.000000	100.196529
2312.000000	100.195611
2311.000000	100.194810
2310.000000	100.193620
2309.000000	100.191859
2308.000000	100.189708
2307.000000	100.187566
2306.000000	100.185551
2305.000000	100.183767
2304.000000	100.182381
2303.000000	100.181552
2302.000000	100.180902
2301.000000	100.179847
2300.000000	100.178134
2299.000000	100.176168
2298.000000	100.174174
2297.000000	100.171853
2296.000000	100.168800
2295.000000	100.165491
2294.000000	100.162832
2293.000000	100.161181
2292.000000	100.159944
2291.000000	100.158637
2290.000000	100.157489
2289.000000	100.156527
2288.000000	100.154711
2287.000000	100.150913
2286.000000	100.145778
2285.000000	100.141569
2284.000000	100.139640
2283.000000	100.139271
2282.000000	100.138675
2281.000000	100.136789
2280.000000	100.134118
2279.000000	100.131791
2278.000000	100.130406
2277.000000	100.129747
2276.000000	100.129402
2275.000000	100.129334
2274.000000	100.129566
2273.000000	100.129731
2272.000000	100.129287
2271.000000	100.128220
2270.000000	100.127039
2269.000000	100.126047
2268.000000	100.125039
2267.000000	100.123888
2266.000000	100.122941
2265.000000	100.122494
2264.000000	100.122117
2263.000000	100.120987
2262.000000	100.118847
2261.000000	100.116346
2260.000000	100.114417
2259.000000	100.113449
2258.000000	100.113242
2257.000000	100.113433
2256.000000	100.113824
2255.000000	100.114266
2254.000000	100.114426
2253.000000	100.113921
2252.000000	100.112693
2251.000000	100.111178
2250.000000	100.109958
2249.000000	100.109245
2248.000000	100.108865
2247.000000	100.108656
2246.000000	100.108650
2245.000000	100.108834
2244.000000	100.108998
2243.000000	100.108935
2242.000000	100.108682
2241.000000	100.108417
2240.000000	100.108236
2239.000000	100.108099
2238.000000	100.107944
2237.000000	100.107773
2236.000000	100.107618
2235.000000	100.107493
2234.000000	100.107374
2233.000000	100.107235
2232.000000	100.107077
2231.000000	100.106943
2230.000000	100.106877
2229.000000	100.106880
2228.000000	100.106908
2227.000000	100.106894
2226.000000	100.106806
2225.000000	100.106648
2224.000000	100.106451
2223.000000	100.106239
2222.000000	100.106034
2221.000000	100.105875
2220.000000	100.105800
2219.000000	100.105813
2218.000000	100.105876
2217.000000	100.105932
2216.000000	100.105911
2215.000000	100.105762
2214.000000	100.105535
2213.000000	100.105398
2212.000000	100.105479
2211.000000	100.105716
2210.000000	100.105924
2209.000000	100.106018
2208.000000	100.106079
2207.000000	100.106206
2206.000000	100.106440
2205.000000	100.106826
2204.000000	100.107459
2203.000000	100.108333
2202.000000	100.109163
2201.000000	100.109533
2200.000000	100.109237
2199.000000	100.108507
2198.000000	100.107910
2197.000000	100.107890
2196.000000	100.108465
2195.000000	100.109245
2194.000000	100.109787
2193.000000	100.109979
2192.000000	100.110029
2191.000000	100.110174
2190.000000	100.110438
2189.000000	100.110614
2188.000000	100.110403
2187.000000	100.109640
2186.000000	100.108478
2185.000000	100.107372
2184.000000	100.106827
2183.000000	100.107195
2182.000000	100.108615
2181.000000	100.110863
2180.000000	100.113230
2179.000000	100.114939
2178.000000	100.115883
2177.000000	100.116624
2176.000000	100.117481
2175.000000	100.117990
2174.000000	100.117623
2173.000000	100.116723
2172.000000	100.116200
2171.000000	100.116438
2170.000000	100.117083
2169.000000	100.117827
2168.000000	100.118863
2167.000000	100.120480
2166.000000	100.122623
2165.000000	100.124899
2164.000000	100.126721
2163.000000	100.127503
2162.000000	100.127169
2161.000000	100.126467
2160.000000	100.126275
2159.000000	100.126526
2158.000000	100.126396
2157.000000	100.125565
2156.000000	100.124678
2155.000000	100.124444
2154.000000	100.124905
2153.000000	100.125795
2152.000000	100.127024
2151.000000	100.128386
2150.000000	100.129226
2149.000000	100.128950
2148.000000	100.127760
2147.000000	100.126647
2146.000000	100.126596
2145.000000	100.127844
2144.000000	100.129731
2143.000000	100.131155
2142.000000	100.131478
2141.000000	100.131106
2140.000000	100.131131
2139.000000	100.132254
2138.000000	100.134143
2137.000000	100.135853
2136.000000	100.136775
2135.000000	100.137049
2134.000000	100.137203
2133.000000	100.137665
2132.000000	100.138617
2131.000000	100.140103
2130.000000	100.142099
2129.000000	100.144459
2128.000000	100.146807
2127.000000	100.148610
2126.000000	100.149506
2125.000000	100.149599
2124.000000	100.149425
2123.000000	100.149548
2122.000000	100.150209
2121.000000	100.151297
2120.000000	100.152505
2119.000000	100.153544
2118.000000	100.154389
2117.000000	100.155306
2116.000000	100.156450
2115.000000	100.157442
2114.000000	100.157655
2113.000000	100.157010
2112.000000	100.156317
2111.000000	100.156579
2110.000000	100.158086
2109.000000	100.160361
2108.000000	100.162699
2107.000000	100.164647
2106.000000	100.165948
2105.000000	100.166412
2104.000000	100.166083
2103.000000	100.165371
2102.000000	100.164818
2101.000000	100.164730
2100.000000	100.165101
2099.000000	100.165699
2098.000000	100.166169
2097.000000	100.166211
2096.000000	100.165885
2095.000000	100.165688
2094.000000	100.166143
2093.000000	100.167237
2092.000000	100.168340
2091.000000	100.168800
2090.000000	100.168560
2089.000000	100.168134
2088.000000	100.168032
2087.000000	100.168315
2086.000000	100.168739
2085.000000	100.169156
2084.000000	100.169674
2083.000000	100.170377
2082.000000	100.171081
2081.000000	100.171499
2080.000000	100.171607
2079.000000	100.171689
2078.000000	100.171972
2077.000000	100.172375
2076.000000	100.172690
2075.000000	100.172915
2074.000000	100.173231
2073.000000	100.173745
2072.000000	100.174426
2071.000000	100.175248
2070.000000	100.176051
2069.000000	100.176202
2068.000000	100.174825
2067.000000	100.171854
2066.000000	100.168684
2065.000000	100.167223
2064.000000	100.168223
2063.000000	100.170944
2062.000000	100.174354
2061.000000	100.177941
2060.000000	100.181044
2059.000000	100.182222
2058.000000	100.180337
2057.000000	100.176093
2056.000000	100.171710
2055.000000	100.168853
2054.000000	100.167497
2053.000000	100.166837
2052.000000	100.166313
2051.000000	100.165404
2050.000000	100.163256
2049.000000	100.159405
2048.000000	100.154787
2047.000000	100.151284
2046.000000	100.149935
2045.000000	100.149914
2044.000000	100.149428
2043.000000	100.147609
2042.000000	100.145319
2041.000000	100.143961
2040.000000	100.143715
2039.000000	100.143346
2038.000000	100.141739
2037.000000	100.139193
2036.000000	100.136957
2035.000000	100.135803
2034.000000	100.135438
2033.000000	100.135124
2032.000000	100.134404
2031.000000	100.133211
2030.000000	100.131700
2029.000000	100.130158
2028.000000	100.128832
2027.000000	100.127686
2026.000000	100.126493
2025.000000	100.125174
2024.000000	100.123850
2023.000000	100.122507
2022.000000	100.120923
2021.000000	100.119075
2020.000000	100.117372
2019.000000	100.116231
2018.000000	100.115604
2017.000000	100.115077
2016.000000	100.114280
2015.000000	100.113133
2014.000000	100.111714
2013.000000	100.110119
2012.000000	100.108435
2011.000000	100.106812
2010.000000	100.105483
2009.000000	100.104658
2008.000000	100.104315
2007.000000	100.104087
2006.000000	100.103532
2005.000000	100.102577
2004.000000	100.101610
2003.000000	100.101063
2002.000000	100.100969
2001.000000	100.101007
2000.000000	100.100840
1999.000000	100.100266
1998.000000	100.099150
1997.000000	100.097517
1996.000000	100.095702
1995.000000	100.094166
1994.000000	100.093076
1993.000000	100.092256
1992.000000	100.091566
1991.000000	100.091101
1990.000000	100.090943
1989.000000	100.090930
1988.000000	100.090809
1987.000000	100.090441
1986.000000	100.089826
1985.000000	100.089093
1984.000000	100.088512
1983.000000	100.088339
1982.000000	100.088522
1981.000000	100.088733
1980.000000	100.088789
1979.000000	100.088889
1978.000000	100.089291
1977.000000	100.089889
1976.000000	100.090271
1975.000000	100.090142
1974.000000	100.089522
1973.000000	100.088565
1972.000000	100.087417
1971.000000	100.086260
1970.000000	100.085359
1969.000000	100.084928
1968.000000	100.084954
1967.000000	100.085201
1966.000000	100.085416
1965.000000	100.085532
1964.000000	100.085596
1963.000000	100.085560
1962.000000	100.085276
1961.000000	100.084719
1960.000000	100.084175
1959.000000	100.084022
1958.000000	100.084364
1957.000000	100.084921
1956.000000	100.085242
1955.000000	100.085097
1954.000000	100.084626
1953.000000	100.084207
1952.000000	100.084134
1951.000000	100.084390
1950.000000	100.084640
1949.000000	100.084448
1948.000000	100.083582
1947.000000	100.082179
1946.000000	100.080695
1945.000000	100.079616
1944.000000	100.079188
1943.000000	100.079310
1942.000000	100.079560
1941.000000	100.079445
1940.000000	100.078741
1939.000000	100.077532
1938.000000	100.076080
1937.000000	100.074714
1936.000000	100.073766
1935.000000	100.073458
1934.000000	100.073714
1933.000000	100.074064
1932.000000	100.073885
1931.000000	100.072882
1930.000000	100.071363
1929.000000	100.069951
1928.000000	100.068985
1927.000000	100.068334
1926.000000	100.067829
1925.000000	100.067612
1924.000000	100.067870
1923.000000	100.068216
1922.000000	100.067685
1921.000000	100.065619
1920.000000	100.062405
1919.000000	100.059447
1918.000000	100.058202
1917.000000	100.058643
1916.000000	100.059028
1915.000000	100.057692
1914.000000	100.054399
1913.000000	100.050060
1912.000000	100.045653
1911.000000	100.041577
1910.000000	100.038068
1909.000000	100.035549
1908.000000	100.034108
1907.000000	100.033178
1906.000000	100.032137
1905.000000	100.030785
1904.000000	100.028964
1903.000000	100.026259
1902.000000	100.022687
1901.000000	100.019253
1900.000000	100.017101
1899.000000	100.016217
1898.000000	100.015493
1897.000000	100.013966
1896.000000	100.011547
1895.000000	100.008668
1894.000000	100.005769
1893.000000	100.003045
1892.000000	100.000280
1891.000000	99.997139
1890.000000	99.994126
1889.000000	99.992841
1888.000000	99.994212
1887.000000	99.996865
1886.000000	99.998081
1885.000000	99.996418
1884.000000	99.993112
1883.000000	99.990505
1882.000000	99.989342
1881.000000	99.988404
1880.000000	99.986742
1879.000000	99.985355
1878.000000	99.986039
1877.000000	99.989000
1876.000000	99.992265
1875.000000	99.993505
1874.000000	99.992034
1873.000000	99.988894
1872.000000	99.985568
1871.000000	99.983122
1870.000000	99.982291
1869.000000	99.983161
1868.000000	99.984460
1867.000000	99.984802
1866.000000	99.984536
1865.000000	99.984916
1864.000000	99.986341
1863.000000	99.988277
1862.000000	99.990518
1861.000000	99.993617
1860.000000	99.997798
1859.000000	100.002396
1858.000000	100.006936
1857.000000	100.011669
1856.000000	100.016303
1855.000000	100.019314
1854.000000	100.019622
1853.000000	100.018530
1852.000000	100.018923
1851.000000	100.022332
1850.000000	100.027783
1849.000000	100.033295
1848.000000	100.037672
1847.000000	100.040676
1846.000000	100.042499
1845.000000	100.044011
1844.000000	100.046637
1843.000000	100.050518
1842.000000	100.053744
1841.000000	100.054251
1840.000000	100.051925
1839.000000	100.048870
1838.000000	100.047514
1837.000000	100.048358
1836.000000	100.050128
1835.000000	100.052008
1834.000000	100.054855
1833.000000	100.059980
1832.000000	100.067219
1831.000000	100.074134
1830.000000	100.077598
1829.000000	100.077108
1828.000000	100.075255
1827.000000	100.074044
1826.000000	100.073078
1825.000000	100.071501
1824.000000	100.069773
1823.000000	100.068875
1822.000000	100.068890
1821.000000	100.069342
1820.000000	100.070000
1819.000000	100.070548
1818.000000	100.070123
1817.000000	100.068029
1816.000000	100.064761
1815.000000	100.061781
1814.000000	100.060380
1813.000000	100.061067
1812.000000	100.063439
1811.000000	100.066093
1810.000000	100.067405
1809.000000	100.066907
1808.000000	100.065438
1807.000000	100.064206
1806.000000	100.064014
1805.000000	100.064909
1804.000000	100.066095
1803.000000	100.066476
1802.000000	100.065864
1801.000000	100.065623
1800.000000	100.066966
1799.000000	100.068735
1798.000000	100.068526
1797.000000	100.065788
1796.000000	100.062648
1795.000000	100.061645
1794.000000	100.063266
1793.000000	100.065749
1792.000000	100.067102
1791.000000	100.067463
1790.000000	100.068398
1789.000000	100.070331
1788.000000	100.072170
1787.000000	100.072803
1786.000000	100.072441
1785.000000	100.072713
1784.000000	100.075037
1783.000000	100.079057
1782.000000	100.083080
1781.000000	100.085812
1780.000000	100.087299
1779.000000	100.088191
1778.000000	100.088628
1777.000000	100.088437
1776.000000	100.088134
1775.000000	100.088913
1774.000000	100.091529
1773.000000	100.095516
1772.000000	100.099313
1771.000000	100.101653
1770.000000	100.102898
1769.000000	100.104593
1768.000000	100.108463
1767.000000	100.114923
1766.000000	100.122370
1765.000000	100.128737
1764.000000	100.132900
1763.000000	100.134531
1762.000000	100.133787
1761.000000	100.132004
1760.000000	100.131507
1759.000000	100.133311
1758.000000	100.136048
1757.000000	100.137660
1756.000000	100.138017
1755.000000	100.138856
1754.000000	100.140813
1753.000000	100.142748
1752.000000	100.144001
1751.000000	100.145845
1750.000000	100.149602
1749.000000	100.154116
1748.000000	100.157182
1747.000000	100.158003
1746.000000	100.157087
1745.000000	100.155212
1744.000000	100.153364
1743.000000	100.152623
1742.000000	100.152992
1741.000000	100.153474
1740.000000	100.153678
1739.000000	100.154261
1738.000000	100.155220
1737.000000	100.154964
1736.000000	100.151531
1735.000000	100.144689
1734.000000	100.137898
1733.000000	100.135285
1732.000000	100.136370
1731.000000	100.138213
1730.000000	100.138995
1729.000000	100.138735
1728.000000	100.138321
1727.000000	100.138147
1726.000000	100.137621
1725.000000	100.135917
1724.000000	100.132938
1723.000000	100.129336
1722.000000	100.125539
1721.000000	100.121278
1720.000000	100.116218
1719.000000	100.110788
1718.000000	100.106283
1717.000000	100.103701
1716.000000	100.102427
1715.000000	100.101259
1714.000000	100.099497
1713.000000	100.096682
1712.000000	100.092575
1711.000000	100.087549
1710.000000	100.082637
1709.000000	100.078926
1708.000000	100.076602
1707.000000	100.074724
1706.000000	100.072193
1705.000000	100.068867
1704.000000	100.065267
1703.000000	100.061288
1702.000000	100.056099
1701.000000	100.049308
1700.000000	100.042405
1699.000000	100.037306
1698.000000	100.033593
1697.000000	100.030011
1696.000000	100.026026
1695.000000	100.021846
1694.000000	100.017739
1693.000000	100.013597
1692.000000	100.009145
1691.000000	100.004324
1690.000000	99.999284
1689.000000	99.994222
1688.000000	99.989304
1687.000000	99.984631
1686.000000	99.980188
1685.000000	99.975702
1684.000000	99.970759
1683.000000	99.965454
1682.000000	99.960277
1681.000000	99.955272
1680.000000	99.950417
1679.000000	99.946065
1678.000000	99.942560
1677.000000	99.939678
1676.000000	99.936540
1675.000000	99.932208
1674.000000	99.926609
1673.000000	99.920453
1672.000000	99.914339
1671.000000	99.908906
1670.000000	99.904929
1669.000000	99.902075
1668.000000	99.898973
1667.000000	99.895202
1666.000000	99.891109
1665.000000	99.886556
1664.000000	99.880851
1663.000000	99.873899
1662.000000	99.867039
1661.000000	99.861638
1660.000000	99.857728
1659.000000	99.854806
1658.000000	99.852498
1657.000000	99.850009
1656.000000	99.845674
1655.000000	99.837740
1654.000000	99.826717
1653.000000	99.818268
1652.000000	99.815698
1651.000000	99.816436
1650.000000	99.816688
1649.000000	99.813303
1648.000000	99.805841
1647.000000	99.798092
1646.000000	99.794510
1645.000000	99.794565
1644.000000	99.795602
1643.000000	99.796485
1642.000000	99.797221
1641.000000	99.797653
1640.000000	99.797186
1639.000000	99.795927
1638.000000	99.795099
1637.000000	99.795517
1636.000000	99.795628
1635.000000	99.793132
1634.000000	99.789509
1633.000000	99.787324
1632.000000	99.786060
1631.000000	99.784411
1630.000000	99.782461
1629.000000	99.780987
1628.000000	99.780185
1627.000000	99.780184
1626.000000	99.781701
1625.000000	99.784875
1624.000000	99.788104
1623.000000	99.789598
1622.000000	99.790306
1621.000000	99.792892
1620.000000	99.798212
1619.000000	99.804920
1618.000000	99.810754
1617.000000	99.813184
1616.000000	99.811607
1615.000000	99.809711
1614.000000	99.811112
1613.000000	99.815491
1612.000000	99.820475
1611.000000	99.824313
1610.000000	99.827157
1609.000000	99.829762
1608.000000	99.831616
1607.000000	99.831845
1606.000000	99.831174
1605.000000	99.831558
1604.000000	99.834148
1603.000000	99.838583
1602.000000	99.843741
1601.000000	99.848798
1600.000000	99.853579
1599.000000	99.858448
1598.000000	99.863982
1597.000000	99.870328
1596.000000	99.876728
1595.000000	99.882045
1594.000000	99.885911
1593.000000	99.888820
1592.000000	99.891207
1591.000000	99.893261
1590.000000	99.895547
1589.000000	99.898733
1588.000000	99.902472
1587.000000	99.905527
1586.000000	99.907444
1585.000000	99.909473
1584.000000	99.913246
1583.000000	99.918791
1582.000000	99.924640
1581.000000	99.929677
1580.000000	99.934106
1579.000000	99.938476
1578.000000	99.942699
1577.000000	99.946081
1576.000000	99.947899
1575.000000	99.948848
1574.000000	99.950981
1573.000000	99.955314
1572.000000	99.961876
1571.000000	99.969828
1570.000000	99.976248
1569.000000	99.978273
1568.000000	99.977642
1567.000000	99.978343
1566.000000	99.981034
1565.000000	99.983595
1564.000000	99.984791
1563.000000	99.985436
1562.000000	99.986458
1561.000000	99.987659
1560.000000	99.988317
1559.000000	99.989533
1558.000000	99.991507
1557.000000	99.992291
1556.000000	99.993008
1555.000000	99.994391
1554.000000	99.996331
1553.000000	99.997983
1552.000000	99.998804
1551.000000	99.999127
1550.000000	99.999607
1549.000000	100.000126
1548.000000	100.000089
1547.000000	99.999487
1546.000000	99.999009
1545.000000	99.999402
1544.000000	100.000608
1543.000000	100.001806
1542.000000	100.002708
1541.000000	100.004473
1540.000000	100.007979
1539.000000	100.011028
1538.000000	100.012165
1537.000000	100.012468
1536.000000	100.012708
1535.000000	100.013486
1534.000000	100.015300
1533.000000	100.017343
1532.000000	100.018127
1531.000000	100.017555
1530.000000	100.016379
1529.000000	100.014955
1528.000000	100.013181
1527.000000	100.011323
1526.000000	100.010511
1525.000000	100.011767
1524.000000	100.014854
1523.000000	100.018604
1522.000000	100.021979
1521.000000	100.024712
1520.000000	100.027241
1519.000000	100.029771
1518.000000	100.031538
1517.000000	100.031732
1516.000000	100.030836
1515.000000	100.030487
1514.000000	100.031565
1513.000000	100.033678
1512.000000	100.036012
1511.000000	100.038075
1510.000000	100.039878
1509.000000	100.041512
1508.000000	100.042807
1507.000000	100.043532
1506.000000	100.043848
1505.000000	100.044438
1504.000000	100.045753
1503.000000	100.047634
1502.000000	100.049946
1501.000000	100.052676
1500.000000	100.055583
1499.000000	100.058183
1498.000000	100.060175
1497.000000	100.061594
1496.000000	100.062554
1495.000000	100.063294
1494.000000	100.064351
1493.000000	100.066138
1492.000000	100.068583
1491.000000	100.071139
1490.000000	100.073268
1489.000000	100.075122
1488.000000	100.077174
1487.000000	100.079436
1486.000000	100.081719
1485.000000	100.083880
1484.000000	100.085642
1483.000000	100.086697
1482.000000	100.087253
1481.000000	100.088232
1480.000000	100.090291
1479.000000	100.092955
1478.000000	100.095287
1477.000000	100.097102
1476.000000	100.099132
1475.000000	100.102063
1474.000000	100.105968
1473.000000	100.110118
1472.000000	100.112795
1471.000000	100.112948
1470.000000	100.112000
1469.000000	100.112167
1468.000000	100.114530
1467.000000	100.118432
1466.000000	100.122089
1465.000000	100.124684
1464.000000	100.127275
1463.000000	100.130663
1462.000000	100.133759
1461.000000	100.134753
1460.000000	100.132704
1459.000000	100.128475
1458.000000	100.125019
1457.000000	100.125238
1456.000000	100.127759
1455.000000	100.129701
1454.000000	100.130296
1453.000000	100.130169
1452.000000	100.130980
1451.000000	100.133631
1450.000000	100.136781
1449.000000	100.138468
1448.000000	100.138541
1447.000000	100.138257
1446.000000	100.137722
1445.000000	100.135600
1444.000000	100.131018
1443.000000	100.125032
1442.000000	100.120011
1441.000000	100.117356
1440.000000	100.116442
1439.000000	100.115876
1438.000000	100.115119
1437.000000	100.114781
1436.000000	100.115171
1435.000000	100.115448
1434.000000	100.114866
1433.000000	100.113405
1432.000000	100.111533
1431.000000	100.109809
1430.000000	100.108419
1429.000000	100.107411
1428.000000	100.106904
1427.000000	100.106626
1426.000000	100.105973
1425.000000	100.104944
1424.000000	100.104574
1423.000000	100.105627
1422.000000	100.107440
1421.000000	100.109095
1420.000000	100.110400
1419.000000	100.111096
1418.000000	100.110498
1417.000000	100.109446
1416.000000	100.109798
1415.000000	100.111999
1414.000000	100.114503
1413.000000	100.115271
1412.000000	100.114008
1411.000000	100.112392
1410.000000	100.111876
1409.000000	100.112199
1408.000000	100.112455
1407.000000	100.112719
1406.000000	100.114090
1405.000000	100.117227
1404.000000	100.121161
1403.000000	100.124008
1402.000000	100.124840
1401.000000	100.124242
1400.000000	100.123718
1399.000000	100.124646
1398.000000	100.127061
1397.000000	100.129953
1396.000000	100.132464
1395.000000	100.134209
1394.000000	100.135113
1393.000000	100.135579
1392.000000	100.136380
1391.000000	100.137898
1390.000000	100.139949
1389.000000	100.142263
1388.000000	100.144809
1387.000000	100.147515
1386.000000	100.149970
1385.000000	100.151919
1384.000000	100.153709
1383.000000	100.155799
1382.000000	100.157914
1381.000000	100.158995
1380.000000	100.158237
1379.000000	100.155948
1378.000000	100.153358
1377.000000	100.151640
1376.000000	100.151410
1375.000000	100.152945
1374.000000	100.156010
1373.000000	100.159435
1372.000000	100.161868
1371.000000	100.162893
1370.000000	100.163012
1369.000000	100.163042
1368.000000	100.163523
1367.000000	100.164431
1366.000000	100.165350
1365.000000	100.165827
1364.000000	100.165691
1363.000000	100.165338
1362.000000	100.165629
1361.000000	100.167137
1360.000000	100.169690
1359.000000	100.172652
1358.000000	100.175376
1357.000000	100.177399
1356.000000	100.178466
1355.000000	100.178505
1354.000000	100.177573
1353.000000	100.175941
1352.000000	100.174230
1351.000000	100.173218
1350.000000	100.173290
1349.000000	100.173921
1348.000000	100.174122
1347.000000	100.173474
1346.000000	100.172423
1345.000000	100.171615
1344.000000	100.171355
1343.000000	100.171809
1342.000000	100.173206
1341.000000	100.175390
1340.000000	100.177412
1339.000000	100.178243
1338.000000	100.177972
1337.000000	100.177591
1336.000000	100.177539
1335.000000	100.177073
1334.000000	100.175233
1333.000000	100.172116
1332.000000	100.169011
1331.000000	100.167262
1330.000000	100.167126
1329.000000	100.167904
1328.000000	100.169172
1327.000000	100.171485
1326.000000	100.175422
1325.000000	100.180125
1324.000000	100.183606
1323.000000	100.184529
1322.000000	100.183037
1321.000000	100.179877
1320.000000	100.175655
1319.000000	100.171472
1318.000000	100.169286
1317.000000	100.170298
1316.000000	100.173331
1315.000000	100.175762
1314.000000	100.176102
1313.000000	100.175064
1312.000000	100.174024
1311.000000	100.173295
1310.000000	100.172537
1309.000000	100.172081
1308.000000	100.172791
1307.000000	100.174736
1306.000000	100.176881
1305.000000	100.178235
1304.000000	100.178692
1303.000000	100.178546
1302.000000	100.177724
1301.000000	100.175909
1300.000000	100.173208
1299.000000	100.170304
1298.000000	100.167993
1297.000000	100.166793
1296.000000	100.166871
1295.000000	100.168058
1294.000000	100.169856
1293.000000	100.171529
1292.000000	100.172157
1291.000000	100.170667
1290.000000	100.166309
1289.000000	100.159626
1288.000000	100.152819
1287.000000	100.148375
1286.000000	100.146798
1285.000000	100.146016
1284.000000	100.143377
1283.000000	100.138196
1282.000000	100.132200
1281.000000	100.127508
1280.000000	100.124487
1279.000000	100.121892
1278.000000	100.118950
1277.000000	100.116682
1276.000000	100.116615
1275.000000	100.118525
1274.000000	100.120484
1273.000000	100.121395
1272.000000	100.122204
1271.000000	100.123471
1270.000000	100.122740
1269.000000	100.116337
1268.000000	100.103964
1267.000000	100.090213
1266.000000	100.081032
1265.000000	100.079523
1264.000000	100.085095
1263.000000	100.094488
1262.000000	100.102806
1261.000000	100.105714
1260.000000	100.102697
1259.000000	100.097634
1258.000000	100.094680
1257.000000	100.093969
1256.000000	100.092360
1255.000000	100.087362
1254.000000	100.078997
1253.000000	100.068705
1252.000000	100.058235
1251.000000	100.049474
1250.000000	100.043540
1249.000000	100.039573
1248.000000	100.035484
1247.000000	100.030082
1246.000000	100.023595
1245.000000	100.016266
1244.000000	100.007674
1243.000000	99.997647
1242.000000	99.986762
1241.000000	99.975630
1240.000000	99.964625
1239.000000	99.954504
1238.000000	99.946087
1237.000000	99.938705
1236.000000	99.929939
1235.000000	99.917892
1234.000000	99.903396
1233.000000	99.889160
1232.000000	99.876804
1231.000000	99.865338
1230.000000	99.852714
1229.000000	99.838366
1228.000000	99.823506
1227.000000	99.808815
1226.000000	99.792675
1225.000000	99.772611
1224.000000	99.748242
1223.000000	99.721612
1222.000000	99.694373
1221.000000	99.665989
1220.000000	99.635607
1219.000000	99.604425
1218.000000	99.574541
1217.000000	99.545948
1216.000000	99.516202
1215.000000	99.482980
1214.000000	99.445576
1213.000000	99.403760
1212.000000	99.356756
1211.000000	99.304337
1210.000000	99.248372
1209.000000	99.192783
1208.000000	99.142053
1207.000000	99.099248
1206.000000	99.064134
1205.000000	99.032794
1204.000000	98.999879
1203.000000	98.962059
1202.000000	98.919668
1201.000000	98.875262
1200.000000	98.830808
1199.000000	98.786505
1198.000000	98.742268
1197.000000	98.699527
1196.000000	98.660260
1195.000000	98.623847
1194.000000	98.586115
1193.000000	98.542849
1192.000000	98.494065
1191.000000	98.444044
1190.000000	98.397251
1189.000000	98.354599
1188.000000	98.313375
1187.000000	98.270279
1186.000000	98.224891
1185.000000	98.180055
1184.000000	98.137703
1183.000000	98.094553
1182.000000	98.044314
1181.000000	97.984895
1180.000000	97.920684
1179.000000	97.856371
1178.000000	97.791846
1177.000000	97.725869
1176.000000	97.661236
1175.000000	97.601576
1174.000000	97.544926
1173.000000	97.485506
1172.000000	97.421219
1171.000000	97.354937
1170.000000	97.289438
1169.000000	97.226114
1168.000000	97.168041
1167.000000	97.118567
1166.000000	97.076444
1165.000000	97.038305
1164.000000	97.007445
1163.000000	96.994321
1162.000000	97.005380
1161.000000	97.034579
1160.000000	97.067126
1159.000000	97.089118
1158.000000	97.093481
1157.000000	97.080701
1156.000000	97.055918
1155.000000	97.023143
1154.000000	96.981295
1153.000000	96.927613
1152.000000	96.864138
1151.000000	96.797581
1150.000000	96.733049
1149.000000	96.671618
1148.000000	96.613939
1147.000000	96.561615
1146.000000	96.514284
1145.000000	96.469240
1144.000000	96.424273
1143.000000	96.377433
1142.000000	96.325218
1141.000000	96.266060
1140.000000	96.204808
1139.000000	96.147867
1138.000000	96.093834
1137.000000	96.035192
1136.000000	95.969679
1135.000000	95.903434
1134.000000	95.842001
1133.000000	95.784795
1132.000000	95.729743
1131.000000	95.676120
1130.000000	95.620903
1129.000000	95.559783
1128.000000	95.494817
1127.000000	95.434325
1126.000000	95.381989
1125.000000	95.332488
1124.000000	95.280810
1123.000000	95.228721
1122.000000	95.178110
1121.000000	95.125239
1120.000000	95.067234
1119.000000	95.008523
1118.000000	94.954799
1117.000000	94.904944
1116.000000	94.854197
1115.000000	94.802102
1114.000000	94.753136
1113.000000	94.711914
1112.000000	94.680099
1111.000000	94.654321
1110.000000	94.625439
1109.000000	94.584876
1108.000000	94.533888
1107.000000	94.482102
1106.000000	94.436021
1105.000000	94.394765
1104.000000	94.357807
1103.000000	94.328564
1102.000000	94.306808
1101.000000	94.284788
1100.000000	94.255501
1099.000000	94.219168
1098.000000	94.178995
1097.000000	94.136590
1096.000000	94.095088
1095.000000	94.060135
1094.000000	94.033103
1093.000000	94.008345
1092.000000	93.980924
1091.000000	93.952320
1090.000000	93.925972
1089.000000	93.902945
1088.000000	93.884712
1087.000000	93.873745
1086.000000	93.867554
1085.000000	93.857986
1084.000000	93.840566
1083.000000	93.819852
1082.000000	93.802372
1081.000000	93.788734
1080.000000	93.775688
1079.000000	93.761173
1078.000000	93.744084
1077.000000	93.722795
1076.000000	93.696473
1075.000000	93.664957
1074.000000	93.626618
1073.000000	93.579938
1072.000000	93.526801
1071.000000	93.469280
1070.000000	93.403568
1069.000000	93.322855
1068.000000	93.226125
1067.000000	93.118628
1066.000000	93.004397
1065.000000	92.884984
1064.000000	92.764940
1063.000000	92.650133
1062.000000	92.539966
1061.000000	92.429725
1060.000000	92.321322
1059.000000	92.222354
1058.000000	92.133159
1057.000000	92.044775
1056.000000	91.952138
1055.000000	91.859554
1054.000000	91.769995
1053.000000	91.678404
1052.000000	91.579929
1051.000000	91.476169
1050.000000	91.368935
1049.000000	91.257108
1048.000000	91.144020
1047.000000	91.037862
1046.000000	90.940370
1045.000000	90.843900
1044.000000	90.742562
1043.000000	90.638247
1042.000000	90.534086
1041.000000	90.430750
1040.000000	90.331561
1039.000000	90.242434
1038.000000	90.163802
1037.000000	90.090769
1036.000000	90.022947
1035.000000	89.964994
1034.000000	89.916213
1033.000000	89.870389
1032.000000	89.828567
1031.000000	89.801172
1030.000000	89.793515
1029.000000	89.798415
1028.000000	89.806149
1027.000000	89.812586
1026.000000	89.814789
1025.000000	89.808686
1024.000000	89.795778
1023.000000	89.784247
1022.000000	89.779170
1021.000000	89.777497
1020.000000	89.774397
1019.000000	89.767905
1018.000000	89.756703
1017.000000	89.740883
1016.000000	89.725301
1015.000000	89.714379
1014.000000	89.703779
1013.000000	89.685977
1012.000000	89.663658
1011.000000	89.647629
1010.000000	89.641194
1009.000000	89.637187
1008.000000	89.631841
1007.000000	89.631199
1006.000000	89.641205
1005.000000	89.660486
1004.000000	89.685010
1003.000000	89.711797
1002.000000	89.737291
1001.000000	89.760942
1000.000000	89.791049
999.000000	89.837954
998.000000	89.900484
997.000000	89.967324
996.000000	90.031616
995.000000	90.094876
994.000000	90.156969
993.000000	90.213671
992.000000	90.266081
991.000000	90.322360
990.000000	90.387592
989.000000	90.460130
988.000000	90.538801
987.000000	90.624656
986.000000	90.714343
985.000000	90.800763
984.000000	90.882045
983.000000	90.962599
982.000000	91.045578
981.000000	91.132561
980.000000	91.229174
979.000000	91.340366
978.000000	91.459934
977.000000	91.575492
976.000000	91.685126
975.000000	91.798605
974.000000	91.920606
973.000000	92.043570
972.000000	92.159969
971.000000	92.271892
970.000000	92.384962
969.000000	92.501333
968.000000	92.622143
967.000000	92.748775
966.000000	92.877786
965.000000	93.001302
964.000000	93.115753
963.000000	93.224876
962.000000	93.332463
961.000000	93.437841
960.000000	93.539760
959.000000	93.638530
958.000000	93.733016
957.000000	93.821667
956.000000	93.907498
955.000000	93.995533
954.000000	94.084068
953.000000	94.165308
952.000000	94.236184
951.000000	94.301809
950.000000	94.366543
949.000000	94.428052
948.000000	94.482508
947.000000	94.529976
946.000000	94.572641
945.000000	94.612774
944.000000	94.653757
943.000000	94.697371
942.000000	94.738540
941.000000	94.768771
940.000000	94.786997
939.000000	94.802536
938.000000	94.826144
937.000000	94.862429
936.000000	94.910928
935.000000	94.968011
934.000000	95.026341
933.000000	95.078259
932.000000	95.121049
931.000000	95.154877
930.000000	95.177607
929.000000	95.189093
928.000000	95.199453
927.000000	95.223277
926.000000	95.263325
925.000000	95.308081
924.000000	95.347266
923.000000	95.380979
922.000000	95.411090
921.000000	95.433823
920.000000	95.446656
919.000000	95.454856
918.000000	95.464850
917.000000	95.476955
916.000000	95.490410
915.000000	95.510017
914.000000	95.541388
913.000000	95.583343
912.000000	95.630323
911.000000	95.679608
910.000000	95.732846
909.000000	95.793946
908.000000	95.868266
907.000000	95.959237
906.000000	96.062066
905.000000	96.164781
904.000000	96.259265
903.000000	96.347953
902.000000	96.437370
901.000000	96.529745
900.000000	96.623832
899.000000	96.718496
898.000000	96.810682
897.000000	96.893711
896.000000	96.963320
895.000000	97.024050
894.000000	97.085718
893.000000	97.154207
892.000000	97.228449
891.000000	97.304847
890.000000	97.381183
889.000000	97.456556
888.000000	97.530294
887.000000	97.601763
886.000000	97.670366
885.000000	97.735275
884.000000	97.794810
883.000000	97.845968
882.000000	97.886112
881.000000	97.917102
880.000000	97.946758
879.000000	97.983316
878.000000	98.028566
877.000000	98.079084
876.000000	98.133206
875.000000	98.192652
874.000000	98.257243
873.000000	98.322156
872.000000	98.381773
871.000000	98.434043
870.000000	98.481078
869.000000	98.527471
868.000000	98.576934
867.000000	98.627820
866.000000	98.673522
865.000000	98.710393
864.000000	98.743333
863.000000	98.780573
862.000000	98.824858
861.000000	98.873419
860.000000	98.924348
859.000000	98.977230
858.000000	99.028543
857.000000	99.072872
856.000000	99.109513
855.000000	99.142936
854.000000	99.176459
853.000000	99.210450
852.000000	99.246335
851.000000	99.285099
850.000000	99.320222
849.000000	99.339544
848.000000	99.338393
847.000000	99.326373
846.000000	99.317515
845.000000	99.317095
844.000000	99.321083
843.000000	99.324224
842.000000	99.324708
841.000000	99.323630
840.000000	99.322950
839.000000	99.322340
838.000000	99.317457
837.000000	99.304731
836.000000	99.288010
835.000000	99.275122
834.000000	99.266713
833.000000	99.254926
832.000000	99.235723
831.000000	99.215926
830.000000	99.204477
829.000000	99.204370
828.000000	99.219252
827.000000	99.258524
826.000000	99.322408
825.000000	99.384962
824.000000	99.407105
823.000000	99.371498
822.000000	99.297393
821.000000	99.219659
820.000000	99.160300
819.000000	99.120793
818.000000	99.091915
817.000000	99.064477
816.000000	99.032124
815.000000	98.987411
814.000000	98.919439
813.000000	98.820096
812.000000	98.692327
811.000000	98.545585
810.000000	98.379965
809.000000	98.181654
808.000000	97.940375
807.000000	97.665770
806.000000	97.378693
805.000000	97.090949
804.000000	96.804022
803.000000	96.524992
802.000000	96.271296
801.000000	96.058183
800.000000	95.890981
799.000000	95.771096
798.000000	95.700416
797.000000	95.676168
796.000000	95.687428
795.000000	95.721192
794.000000	95.770166
793.000000	95.832125
792.000000	95.902105
791.000000	95.967350
790.000000	96.012076
789.000000	96.028016
788.000000	96.018690
787.000000	95.991993
786.000000	95.950181
785.000000	95.889486
784.000000	95.808424
783.000000	95.713017
782.000000	95.614029
781.000000	95.522680
780.000000	95.449022
779.000000	95.400238
778.000000	95.379148
777.000000	95.386843
776.000000	95.425889
775.000000	95.496084
774.000000	95.587716
773.000000	95.686099
772.000000	95.784711
771.000000	95.888393
770.000000	96.001946
769.000000	96.120908
768.000000	96.235496
767.000000	96.338500
766.000000	96.426883
765.000000	96.500031
764.000000	96.559276
763.000000	96.606581
762.000000	96.643396
761.000000	96.674624
760.000000	96.712593
759.000000	96.769325
758.000000	96.842207
757.000000	96.914343
756.000000	96.973177
755.000000	97.022569
754.000000	97.072278
753.000000	97.122894
752.000000	97.169090
751.000000	97.213122
750.000000	97.265168
749.000000	97.329393
748.000000	97.396100
747.000000	97.450110
746.000000	97.484554
745.000000	97.506525
744.000000	97.531916
743.000000	97.573952
742.000000	97.633037
741.000000	97.697556
740.000000	97.756858
739.000000	97.812132
738.000000	97.871139
737.000000	97.933896
736.000000	97.990062
735.000000	98.032604
734.000000	98.068143
733.000000	98.108462
732.000000	98.154741
731.000000	98.196866
730.000000	98.228332
729.000000	98.254555
728.000000	98.282966
727.000000	98.311144
726.000000	98.331655
725.000000	98.345276
724.000000	98.360519
723.000000	98.379745
722.000000	98.395440
721.000000	98.404672
720.000000	98.419179
719.000000	98.451359
718.000000	98.495369
717.000000	98.533427
716.000000	98.555331
715.000000	98.562534
714.000000	98.557603
713.000000	98.541032
712.000000	98.520419
711.000000	98.511462
710.000000	98.521846
709.000000	98.539055
708.000000	98.540791
707.000000	98.516266
706.000000	98.473989
705.000000	98.431583
704.000000	98.400171
703.000000	98.374139
702.000000	98.331889
701.000000	98.249288
700.000000	98.116807
699.000000	97.946239
698.000000	97.763156
697.000000	97.595426
696.000000	97.466937
695.000000	97.394032
694.000000	97.382824
693.000000	97.429754
692.000000	97.523149
691.000000	97.642867
690.000000	97.763346
689.000000	97.867343
688.000000	97.959185
687.000000	98.054697
686.000000	98.155622
685.000000	98.245660
684.000000	98.314517
683.000000	98.371813
682.000000	98.429079
681.000000	98.479873
680.000000	98.510511
679.000000	98.524050
678.000000	98.539980
677.000000	98.571319
676.000000	98.615286
675.000000	98.662296
674.000000	98.706377
673.000000	98.748377
672.000000	98.792216
671.000000	98.841140
670.000000	98.898445
669.000000	98.962557
668.000000	98.992989
667.000000	98.975718
666.000000	98.990727
665.000000	99.052185
664.000000	99.113454
663.000000	99.150502
662.000000	99.163683
661.000000	99.162523
660.000000	99.154510
659.000000	99.147350
658.000000	99.150529
657.000000	99.166423
656.000000	99.190069
655.000000	99.219392
654.000000	99.258083
653.000000	99.305261
652.000000	99.348396
651.000000	99.372904
650.000000	99.377121
