4000.000000	100.340873
3999.000000	100.339598
3998.000000	100.338429
3997.000000	100.337801
3996.000000	100.338126
3995.000000	100.339486
3994.000000	100.341440
3993.000000	100.343061
3992.000000	100.343544
3991.000000	100.342726
3990.000000	100.341275
3989.000000	100.340358
3988.000000	100.340648
3987.000000	100.341738
3986.000000	100.342479
3985.000000	100.342028
3984.000000	100.340538
3983.000000	100.338923
3982.000000	100.338040
3981.000000	100.338154
3980.000000	100.339072
3979.000000	100.340486
3978.000000	100.342063
3977.000000	100.343370
3976.000000	100.343908
3975.000000	100.343319
3974.000000	100.341716
3973.000000	100.339826
3972.000000	100.338646
3971.000000	100.338689
3970.000000	100.339499
3969.000000	100.340043
3968.000000	100.339631
3967.000000	100.338260
3966.000000	100.336232
3965.000000	100.333761
3964.000000	100.331162
3963.000000	100.329245
3962.000000	100.328939
3961.000000	100.330427
3960.000000	100.332845
3959.000000	100.334841
3958.000000	100.335621
3957.000000	100.335294
3956.000000	100.334327
3955.000000	100.332815
3954.000000	100.330507
3953.000000	100.327529
3952.000000	100.324706
3951.000000	100.322957
3950.000000	100.322452
3949.000000	100.322479
3948.000000	100.322115
3947.000000	100.321016
3946.000000	100.319546
3945.000000	100.318363
3944.000000	100.317952
3943.000000	100.318387
3942.000000	100.319440
3941.000000	100.320688
3940.000000	100.321615
3939.000000	100.321768
3938.000000	100.321047
3937.000000	100.319909
3936.000000	100.319111
3935.000000	100.319024
3934.000000	100.319189
3933.000000	100.318694
3932.000000	100.317053
3931.000000	100.314641
3930.000000	100.312317
3929.000000	100.310731
3928.000000	100.310128
3927.000000	100.310453
3926.000000	100.311244
3925.000000	100.311545
3924.000000	100.310571
3923.000000	100.308499
3922.000000	100.306355
3921.000000	100.305078
3920.000000	100.304793
3919.000000	100.304892
3918.000000	100.304599
3917.000000	100.303640
3916.000000	100.302472
3915.000000	100.301834
3914.000000	100.302005
3913.000000	100.302466
3912.000000	100.302422
3911.000000	100.301529
3910.000000	100.300107
3909.000000	100.298667
3908.000000	100.297479
3907.000000	100.296549
3906.000000	100.295796
3905.000000	100.295120
3904.000000	100.294508
3903.000000	100.294386
3902.000000	100.295440
3901.000000	100.297784
3900.000000	100.300443
3899.000000	100.301998
3898.000000	100.301929
3897.000000	100.300778
3896.000000	100.299483
3895.000000	100.298622
3894.000000	100.298305
3893.000000	100.298360
3892.000000	100.298452
3891.000000	100.298227
3890.000000	100.297726
3889.000000	100.297398
3888.000000	100.297518
3887.000000	100.297812
3886.000000	100.297687
3885.000000	100.296851
3884.000000	100.295716
3883.000000	100.295020
3882.000000	100.295082
3881.000000	100.295725
3880.000000	100.296527
3879.000000	100.297192
3878.000000	100.297711
3877.000000	100.298106
3876.000000	100.298337
3875.000000	100.298390
3874.000000	100.298326
3873.000000	100.298312
3872.000000	100.298534
3871.000000	100.298976
3870.000000	100.299408
3869.000000	100.299663
3868.000000	100.299826
3867.000000	100.300050
3866.000000	100.300356
3865.000000	100.300709
3864.000000	100.301097
3863.000000	100.301513
3862.000000	100.301931
3861.000000	100.302343
3860.000000	100.302743
3859.000000	100.303134
3858.000000	100.303533
3857.000000	100.303955
3856.000000	100.304413
3855.000000	100.304910
3854.000000	100.305433
3853.000000	100.305958
3852.000000	100.306466
3851.000000	100.306965
3850.000000	100.307475
3849.000000	100.308012
3848.000000	100.308580
3847.000000	100.309174
3846.000000	100.309788
3845.000000	100.310423
3844.000000	100.311086
3843.000000	100.311773
3842.000000	100.312466
3841.000000	100.313144
3840.000000	100.313796
3839.000000	100.314423
3838.000000	100.315027
3837.000000	100.315613
3836.000000	100.316188
3835.000000	100.316764
3834.000000	100.317350
3833.000000	100.317944
3832.000000	100.318534
3831.000000	100.319107
3830.000000	100.319659
3829.000000	100.320195
3828.000000	100.320716
3827.000000	100.321217
3826.000000	100.321684
3825.000000	100.322114
3824.000000	100.322518
3823.000000	100.322916
3822.000000	100.323313
3821.000000	100.323689
3820.000000	100.324019
3819.000000	100.324301
3818.000000	100.324554
3817.000000	100.324792
3816.000000	100.325015
3815.000000	100.325227
3814.000000	100.325442
3813.000000	100.325667
3812.000000	100.325905
3811.000000	100.326150
3810.000000	100.326411
3809.000000	100.326705
3808.000000	100.327028
3807.000000	100.327346
3806.000000	100.327601
3805.000000	100.327761
3804.000000	100.327843
3803.000000	100.327888
3802.000000	100.327878
3801.000000	100.327768
3800.000000	100.327568
3799.000000	100.327335
3798.000000	100.327110
3797.000000	100.326889
3796.000000	100.326660
3795.000000	100.326415
3794.000000	100.326163
3793.000000	100.325912
3792.000000	100.325656
3791.000000	100.325375
3790.000000	100.325043
3789.000000	100.324647
3788.000000	100.324191
3787.000000	100.323691
3786.000000	100.323151
3785.000000	100.322544
3784.000000	100.321844
3783.000000	100.321066
3782.000000	100.320266
3781.000000	100.319470
3780.000000	100.318635
3779.000000	100.317699
3778.000000	100.316665
3777.000000	100.315603
3776.000000	100.314566
3775.000000	100.313525
3774.000000	100.312430
3773.000000	100.311259
3772.000000	100.310008
3771.000000	100.308673
3770.000000	100.307251
3769.000000	100.305758
3768.000000	100.304217
3767.000000	100.302644
3766.000000	100.301043
3765.000000	100.299402
3764.000000	100.297701
3763.000000	100.295949
3762.000000	100.294198
3761.000000	100.292457
3760.000000	100.290642
3759.000000	100.288695
3758.000000	100.286713
3757.000000	100.284840
3756.000000	100.283092
3755.000000	100.281329
3754.000000	100.279320
3753.000000	100.276817
3752.000000	100.273784
3751.000000	100.270572
3750.000000	100.267484
3749.000000	100.264338
3748.000000	100.260849
3747.000000	100.257154
3746.000000	100.253659
3745.000000	100.250428
3744.000000	100.246861
3743.000000	100.242931
3742.000000	100.239700
3741.000000	100.237546
3740.000000	100.235678
3739.000000	100.233142
3738.000000	100.229544
3737.000000	100.224871
3736.000000	100.219242
3735.000000	100.213440
3734.000000	100.208976
3733.000000	100.206710
3732.000000	100.205474
3731.000000	100.202962
3730.000000	100.198131
3729.000000	100.191792
3728.000000	100.185728
3727.000000	100.181269
3726.000000	100.178504
3725.000000	100.176667
3724.000000	100.174668
3723.000000	100.171262
3722.000000	100.165614
3721.000000	100.158021
3720.000000	100.149874
3719.000000	100.142696
3718.000000	100.137048
3717.000000	100.132056
3716.000000	100.126324
3715.000000	100.118945
3714.000000	100.109753
3713.000000	100.099608
3712.000000	100.090353
3711.000000	100.083430
3710.000000	100.078752
3709.000000	100.075289
3708.000000	100.071951
3707.000000	100.067864
3706.000000	100.062781
3705.000000	100.057161
3704.000000	100.051702
3703.000000	100.046589
3702.000000	100.041185
3701.000000	100.034584
3700.000000	100.026774
3699.000000	100.018852
3698.000000	100.011772
3697.000000	100.005443
3696.000000	99.999410
3695.000000	99.994023
3694.000000	99.990209
3693.000000	99.988531
3692.000000	99.988983
3691.000000	99.990731
3690.000000	99.991154
3689.000000	99.986625
3688.000000	99.976282
3687.000000	99.963950
3686.000000	99.954364
3685.000000	99.948605
3684.000000	99.944481
3683.000000	99.939806
3682.000000	99.934473
3681.000000	99.928913
3680.000000	99.921335
3679.000000	99.909242
3678.000000	99.893797
3677.000000	99.880810
3676.000000	99.874324
3675.000000	99.869824
3674.000000	99.861453
3673.000000	99.851716
3672.000000	99.845993
3671.000000	99.846096
3670.000000	99.848525
3669.000000	99.847333
3668.000000	99.841671
3667.000000	99.834891
3666.000000	99.828433
3665.000000	99.821327
3664.000000	99.813056
3663.000000	99.804918
3662.000000	99.798487
3661.000000	99.793416
3660.000000	99.787569
3659.000000	99.779506
3658.000000	99.769466
3657.000000	99.757824
3656.000000	99.743128
3655.000000	99.724525
3654.000000	99.704631
3653.000000	99.687255
3652.000000	99.674465
3651.000000	99.666758
3650.000000	99.663473
3649.000000	99.662476
3648.000000	99.662348
3647.000000	99.663912
3646.000000	99.668233
3645.000000	99.674358
3644.000000	99.679313
3643.000000	99.679531
3642.000000	99.673508
3641.000000	99.663247
3640.000000	99.652474
3639.000000	99.642646
3638.000000	99.631876
3637.000000	99.618926
3636.000000	99.606042
3635.000000	99.595970
3634.000000	99.587566
3633.000000	99.577671
3632.000000	99.566794
3631.000000	99.559745
3630.000000	99.559758
3629.000000	99.562027
3628.000000	99.559070
3627.000000	99.554760
3626.000000	99.556828
3625.000000	99.563500
3624.000000	99.567882
3623.000000	99.566684
3622.000000	99.562425
3621.000000	99.559408
3620.000000	99.558750
3619.000000	99.558204
3618.000000	99.556925
3617.000000	99.558008
3616.000000	99.564129
3615.000000	99.573114
3614.000000	99.578877
3613.000000	99.577046
3612.000000	99.569800
3611.000000	99.564088
3610.000000	99.564800
3609.000000	99.571272
3608.000000	99.579760
3607.000000	99.587641
3606.000000	99.594422
3605.000000	99.599495
3604.000000	99.601718
3603.000000	99.601772
3602.000000	99.602674
3601.000000	99.606654
3600.000000	99.612070
3599.000000	99.615364
3598.000000	99.614651
3597.000000	99.611337
3596.000000	99.608720
3595.000000	99.608889
3594.000000	99.610554
3593.000000	99.611048
3592.000000	99.609289
3591.000000	99.606522
3590.000000	99.605140
3589.000000	99.606865
3588.000000	99.611153
3587.000000	99.615604
3586.000000	99.619141
3585.000000	99.622713
3584.000000	99.626466
3583.000000	99.629147
3582.000000	99.630222
3581.000000	99.630987
3580.000000	99.633400
3579.000000	99.638185
3578.000000	99.643851
3577.000000	99.647695
3576.000000	99.647936
3575.000000	99.644921
3574.000000	99.640425
3573.000000	99.635826
3572.000000	99.630992
3571.000000	99.624906
3570.000000	99.617508
3569.000000	99.610723
3568.000000	99.607336
3567.000000	99.608247
3566.000000	99.611488
3565.000000	99.614854
3564.000000	99.617730
3563.000000	99.620762
3562.000000	99.625119
3561.000000	99.631316
3560.000000	99.638217
3559.000000	99.643582
3558.000000	99.645806
3557.000000	99.645036
3556.000000	99.642731
3555.000000	99.640172
3554.000000	99.637331
3553.000000	99.633392
3552.000000	99.628498
3551.000000	99.624376
3550.000000	99.622652
3549.000000	99.623162
3548.000000	99.624612
3547.000000	99.626422
3546.000000	99.628960
3545.000000	99.631989
3544.000000	99.634108
3543.000000	99.634117
3542.000000	99.632212
3541.000000	99.629575
3540.000000	99.627380
3539.000000	99.626225
3538.000000	99.626087
3537.000000	99.626449
3536.000000	99.626613
3535.000000	99.626263
3534.000000	99.625664
3533.000000	99.625273
3532.000000	99.625276
3531.000000	99.625511
3530.000000	99.625686
3529.000000	99.625629
3528.000000	99.625391
3527.000000	99.625152
3526.000000	99.625051
3525.000000	99.625065
3524.000000	99.625090
3523.000000	99.625059
3522.000000	99.624966
3521.000000	99.624830
3520.000000	99.624663
3519.000000	99.624475
3518.000000	99.624276
3517.000000	99.624088
3516.000000	99.623938
3515.000000	99.623842
3514.000000	99.623800
3513.000000	99.623799
3512.000000	99.623818
3511.000000	99.623848
3510.000000	99.623895
3509.000000	99.623968
3508.000000	99.624064
3507.000000	99.624170
3506.000000	99.624268
3505.000000	99.624353
3504.000000	99.624412
3503.000000	99.624421
3502.000000	99.624358
3501.000000	99.624221
3500.000000	99.624038
3499.000000	99.623858
3498.000000	99.623753
3497.000000	99.623776
3496.000000	99.623925
3495.000000	99.624152
3494.000000	99.624437
3493.000000	99.624774
3492.000000	99.625084
3491.000000	99.625198
3490.000000	99.625012
3489.000000	99.624596
3488.000000	99.624084
3487.000000	99.623495
3486.000000	99.622789
3485.000000	99.622092
3484.000000	99.621724
3483.000000	99.621933
3482.000000	99.622604
3481.000000	99.623256
3480.000000	99.623472
3479.000000	99.623309
3478.000000	99.623295
3477.000000	99.623954
3476.000000	99.625256
3475.000000	99.626492
3474.000000	99.626836
3473.000000	99.626085
3472.000000	99.624813
3471.000000	99.623884
3470.000000	99.623760
3469.000000	99.624200
3468.000000	99.624452
3467.000000	99.623783
3466.000000	99.621961
3465.000000	99.619412
3464.000000	99.617022
3463.000000	99.615597
3462.000000	99.615395
3461.000000	99.616080
3460.000000	99.616971
3459.000000	99.617493
3458.000000	99.617438
3457.000000	99.616861
3456.000000	99.615916
3455.000000	99.614833
3454.000000	99.613913
3453.000000	99.613381
3452.000000	99.613211
3451.000000	99.613165
3450.000000	99.613039
3449.000000	99.612832
3448.000000	99.612663
3447.000000	99.612596
3446.000000	99.612566
3445.000000	99.612445
3444.000000	99.612132
3443.000000	99.611630
3442.000000	99.611038
3441.000000	99.610450
3440.000000	99.609898
3439.000000	99.609394
3438.000000	99.608971
3437.000000	99.608646
3436.000000	99.608369
3435.000000	99.608068
3434.000000	99.607731
3433.000000	99.607409
3432.000000	99.607139
3431.000000	99.606910
3430.000000	99.606699
3429.000000	99.606482
3428.000000	99.606254
3427.000000	99.606022
3426.000000	99.605800
3425.000000	99.605607
3424.000000	99.605450
3423.000000	99.605326
3422.000000	99.605220
3421.000000	99.605109
3420.000000	99.604967
3419.000000	99.604781
3418.000000	99.604550
3417.000000	99.604292
3416.000000	99.604029
3415.000000	99.603776
3414.000000	99.603535
3413.000000	99.603306
3412.000000	99.603097
3411.000000	99.602917
3410.000000	99.602764
3409.000000	99.602622
3408.000000	99.602476
3407.000000	99.602315
3406.000000	99.602132
3405.000000	99.601917
3404.000000	99.601668
3403.000000	99.601397
3402.000000	99.601137
3401.000000	99.600928
3400.000000	99.600795
3399.000000	99.600740
3398.000000	99.600743
3397.000000	99.600763
3396.000000	99.600750
3395.000000	99.600669
3394.000000	99.600549
3393.000000	99.600457
3392.000000	99.600404
3391.000000	99.600304
3390.000000	99.600064
3389.000000	99.599718
3388.000000	99.599447
3387.000000	99.599435
3386.000000	99.599701
3385.000000	99.600045
3384.000000	99.600195
3383.000000	99.600064
3382.000000	99.599814
3381.000000	99.599675
3380.000000	99.599662
3379.000000	99.599577
3378.000000	99.599302
3377.000000	99.599021
3376.000000	99.599039
3375.000000	99.599447
3374.000000	99.600050
3373.000000	99.600618
3372.000000	99.601076
3371.000000	99.601393
3370.000000	99.601402
3369.000000	99.600919
3368.000000	99.600086
3367.000000	99.599435
3366.000000	99.599397
3365.000000	99.599804
3364.000000	99.599980
3363.000000	99.599474
3362.000000	99.598719
3361.000000	99.598818
3360.000000	99.600606
3359.000000	99.603941
3358.000000	99.607654
3357.000000	99.610306
3356.000000	99.611220
3355.000000	99.610779
3354.000000	99.610011
3353.000000	99.609700
3352.000000	99.609706
3351.000000	99.609203
3350.000000	99.607685
3349.000000	99.605756
3348.000000	99.604742
3347.000000	99.605385
3346.000000	99.607113
3345.000000	99.608669
3344.000000	99.609314
3343.000000	99.609193
3342.000000	99.608730
3341.000000	99.608211
3340.000000	99.607962
3339.000000	99.608291
3338.000000	99.608908
3337.000000	99.608860
3336.000000	99.607565
3335.000000	99.605603
3334.000000	99.603900
3333.000000	99.602393
3332.000000	99.600320
3331.000000	99.597943
3330.000000	99.597028
3329.000000	99.599068
3328.000000	99.603700
3327.000000	99.609269
3326.000000	99.614506
3325.000000	99.618986
3324.000000	99.622286
3323.000000	99.623697
3322.000000	99.622946
3321.000000	99.620639
3320.000000	99.617915
3319.000000	99.615902
3318.000000	99.615329
3317.000000	99.615960
3316.000000	99.616286
3315.000000	99.614578
3314.000000	99.610699
3313.000000	99.606515
3312.000000	99.604178
3311.000000	99.604421
3310.000000	99.606731
3309.000000	99.610283
3308.000000	99.614115
3307.000000	99.616981
3306.000000	99.618091
3305.000000	99.618069
3304.000000	99.618520
3303.000000	99.620580
3302.000000	99.624256
3301.000000	99.628877
3300.000000	99.633408
3299.000000	99.636413
3298.000000	99.636749
3297.000000	99.634752
3296.000000	99.632293
3295.000000	99.631022
3294.000000	99.630839
3293.000000	99.630651
3292.000000	99.630126
3291.000000	99.630035
3290.000000	99.630972
3289.000000	99.632496
3288.000000	99.633735
3287.000000	99.634392
3286.000000	99.634875
3285.000000	99.635665
3284.000000	99.636746
3283.000000	99.637559
3282.000000	99.637425
3281.000000	99.636166
3280.000000	99.634434
3279.000000	99.633377
3278.000000	99.633751
3277.000000	99.635422
3276.000000	99.637645
3275.000000	99.639639
3274.000000	99.640975
3273.000000	99.641555
3272.000000	99.641561
3271.000000	99.641480
3270.000000	99.641775
3269.000000	99.642423
3268.000000	99.642942
3267.000000	99.642951
3266.000000	99.642650
3265.000000	99.642663
3264.000000	99.643395
3263.000000	99.644594
3262.000000	99.645626
3261.000000	99.646107
3260.000000	99.646114
3259.000000	99.645911
3258.000000	99.645626
3257.000000	99.645280
3256.000000	99.644934
3255.000000	99.644719
3254.000000	99.644771
3253.000000	99.645229
3252.000000	99.646201
3251.000000	99.647603
3250.000000	99.649105
3249.000000	99.650351
3248.000000	99.651234
3247.000000	99.651891
3246.000000	99.652500
3245.000000	99.653145
3244.000000	99.653837
3243.000000	99.654580
3242.000000	99.655358
3241.000000	99.656120
3240.000000	99.656829
3239.000000	99.657510
3238.000000	99.658239
3237.000000	99.659080
3236.000000	99.660018
3235.000000	99.660981
3234.000000	99.661901
3233.000000	99.662763
3232.000000	99.663593
3231.000000	99.664423
3230.000000	99.665267
3229.000000	99.666127
3228.000000	99.667000
3227.000000	99.667875
3226.000000	99.668734
3225.000000	99.669555
3224.000000	99.670329
3223.000000	99.671067
3222.000000	99.671811
3221.000000	99.672609
3220.000000	99.673478
3219.000000	99.674365
3218.000000	99.675176
3217.000000	99.675867
3216.000000	99.676492
3215.000000	99.677170
3214.000000	99.677961
3213.000000	99.678806
3212.000000	99.679582
3211.000000	99.680228
3210.000000	99.680796
3209.000000	99.681373
3208.000000	99.681970
3207.000000	99.682558
3206.000000	99.683239
3205.000000	99.684252
3204.000000	99.685694
3203.000000	99.687275
3202.000000	99.688520
3201.000000	99.689269
3200.000000	99.689883
3199.000000	99.690841
3198.000000	99.692148
3197.000000	99.693320
3196.000000	99.693938
3195.000000	99.694085
3194.000000	99.694173
3193.000000	99.694445
3192.000000	99.694747
3191.000000	99.694759
3190.000000	99.694332
3189.000000	99.693623
3188.000000	99.693129
3187.000000	99.693645
3186.000000	99.695841
3185.000000	99.699571
3184.000000	99.703623
3183.000000	99.706506
3182.000000	99.707745
3181.000000	99.708237
3180.000000	99.709252
3179.000000	99.711025
3178.000000	99.712628
3177.000000	99.713270
3176.000000	99.713337
3175.000000	99.713954
3174.000000	99.715851
3173.000000	99.718939
3172.000000	99.722618
3171.000000	99.726122
3170.000000	99.728797
3169.000000	99.730401
3168.000000	99.731283
3167.000000	99.732066
3166.000000	99.733063
3165.000000	99.734151
3164.000000	99.735152
3163.000000	99.736111
3162.000000	99.737221
3161.000000	99.738651
3160.000000	99.740494
3159.000000	99.742744
3158.000000	99.745201
3157.000000	99.747533
3156.000000	99.749508
3155.000000	99.751076
3154.000000	99.752226
3153.000000	99.752909
3152.000000	99.753228
3151.000000	99.753590
3150.000000	99.754499
3149.000000	99.756150
3148.000000	99.758295
3147.000000	99.760464
3146.000000	99.762311
3145.000000	99.763860
3144.000000	99.765530
3143.000000	99.767809
3142.000000	99.770692
3141.000000	99.773383
3140.000000	99.774855
3139.000000	99.774781
3138.000000	99.773720
3137.000000	99.772558
3136.000000	99.771944
3135.000000	99.772234
3134.000000	99.773611
3133.000000	99.775885
3132.000000	99.778320
3131.000000	99.780054
3130.000000	99.780818
3129.000000	99.781103
3128.000000	99.781644
3127.000000	99.782780
3126.000000	99.784360
3125.000000	99.786054
3124.000000	99.787560
3123.000000	99.788603
3122.000000	99.788982
3121.000000	99.788794
3120.000000	99.788543
3119.000000	99.788850
3118.000000	99.789960
3117.000000	99.791529
3116.000000	99.792976
3115.000000	99.794064
3114.000000	99.795061
3113.000000	99.796419
3112.000000	99.798391
3111.000000	99.800946
3110.000000	99.803842
3109.000000	99.806624
3108.000000	99.808718
3107.000000	99.809811
3106.000000	99.810131
3105.000000	99.810341
3104.000000	99.810981
3103.000000	99.812094
3102.000000	99.813471
3101.000000	99.815028
3100.000000	99.816823
3099.000000	99.818823
3098.000000	99.820841
3097.000000	99.822713
3096.000000	99.824396
3095.000000	99.825889
3094.000000	99.827154
3093.000000	99.828220
3092.000000	99.829286
3091.000000	99.830610
3090.000000	99.832270
3089.000000	99.834095
3088.000000	99.835813
3087.000000	99.837300
3086.000000	99.838642
3085.000000	99.840015
3084.000000	99.841530
3083.000000	99.843183
3082.000000	99.844912
3081.000000	99.846637
3080.000000	99.848272
3079.000000	99.849741
3078.000000	99.851051
3077.000000	99.852329
3076.000000	99.853744
3075.000000	99.855380
3074.000000	99.857193
3073.000000	99.859026
3072.000000	99.860703
3071.000000	99.862123
3070.000000	99.863242
3069.000000	99.864059
3068.000000	99.864703
3067.000000	99.865464
3066.000000	99.866613
3065.000000	99.868144
3064.000000	99.869691
3063.000000	99.870828
3062.000000	99.871442
3061.000000	99.871804
3060.000000	99.872351
3059.000000	99.873354
3058.000000	99.874828
3057.000000	99.876611
3056.000000	99.878513
3055.000000	99.880428
3054.000000	99.882329
3053.000000	99.884205
3052.000000	99.885992
3051.000000	99.887542
3050.000000	99.888711
3049.000000	99.889506
3048.000000	99.890169
3047.000000	99.891017
3046.000000	99.892144
3045.000000	99.893339
3044.000000	99.894344
3043.000000	99.895191
3042.000000	99.896226
3041.000000	99.897775
3040.000000	99.899779
3039.000000	99.901763
3038.000000	99.903187
3037.000000	99.903864
3036.000000	99.904080
3035.000000	99.904290
3034.000000	99.904697
3033.000000	99.905261
3032.000000	99.906150
3031.000000	99.907919
3030.000000	99.910936
3029.000000	99.914714
3028.000000	99.918124
3027.000000	99.920521
3026.000000	99.922438
3025.000000	99.924901
3024.000000	99.928068
3023.000000	99.930881
3022.000000	99.932335
3021.000000	99.932652
3020.000000	99.933109
3019.000000	99.934583
3018.000000	99.936634
3017.000000	99.938424
3016.000000	99.940193
3015.000000	99.943089
3014.000000	99.947570
3013.000000	99.952478
3012.000000	99.956121
3011.000000	99.958045
3010.000000	99.959302
3009.000000	99.961156
3008.000000	99.963767
3007.000000	99.966140
3006.000000	99.967144
3005.000000	99.966679
3004.000000	99.966066
3003.000000	99.967105
3002.000000	99.970606
3001.000000	99.975809
3000.000000	99.981136
2999.000000	99.985376
2998.000000	99.988162
2997.000000	99.989708
2996.000000	99.990389
2995.000000	99.990574
2994.000000	99.990814
2993.000000	99.992175
2992.000000	99.995960
2991.000000	100.002582
2990.000000	100.010595
2989.000000	100.017430
2988.000000	100.021421
2987.000000	100.022831
2986.000000	100.023238
2985.000000	100.024448
2984.000000	100.027986
2983.000000	100.034455
2982.000000	100.042588
2981.000000	100.049545
2980.000000	100.053105
2979.000000	100.053418
2978.000000	100.052329
2977.000000	100.051442
2976.000000	100.051519
2975.000000	100.053176
2974.000000	100.056689
2973.000000	100.060837
2972.000000	100.062968
2971.000000	100.060912
2970.000000	100.054679
2969.000000	100.046408
2968.000000	100.038943
2967.000000	100.034302
2966.000000	100.032835
2965.000000	100.033366
2964.000000	100.034376
2963.000000	100.035347
2962.000000	100.036809
2961.000000	100.039001
2960.000000	100.041018
2959.000000	100.041684
2958.000000	100.041004
2957.000000	100.040184
2956.000000	100.040177
2955.000000	100.040655
2954.000000	100.040658
2953.000000	100.040022
2952.000000	100.039807
2951.000000	100.041196
2950.000000	100.044013
2949.000000	100.046443
2948.000000	100.046479
2947.000000	100.043826
2946.000000	100.040402
2945.000000	100.038781
2944.000000	100.039845
2943.000000	100.042261
2942.000000	100.044040
2941.000000	100.044521
2940.000000	100.044565
2939.000000	100.045138
2938.000000	100.046257
2937.000000	100.047325
2936.000000	100.047990
2935.000000	100.048466
2934.000000	100.049223
2933.000000	100.050502
2932.000000	100.052099
2931.000000	100.053546
2930.000000	100.054609
2929.000000	100.055577
2928.000000	100.057000
2927.000000	100.059115
2926.000000	100.061551
2925.000000	100.063570
2924.000000	100.064767
2923.000000	100.065302
2922.000000	100.065651
2921.000000	100.066223
2920.000000	100.067214
2919.000000	100.068579
2918.000000	100.070031
2917.000000	100.071289
2916.000000	100.072497
2915.000000	100.074149
2914.000000	100.076464
2913.000000	100.078978
2912.000000	100.080966
2911.000000	100.082193
2910.000000	100.082959
2909.000000	100.083584
2908.000000	100.084135
2907.000000	100.084700
2906.000000	100.085505
2905.000000	100.086590
2904.000000	100.087681
2903.000000	100.088608
2902.000000	100.089636
2901.000000	100.091095
2900.000000	100.092883
2899.000000	100.094565
2898.000000	100.095935
2897.000000	100.097214
2896.000000	100.098710
2895.000000	100.100416
2894.000000	100.102020
2893.000000	100.103204
2892.000000	100.103863
2891.000000	100.104068
2890.000000	100.103984
2889.000000	100.103897
2888.000000	100.104165
2887.000000	100.104945
2886.000000	100.105969
2885.000000	100.106786
2884.000000	100.107328
2883.000000	100.108022
2882.000000	100.109213
2881.000000	100.110664
2880.000000	100.111825
2879.000000	100.112490
2878.000000	100.112917
2877.000000	100.113434
2876.000000	100.114094
2875.000000	100.114761
2874.000000	100.115340
2873.000000	100.115766
2872.000000	100.115904
2871.000000	100.115660
2870.000000	100.115172
2869.000000	100.114820
2868.000000	100.114972
2867.000000	100.115707
2866.000000	100.116807
2865.000000	100.117937
2864.000000	100.118901
2863.000000	100.119675
2862.000000	100.120217
2861.000000	100.120412
2860.000000	100.120263
2859.000000	100.120110
2858.000000	100.120442
2857.000000	100.121448
2856.000000	100.122874
2855.000000	100.124225
2854.000000	100.125218
2853.000000	100.125895
2852.000000	100.126399
2851.000000	100.126794
2850.000000	100.127081
2849.000000	100.127268
2848.000000	100.127379
2847.000000	100.127498
2846.000000	100.127858
2845.000000	100.128729
2844.000000	100.130104
2843.000000	100.131564
2842.000000	100.132641
2841.000000	100.133265
2840.000000	100.133723
2839.000000	100.134205
2838.000000	100.134577
2837.000000	100.134746
2836.000000	100.135054
2835.000000	100.136006
2834.000000	100.137702
2833.000000	100.139735
2832.000000	100.141604
2831.000000	100.143084
2830.000000	100.144172
2829.000000	100.144936
2828.000000	100.145560
2827.000000	100.146346
2826.000000	100.147485
2825.000000	100.148840
2824.000000	100.150064
2823.000000	100.150951
2822.000000	100.151583
2821.000000	100.152176
2820.000000	100.152892
2819.000000	100.153811
2818.000000	100.154963
2817.000000	100.156296
2816.000000	100.157637
2815.000000	100.158750
2814.000000	100.159483
2813.000000	100.159943
2812.000000	100.160471
2811.000000	100.161416
2810.000000	100.162791
2809.000000	100.164162
2808.000000	100.165012
2807.000000	100.165279
2806.000000	100.165467
2805.000000	100.166167
2804.000000	100.167487
2803.000000	100.168950
2802.000000	100.169903
2801.000000	100.170100
2800.000000	100.169927
2799.000000	100.170073
2798.000000	100.170852
2797.000000	100.171893
2796.000000	100.172529
2795.000000	100.172455
2794.000000	100.171994
2793.000000	100.171846
2792.000000	100.172604
2791.000000	100.174353
2790.000000	100.176494
2789.000000	100.178032
2788.000000	100.178349
2787.000000	100.177749
2786.000000	100.177199
2785.000000	100.177413
2784.000000	100.178318
2783.000000	100.179410
2782.000000	100.180356
2781.000000	100.181236
2780.000000	100.182380
2779.000000	100.184118
2778.000000	100.186567
2777.000000	100.189433
2776.000000	100.192038
2775.000000	100.193679
2774.000000	100.194142
2773.000000	100.193961
2772.000000	100.194151
2771.000000	100.195413
2770.000000	100.197468
2769.000000	100.199225
2768.000000	100.199828
2767.000000	100.199417
2766.000000	100.198853
2765.000000	100.198847
2764.000000	100.199464
2763.000000	100.200355
2762.000000	100.201136
2761.000000	100.201622
2760.000000	100.201946
2759.000000	100.202500
2758.000000	100.203558
2757.000000	100.204917
2756.000000	100.206056
2755.000000	100.206690
2754.000000	100.207012
2753.000000	100.207372
2752.000000	100.207900
2751.000000	100.208512
2750.000000	100.209143
2749.000000	100.209843
2748.000000	100.210702
2747.000000	100.211760
2746.000000	100.212949
2745.000000	100.214078
2744.000000	100.214978
2743.000000	100.215664
2742.000000	100.216275
2741.000000	100.216933
2740.000000	100.217654
2739.000000	100.218400
2738.000000	100.219135
2737.000000	100.219845
2736.000000	100.220529
2735.000000	100.221200
2734.000000	100.221873
2733.000000	100.222564
2732.000000	100.223284
2731.000000	100.224032
2730.000000	100.224799
2729.000000	100.225570
2728.000000	100.226340
2727.000000	100.227112
2726.000000	100.227889
2725.000000	100.228670
2724.000000	100.229447
2723.000000	100.230211
2722.000000	100.230960
2721.000000	100.231691
2720.000000	100.232408
2719.000000	100.233116
2718.000000	100.233808
2717.000000	100.234464
2716.000000	100.235061
2715.000000	100.235594
2714.000000	100.236097
2713.000000	100.236623
2712.000000	100.237195
2711.000000	100.237776
2710.000000	100.238314
2709.000000	100.238788
2708.000000	100.239216
2707.000000	100.239640
2706.000000	100.240121
2705.000000	100.240728
2704.000000	100.241463
2703.000000	100.242178
2702.000000	100.242680
2701.000000	100.242975
2700.000000	100.243335
2699.000000	100.243971
2698.000000	100.244707
2697.000000	100.245144
2696.000000	100.245175
2695.000000	100.245174
2694.000000	100.245619
2693.000000	100.246635
2692.000000	100.247981
2691.000000	100.249331
2690.000000	100.250408
2689.000000	100.250944
2688.000000	100.250750
2687.000000	100.249943
2686.000000	100.249015
2685.000000	100.248520
2684.000000	100.248679
2683.000000	100.249261
2682.000000	100.249771
2681.000000	100.249844
2680.000000	100.249503
2679.000000	100.249074
2678.000000	100.248819
2677.000000	100.248718
2676.000000	100.248675
2675.000000	100.248806
2674.000000	100.249376
2673.000000	100.250498
2672.000000	100.251927
2671.000000	100.253219
2670.000000	100.254076
2669.000000	100.254486
2668.000000	100.254625
2667.000000	100.254700
2666.000000	100.254884
2665.000000	100.255307
2664.000000	100.256017
2663.000000	100.256937
2662.000000	100.257887
2661.000000	100.258702
2660.000000	100.259321
2659.000000	100.259761
2658.000000	100.260066
2657.000000	100.260298
2656.000000	100.260571
2655.000000	100.261003
2654.000000	100.261622
2653.000000	100.262330
2652.000000	100.263000
2651.000000	100.263587
2650.000000	100.264147
2649.000000	100.264764
2648.000000	100.265461
2647.000000	100.266205
2646.000000	100.266941
2645.000000	100.267636
2644.000000	100.268287
2643.000000	100.268908
2642.000000	100.269502
2641.000000	100.270065
2640.000000	100.270604
2639.000000	100.271122
2638.000000	100.271628
2637.000000	100.272136
2636.000000	100.272649
2635.000000	100.273161
2634.000000	100.273660
2633.000000	100.274136
2632.000000	100.274590
2631.000000	100.275035
2630.000000	100.275482
2629.000000	100.275934
2628.000000	100.276389
2627.000000	100.276839
2626.000000	100.277281
2625.000000	100.277717
2624.000000	100.278147
2623.000000	100.278569
2622.000000	100.278980
2621.000000	100.279376
2620.000000	100.279758
2619.000000	100.280130
2618.000000	100.280498
2617.000000	100.280867
2616.000000	100.281232
2615.000000	100.281583
2614.000000	100.281914
2613.000000	100.282226
2612.000000	100.282521
2611.000000	100.282800
2610.000000	100.283059
2609.000000	100.283291
2608.000000	100.283493
2607.000000	100.283663
2606.000000	100.283803
2605.000000	100.283914
2604.000000	100.284002
2603.000000	100.284083
2602.000000	100.284176
2601.000000	100.284298
2600.000000	100.284452
2599.000000	100.284633
2598.000000	100.284835
2597.000000	100.285056
2596.000000	100.285293
2595.000000	100.285542
2594.000000	100.285795
2593.000000	100.286051
2592.000000	100.286320
2591.000000	100.286615
2590.000000	100.286938
2589.000000	100.287265
2588.000000	100.287567
2587.000000	100.287832
2586.000000	100.288086
2585.000000	100.288371
2584.000000	100.288710
2583.000000	100.289072
2582.000000	100.289376
2581.000000	100.289563
2580.000000	100.289686
2579.000000	100.289899
2578.000000	100.290310
2577.000000	100.290832
2576.000000	100.291229
2575.000000	100.291333
2574.000000	100.291163
2573.000000	100.290873
2572.000000	100.290625
2571.000000	100.290525
2570.000000	100.290634
2569.000000	100.290935
2568.000000	100.291304
2567.000000	100.291591
2566.000000	100.291756
2565.000000	100.291937
2564.000000	100.292424
2563.000000	100.293508
2562.000000	100.295198
2561.000000	100.296976
2560.000000	100.298036
2559.000000	100.297992
2558.000000	100.297227
2557.000000	100.296667
2556.000000	100.296884
2555.000000	100.297706
2554.000000	100.298619
2553.000000	100.299331
2552.000000	100.299917
2551.000000	100.300567
2550.000000	100.301394
2549.000000	100.302375
2548.000000	100.303253
2547.000000	100.303580
2546.000000	100.303072
2545.000000	100.301952
2544.000000	100.300789
2543.000000	100.299949
2542.000000	100.299388
2541.000000	100.298952
2540.000000	100.298703
2539.000000	100.298827
2538.000000	100.299321
2537.000000	100.299964
2536.000000	100.300499
2535.000000	100.300725
2534.000000	100.300518
2533.000000	100.299972
2532.000000	100.299553
2531.000000	100.299905
2530.000000	100.301349
2529.000000	100.303518
2528.000000	100.305509
2527.000000	100.306594
2526.000000	100.306761
2525.000000	100.306549
2524.000000	100.306377
2523.000000	100.306126
2522.000000	100.305502
2521.000000	100.304627
2520.000000	100.304077
2519.000000	100.304325
2518.000000	100.305304
2517.000000	100.306497
2516.000000	100.307303
2515.000000	100.307409
2514.000000	100.306950
2513.000000	100.306461
2512.000000	100.306473
2511.000000	100.307029
2510.000000	100.307702
2509.000000	100.308065
2508.000000	100.307987
2507.000000	100.307483
2506.000000	100.306574
2505.000000	100.305485
2504.000000	100.304760
2503.000000	100.304836
2502.000000	100.305658
2501.000000	100.306955
2500.000000	100.308700
2499.000000	100.310904
2498.000000	100.313043
2497.000000	100.314221
2496.000000	100.314091
2495.000000	100.313261
2494.000000	100.312745
2493.000000	100.312935
2492.000000	100.313481
2491.000000	100.314041
2490.000000	100.314725
2489.000000	100.315719
2488.000000	100.316760
2487.000000	100.317308
2486.000000	100.317195
2485.000000	100.316856
2484.000000	100.316888
2483.000000	100.317464
2482.000000	100.318224
2481.000000	100.318624
2480.000000	100.318362
2479.000000	100.317602
2478.000000	100.316907
2477.000000	100.316837
2476.000000	100.317499
2475.000000	100.318452
2474.000000	100.319131
2473.000000	100.319354
2472.000000	100.319367
2471.000000	100.319465
2470.000000	100.319684
2469.000000	100.319813
2468.000000	100.319560
2467.000000	100.318762
2466.000000	100.317638
2465.000000	100.316824
2464.000000	100.316830
2463.000000	100.317452
2462.000000	100.317938
2461.000000	100.317862
2460.000000	100.317563
2459.000000	100.317534
2458.000000	100.317733
2457.000000	100.317800
2456.000000	100.317769
2455.000000	100.318117
2454.000000	100.319075
2453.000000	100.320238
2452.000000	100.320962
2451.000000	100.320912
2450.000000	100.320163
2449.000000	100.319137
2448.000000	100.318461
2447.000000	100.318583
2446.000000	100.319462
2445.000000	100.320697
2444.000000	100.321968
2443.000000	100.323163
2442.000000	100.324140
2441.000000	100.324764
2440.000000	100.325170
2439.000000	100.325682
2438.000000	100.326368
2437.000000	100.326935
2436.000000	100.327175
2435.000000	100.327302
2434.000000	100.327703
2433.000000	100.328516
2432.000000	100.329591
2431.000000	100.330690
2430.000000	100.331621
2429.000000	100.332304
2428.000000	100.332832
2427.000000	100.333426
2426.000000	100.334217
2425.000000	100.335098
2424.000000	100.335821
2423.000000	100.336246
2422.000000	100.336431
2421.000000	100.336575
2420.000000	100.336873
2419.000000	100.337382
2418.000000	100.338011
2417.000000	100.338579
2416.000000	100.338969
2415.000000	100.339226
2414.000000	100.339460
2413.000000	100.339708
2412.000000	100.339930
2411.000000	100.340123
2410.000000	100.340352
2409.000000	100.340681
2408.000000	100.341057
2407.000000	100.341327
2406.000000	100.341392
2405.000000	100.341261
2404.000000	100.341091
2403.000000	100.340996
2402.000000	100.340980
2401.000000	100.341010
2400.000000	100.341074
2399.000000	100.341153
2398.000000	100.341169
2397.000000	100.341027
2396.000000	100.340757
2395.000000	100.340475
2394.000000	100.340273
2393.000000	100.340146
2392.000000	100.340033
2391.000000	100.339878
2390.000000	100.339662
2389.000000	100.339396
2388.000000	100.339101
2387.000000	100.338790
2386.000000	100.338466
2385.000000	100.338124
2384.000000	100.337759
2383.000000	100.337366
2382.000000	100.336946
2381.000000	100.336505
2380.000000	100.336055
2379.000000	100.335606
2378.000000	100.335165
2377.000000	100.334734
2376.000000	100.334315
2375.000000	100.333912
2374.000000	100.333527
2373.000000	100.333155
2372.000000	100.332781
2371.000000	100.332391
2370.000000	100.331966
2369.000000	100.331496
2368.000000	100.330982
2367.000000	100.330436
2366.000000	100.329877
2365.000000	100.329321
2364.000000	100.328785
2363.000000	100.328289
2362.000000	100.327846
2361.000000	100.327444
2360.000000	100.327050
2359.000000	100.326636
2358.000000	100.326187
2357.000000	100.325707
2356.000000	100.325218
2355.000000	100.324752
2354.000000	100.324330
2353.000000	100.323947
2352.000000	100.323578
2351.000000	100.323206
2350.000000	100.322835
2349.000000	100.322481
2348.000000	100.322152
2347.000000	100.321841
2346.000000	100.321535
2345.000000	100.321235
2344.000000	100.320953
2343.000000	100.320708
2342.000000	100.320512
2341.000000	100.320375
2340.000000	100.320304
2339.000000	100.320294
2338.000000	100.320330
2337.000000	100.320386
2336.000000	100.320446
2335.000000	100.320503
2334.000000	100.320559
2333.000000	100.320618
2332.000000	100.320687
2331.000000	100.320771
2330.000000	100.320872
2329.000000	100.320988
2328.000000	100.321117
2327.000000	100.321268
2326.000000	100.321451
2325.000000	100.321671
2324.000000	100.321909
2323.000000	100.322146
2322.000000	100.322381
2321.000000	100.322657
2320.000000	100.323048
2319.000000	100.323549
2318.000000	100.324088
2317.000000	100.324538
2316.000000	100.324845
2315.000000	100.324918
2314.000000	100.324938
2313.000000	100.325134
2312.000000	100.325882
2311.000000	100.326961
2310.000000	100.327975
2309.000000	100.328454
2308.000000	100.328502
2307.000000	100.328213
2306.000000	100.327681
2305.000000	100.326942
2304.000000	100.326616
2303.000000	100.327229
2302.000000	100.328891
2301.000000	100.330794
2300.000000	100.332350
2299.000000	100.333295
2298.000000	100.333760
2297.000000	100.333478
2296.000000	100.332521
2295.000000	100.331341
2294.000000	100.330467
2293.000000	100.329666
2292.000000	100.328459
2291.000000	100.326973
2290.000000	100.325893
2289.000000	100.325537
2288.000000	100.325373
2287.000000	100.324800
2286.000000	100.323781
2285.000000	100.322813
2284.000000	100.322334
2283.000000	100.322526
2282.000000	100.323089
2281.000000	100.323231
2280.000000	100.322201
2279.000000	100.320150
2278.000000	100.318179
2277.000000	100.317240
2276.000000	100.317295
2275.000000	100.317683
2274.000000	100.318049
2273.000000	100.318433
2272.000000	100.318841
2271.000000	100.319088
2270.000000	100.319073
2269.000000	100.318847
2268.000000	100.318530
2267.000000	100.318306
2266.000000	100.318413
2265.000000	100.318757
2264.000000	100.318684
2263.000000	100.317516
2262.000000	100.315377
2261.000000	100.313305
2260.000000	100.312203
2259.000000	100.311918
2258.000000	100.311517
2257.000000	100.310476
2256.000000	100.309235
2255.000000	100.308539
2254.000000	100.308515
2253.000000	100.308535
2252.000000	100.307943
2251.000000	100.306603
2250.000000	100.304897
2249.000000	100.303447
2248.000000	100.302906
2247.000000	100.303601
2246.000000	100.305118
2245.000000	100.306480
2244.000000	100.307111
2243.000000	100.307389
2242.000000	100.307972
2241.000000	100.308874
2240.000000	100.309509
2239.000000	100.309482
2238.000000	100.308914
2237.000000	100.308099
2236.000000	100.307236
2235.000000	100.306474
2234.000000	100.305871
2233.000000	100.305313
2232.000000	100.304762
2231.000000	100.304572
2230.000000	100.305164
2229.000000	100.306380
2228.000000	100.307420
2227.000000	100.307605
2226.000000	100.306992
2225.000000	100.306146
2224.000000	100.305551
2223.000000	100.305328
2222.000000	100.305408
2221.000000	100.305701
2220.000000	100.306097
2219.000000	100.306462
2218.000000	100.306663
2217.000000	100.306562
2216.000000	100.306051
2215.000000	100.305209
2214.000000	100.304440
2213.000000	100.304261
2212.000000	100.304882
2211.000000	100.306038
2210.000000	100.307198
2209.000000	100.307996
2208.000000	100.308443
2207.000000	100.308780
2206.000000	100.309178
2205.000000	100.309625
2204.000000	100.310080
2203.000000	100.310641
2202.000000	100.311399
2201.000000	100.312151
2200.000000	100.312499
2199.000000	100.312310
2198.000000	100.311959
2197.000000	100.311948
2196.000000	100.312338
2195.000000	100.312782
2194.000000	100.313066
2193.000000	100.313413
2192.000000	100.314176
2191.000000	100.315400
2190.000000	100.316746
2189.000000	100.317724
2188.000000	100.317957
2187.000000	100.317358
2186.000000	100.316255
2185.000000	100.315283
2184.000000	100.314993
2183.000000	100.315506
2182.000000	100.316577
2181.000000	100.317884
2180.000000	100.319178
2179.000000	100.320296
2178.000000	100.321104
2177.000000	100.321475
2176.000000	100.321341
2175.000000	100.320811
2174.000000	100.320224
2173.000000	100.319940
2172.000000	100.319999
2171.000000	100.320063
2170.000000	100.319772
2169.000000	100.319149
2168.000000	100.318588
2167.000000	100.318459
2166.000000	100.318796
2165.000000	100.319382
2164.000000	100.320031
2163.000000	100.320674
2162.000000	100.321222
2161.000000	100.321508
2160.000000	100.321475
2159.000000	100.321288
2158.000000	100.321099
2157.000000	100.320751
2156.000000	100.319899
2155.000000	100.318451
2154.000000	100.316830
2153.000000	100.315780
2152.000000	100.315811
2151.000000	100.316795
2150.000000	100.317913
2149.000000	100.318205
2148.000000	100.317396
2147.000000	100.316182
2146.000000	100.315624
2145.000000	100.316217
2144.000000	100.317607
2143.000000	100.318950
2142.000000	100.319403
2141.000000	100.318478
2140.000000	100.316468
2139.000000	100.314633
2138.000000	100.314289
2137.000000	100.315613
2136.000000	100.317608
2135.000000	100.319269
2134.000000	100.320458
2133.000000	100.321370
2132.000000	100.321985
2131.000000	100.322448
2130.000000	100.323333
2129.000000	100.324869
2128.000000	100.326355
2127.000000	100.327042
2126.000000	100.327272
2125.000000	100.327984
2124.000000	100.329249
2123.000000	100.330160
2122.000000	100.330234
2121.000000	100.330063
2120.000000	100.330376
2119.000000	100.331117
2118.000000	100.331777
2117.000000	100.332054
2116.000000	100.331826
2115.000000	100.330955
2114.000000	100.329542
2113.000000	100.328183
2112.000000	100.327587
2111.000000	100.328046
2110.000000	100.329440
2109.000000	100.331475
2108.000000	100.333782
2107.000000	100.335882
2106.000000	100.337267
2105.000000	100.337673
2104.000000	100.337236
2103.000000	100.336436
2102.000000	100.335837
2101.000000	100.335706
2100.000000	100.335913
2099.000000	100.336187
2098.000000	100.336404
2097.000000	100.336577
2096.000000	100.336723
2095.000000	100.336923
2094.000000	100.337391
2093.000000	100.338239
2092.000000	100.339165
2091.000000	100.339627
2090.000000	100.339473
2089.000000	100.339161
2088.000000	100.339231
2087.000000	100.339709
2086.000000	100.340252
2085.000000	100.340660
2084.000000	100.340947
2083.000000	100.340999
2082.000000	100.340550
2081.000000	100.339621
2080.000000	100.338776
2079.000000	100.338693
2078.000000	100.339587
2077.000000	100.341048
2076.000000	100.342338
2075.000000	100.342903
2074.000000	100.342585
2073.000000	100.341609
2072.000000	100.340527
2071.000000	100.340005
2070.000000	100.340383
2069.000000	100.341260
2068.000000	100.341631
2067.000000	100.340790
2066.000000	100.339090
2065.000000	100.337671
2064.000000	100.337308
2063.000000	100.337850
2062.000000	100.338847
2061.000000	100.340182
2060.000000	100.341796
2059.000000	100.343182
2058.000000	100.343730
2057.000000	100.343376
2056.000000	100.342376
2055.000000	100.340629
2054.000000	100.337877
2053.000000	100.334456
2052.000000	100.331236
2051.000000	100.328735
2050.000000	100.326771
2049.000000	100.325173
2048.000000	100.324362
2047.000000	100.324805
2046.000000	100.326095
2045.000000	100.326995
2044.000000	100.326548
2043.000000	100.324921
2042.000000	100.322980
2041.000000	100.321219
2040.000000	100.319374
2039.000000	100.317119
2038.000000	100.314710
2037.000000	100.312658
2036.000000	100.311018
2035.000000	100.309429
2034.000000	100.307823
2033.000000	100.306632
2032.000000	100.306164
2031.000000	100.306148
2030.000000	100.306062
2029.000000	100.305666
2028.000000	100.305090
2027.000000	100.304615
2026.000000	100.304440
2025.000000	100.304428
2024.000000	100.304041
2023.000000	100.302761
2022.000000	100.300660
2021.000000	100.298463
2020.000000	100.296953
2019.000000	100.296381
2018.000000	100.296469
2017.000000	100.296650
2016.000000	100.296341
2015.000000	100.295263
2014.000000	100.293587
2013.000000	100.291871
2012.000000	100.290673
2011.000000	100.290172
2010.000000	100.290184
2009.000000	100.290406
2008.000000	100.290571
2007.000000	100.290433
2006.000000	100.289870
2005.000000	100.289052
2004.000000	100.288300
2003.000000	100.287687
2002.000000	100.286977
2001.000000	100.285987
2000.000000	100.284771
1999.000000	100.283432
1998.000000	100.281999
1997.000000	100.280702
1996.000000	100.280061
1995.000000	100.280436
1994.000000	100.281587
1993.000000	100.282759
1992.000000	100.283355
1991.000000	100.283400
1990.000000	100.283336
1989.000000	100.283536
1988.000000	100.284027
1987.000000	100.284549
1986.000000	100.284817
1985.000000	100.284777
1984.000000	100.284582
1983.000000	100.284394
1982.000000	100.284231
1981.000000	100.284050
1980.000000	100.283908
1979.000000	100.283971
1978.000000	100.284306
1977.000000	100.284745
1976.000000	100.284995
1975.000000	100.284933
1974.000000	100.284716
1973.000000	100.284617
1972.000000	100.284784
1971.000000	100.285169
1970.000000	100.285648
1969.000000	100.286111
1968.000000	100.286453
1967.000000	100.286584
1966.000000	100.286541
1965.000000	100.286542
1964.000000	100.286811
1963.000000	100.287346
1962.000000	100.287920
1961.000000	100.288335
1960.000000	100.288651
1959.000000	100.289068
1958.000000	100.289691
1957.000000	100.290463
1956.000000	100.291192
1955.000000	100.291642
1954.000000	100.291666
1953.000000	100.291352
1952.000000	100.291080
1951.000000	100.291243
1950.000000	100.291954
1949.000000	100.292909
1948.000000	100.293601
1947.000000	100.293736
1946.000000	100.293462
1945.000000	100.293289
1944.000000	100.293630
1943.000000	100.294322
1942.000000	100.294669
1941.000000	100.294206
1940.000000	100.293217
1939.000000	100.292335
1938.000000	100.291830
1937.000000	100.291412
1936.000000	100.290719
1935.000000	100.289916
1934.000000	100.289612
1933.000000	100.290120
1932.000000	100.290936
1931.000000	100.291267
1930.000000	100.291124
1929.000000	100.291265
1928.000000	100.291884
1927.000000	100.292029
1926.000000	100.290808
1925.000000	100.288674
1924.000000	100.286600
1923.000000	100.284373
1922.000000	100.280952
1921.000000	100.276685
1920.000000	100.273815
1919.000000	100.274340
1918.000000	100.277753
1917.000000	100.281176
1916.000000	100.282465
1915.000000	100.281798
1914.000000	100.280015
1913.000000	100.277122
1912.000000	100.272704
1911.000000	100.267070
1910.000000	100.261432
1909.000000	100.256912
1908.000000	100.253701
1907.000000	100.251248
1906.000000	100.248917
1905.000000	100.246491
1904.000000	100.244122
1903.000000	100.242264
1902.000000	100.241404
1901.000000	100.241533
1900.000000	100.242112
1899.000000	100.242565
1898.000000	100.242297
1897.000000	100.240329
1896.000000	100.235598
1895.000000	100.228575
1894.000000	100.222050
1893.000000	100.218822
1892.000000	100.218960
1891.000000	100.220226
1890.000000	100.220953
1889.000000	100.221790
1888.000000	100.223935
1887.000000	100.226655
1886.000000	100.227934
1885.000000	100.227022
1884.000000	100.225272
1883.000000	100.224371
1882.000000	100.224389
1881.000000	100.223929
1880.000000	100.221924
1879.000000	100.218837
1878.000000	100.216065
1877.000000	100.214664
1876.000000	100.214634
1875.000000	100.215300
1874.000000	100.216227
1873.000000	100.217348
1872.000000	100.218410
1871.000000	100.219038
1870.000000	100.219450
1869.000000	100.220249
1868.000000	100.221007
1867.000000	100.220375
1866.000000	100.218018
1865.000000	100.215342
1864.000000	100.214335
1863.000000	100.216046
1862.000000	100.220313
1861.000000	100.226336
1860.000000	100.232859
1859.000000	100.238272
1858.000000	100.241761
1857.000000	100.244614
1856.000000	100.249300
1855.000000	100.256498
1854.000000	100.263612
1853.000000	100.267093
1852.000000	100.266250
1851.000000	100.263974
1850.000000	100.263630
1849.000000	100.266165
1848.000000	100.270096
1847.000000	100.273441
1846.000000	100.275121
1845.000000	100.275280
1844.000000	100.275278
1843.000000	100.276536
1842.000000	100.278947
1841.000000	100.281059
1840.000000	100.281740
1839.000000	100.281331
1838.000000	100.281313
1837.000000	100.282682
1836.000000	100.284803
1835.000000	100.286483
1834.000000	100.287652
1833.000000	100.289383
1832.000000	100.292424
1831.000000	100.295971
1830.000000	100.298015
1829.000000	100.297762
1828.000000	100.296607
1827.000000	100.295939
1826.000000	100.295733
1825.000000	100.295550
1824.000000	100.295616
1823.000000	100.296469
1822.000000	100.298046
1821.000000	100.299683
1820.000000	100.300728
1819.000000	100.300915
1818.000000	100.300291
1817.000000	100.299064
1816.000000	100.297596
1815.000000	100.296471
1814.000000	100.296268
1813.000000	100.297155
1812.000000	100.298590
1811.000000	100.299494
1810.000000	100.299246
1809.000000	100.298273
1808.000000	100.297456
1807.000000	100.297299
1806.000000	100.297740
1805.000000	100.298415
1804.000000	100.298905
1803.000000	100.298917
1802.000000	100.298491
1801.000000	100.298062
1800.000000	100.298122
1799.000000	100.298559
1798.000000	100.298721
1797.000000	100.298184
1796.000000	100.297346
1795.000000	100.297192
1794.000000	100.298400
1793.000000	100.300542
1792.000000	100.302048
1791.000000	100.301881
1790.000000	100.300992
1789.000000	100.300955
1788.000000	100.302220
1787.000000	100.303997
1786.000000	100.305060
1785.000000	100.304856
1784.000000	100.303942
1783.000000	100.303273
1782.000000	100.303256
1781.000000	100.303751
1780.000000	100.304800
1779.000000	100.306538
1778.000000	100.308864
1777.000000	100.311463
1776.000000	100.314260
1775.000000	100.317425
1774.000000	100.320714
1773.000000	100.323245
1772.000000	100.324070
1771.000000	100.323189
1770.000000	100.321852
1769.000000	100.321569
1768.000000	100.323341
1767.000000	100.326994
1766.000000	100.331011
1765.000000	100.333786
1764.000000	100.334705
1763.000000	100.334170
1762.000000	100.333367
1761.000000	100.333753
1760.000000	100.336313
1759.000000	100.340595
1758.000000	100.344637
1757.000000	100.345905
1756.000000	100.343820
1755.000000	100.340599
1754.000000	100.338321
1753.000000	100.336939
1752.000000	100.335701
1751.000000	100.334950
1750.000000	100.335544
1749.000000	100.337280
1748.000000	100.338821
1747.000000	100.339039
1746.000000	100.337484
1745.000000	100.334364
1744.000000	100.330733
1743.000000	100.327910
1742.000000	100.326419
1741.000000	100.325818
1740.000000	100.325596
1739.000000	100.325782
1738.000000	100.326651
1737.000000	100.327849
1736.000000	100.327862
1735.000000	100.324805
1734.000000	100.318985
1733.000000	100.313418
1732.000000	100.310056
1731.000000	100.308172
1730.000000	100.306519
1729.000000	100.304486
1728.000000	100.302477
1727.000000	100.301085
1726.000000	100.299928
1725.000000	100.297968
1724.000000	100.294764
1723.000000	100.290889
1722.000000	100.287271
1721.000000	100.284156
1720.000000	100.281011
1719.000000	100.277219
1718.000000	100.272995
1717.000000	100.269392
1716.000000	100.266566
1715.000000	100.263681
1714.000000	100.260309
1713.000000	100.256408
1712.000000	100.251742
1711.000000	100.246194
1710.000000	100.240262
1709.000000	100.234818
1708.000000	100.230343
1707.000000	100.226629
1706.000000	100.223258
1705.000000	100.220223
1704.000000	100.217609
1703.000000	100.214790
1702.000000	100.210232
1701.000000	100.202889
1700.000000	100.194626
1699.000000	100.188481
1698.000000	100.184489
1697.000000	100.180877
1696.000000	100.176165
1695.000000	100.170219
1694.000000	100.163970
1693.000000	100.158075
1692.000000	100.152688
1691.000000	100.147554
1690.000000	100.142193
1689.000000	100.136424
1688.000000	100.130815
1687.000000	100.125968
1686.000000	100.121421
1685.000000	100.116017
1684.000000	100.109066
1683.000000	100.101506
1682.000000	100.095113
1681.000000	100.089868
1680.000000	100.085229
1679.000000	100.081074
1678.000000	100.077303
1677.000000	100.073217
1676.000000	100.068140
1675.000000	100.062402
1674.000000	100.056915
1673.000000	100.052157
1672.000000	100.048505
1671.000000	100.046409
1670.000000	100.045436
1669.000000	100.043467
1668.000000	100.039379
1667.000000	100.034368
1666.000000	100.029375
1665.000000	100.023975
1664.000000	100.017332
1663.000000	100.009655
1662.000000	100.002522
1661.000000	99.997289
1660.000000	99.994424
1659.000000	99.993649
1658.000000	99.993701
1657.000000	99.993185
1656.000000	99.991515
1655.000000	99.988037
1654.000000	99.980870
1653.000000	99.969990
1652.000000	99.960003
1651.000000	99.954686
1650.000000	99.952714
1649.000000	99.953378
1648.000000	99.954102
1647.000000	99.952106
1646.000000	99.947663
1645.000000	99.943484
1644.000000	99.940299
1643.000000	99.938117
1642.000000	99.937388
1641.000000	99.937196
1640.000000	99.936345
1639.000000	99.935858
1638.000000	99.938423
1637.000000	99.944730
1636.000000	99.949880
1635.000000	99.948107
1634.000000	99.942426
1633.000000	99.938783
1632.000000	99.937956
1631.000000	99.938017
1630.000000	99.937282
1629.000000	99.935344
1628.000000	99.932439
1627.000000	99.929403
1626.000000	99.927831
1625.000000	99.929107
1624.000000	99.933538
1623.000000	99.939493
1622.000000	99.944495
1621.000000	99.948039
1620.000000	99.951786
1619.000000	99.957300
1618.000000	99.964335
1617.000000	99.970565
1616.000000	99.973687
1615.000000	99.975222
1614.000000	99.978473
1613.000000	99.983990
1612.000000	99.989457
1611.000000	99.992702
1610.000000	99.994240
1609.000000	99.995950
1608.000000	99.998236
1607.000000	99.999778
1606.000000	99.999671
1605.000000	99.998553
1604.000000	99.998095
1603.000000	99.999333
1602.000000	100.001945
1601.000000	100.005281
1600.000000	100.009441
1599.000000	100.015030
1598.000000	100.022175
1597.000000	100.030163
1596.000000	100.037893
1595.000000	100.044460
1594.000000	100.049448
1593.000000	100.052831
1592.000000	100.054873
1591.000000	100.056220
1590.000000	100.057740
1589.000000	100.059926
1588.000000	100.062544
1587.000000	100.065127
1586.000000	100.067728
1585.000000	100.070838
1584.000000	100.074648
1583.000000	100.078724
1582.000000	100.082281
1581.000000	100.085096
1580.000000	100.087887
1579.000000	100.091624
1578.000000	100.096572
1577.000000	100.101899
1576.000000	100.106008
1575.000000	100.108121
1574.000000	100.109137
1573.000000	100.110321
1572.000000	100.112221
1571.000000	100.114813
1570.000000	100.117879
1569.000000	100.120977
1568.000000	100.123907
1567.000000	100.126800
1566.000000	100.129567
1565.000000	100.131991
1564.000000	100.134038
1563.000000	100.135985
1562.000000	100.137884
1561.000000	100.139278
1560.000000	100.140026
1559.000000	100.141091
1558.000000	100.143162
1557.000000	100.146266
1556.000000	100.149726
1555.000000	100.152881
1554.000000	100.155335
1553.000000	100.157204
1552.000000	100.159069
1551.000000	100.161332
1550.000000	100.163828
1549.000000	100.166077
1548.000000	100.167846
1547.000000	100.169281
1546.000000	100.170698
1545.000000	100.172475
1544.000000	100.174773
1543.000000	100.177381
1542.000000	100.180056
1541.000000	100.182945
1540.000000	100.186029
1539.000000	100.188570
1538.000000	100.190093
1537.000000	100.190726
1536.000000	100.191157
1535.000000	100.192335
1534.000000	100.194961
1533.000000	100.198363
1532.000000	100.200657
1531.000000	100.201001
1530.000000	100.199988
1529.000000	100.199059
1528.000000	100.199495
1527.000000	100.201405
1526.000000	100.204078
1525.000000	100.207358
1524.000000	100.211695
1523.000000	100.216784
1522.000000	100.221079
1521.000000	100.223379
1520.000000	100.224726
1519.000000	100.226701
1518.000000	100.229171
1517.000000	100.231250
1516.000000	100.233148
1515.000000	100.236314
1514.000000	100.241235
1513.000000	100.246799
1512.000000	100.251538
1511.000000	100.254743
1510.000000	100.256802
1509.000000	100.258373
1508.000000	100.259920
1507.000000	100.261443
1506.000000	100.262886
1505.000000	100.264705
1504.000000	100.266287
1503.000000	100.267424
1502.000000	100.268844
1501.000000	100.271076
1500.000000	100.274304
1499.000000	100.278256
1498.000000	100.282008
1497.000000	100.284433
1496.000000	100.285180
1495.000000	100.285163
1494.000000	100.285719
1493.000000	100.287217
1492.000000	100.288849
1491.000000	100.289522
1490.000000	100.289430
1489.000000	100.290448
1488.000000	100.293833
1487.000000	100.298402
1486.000000	100.302271
1485.000000	100.304541
1484.000000	100.305334
1483.000000	100.305336
1482.000000	100.305438
1481.000000	100.306667
1480.000000	100.309191
1479.000000	100.311718
1478.000000	100.312592
1477.000000	100.311692
1476.000000	100.310695
1475.000000	100.310978
1474.000000	100.311844
1473.000000	100.311429
1472.000000	100.309297
1471.000000	100.306733
1470.000000	100.304576
1469.000000	100.302809
1468.000000	100.301821
1467.000000	100.302269
1466.000000	100.304254
1465.000000	100.306889
1464.000000	100.309206
1463.000000	100.310816
1462.000000	100.311343
1461.000000	100.310760
1460.000000	100.310213
1459.000000	100.311563
1458.000000	100.314755
1457.000000	100.316195
1456.000000	100.313810
1455.000000	100.310632
1454.000000	100.308813
1453.000000	100.308454
1452.000000	100.309328
1451.000000	100.311393
1450.000000	100.313888
1449.000000	100.314965
1448.000000	100.313428
1447.000000	100.310502
1446.000000	100.308094
1445.000000	100.305756
1444.000000	100.301922
1443.000000	100.296233
1442.000000	100.290070
1441.000000	100.285080
1440.000000	100.282005
1439.000000	100.280927
1438.000000	100.281772
1437.000000	100.284123
1436.000000	100.286003
1435.000000	100.285660
1434.000000	100.283589
1433.000000	100.281188
1432.000000	100.279747
1431.000000	100.280248
1430.000000	100.282278
1429.000000	100.283587
1428.000000	100.281836
1427.000000	100.276807
1426.000000	100.270603
1425.000000	100.266007
1424.000000	100.264695
1423.000000	100.265645
1422.000000	100.266345
1421.000000	100.265430
1420.000000	100.263802
1419.000000	100.263214
1418.000000	100.263531
1417.000000	100.264852
1416.000000	100.268394
1415.000000	100.273993
1414.000000	100.279530
1413.000000	100.282893
1412.000000	100.283964
1411.000000	100.284165
1410.000000	100.284551
1409.000000	100.285159
1408.000000	100.285727
1407.000000	100.286374
1406.000000	100.287719
1405.000000	100.290298
1404.000000	100.294086
1403.000000	100.297919
1402.000000	100.300161
1401.000000	100.300451
1400.000000	100.300479
1399.000000	100.302424
1398.000000	100.306015
1397.000000	100.308917
1396.000000	100.309608
1395.000000	100.308743
1394.000000	100.308106
1393.000000	100.308655
1392.000000	100.310254
1391.000000	100.312500
1390.000000	100.315151
1389.000000	100.317901
1388.000000	100.320157
1387.000000	100.321177
1386.000000	100.320798
1385.000000	100.319820
1384.000000	100.319365
1383.000000	100.319965
1382.000000	100.321174
1381.000000	100.322075
1380.000000	100.322213
1379.000000	100.321918
1378.000000	100.321777
1377.000000	100.322025
1376.000000	100.322571
1375.000000	100.323362
1374.000000	100.324430
1373.000000	100.325728
1372.000000	100.327062
1371.000000	100.328171
1370.000000	100.328895
1369.000000	100.329273
1368.000000	100.329543
1367.000000	100.329953
1366.000000	100.330548
1365.000000	100.331180
1364.000000	100.331640
1363.000000	100.331811
1362.000000	100.331824
1361.000000	100.332089
1360.000000	100.332963
1359.000000	100.334426
1358.000000	100.335999
1357.000000	100.337102
1356.000000	100.337593
1355.000000	100.337779
1354.000000	100.337823
1353.000000	100.337560
1352.000000	100.337204
1351.000000	100.337612
1350.000000	100.339265
1349.000000	100.341198
1348.000000	100.341856
1347.000000	100.340861
1346.000000	100.339238
1345.000000	100.338057
1344.000000	100.337564
1343.000000	100.337756
1342.000000	100.338827
1341.000000	100.340601
1340.000000	100.342197
1339.000000	100.342982
1338.000000	100.343245
1337.000000	100.343166
1336.000000	100.342127
1335.000000	100.339781
1334.000000	100.336895
1333.000000	100.334635
1332.000000	100.333647
1331.000000	100.334165
1330.000000	100.336180
1329.000000	100.338997
1328.000000	100.341413
1327.000000	100.342825
1326.000000	100.343528
1325.000000	100.343722
1324.000000	100.343304
1323.000000	100.342791
1322.000000	100.343123
1321.000000	100.344012
1320.000000	100.343971
1319.000000	100.342843
1318.000000	100.342691
1317.000000	100.344604
1316.000000	100.346127
1315.000000	100.344047
1314.000000	100.338604
1313.000000	100.333410
1312.000000	100.331050
1311.000000	100.330768
1310.000000	100.330794
1309.000000	100.330773
1308.000000	100.331280
1307.000000	100.332397
1306.000000	100.333795
1305.000000	100.335374
1304.000000	100.337154
1303.000000	100.338907
1302.000000	100.340351
1301.000000	100.341155
1300.000000	100.340474
1299.000000	100.337426
1298.000000	100.332656
1297.000000	100.328608
1296.000000	100.327082
1295.000000	100.326971
1294.000000	100.325529
1293.000000	100.321744
1292.000000	100.317366
1291.000000	100.314590
1290.000000	100.313735
1289.000000	100.313546
1288.000000	100.312629
1287.000000	100.309836
1286.000000	100.304338
1285.000000	100.296636
1284.000000	100.289063
1283.000000	100.283967
1282.000000	100.281486
1281.000000	100.280131
1280.000000	100.279374
1279.000000	100.280333
1278.000000	100.283635
1277.000000	100.287883
1276.000000	100.290550
1275.000000	100.289389
1274.000000	100.283172
1273.000000	100.273017
1272.000000	100.263639
1271.000000	100.260758
1270.000000	100.265184
1269.000000	100.270805
1268.000000	100.270517
1267.000000	100.263329
1266.000000	100.254278
1265.000000	100.248552
1264.000000	100.247354
1263.000000	100.248529
1262.000000	100.248612
1261.000000	100.244552
1260.000000	100.235958
1259.000000	100.226244
1258.000000	100.219825
1257.000000	100.217914
1256.000000	100.218128
1255.000000	100.217599
1254.000000	100.214957
1253.000000	100.209818
1252.000000	100.202314
1251.000000	100.193483
1250.000000	100.184587
1249.000000	100.175664
1248.000000	100.165962
1247.000000	100.155868
1246.000000	100.146882
1245.000000	100.139319
1244.000000	100.131337
1243.000000	100.120901
1242.000000	100.108065
1241.000000	100.095078
1240.000000	100.084841
1239.000000	100.079056
1238.000000	100.076585
1237.000000	100.073309
1236.000000	100.064591
1235.000000	100.048723
1234.000000	100.028067
1233.000000	100.006937
1232.000000	99.988551
1231.000000	99.973685
1230.000000	99.961327
1229.000000	99.950186
1228.000000	99.939525
1227.000000	99.928481
1226.000000	99.914860
1225.000000	99.895599
1224.000000	99.869227
1223.000000	99.837693
1222.000000	99.805467
1221.000000	99.776632
1220.000000	99.752046
1219.000000	99.728378
1218.000000	99.700325
1217.000000	99.665307
1216.000000	99.626249
1215.000000	99.588598
1214.000000	99.554342
1213.000000	99.520249
1212.000000	99.482009
1211.000000	99.438057
1210.000000	99.389210
1209.000000	99.337319
1208.000000	99.285805
1207.000000	99.239205
1206.000000	99.199877
1205.000000	99.166024
1204.000000	99.133932
1203.000000	99.100706
1202.000000	99.064364
1201.000000	99.023728
1200.000000	98.979884
1199.000000	98.936137
1198.000000	98.894918
1197.000000	98.855561
1196.000000	98.815715
1195.000000	98.773504
1194.000000	98.728106
1193.000000	98.680288
1192.000000	98.632931
1191.000000	98.588880
1190.000000	98.547797
1189.000000	98.507335
1188.000000	98.467276
1187.000000	98.429101
1186.000000	98.391025
1185.000000	98.347576
1184.000000	98.295767
1183.000000	98.238358
1182.000000	98.179376
1181.000000	98.119788
1180.000000	98.059654
1179.000000	98.000901
1178.000000	97.944792
1177.000000	97.889117
1176.000000	97.830575
1175.000000	97.768153
1174.000000	97.702804
1173.000000	97.636518
1172.000000	97.573015
1171.000000	97.515644
1170.000000	97.462460
1169.000000	97.407234
1168.000000	97.348025
1167.000000	97.291151
1166.000000	97.244036
1165.000000	97.208511
1164.000000	97.184429
1163.000000	97.175003
1162.000000	97.182981
1161.000000	97.203547
1160.000000	97.225492
1159.000000	97.239183
1158.000000	97.241046
1157.000000	97.231740
1156.000000	97.212993
1155.000000	97.185571
1154.000000	97.148202
1153.000000	97.099215
1152.000000	97.040665
1151.000000	96.979176
1150.000000	96.920294
1149.000000	96.863249
1148.000000	96.803690
1147.000000	96.740768
1146.000000	96.679873
1145.000000	96.628717
1144.000000	96.590876
1143.000000	96.561671
1142.000000	96.530334
1141.000000	96.488563
1140.000000	96.437033
1139.000000	96.381871
1138.000000	96.326333
1137.000000	96.269933
1136.000000	96.214503
1135.000000	96.164656
1134.000000	96.120542
1133.000000	96.075501
1132.000000	96.023417
1131.000000	95.964325
1130.000000	95.901421
1129.000000	95.837554
1128.000000	95.776656
1127.000000	95.723109
1126.000000	95.676220
1125.000000	95.629679
1124.000000	95.579416
1123.000000	95.527524
1122.000000	95.475677
1121.000000	95.420513
1120.000000	95.360385
1119.000000	95.301930
1118.000000	95.253596
1117.000000	95.215005
1116.000000	95.177774
1115.000000	95.135851
1114.000000	95.091335
1113.000000	95.050338
1112.000000	95.015549
1111.000000	94.982530
1110.000000	94.942765
1109.000000	94.892400
1108.000000	94.838125
1107.000000	94.791356
1106.000000	94.756383
1105.000000	94.727805
1104.000000	94.699684
1103.000000	94.672644
1102.000000	94.650871
1101.000000	94.636288
1100.000000	94.626397
1099.000000	94.613669
1098.000000	94.588255
1097.000000	94.547193
1096.000000	94.500756
1095.000000	94.463083
1094.000000	94.435841
1093.000000	94.408163
1092.000000	94.373722
1091.000000	94.339661
1090.000000	94.315757
1089.000000	94.302024
1088.000000	94.290733
1087.000000	94.274687
1086.000000	94.250553
1085.000000	94.219802
1084.000000	94.189493
1083.000000	94.167421
1082.000000	94.154069
1081.000000	94.143279
1080.000000	94.130716
1079.000000	94.115578
1078.000000	94.094747
1077.000000	94.063925
1076.000000	94.026016
1075.000000	93.989942
1074.000000	93.958309
1073.000000	93.923543
1072.000000	93.878305
1071.000000	93.821733
1070.000000	93.753551
1069.000000	93.670898
1068.000000	93.574605
1067.000000	93.470767
1066.000000	93.362382
1065.000000	93.247159
1064.000000	93.127209
1063.000000	93.012062
1062.000000	92.907001
1061.000000	92.806723
1060.000000	92.706013
1059.000000	92.608292
1058.000000	92.517485
1057.000000	92.429176
1056.000000	92.336908
1055.000000	92.241567
1054.000000	92.148517
1053.000000	92.059840
1052.000000	91.973554
1051.000000	91.885185
1050.000000	91.787200
1049.000000	91.674799
1048.000000	91.555855
1047.000000	91.445924
1046.000000	91.349226
1045.000000	91.253317
1044.000000	91.146335
1043.000000	91.031299
1042.000000	90.919217
1041.000000	90.815854
1040.000000	90.720663
1039.000000	90.631873
1038.000000	90.546824
1037.000000	90.462629
1036.000000	90.381162
1035.000000	90.309035
1034.000000	90.250090
1033.000000	90.203102
1032.000000	90.167817
1031.000000	90.145596
1030.000000	90.131914
1029.000000	90.116285
1028.000000	90.093268
1027.000000	90.067355
1026.000000	90.044693
1025.000000	90.026491
1024.000000	90.012182
1023.000000	90.001993
1022.000000	89.994271
1021.000000	89.986350
1020.000000	89.978806
1019.000000	89.972512
1018.000000	89.962447
1017.000000	89.942829
1016.000000	89.917815
1015.000000	89.897590
1014.000000	89.883475
1013.000000	89.866849
1012.000000	89.843843
1011.000000	89.820637
1010.000000	89.802004
1009.000000	89.785089
1008.000000	89.768370
1007.000000	89.757916
1006.000000	89.760156
1005.000000	89.774562
1004.000000	89.795654
1003.000000	89.816605
1002.000000	89.831653
1001.000000	89.842828
1000.000000	89.863367
999.000000	89.905163
998.000000	89.962535
997.000000	90.017593
996.000000	90.062552
995.000000	90.106672
994.000000	90.159799
993.000000	90.219919
992.000000	90.279833
991.000000	90.336568
990.000000	90.390577
989.000000	90.443439
988.000000	90.499615
987.000000	90.564135
986.000000	90.636572
985.000000	90.712493
984.000000	90.790101
983.000000	90.869193
982.000000	90.946595
981.000000	91.021968
980.000000	91.105189
979.000000	91.206148
978.000000	91.318366
977.000000	91.425725
976.000000	91.526157
975.000000	91.633982
974.000000	91.755434
973.000000	91.876743
972.000000	91.983920
971.000000	92.082725
970.000000	92.189409
969.000000	92.309521
968.000000	92.434963
967.000000	92.556942
966.000000	92.674007
965.000000	92.789534
964.000000	92.906400
963.000000	93.022962
962.000000	93.132590
961.000000	93.230167
960.000000	93.319852
959.000000	93.411866
958.000000	93.510401
957.000000	93.610061
956.000000	93.705818
955.000000	93.799789
954.000000	93.894867
953.000000	93.987523
952.000000	94.071447
951.000000	94.144304
950.000000	94.207048
949.000000	94.259809
948.000000	94.302697
947.000000	94.339410
946.000000	94.377241
945.000000	94.423083
944.000000	94.478423
943.000000	94.536185
942.000000	94.584272
941.000000	94.616741
940.000000	94.641368
939.000000	94.672250
938.000000	94.714976
937.000000	94.763562
936.000000	94.811366
935.000000	94.858620
934.000000	94.908124
933.000000	94.959215
932.000000	95.008081
931.000000	95.050049
930.000000	95.081088
929.000000	95.101946
928.000000	95.121426
927.000000	95.149960
926.000000	95.188337
925.000000	95.227556
924.000000	95.260578
923.000000	95.288350
922.000000	95.312982
921.000000	95.332019
920.000000	95.343403
919.000000	95.351038
918.000000	95.361082
917.000000	95.375723
916.000000	95.393820
915.000000	95.415190
914.000000	95.441882
913.000000	95.477068
912.000000	95.523117
911.000000	95.578033
910.000000	95.634621
909.000000	95.688262
908.000000	95.745792
907.000000	95.821055
906.000000	95.920083
905.000000	96.034167
904.000000	96.147445
903.000000	96.247968
902.000000	96.332917
901.000000	96.409144
900.000000	96.489084
899.000000	96.580109
898.000000	96.676399
897.000000	96.765918
896.000000	96.845280
895.000000	96.921659
894.000000	97.000201
893.000000	97.077191
892.000000	97.147744
891.000000	97.213191
890.000000	97.277735
889.000000	97.343826
888.000000	97.414188
887.000000	97.492506
886.000000	97.577710
885.000000	97.662140
884.000000	97.739081
883.000000	97.807892
882.000000	97.869160
881.000000	97.920766
880.000000	97.963363
879.000000	98.004498
878.000000	98.051437
877.000000	98.103507
876.000000	98.156604
875.000000	98.210610
874.000000	98.266273
873.000000	98.319133
872.000000	98.364366
871.000000	98.405630
870.000000	98.452092
869.000000	98.507349
868.000000	98.566761
867.000000	98.624543
866.000000	98.678049
865.000000	98.725741
864.000000	98.767017
863.000000	98.805587
862.000000	98.848406
861.000000	98.898998
860.000000	98.954475
859.000000	99.010180
858.000000	99.064409
857.000000	99.117308
856.000000	99.167929
855.000000	99.214467
854.000000	99.256175
853.000000	99.293702
852.000000	99.328281
851.000000	99.360790
850.000000	99.389841
849.000000	99.410811
848.000000	99.419716
847.000000	99.419591
846.000000	99.420614
845.000000	99.431153
844.000000	99.449617
843.000000	99.467086
842.000000	99.477226
841.000000	99.481163
840.000000	99.482228
839.000000	99.479132
838.000000	99.467738
837.000000	99.449186
836.000000	99.432329
835.000000	99.424655
834.000000	99.421757
833.000000	99.410458
832.000000	99.384852
831.000000	99.356792
830.000000	99.346694
829.000000	99.363902
828.000000	99.399041
827.000000	99.435147
826.000000	99.461789
825.000000	99.476588
824.000000	99.478609
823.000000	99.467604
822.000000	99.448371
821.000000	99.428346
820.000000	99.408948
819.000000	99.383630
818.000000	99.345734
817.000000	99.294389
816.000000	99.230999
815.000000	99.154479
814.000000	99.064240
813.000000	98.964657
812.000000	98.859186
811.000000	98.738392
810.000000	98.580029
809.000000	98.366448
808.000000	98.101514
807.000000	97.808998
806.000000	97.515385
805.000000	97.234802
804.000000	96.967318
803.000000	96.707209
802.000000	96.454088
801.000000	96.221022
800.000000	96.031379
799.000000	95.902639
798.000000	95.832757
797.000000	95.805847
796.000000	95.809058
795.000000	95.837965
794.000000	95.888151
793.000000	95.950313
792.000000	96.013885
791.000000	96.069062
790.000000	96.106559
789.000000	96.122688
788.000000	96.123471
787.000000	96.115476
786.000000	96.092269
785.000000	96.038080
784.000000	95.947008
783.000000	95.832311
782.000000	95.715346
781.000000	95.611801
780.000000	95.529756
779.000000	95.473039
778.000000	95.442844
777.000000	95.441289
776.000000	95.474030
775.000000	95.542211
774.000000	95.631812
773.000000	95.721459
772.000000	95.804314
771.000000	95.892803
770.000000	95.997322
769.000000	96.109460
768.000000	96.212634
767.000000	96.301552
766.000000	96.382371
765.000000	96.457816
764.000000	96.521588
763.000000	96.568446
762.000000	96.604761
761.000000	96.646617
760.000000	96.707082
759.000000	96.783722
758.000000	96.858819
757.000000	96.915504
756.000000	96.954247
755.000000	96.989789
754.000000	97.032147
753.000000	97.077099
752.000000	97.117591
751.000000	97.157374
750.000000	97.207326
749.000000	97.271438
748.000000	97.341590
747.000000	97.404977
746.000000	97.453935
745.000000	97.490720
744.000000	97.526032
743.000000	97.571146
742.000000	97.627875
741.000000	97.687233
740.000000	97.740468
739.000000	97.789698
738.000000	97.844352
737.000000	97.907760
736.000000	97.971173
735.000000	98.022736
734.000000	98.060024
733.000000	98.090772
732.000000	98.121438
731.000000	98.148945
730.000000	98.167412
729.000000	98.180877
728.000000	98.203265
727.000000	98.243318
726.000000	98.293936
725.000000	98.339689
724.000000	98.370379
723.000000	98.383363
722.000000	98.379606
721.000000	98.367573
720.000000	98.367324
719.000000	98.395625
718.000000	98.444673
717.000000	98.487902
716.000000	98.507531
715.000000	98.508919
714.000000	98.508691
713.000000	98.516191
712.000000	98.530354
711.000000	98.546917
710.000000	98.560287
709.000000	98.561826
708.000000	98.544663
707.000000	98.511742
706.000000	98.475643
705.000000	98.448993
704.000000	98.433671
703.000000	98.415548
702.000000	98.369521
701.000000	98.275109
700.000000	98.130736
699.000000	97.952941
698.000000	97.763805
697.000000	97.584194
696.000000	97.436758
695.000000	97.343825
694.000000	97.317328
693.000000	97.355191
692.000000	97.447616
691.000000	97.579074
690.000000	97.721878
689.000000	97.841432
688.000000	97.922219
687.000000	97.983269
686.000000	98.055119
685.000000	98.145981
684.000000	98.238972
683.000000	98.314649
682.000000	98.365067
681.000000	98.391978
680.000000	98.405249
679.000000	98.421623
678.000000	98.453724
677.000000	98.500000
676.000000	98.551970
675.000000	98.609292
674.000000	98.675535
673.000000	98.741347
672.000000	98.786534
671.000000	98.801033
670.000000	98.796406
669.000000	98.803707
668.000000	98.846551
667.000000	98.906137
666.000000	98.967308
665.000000	99.023183
664.000000	99.065434
663.000000	99.092980
662.000000	99.112433
661.000000	99.131235
660.000000	99.148331
659.000000	99.155377
658.000000	99.147097
657.000000	99.128535
656.000000	99.113381
655.000000	99.118309
654.000000	99.152086
653.000000	99.206837
652.000000	99.263862
651.000000	99.308041
650.000000	99.337068
