4000.000000	100.450075
3999.000000	100.449868
3998.000000	100.449183
3997.000000	100.448436
3996.000000	100.447914
3995.000000	100.447959
3994.000000	100.448558
3993.000000	100.448768
3992.000000	100.447256
3991.000000	100.443765
3990.000000	100.439674
3989.000000	100.436685
3988.000000	100.434974
3987.000000	100.433133
3986.000000	100.429891
3985.000000	100.425565
3984.000000	100.421674
3983.000000	100.419201
3982.000000	100.417583
3981.000000	100.415750
3980.000000	100.414082
3979.000000	100.414534
3978.000000	100.418445
3977.000000	100.424754
3976.000000	100.430482
3975.000000	100.433376
3974.000000	100.433537
3973.000000	100.432472
3972.000000	100.431347
3971.000000	100.430399
3970.000000	100.429606
3969.000000	100.429174
3968.000000	100.429246
3967.000000	100.429449
3966.000000	100.428974
3965.000000	100.427236
3964.000000	100.424483
3963.000000	100.421804
3962.000000	100.420370
3961.000000	100.420648
3960.000000	100.422301
3959.000000	100.424584
3958.000000	100.426665
3957.000000	100.427777
3956.000000	100.427584
3955.000000	100.426406
3954.000000	100.425045
3953.000000	100.424211
3952.000000	100.424061
3951.000000	100.424334
3950.000000	100.424676
3949.000000	100.424872
3948.000000	100.424918
3947.000000	100.424926
3946.000000	100.424966
3945.000000	100.425010
3944.000000	100.425020
3943.000000	100.425018
3942.000000	100.425039
3941.000000	100.425073
3940.000000	100.425116
3939.000000	100.425160
3938.000000	100.425189
3937.000000	100.425187
3936.000000	100.425142
3935.000000	100.425056
3934.000000	100.424936
3933.000000	100.424793
3932.000000	100.424635
3931.000000	100.424472
3930.000000	100.424312
3929.000000	100.424167
3928.000000	100.424040
3927.000000	100.423924
3926.000000	100.423809
3925.000000	100.423683
3924.000000	100.423540
3923.000000	100.423384
3922.000000	100.423220
3921.000000	100.423045
3920.000000	100.422848
3919.000000	100.422616
3918.000000	100.422348
3917.000000	100.422057
3916.000000	100.421764
3915.000000	100.421490
3914.000000	100.421242
3913.000000	100.421014
3912.000000	100.420795
3911.000000	100.420579
3910.000000	100.420373
3909.000000	100.420191
3908.000000	100.420042
3907.000000	100.419924
3906.000000	100.419829
3905.000000	100.419750
3904.000000	100.419688
3903.000000	100.419644
3902.000000	100.419615
3901.000000	100.419587
3900.000000	100.419537
3899.000000	100.419441
3898.000000	100.419286
3897.000000	100.419077
3896.000000	100.418829
3895.000000	100.418563
3894.000000	100.418295
3893.000000	100.418032
3892.000000	100.417779
3891.000000	100.417539
3890.000000	100.417309
3889.000000	100.417089
3888.000000	100.416877
3887.000000	100.416677
3886.000000	100.416500
3885.000000	100.416363
3884.000000	100.416271
3883.000000	100.416263
3882.000000	100.416367
3881.000000	100.416483
3880.000000	100.416441
3879.000000	100.416252
3878.000000	100.416190
3877.000000	100.416408
3876.000000	100.416697
3875.000000	100.416752
3874.000000	100.416558
3873.000000	100.416376
3872.000000	100.416443
3871.000000	100.416680
3870.000000	100.416775
3869.000000	100.416653
3868.000000	100.416738
3867.000000	100.417295
3866.000000	100.418084
3865.000000	100.418991
3864.000000	100.420152
3863.000000	100.421246
3862.000000	100.421365
3861.000000	100.419861
3860.000000	100.417200
3859.000000	100.414780
3858.000000	100.413544
3857.000000	100.413084
3856.000000	100.412414
3855.000000	100.411597
3854.000000	100.411849
3853.000000	100.412987
3852.000000	100.414046
3851.000000	100.414993
3850.000000	100.415236
3849.000000	100.414384
3848.000000	100.413657
3847.000000	100.414956
3846.000000	100.419146
3845.000000	100.425265
3844.000000	100.430895
3843.000000	100.433948
3842.000000	100.433994
3841.000000	100.432038
3840.000000	100.429551
3839.000000	100.427444
3838.000000	100.425836
3837.000000	100.424728
3836.000000	100.424454
3835.000000	100.425192
3834.000000	100.426387
3833.000000	100.427022
3832.000000	100.426573
3831.000000	100.425690
3830.000000	100.425682
3829.000000	100.427097
3828.000000	100.428976
3827.000000	100.429673
3826.000000	100.428564
3825.000000	100.426710
3824.000000	100.425866
3823.000000	100.427045
3822.000000	100.429621
3821.000000	100.431269
3820.000000	100.430642
3819.000000	100.429126
3818.000000	100.428258
3817.000000	100.427704
3816.000000	100.426275
3815.000000	100.423783
3814.000000	100.421501
3813.000000	100.420423
3812.000000	100.420385
3811.000000	100.421024
3810.000000	100.422386
3809.000000	100.424509
3808.000000	100.426886
3807.000000	100.428564
3806.000000	100.429246
3805.000000	100.429569
3804.000000	100.429824
3803.000000	100.429505
3802.000000	100.428144
3801.000000	100.425938
3800.000000	100.423908
3799.000000	100.422769
3798.000000	100.422014
3797.000000	100.420910
3796.000000	100.419488
3795.000000	100.418460
3794.000000	100.418428
3793.000000	100.419328
3792.000000	100.420542
3791.000000	100.421378
3790.000000	100.421496
3789.000000	100.420968
3788.000000	100.420101
3787.000000	100.419217
3786.000000	100.418445
3785.000000	100.417715
3784.000000	100.416977
3783.000000	100.416389
3782.000000	100.416151
3781.000000	100.416205
3780.000000	100.416162
3779.000000	100.415636
3778.000000	100.414680
3777.000000	100.413748
3776.000000	100.413220
3775.000000	100.413158
3774.000000	100.413398
3773.000000	100.413674
3772.000000	100.413666
3771.000000	100.413088
3770.000000	100.411853
3769.000000	100.410265
3768.000000	100.408981
3767.000000	100.408494
3766.000000	100.408661
3765.000000	100.408732
3764.000000	100.408160
3763.000000	100.407202
3762.000000	100.406543
3761.000000	100.406421
3760.000000	100.406281
3759.000000	100.405515
3758.000000	100.404556
3757.000000	100.404612
3756.000000	100.406174
3755.000000	100.408338
3754.000000	100.409539
3753.000000	100.408540
3752.000000	100.404688
3751.000000	100.397921
3750.000000	100.389708
3749.000000	100.383153
3748.000000	100.380209
3747.000000	100.379957
3746.000000	100.379768
3745.000000	100.377541
3744.000000	100.373301
3743.000000	100.370034
3742.000000	100.370293
3741.000000	100.372540
3740.000000	100.373649
3739.000000	100.372357
3738.000000	100.369455
3737.000000	100.366367
3736.000000	100.364183
3735.000000	100.363595
3734.000000	100.364174
3733.000000	100.363701
3732.000000	100.359783
3731.000000	100.352827
3730.000000	100.345942
3729.000000	100.341708
3728.000000	100.340281
3727.000000	100.340023
3726.000000	100.338983
3725.000000	100.336155
3724.000000	100.331523
3723.000000	100.325292
3722.000000	100.317488
3721.000000	100.308410
3720.000000	100.298958
3719.000000	100.290388
3718.000000	100.283982
3717.000000	100.280287
3716.000000	100.277993
3715.000000	100.273909
3714.000000	100.265053
3713.000000	100.251659
3712.000000	100.237981
3711.000000	100.228375
3710.000000	100.223332
3709.000000	100.220286
3708.000000	100.216913
3707.000000	100.212701
3706.000000	100.208190
3705.000000	100.203734
3704.000000	100.199076
3703.000000	100.193815
3702.000000	100.187576
3701.000000	100.180250
3700.000000	100.172343
3699.000000	100.164604
3698.000000	100.157190
3697.000000	100.150242
3696.000000	100.144615
3695.000000	100.141514
3694.000000	100.141522
3693.000000	100.143873
3692.000000	100.146521
3691.000000	100.146662
3690.000000	100.141867
3689.000000	100.131568
3688.000000	100.119243
3687.000000	100.110814
3686.000000	100.108686
3685.000000	100.110275
3684.000000	100.111393
3683.000000	100.109611
3682.000000	100.104893
3681.000000	100.098251
3680.000000	100.089833
3679.000000	100.078830
3678.000000	100.065649
3677.000000	100.053728
3676.000000	100.046070
3675.000000	100.038913
3674.000000	100.028501
3673.000000	100.017565
3672.000000	100.009062
3671.000000	100.004519
3670.000000	100.003017
3669.000000	99.999742
3668.000000	99.992789
3667.000000	99.984927
3666.000000	99.978199
3665.000000	99.972608
3664.000000	99.967250
3663.000000	99.961247
3662.000000	99.954687
3661.000000	99.948450
3660.000000	99.943010
3659.000000	99.938140
3658.000000	99.934022
3657.000000	99.931728
3656.000000	99.931673
3655.000000	99.933235
3654.000000	99.935199
3653.000000	99.935219
3652.000000	99.931874
3651.000000	99.928293
3650.000000	99.929941
3649.000000	99.937319
3648.000000	99.945495
3647.000000	99.951625
3646.000000	99.957256
3645.000000	99.963979
3644.000000	99.970085
3643.000000	99.971230
3642.000000	99.964611
3641.000000	99.951492
3640.000000	99.935411
3639.000000	99.918067
3638.000000	99.898680
3637.000000	99.877859
3636.000000	99.859748
3635.000000	99.848529
3634.000000	99.843466
3633.000000	99.839514
3632.000000	99.833246
3631.000000	99.826995
3630.000000	99.826372
3629.000000	99.830784
3628.000000	99.831818
3627.000000	99.827690
3626.000000	99.823356
3625.000000	99.820385
3624.000000	99.817775
3623.000000	99.815280
3622.000000	99.813235
3621.000000	99.811959
3620.000000	99.811850
3619.000000	99.813393
3618.000000	99.817529
3617.000000	99.825405
3616.000000	99.835506
3615.000000	99.843213
3614.000000	99.843975
3613.000000	99.837081
3612.000000	99.827260
3611.000000	99.821944
3610.000000	99.825471
3609.000000	99.835870
3608.000000	99.846373
3607.000000	99.851402
3606.000000	99.851050
3605.000000	99.848785
3604.000000	99.847299
3603.000000	99.847440
3602.000000	99.849048
3601.000000	99.851872
3600.000000	99.855477
3599.000000	99.859265
3598.000000	99.862933
3597.000000	99.866744
3596.000000	99.870806
3595.000000	99.874354
3594.000000	99.876022
3593.000000	99.875289
3592.000000	99.873159
3591.000000	99.871117
3590.000000	99.870301
3589.000000	99.871495
3588.000000	99.874760
3587.000000	99.878730
3586.000000	99.881838
3585.000000	99.883749
3584.000000	99.884802
3583.000000	99.885233
3582.000000	99.885124
3581.000000	99.884591
3580.000000	99.883921
3579.000000	99.883604
3578.000000	99.884071
3577.000000	99.885364
3576.000000	99.887054
3575.000000	99.888479
3574.000000	99.889189
3573.000000	99.889211
3572.000000	99.888961
3571.000000	99.888911
3570.000000	99.889293
3569.000000	99.890056
3568.000000	99.890955
3567.000000	99.891530
3566.000000	99.891457
3565.000000	99.890939
3564.000000	99.890560
3563.000000	99.890729
3562.000000	99.891430
3561.000000	99.892371
3560.000000	99.893206
3559.000000	99.893742
3558.000000	99.894001
3557.000000	99.894100
3556.000000	99.894122
3555.000000	99.894055
3554.000000	99.893852
3553.000000	99.893537
3552.000000	99.893229
3551.000000	99.893030
3550.000000	99.892945
3549.000000	99.892912
3548.000000	99.892839
3547.000000	99.892664
3546.000000	99.892388
3545.000000	99.892059
3544.000000	99.891733
3543.000000	99.891439
3542.000000	99.891176
3541.000000	99.890928
3540.000000	99.890681
3539.000000	99.890433
3538.000000	99.890197
3537.000000	99.889984
3536.000000	99.889773
3535.000000	99.889514
3534.000000	99.889191
3533.000000	99.888847
3532.000000	99.888542
3531.000000	99.888289
3530.000000	99.888038
3529.000000	99.887703
3528.000000	99.887229
3527.000000	99.886653
3526.000000	99.886134
3525.000000	99.885838
3524.000000	99.885804
3523.000000	99.885874
3522.000000	99.885805
3521.000000	99.885503
3520.000000	99.885062
3519.000000	99.884618
3518.000000	99.884167
3517.000000	99.883595
3516.000000	99.882871
3515.000000	99.882173
3514.000000	99.881751
3513.000000	99.881682
3512.000000	99.881746
3511.000000	99.881597
3510.000000	99.881088
3509.000000	99.880404
3508.000000	99.879949
3507.000000	99.880043
3506.000000	99.880740
3505.000000	99.881836
3504.000000	99.882881
3503.000000	99.883368
3502.000000	99.883028
3501.000000	99.881941
3500.000000	99.880431
3499.000000	99.878870
3498.000000	99.877593
3497.000000	99.876914
3496.000000	99.877001
3495.000000	99.877714
3494.000000	99.878613
3493.000000	99.879234
3492.000000	99.879396
3491.000000	99.879237
3490.000000	99.879051
3489.000000	99.879046
3488.000000	99.879190
3487.000000	99.879280
3486.000000	99.879141
3485.000000	99.878798
3484.000000	99.878440
3483.000000	99.878250
3482.000000	99.878223
3481.000000	99.878158
3480.000000	99.877866
3479.000000	99.877363
3478.000000	99.876858
3477.000000	99.876531
3476.000000	99.876356
3475.000000	99.876148
3474.000000	99.875739
3473.000000	99.875106
3472.000000	99.874344
3471.000000	99.873599
3470.000000	99.872979
3469.000000	99.872530
3468.000000	99.872215
3467.000000	99.871877
3466.000000	99.871310
3465.000000	99.870390
3464.000000	99.869159
3463.000000	99.867874
3462.000000	99.866847
3461.000000	99.866230
3460.000000	99.865967
3459.000000	99.865866
3458.000000	99.865783
3457.000000	99.865653
3456.000000	99.865371
3455.000000	99.864774
3454.000000	99.863787
3453.000000	99.862577
3452.000000	99.861469
3451.000000	99.860621
3450.000000	99.859861
3449.000000	99.858951
3448.000000	99.858015
3447.000000	99.857498
3446.000000	99.857663
3445.000000	99.858279
3444.000000	99.858823
3443.000000	99.858849
3442.000000	99.858167
3441.000000	99.856847
3440.000000	99.855225
3439.000000	99.853805
3438.000000	99.852905
3437.000000	99.852291
3436.000000	99.851261
3435.000000	99.849238
3434.000000	99.846287
3433.000000	99.843142
3432.000000	99.840754
3431.000000	99.839952
3430.000000	99.841240
3429.000000	99.844575
3428.000000	99.849132
3427.000000	99.853364
3426.000000	99.855790
3425.000000	99.855954
3424.000000	99.854684
3423.000000	99.853516
3422.000000	99.853520
3421.000000	99.854436
3420.000000	99.855000
3419.000000	99.854178
3418.000000	99.852160
3417.000000	99.850059
3416.000000	99.848700
3415.000000	99.847846
3414.000000	99.846639
3413.000000	99.844792
3412.000000	99.843171
3411.000000	99.843009
3410.000000	99.844639
3409.000000	99.847159
3408.000000	99.849145
3407.000000	99.849676
3406.000000	99.848791
3405.000000	99.847373
3404.000000	99.846694
3403.000000	99.847604
3402.000000	99.849754
3401.000000	99.851690
3400.000000	99.852106
3399.000000	99.851126
3398.000000	99.850171
3397.000000	99.850466
3396.000000	99.851919
3395.000000	99.853559
3394.000000	99.854802
3393.000000	99.855889
3392.000000	99.857266
3391.000000	99.858953
3390.000000	99.860663
3389.000000	99.862138
3388.000000	99.863070
3387.000000	99.862965
3386.000000	99.861606
3385.000000	99.859616
3384.000000	99.858030
3383.000000	99.857212
3382.000000	99.856545
3381.000000	99.855271
3380.000000	99.853284
3379.000000	99.851087
3378.000000	99.849314
3377.000000	99.848497
3376.000000	99.848979
3375.000000	99.850658
3374.000000	99.852971
3373.000000	99.855413
3372.000000	99.857957
3371.000000	99.860606
3370.000000	99.862680
3369.000000	99.863178
3368.000000	99.861909
3367.000000	99.859824
3366.000000	99.858078
3365.000000	99.856938
3364.000000	99.855943
3363.000000	99.854855
3362.000000	99.854060
3361.000000	99.854058
3360.000000	99.854882
3359.000000	99.856114
3358.000000	99.857243
3357.000000	99.858000
3356.000000	99.858492
3355.000000	99.859068
3354.000000	99.859964
3353.000000	99.861020
3352.000000	99.861765
3351.000000	99.861849
3350.000000	99.861356
3349.000000	99.860730
3348.000000	99.860447
3347.000000	99.860661
3346.000000	99.861223
3345.000000	99.861841
3344.000000	99.862247
3343.000000	99.862333
3342.000000	99.862168
3341.000000	99.861964
3340.000000	99.861960
3339.000000	99.862263
3338.000000	99.862810
3337.000000	99.863425
3336.000000	99.863989
3335.000000	99.864541
3334.000000	99.865186
3333.000000	99.865911
3332.000000	99.866540
3331.000000	99.866897
3330.000000	99.866997
3329.000000	99.867058
3328.000000	99.867339
3327.000000	99.867964
3326.000000	99.868875
3325.000000	99.869841
3324.000000	99.870551
3323.000000	99.870808
3322.000000	99.870680
3321.000000	99.870464
3320.000000	99.870486
3319.000000	99.870900
3318.000000	99.871627
3317.000000	99.872353
3316.000000	99.872652
3315.000000	99.872236
3314.000000	99.871185
3313.000000	99.869915
3312.000000	99.868916
3311.000000	99.868518
3310.000000	99.868873
3309.000000	99.869957
3308.000000	99.871454
3307.000000	99.872778
3306.000000	99.873454
3305.000000	99.873478
3304.000000	99.873234
3303.000000	99.873130
3302.000000	99.873387
3301.000000	99.874124
3300.000000	99.875397
3299.000000	99.877023
3298.000000	99.878542
3297.000000	99.879463
3296.000000	99.879553
3295.000000	99.878871
3294.000000	99.877678
3293.000000	99.876420
3292.000000	99.875614
3291.000000	99.875497
3290.000000	99.875782
3289.000000	99.875870
3288.000000	99.875422
3287.000000	99.874705
3286.000000	99.874331
3285.000000	99.874640
3284.000000	99.875412
3283.000000	99.876096
3282.000000	99.876330
3281.000000	99.876139
3280.000000	99.875752
3279.000000	99.875385
3278.000000	99.875200
3277.000000	99.875363
3276.000000	99.875944
3275.000000	99.876784
3274.000000	99.877580
3273.000000	99.878141
3272.000000	99.878493
3271.000000	99.878770
3270.000000	99.879069
3269.000000	99.879397
3268.000000	99.879732
3267.000000	99.880071
3266.000000	99.880426
3265.000000	99.880807
3264.000000	99.881222
3263.000000	99.881678
3262.000000	99.882167
3261.000000	99.882673
3260.000000	99.883184
3259.000000	99.883696
3258.000000	99.884211
3257.000000	99.884735
3256.000000	99.885276
3255.000000	99.885837
3254.000000	99.886424
3253.000000	99.887042
3252.000000	99.887688
3251.000000	99.888354
3250.000000	99.889022
3249.000000	99.889677
3248.000000	99.890319
3247.000000	99.890963
3246.000000	99.891632
3245.000000	99.892345
3244.000000	99.893102
3243.000000	99.893892
3242.000000	99.894697
3241.000000	99.895511
3240.000000	99.896339
3239.000000	99.897196
3238.000000	99.898090
3237.000000	99.899017
3236.000000	99.899956
3235.000000	99.900877
3234.000000	99.901755
3233.000000	99.902581
3232.000000	99.903370
3231.000000	99.904154
3230.000000	99.904966
3229.000000	99.905822
3228.000000	99.906714
3227.000000	99.907623
3226.000000	99.908528
3225.000000	99.909422
3224.000000	99.910299
3223.000000	99.911139
3222.000000	99.911939
3221.000000	99.912727
3220.000000	99.913543
3219.000000	99.914380
3218.000000	99.915169
3217.000000	99.915848
3216.000000	99.916442
3215.000000	99.917049
3214.000000	99.917774
3213.000000	99.918671
3212.000000	99.919687
3211.000000	99.920635
3210.000000	99.921314
3209.000000	99.921737
3208.000000	99.922234
3207.000000	99.923224
3206.000000	99.924943
3205.000000	99.927357
3204.000000	99.930193
3203.000000	99.932971
3202.000000	99.935113
3201.000000	99.936270
3200.000000	99.936576
3199.000000	99.936525
3198.000000	99.936608
3197.000000	99.937091
3196.000000	99.937994
3195.000000	99.939093
3194.000000	99.939960
3193.000000	99.940296
3192.000000	99.940299
3191.000000	99.940560
3190.000000	99.941332
3189.000000	99.942073
3188.000000	99.942071
3187.000000	99.941575
3186.000000	99.941883
3185.000000	99.943838
3184.000000	99.946714
3183.000000	99.948894
3182.000000	99.949721
3181.000000	99.950187
3180.000000	99.951555
3179.000000	99.953738
3178.000000	99.955489
3177.000000	99.955988
3176.000000	99.955787
3175.000000	99.956151
3174.000000	99.957857
3173.000000	99.960758
3172.000000	99.964083
3171.000000	99.966942
3170.000000	99.968797
3169.000000	99.969736
3168.000000	99.970329
3167.000000	99.971027
3166.000000	99.971722
3165.000000	99.972063
3164.000000	99.972115
3163.000000	99.972446
3162.000000	99.973475
3161.000000	99.974918
3160.000000	99.976058
3159.000000	99.976512
3158.000000	99.976639
3157.000000	99.977193
3156.000000	99.978593
3155.000000	99.980518
3154.000000	99.982134
3153.000000	99.982811
3152.000000	99.982683
3151.000000	99.982573
3150.000000	99.983303
3149.000000	99.984924
3148.000000	99.986637
3147.000000	99.987541
3146.000000	99.987408
3145.000000	99.986683
3144.000000	99.985888
3143.000000	99.985284
3142.000000	99.985101
3141.000000	99.985661
3140.000000	99.987028
3139.000000	99.988660
3138.000000	99.989739
3137.000000	99.989905
3136.000000	99.989547
3135.000000	99.989454
3134.000000	99.990189
3133.000000	99.991705
3132.000000	99.993360
3131.000000	99.994361
3130.000000	99.994466
3129.000000	99.994320
3128.000000	99.994934
3127.000000	99.996774
3126.000000	99.999496
3125.000000	100.002417
3124.000000	100.005048
3123.000000	100.007128
3122.000000	100.008450
3121.000000	100.008914
3120.000000	100.008726
3119.000000	100.008433
3118.000000	100.008675
3117.000000	100.009809
3116.000000	100.011695
3115.000000	100.013785
3114.000000	100.015589
3113.000000	100.017135
3112.000000	100.018926
3111.000000	100.021441
3110.000000	100.024631
3109.000000	100.027792
3108.000000	100.029954
3107.000000	100.030565
3106.000000	100.029951
3105.000000	100.029215
3104.000000	100.029451
3103.000000	100.031035
3102.000000	100.033730
3101.000000	100.037211
3100.000000	100.041264
3099.000000	100.045490
3098.000000	100.049151
3097.000000	100.051580
3096.000000	100.052602
3095.000000	100.052509
3094.000000	100.051795
3093.000000	100.051031
3092.000000	100.050818
3091.000000	100.051629
3090.000000	100.053575
3089.000000	100.056272
3088.000000	100.058932
3087.000000	100.060787
3086.000000	100.061649
3085.000000	100.062061
3084.000000	100.062756
3083.000000	100.063917
3082.000000	100.065086
3081.000000	100.065774
3080.000000	100.065972
3079.000000	100.066087
3078.000000	100.066598
3077.000000	100.067781
3076.000000	100.069585
3075.000000	100.071612
3074.000000	100.073367
3073.000000	100.074655
3072.000000	100.075627
3071.000000	100.076430
3070.000000	100.076949
3069.000000	100.077037
3068.000000	100.076885
3067.000000	100.076949
3066.000000	100.077467
3065.000000	100.078203
3064.000000	100.078725
3063.000000	100.078847
3062.000000	100.078748
3061.000000	100.078774
3060.000000	100.079169
3059.000000	100.079952
3058.000000	100.080954
3057.000000	100.081947
3056.000000	100.082808
3055.000000	100.083590
3054.000000	100.084460
3053.000000	100.085538
3052.000000	100.086729
3051.000000	100.087696
3050.000000	100.088135
3049.000000	100.088167
3048.000000	100.088427
3047.000000	100.089511
3046.000000	100.091400
3045.000000	100.093378
3044.000000	100.094637
3043.000000	100.094957
3042.000000	100.094856
3041.000000	100.095237
3040.000000	100.096705
3039.000000	100.099112
3038.000000	100.101484
3037.000000	100.102656
3036.000000	100.102118
3035.000000	100.100389
3034.000000	100.098650
3033.000000	100.097771
3032.000000	100.097815
3031.000000	100.098402
3030.000000	100.099314
3029.000000	100.100606
3028.000000	100.102275
3027.000000	100.104182
3026.000000	100.106389
3025.000000	100.109224
3024.000000	100.112696
3023.000000	100.115993
3022.000000	100.118080
3021.000000	100.118869
3020.000000	100.119426
3019.000000	100.120860
3018.000000	100.123278
3017.000000	100.126074
3016.000000	100.128897
3015.000000	100.131827
3014.000000	100.134740
3013.000000	100.137060
3012.000000	100.138330
3011.000000	100.138749
3010.000000	100.138981
3009.000000	100.139503
3008.000000	100.140239
3007.000000	100.140735
3006.000000	100.140713
3005.000000	100.140555
3004.000000	100.141199
3003.000000	100.143278
3002.000000	100.146403
3001.000000	100.149365
3000.000000	100.151110
2999.000000	100.151497
2998.000000	100.151242
2997.000000	100.151322
2996.000000	100.152279
2995.000000	100.153995
2994.000000	100.156050
2993.000000	100.158224
2992.000000	100.160633
2991.000000	100.163381
2990.000000	100.166209
2989.000000	100.168641
2988.000000	100.170424
2987.000000	100.171648
2986.000000	100.172631
2985.000000	100.173858
2984.000000	100.175862
2983.000000	100.178836
2982.000000	100.182222
2981.000000	100.185023
2980.000000	100.186862
2979.000000	100.188500
2978.000000	100.190986
2977.000000	100.194357
2976.000000	100.197501
2975.000000	100.199490
2974.000000	100.200795
2973.000000	100.202860
2972.000000	100.206615
2971.000000	100.211671
2970.000000	100.216754
2969.000000	100.220697
2968.000000	100.222930
2967.000000	100.223554
2966.000000	100.223636
2965.000000	100.225137
2964.000000	100.229349
2963.000000	100.235009
2962.000000	100.239138
2961.000000	100.240663
2960.000000	100.241960
2959.000000	100.245705
2958.000000	100.251110
2957.000000	100.254882
2956.000000	100.255494
2955.000000	100.254806
2954.000000	100.255273
2953.000000	100.257155
2952.000000	100.259566
2951.000000	100.263212
2950.000000	100.270169
2949.000000	100.280194
2948.000000	100.288448
2947.000000	100.288829
2946.000000	100.280562
2945.000000	100.270495
2944.000000	100.267408
2943.000000	100.274323
2942.000000	100.287509
2941.000000	100.302237
2940.000000	100.317239
2939.000000	100.332702
2938.000000	100.346330
2937.000000	100.354390
2936.000000	100.356283
2935.000000	100.356041
2934.000000	100.358887
2933.000000	100.367413
2932.000000	100.380770
2931.000000	100.396144
2930.000000	100.410765
2929.000000	100.423720
2928.000000	100.436213
2927.000000	100.449140
2926.000000	100.460507
2925.000000	100.466497
2924.000000	100.465307
2923.000000	100.458760
2922.000000	100.449913
2921.000000	100.440134
2920.000000	100.429261
2919.000000	100.417645
2918.000000	100.406919
2917.000000	100.398661
2916.000000	100.392661
2915.000000	100.386568
2914.000000	100.377641
2913.000000	100.365543
2912.000000	100.353356
2911.000000	100.344703
2910.000000	100.339521
2909.000000	100.333877
2908.000000	100.324915
2907.000000	100.314895
2906.000000	100.308616
2905.000000	100.307245
2904.000000	100.306996
2903.000000	100.304474
2902.000000	100.301193
2901.000000	100.301095
2900.000000	100.304600
2899.000000	100.308582
2898.000000	100.311128
2897.000000	100.313183
2896.000000	100.314592
2895.000000	100.311873
2894.000000	100.302625
2893.000000	100.290399
2892.000000	100.281831
2891.000000	100.279197
2890.000000	100.278595
2889.000000	100.275818
2888.000000	100.271628
2887.000000	100.269916
2886.000000	100.272558
2885.000000	100.277715
2884.000000	100.282181
2883.000000	100.283870
2882.000000	100.282494
2881.000000	100.279172
2880.000000	100.275851
2879.000000	100.274644
2878.000000	100.277267
2877.000000	100.284146
2876.000000	100.293113
2875.000000	100.299547
2874.000000	100.299687
2873.000000	100.294471
2872.000000	100.288779
2871.000000	100.286212
2870.000000	100.286083
2869.000000	100.286212
2868.000000	100.286823
2867.000000	100.289845
2866.000000	100.295649
2865.000000	100.302608
2864.000000	100.309432
2863.000000	100.316053
2862.000000	100.322337
2861.000000	100.327879
2860.000000	100.333413
2859.000000	100.340988
2858.000000	100.352065
2857.000000	100.366026
2856.000000	100.380456
2855.000000	100.392190
2854.000000	100.398375
2853.000000	100.397764
2852.000000	100.391373
2851.000000	100.381575
2850.000000	100.370380
2849.000000	100.358605
2848.000000	100.346135
2847.000000	100.332597
2846.000000	100.318606
2845.000000	100.306763
2844.000000	100.300128
2843.000000	100.298879
2842.000000	100.299577
2841.000000	100.298688
2840.000000	100.295610
2839.000000	100.291136
2838.000000	100.284902
2837.000000	100.276837
2836.000000	100.269856
2835.000000	100.267806
2834.000000	100.270585
2833.000000	100.273868
2832.000000	100.274327
2831.000000	100.272942
2830.000000	100.272408
2829.000000	100.273529
2828.000000	100.275347
2827.000000	100.276956
2826.000000	100.277821
2825.000000	100.277548
2824.000000	100.276515
2823.000000	100.275751
2822.000000	100.275247
2821.000000	100.273512
2820.000000	100.269963
2819.000000	100.266820
2818.000000	100.267254
2817.000000	100.272016
2816.000000	100.278882
2815.000000	100.285046
2814.000000	100.289395
2813.000000	100.292601
2812.000000	100.295691
2811.000000	100.298742
2810.000000	100.300762
2809.000000	100.300921
2808.000000	100.299787
2807.000000	100.298968
2806.000000	100.299466
2805.000000	100.300758
2804.000000	100.301630
2803.000000	100.301395
2802.000000	100.300201
2801.000000	100.298787
2800.000000	100.298252
2799.000000	100.299399
2798.000000	100.301776
2797.000000	100.303708
2796.000000	100.303820
2795.000000	100.302348
2794.000000	100.300762
2793.000000	100.300379
2792.000000	100.301523
2791.000000	100.303590
2790.000000	100.305369
2789.000000	100.305610
2788.000000	100.303860
2787.000000	100.300962
2786.000000	100.298604
2785.000000	100.298039
2784.000000	100.299249
2783.000000	100.301227
2782.000000	100.302892
2781.000000	100.303947
2780.000000	100.304871
2779.000000	100.306207
2778.000000	100.307921
2777.000000	100.309406
2776.000000	100.310109
2775.000000	100.310093
2774.000000	100.310030
2773.000000	100.310633
2772.000000	100.312093
2771.000000	100.314004
2770.000000	100.315743
2769.000000	100.316932
2768.000000	100.317526
2767.000000	100.317629
2766.000000	100.317424
2765.000000	100.317242
2764.000000	100.317487
2763.000000	100.318303
2762.000000	100.319422
2761.000000	100.320475
2760.000000	100.321422
2759.000000	100.322464
2758.000000	100.323616
2757.000000	100.324642
2756.000000	100.325490
2755.000000	100.326488
2754.000000	100.327918
2753.000000	100.329642
2752.000000	100.331337
2751.000000	100.332893
2750.000000	100.334231
2749.000000	100.335002
2748.000000	100.334949
2747.000000	100.334459
2746.000000	100.334365
2745.000000	100.334999
2744.000000	100.335872
2743.000000	100.336488
2742.000000	100.337073
2741.000000	100.338176
2740.000000	100.339879
2739.000000	100.341691
2738.000000	100.343069
2737.000000	100.343894
2736.000000	100.344359
2735.000000	100.344689
2734.000000	100.345055
2733.000000	100.345553
2732.000000	100.346153
2731.000000	100.346734
2730.000000	100.347264
2729.000000	100.347829
2728.000000	100.348463
2727.000000	100.349099
2726.000000	100.349793
2725.000000	100.350789
2724.000000	100.352162
2723.000000	100.353552
2722.000000	100.354483
2721.000000	100.354950
2720.000000	100.355448
2719.000000	100.356364
2718.000000	100.357475
2717.000000	100.358201
2716.000000	100.358228
2715.000000	100.357793
2714.000000	100.357437
2713.000000	100.357530
2712.000000	100.357997
2711.000000	100.358466
2710.000000	100.358642
2709.000000	100.358551
2708.000000	100.358447
2707.000000	100.358555
2706.000000	100.358924
2705.000000	100.359424
2704.000000	100.359804
2703.000000	100.359860
2702.000000	100.359650
2701.000000	100.359498
2700.000000	100.359628
2699.000000	100.359884
2698.000000	100.359991
2697.000000	100.360076
2696.000000	100.360603
2695.000000	100.361724
2694.000000	100.362934
2693.000000	100.363550
2692.000000	100.363386
2691.000000	100.362749
2690.000000	100.361994
2689.000000	100.361239
2688.000000	100.360533
2687.000000	100.360019
2686.000000	100.359878
2685.000000	100.360215
2684.000000	100.360935
2683.000000	100.361677
2682.000000	100.362016
2681.000000	100.361911
2680.000000	100.361761
2679.000000	100.361887
2678.000000	100.362150
2677.000000	100.362268
2676.000000	100.362253
2675.000000	100.362270
2674.000000	100.362254
2673.000000	100.362034
2672.000000	100.361689
2671.000000	100.361445
2670.000000	100.361260
2669.000000	100.360891
2668.000000	100.360388
2667.000000	100.360146
2666.000000	100.360375
2665.000000	100.360870
2664.000000	100.361330
2663.000000	100.361684
2662.000000	100.361973
2661.000000	100.362144
2660.000000	100.362138
2659.000000	100.362030
2658.000000	100.361913
2657.000000	100.361772
2656.000000	100.361576
2655.000000	100.361384
2654.000000	100.361286
2653.000000	100.361288
2652.000000	100.361339
2651.000000	100.361412
2650.000000	100.361527
2649.000000	100.361696
2648.000000	100.361898
2647.000000	100.362101
2646.000000	100.362270
2645.000000	100.362394
2644.000000	100.362494
2643.000000	100.362605
2642.000000	100.362741
2641.000000	100.362863
2640.000000	100.362921
2639.000000	100.362895
2638.000000	100.362812
2637.000000	100.362742
2636.000000	100.362746
2635.000000	100.362840
2634.000000	100.362985
2633.000000	100.363103
2632.000000	100.363138
2631.000000	100.363108
2630.000000	100.363104
2629.000000	100.363214
2628.000000	100.363443
2627.000000	100.363706
2626.000000	100.363886
2625.000000	100.363905
2624.000000	100.363776
2623.000000	100.363596
2622.000000	100.363451
2621.000000	100.363319
2620.000000	100.363124
2619.000000	100.362933
2618.000000	100.362989
2617.000000	100.363438
2616.000000	100.364078
2615.000000	100.364500
2614.000000	100.364558
2613.000000	100.364557
2612.000000	100.364896
2611.000000	100.365518
2610.000000	100.365896
2609.000000	100.365649
2608.000000	100.365068
2607.000000	100.364871
2606.000000	100.365301
2605.000000	100.365714
2604.000000	100.365317
2603.000000	100.364097
2602.000000	100.362794
2601.000000	100.361953
2600.000000	100.361323
2599.000000	100.360417
2598.000000	100.359421
2597.000000	100.359125
2596.000000	100.359876
2595.000000	100.360996
2594.000000	100.361514
2593.000000	100.361329
2592.000000	100.361243
2591.000000	100.361787
2590.000000	100.362387
2589.000000	100.362054
2588.000000	100.360806
2587.000000	100.359880
2586.000000	100.360316
2585.000000	100.361814
2584.000000	100.363283
2583.000000	100.364147
2582.000000	100.364559
2581.000000	100.364604
2580.000000	100.364136
2579.000000	100.363444
2578.000000	100.363367
2577.000000	100.364427
2576.000000	100.366261
2575.000000	100.368077
2574.000000	100.369290
2573.000000	100.369528
2572.000000	100.368606
2571.000000	100.366918
2570.000000	100.365465
2569.000000	100.365065
2568.000000	100.365698
2567.000000	100.366880
2566.000000	100.368319
2565.000000	100.370002
2564.000000	100.371999
2563.000000	100.374422
2562.000000	100.377252
2561.000000	100.379915
2560.000000	100.381505
2559.000000	100.381764
2558.000000	100.381391
2557.000000	100.381089
2556.000000	100.380671
2555.000000	100.379730
2554.000000	100.378680
2553.000000	100.378396
2552.000000	100.379024
2551.000000	100.379860
2550.000000	100.380380
2549.000000	100.380789
2548.000000	100.381394
2547.000000	100.381975
2546.000000	100.382117
2545.000000	100.381869
2544.000000	100.381712
2543.000000	100.381968
2542.000000	100.382442
2541.000000	100.382646
2540.000000	100.382316
2539.000000	100.381716
2538.000000	100.381398
2537.000000	100.381632
2536.000000	100.382148
2535.000000	100.382399
2534.000000	100.382082
2533.000000	100.381335
2532.000000	100.380618
2531.000000	100.380368
2530.000000	100.380687
2529.000000	100.381326
2528.000000	100.381869
2527.000000	100.382096
2526.000000	100.382087
2525.000000	100.382032
2524.000000	100.382015
2523.000000	100.381977
2522.000000	100.381856
2521.000000	100.381686
2520.000000	100.381563
2519.000000	100.381557
2518.000000	100.381681
2517.000000	100.381911
2516.000000	100.382194
2515.000000	100.382471
2514.000000	100.382708
2513.000000	100.382919
2512.000000	100.383141
2511.000000	100.383395
2510.000000	100.383664
2509.000000	100.383913
2508.000000	100.384121
2507.000000	100.384297
2506.000000	100.384483
2505.000000	100.384730
2504.000000	100.385059
2503.000000	100.385453
2502.000000	100.385888
2501.000000	100.386366
2500.000000	100.386892
2499.000000	100.387443
2498.000000	100.387987
2497.000000	100.388511
2496.000000	100.389021
2495.000000	100.389533
2494.000000	100.390064
2493.000000	100.390620
2492.000000	100.391200
2491.000000	100.391807
2490.000000	100.392433
2489.000000	100.393063
2488.000000	100.393679
2487.000000	100.394268
2486.000000	100.394829
2485.000000	100.395375
2484.000000	100.395924
2483.000000	100.396493
2482.000000	100.397090
2481.000000	100.397717
2480.000000	100.398365
2479.000000	100.399021
2478.000000	100.399678
2477.000000	100.400345
2476.000000	100.401028
2475.000000	100.401710
2474.000000	100.402360
2473.000000	100.402988
2472.000000	100.403661
2471.000000	100.404448
2470.000000	100.405334
2469.000000	100.406194
2468.000000	100.406880
2467.000000	100.407338
2466.000000	100.407669
2465.000000	100.408100
2464.000000	100.408807
2463.000000	100.409816
2462.000000	100.411013
2461.000000	100.412233
2460.000000	100.413329
2459.000000	100.414180
2458.000000	100.414774
2457.000000	100.415267
2456.000000	100.415797
2455.000000	100.416238
2454.000000	100.416356
2453.000000	100.416235
2452.000000	100.416294
2451.000000	100.416816
2450.000000	100.417607
2449.000000	100.418231
2448.000000	100.418456
2447.000000	100.418394
2446.000000	100.418396
2445.000000	100.418930
2444.000000	100.420405
2443.000000	100.422862
2442.000000	100.425861
2441.000000	100.428716
2440.000000	100.430847
2439.000000	100.432039
2438.000000	100.432485
2437.000000	100.432578
2436.000000	100.432586
2435.000000	100.432515
2434.000000	100.432437
2433.000000	100.432764
2432.000000	100.433869
2431.000000	100.435497
2430.000000	100.436853
2429.000000	100.437471
2428.000000	100.437704
2427.000000	100.438235
2426.000000	100.439282
2425.000000	100.440520
2424.000000	100.441551
2423.000000	100.442199
2422.000000	100.442471
2421.000000	100.442567
2420.000000	100.442857
2419.000000	100.443611
2418.000000	100.444680
2417.000000	100.445602
2416.000000	100.446059
2415.000000	100.446149
2414.000000	100.446166
2413.000000	100.446311
2412.000000	100.446615
2411.000000	100.447028
2410.000000	100.447485
2409.000000	100.447922
2408.000000	100.448286
2407.000000	100.448573
2406.000000	100.448817
2405.000000	100.449043
2404.000000	100.449253
2403.000000	100.449444
2402.000000	100.449624
2401.000000	100.449801
2400.000000	100.449984
2399.000000	100.450171
2398.000000	100.450356
2397.000000	100.450530
2396.000000	100.450692
2395.000000	100.450849
2394.000000	100.451005
2393.000000	100.451151
2392.000000	100.451273
2391.000000	100.451366
2390.000000	100.451440
2389.000000	100.451510
2388.000000	100.451579
2387.000000	100.451639
2386.000000	100.451674
2385.000000	100.451675
2384.000000	100.451641
2383.000000	100.451585
2382.000000	100.451518
2381.000000	100.451448
2380.000000	100.451371
2379.000000	100.451272
2378.000000	100.451135
2377.000000	100.450947
2376.000000	100.450711
2375.000000	100.450439
2374.000000	100.450150
2373.000000	100.449858
2372.000000	100.449570
2371.000000	100.449286
2370.000000	100.448988
2369.000000	100.448652
2368.000000	100.448253
2367.000000	100.447789
2366.000000	100.447277
2365.000000	100.446736
2364.000000	100.446172
2363.000000	100.445587
2362.000000	100.444988
2361.000000	100.444381
2360.000000	100.443759
2359.000000	100.443111
2358.000000	100.442422
2357.000000	100.441688
2356.000000	100.440914
2355.000000	100.440121
2354.000000	100.439330
2353.000000	100.438552
2352.000000	100.437781
2351.000000	100.437014
2350.000000	100.436255
2349.000000	100.435506
2348.000000	100.434757
2347.000000	100.433981
2346.000000	100.433161
2345.000000	100.432304
2344.000000	100.431439
2343.000000	100.430596
2342.000000	100.429786
2341.000000	100.428999
2340.000000	100.428216
2339.000000	100.427424
2338.000000	100.426625
2337.000000	100.425832
2336.000000	100.425057
2335.000000	100.424304
2334.000000	100.423568
2333.000000	100.422849
2332.000000	100.422151
2331.000000	100.421478
2330.000000	100.420825
2329.000000	100.420177
2328.000000	100.419521
2327.000000	100.418858
2326.000000	100.418211
2325.000000	100.417603
2324.000000	100.417039
2323.000000	100.416517
2322.000000	100.416032
2321.000000	100.415584
2320.000000	100.415169
2319.000000	100.414768
2318.000000	100.414361
2317.000000	100.413943
2316.000000	100.413523
2315.000000	100.413113
2314.000000	100.412727
2313.000000	100.412366
2312.000000	100.412019
2311.000000	100.411667
2310.000000	100.411299
2309.000000	100.410915
2308.000000	100.410524
2307.000000	100.410134
2306.000000	100.409753
2305.000000	100.409387
2304.000000	100.409041
2303.000000	100.408709
2302.000000	100.408373
2301.000000	100.408013
2300.000000	100.407614
2299.000000	100.407178
2298.000000	100.406715
2297.000000	100.406233
2296.000000	100.405732
2295.000000	100.405201
2294.000000	100.404635
2293.000000	100.404043
2292.000000	100.403437
2291.000000	100.402831
2290.000000	100.402249
2289.000000	100.401721
2288.000000	100.401228
2287.000000	100.400670
2286.000000	100.399958
2285.000000	100.399122
2284.000000	100.398335
2283.000000	100.397683
2282.000000	100.397102
2281.000000	100.396460
2280.000000	100.395682
2279.000000	100.394772
2278.000000	100.393777
2277.000000	100.392752
2276.000000	100.391771
2275.000000	100.390963
2274.000000	100.390451
2273.000000	100.390215
2272.000000	100.390046
2271.000000	100.389675
2270.000000	100.388979
2269.000000	100.388082
2268.000000	100.387181
2267.000000	100.386352
2266.000000	100.385608
2265.000000	100.384968
2264.000000	100.384367
2263.000000	100.383624
2262.000000	100.382605
2261.000000	100.381406
2260.000000	100.380250
2259.000000	100.379233
2258.000000	100.378319
2257.000000	100.377509
2256.000000	100.376882
2255.000000	100.376454
2254.000000	100.376132
2253.000000	100.375777
2252.000000	100.375319
2251.000000	100.374786
2250.000000	100.374270
2249.000000	100.373856
2248.000000	100.373534
2247.000000	100.373205
2246.000000	100.372802
2245.000000	100.372385
2244.000000	100.372068
2243.000000	100.371875
2242.000000	100.371733
2241.000000	100.371564
2240.000000	100.371340
2239.000000	100.371076
2238.000000	100.370796
2237.000000	100.370519
2236.000000	100.370261
2235.000000	100.370029
2234.000000	100.369824
2233.000000	100.369642
2232.000000	100.369485
2231.000000	100.369351
2230.000000	100.369243
2229.000000	100.369154
2228.000000	100.369071
2227.000000	100.368981
2226.000000	100.368881
2225.000000	100.368779
2224.000000	100.368681
2223.000000	100.368592
2222.000000	100.368510
2221.000000	100.368437
2220.000000	100.368382
2219.000000	100.368357
2218.000000	100.368369
2217.000000	100.368415
2216.000000	100.368481
2215.000000	100.368553
2214.000000	100.368621
2213.000000	100.368676
2212.000000	100.368723
2211.000000	100.368783
2210.000000	100.368872
2209.000000	100.368986
2208.000000	100.369107
2207.000000	100.369229
2206.000000	100.369390
2205.000000	100.369661
2204.000000	100.370083
2203.000000	100.370612
2202.000000	100.371121
2201.000000	100.371473
2200.000000	100.371595
2199.000000	100.371526
2198.000000	100.371426
2197.000000	100.371487
2196.000000	100.371782
2195.000000	100.372185
2194.000000	100.372497
2193.000000	100.372704
2192.000000	100.372974
2191.000000	100.373405
2190.000000	100.373879
2189.000000	100.374191
2188.000000	100.374181
2187.000000	100.373748
2186.000000	100.372914
2185.000000	100.372017
2184.000000	100.371653
2183.000000	100.372204
2182.000000	100.373558
2181.000000	100.375213
2180.000000	100.376659
2179.000000	100.377659
2178.000000	100.378192
2177.000000	100.378343
2176.000000	100.378212
2175.000000	100.377907
2174.000000	100.377601
2173.000000	100.377500
2172.000000	100.377716
2171.000000	100.378170
2170.000000	100.378698
2169.000000	100.379224
2168.000000	100.379773
2167.000000	100.380325
2166.000000	100.380768
2165.000000	100.381051
2164.000000	100.381306
2163.000000	100.381746
2162.000000	100.382401
2161.000000	100.383013
2160.000000	100.383266
2159.000000	100.383111
2158.000000	100.382805
2157.000000	100.382624
2156.000000	100.382577
2155.000000	100.382509
2154.000000	100.382451
2153.000000	100.382719
2152.000000	100.383531
2151.000000	100.384696
2150.000000	100.385678
2149.000000	100.386092
2148.000000	100.385987
2147.000000	100.385788
2146.000000	100.385979
2145.000000	100.386701
2144.000000	100.387741
2143.000000	100.388745
2142.000000	100.389510
2141.000000	100.390025
2140.000000	100.390378
2139.000000	100.390720
2138.000000	100.391212
2137.000000	100.391916
2136.000000	100.392738
2135.000000	100.393569
2134.000000	100.394461
2133.000000	100.395556
2132.000000	100.396865
2131.000000	100.398202
2130.000000	100.399350
2129.000000	100.400246
2128.000000	100.400996
2127.000000	100.401799
2126.000000	100.402819
2125.000000	100.404027
2124.000000	100.405160
2123.000000	100.405977
2122.000000	100.406582
2121.000000	100.407342
2120.000000	100.408448
2119.000000	100.409722
2118.000000	100.410920
2117.000000	100.412042
2116.000000	100.413189
2115.000000	100.414236
2114.000000	100.414939
2113.000000	100.415362
2112.000000	100.415936
2111.000000	100.416959
2110.000000	100.418270
2109.000000	100.419559
2108.000000	100.420799
2107.000000	100.422089
2106.000000	100.423182
2105.000000	100.423667
2104.000000	100.423548
2103.000000	100.423374
2102.000000	100.423751
2101.000000	100.424738
2100.000000	100.425907
2099.000000	100.426863
2098.000000	100.427721
2097.000000	100.428919
2096.000000	100.430562
2095.000000	100.432214
2094.000000	100.433467
2093.000000	100.434446
2092.000000	100.435511
2091.000000	100.436675
2090.000000	100.437693
2089.000000	100.438565
2088.000000	100.439568
2087.000000	100.440764
2086.000000	100.441776
2085.000000	100.442069
2084.000000	100.441336
2083.000000	100.439851
2082.000000	100.438687
2081.000000	100.439195
2080.000000	100.441785
2079.000000	100.445245
2078.000000	100.447753
2077.000000	100.448736
2076.000000	100.449163
2075.000000	100.450024
2074.000000	100.451026
2073.000000	100.451159
2072.000000	100.450171
2071.000000	100.449052
2070.000000	100.448996
2069.000000	100.449983
2068.000000	100.450593
2067.000000	100.449447
2066.000000	100.446778
2065.000000	100.444364
2064.000000	100.443749
2063.000000	100.444989
2062.000000	100.447251
2061.000000	100.449745
2060.000000	100.451616
2059.000000	100.451906
2058.000000	100.450612
2057.000000	100.449167
2056.000000	100.448642
2055.000000	100.447904
2054.000000	100.444986
2053.000000	100.440019
2052.000000	100.435561
2051.000000	100.433666
2050.000000	100.433725
2049.000000	100.433691
2048.000000	100.432452
2047.000000	100.430455
2046.000000	100.428609
2045.000000	100.427299
2044.000000	100.426216
2043.000000	100.424756
2042.000000	100.422665
2041.000000	100.420280
2040.000000	100.417877
2039.000000	100.415097
2038.000000	100.411580
2037.000000	100.407912
2036.000000	100.405145
2035.000000	100.403523
2034.000000	100.402434
2033.000000	100.401513
2032.000000	100.400968
2031.000000	100.400794
2030.000000	100.400583
2029.000000	100.400232
2028.000000	100.399963
2027.000000	100.399523
2026.000000	100.398207
2025.000000	100.395918
2024.000000	100.393485
2023.000000	100.391616
2022.000000	100.390138
2021.000000	100.388585
2020.000000	100.386938
2019.000000	100.385402
2018.000000	100.383994
2017.000000	100.382689
2016.000000	100.381573
2015.000000	100.380567
2014.000000	100.379297
2013.000000	100.377460
2012.000000	100.375172
2011.000000	100.372906
2010.000000	100.371184
2009.000000	100.370298
2008.000000	100.370134
2007.000000	100.370107
2006.000000	100.369594
2005.000000	100.368446
2004.000000	100.366949
2003.000000	100.365418
2002.000000	100.363969
2001.000000	100.362695
2000.000000	100.361769
1999.000000	100.361191
1998.000000	100.360661
1997.000000	100.359932
1996.000000	100.359120
1995.000000	100.358433
1994.000000	100.357827
1993.000000	100.357161
1992.000000	100.356490
1991.000000	100.355958
1990.000000	100.355495
1989.000000	100.354877
1988.000000	100.354038
1987.000000	100.353161
1986.000000	100.352437
1985.000000	100.351834
1984.000000	100.351205
1983.000000	100.350478
1982.000000	100.349695
1981.000000	100.348915
1980.000000	100.348179
1979.000000	100.347509
1978.000000	100.346901
1977.000000	100.346316
1976.000000	100.345734
1975.000000	100.345165
1974.000000	100.344613
1973.000000	100.344060
1972.000000	100.343484
1971.000000	100.342890
1970.000000	100.342314
1969.000000	100.341793
1968.000000	100.341316
1967.000000	100.340832
1966.000000	100.340293
1965.000000	100.339701
1964.000000	100.339104
1963.000000	100.338549
1962.000000	100.338031
1961.000000	100.337521
1960.000000	100.337019
1959.000000	100.336547
1958.000000	100.336106
1957.000000	100.335643
1956.000000	100.335096
1955.000000	100.334435
1954.000000	100.333692
1953.000000	100.332941
1952.000000	100.332248
1951.000000	100.331629
1950.000000	100.331022
1949.000000	100.330308
1948.000000	100.329405
1947.000000	100.328324
1946.000000	100.327163
1945.000000	100.326054
1944.000000	100.325088
1943.000000	100.324288
1942.000000	100.323576
1941.000000	100.322794
1940.000000	100.321812
1939.000000	100.320591
1938.000000	100.319193
1937.000000	100.317755
1936.000000	100.316435
1935.000000	100.315345
1934.000000	100.314472
1933.000000	100.313632
1932.000000	100.312588
1931.000000	100.311229
1930.000000	100.309618
1929.000000	100.307850
1928.000000	100.305950
1927.000000	100.303961
1926.000000	100.302054
1925.000000	100.300404
1924.000000	100.298949
1923.000000	100.297350
1922.000000	100.295313
1921.000000	100.292884
1920.000000	100.290414
1919.000000	100.288436
1918.000000	100.287368
1917.000000	100.286953
1916.000000	100.286151
1915.000000	100.284124
1914.000000	100.281036
1913.000000	100.277869
1912.000000	100.275310
1911.000000	100.273068
1910.000000	100.270547
1909.000000	100.267692
1908.000000	100.264792
1907.000000	100.261953
1906.000000	100.259277
1905.000000	100.257173
1904.000000	100.255880
1903.000000	100.254882
1902.000000	100.253363
1901.000000	100.251024
1900.000000	100.248178
1899.000000	100.245333
1898.000000	100.242828
1897.000000	100.240503
1896.000000	100.237475
1895.000000	100.232986
1894.000000	100.227996
1893.000000	100.224759
1892.000000	100.224303
1891.000000	100.225330
1890.000000	100.225622
1889.000000	100.224270
1888.000000	100.222030
1887.000000	100.219840
1886.000000	100.218144
1885.000000	100.217109
1884.000000	100.216473
1883.000000	100.215707
1882.000000	100.214907
1881.000000	100.214763
1880.000000	100.215442
1879.000000	100.216434
1878.000000	100.217556
1877.000000	100.218967
1876.000000	100.219837
1875.000000	100.218309
1874.000000	100.213839
1873.000000	100.208706
1872.000000	100.206012
1871.000000	100.206847
1870.000000	100.209933
1869.000000	100.212733
1868.000000	100.212994
1867.000000	100.210576
1866.000000	100.207722
1865.000000	100.206704
1864.000000	100.207431
1863.000000	100.207895
1862.000000	100.207324
1861.000000	100.207654
1860.000000	100.210489
1859.000000	100.214464
1858.000000	100.217761
1857.000000	100.221433
1856.000000	100.227583
1855.000000	100.235469
1854.000000	100.241835
1853.000000	100.244876
1852.000000	100.245741
1851.000000	100.246180
1850.000000	100.246691
1849.000000	100.247292
1848.000000	100.248577
1847.000000	100.250873
1846.000000	100.253486
1845.000000	100.255738
1844.000000	100.258334
1843.000000	100.262296
1842.000000	100.266570
1841.000000	100.268789
1840.000000	100.268122
1839.000000	100.266016
1838.000000	100.264629
1837.000000	100.264784
1836.000000	100.265606
1835.000000	100.266088
1834.000000	100.266523
1833.000000	100.268086
1832.000000	100.271368
1831.000000	100.275144
1830.000000	100.276809
1829.000000	100.275466
1828.000000	100.273257
1827.000000	100.272176
1826.000000	100.272524
1825.000000	100.274020
1824.000000	100.276352
1823.000000	100.278754
1822.000000	100.280393
1821.000000	100.281517
1820.000000	100.283013
1819.000000	100.284476
1818.000000	100.284115
1817.000000	100.281276
1816.000000	100.277621
1815.000000	100.275021
1814.000000	100.273737
1813.000000	100.273263
1812.000000	100.273374
1811.000000	100.273523
1810.000000	100.273019
1809.000000	100.272506
1808.000000	100.272992
1807.000000	100.273935
1806.000000	100.273922
1805.000000	100.272569
1804.000000	100.270641
1803.000000	100.268768
1802.000000	100.267356
1801.000000	100.267599
1800.000000	100.270507
1799.000000	100.274965
1798.000000	100.278951
1797.000000	100.282003
1796.000000	100.284912
1795.000000	100.287943
1794.000000	100.290342
1793.000000	100.291350
1792.000000	100.291051
1791.000000	100.289959
1790.000000	100.288753
1789.000000	100.288327
1788.000000	100.289269
1787.000000	100.291257
1786.000000	100.293200
1785.000000	100.294505
1784.000000	100.295809
1783.000000	100.298062
1782.000000	100.301424
1781.000000	100.305139
1780.000000	100.308179
1779.000000	100.310009
1778.000000	100.310645
1777.000000	100.310504
1776.000000	100.310408
1775.000000	100.311323
1774.000000	100.313595
1773.000000	100.316397
1772.000000	100.318694
1771.000000	100.320653
1770.000000	100.322943
1769.000000	100.325988
1768.000000	100.330406
1767.000000	100.336437
1766.000000	100.342983
1765.000000	100.348152
1764.000000	100.350676
1763.000000	100.350771
1762.000000	100.350356
1761.000000	100.351944
1760.000000	100.356075
1759.000000	100.360574
1758.000000	100.362832
1757.000000	100.362148
1756.000000	100.360562
1755.000000	100.360623
1754.000000	100.362206
1753.000000	100.363414
1752.000000	100.363283
1751.000000	100.363219
1750.000000	100.365207
1749.000000	100.369335
1748.000000	100.374653
1747.000000	100.380134
1746.000000	100.384423
1745.000000	100.386389
1744.000000	100.386494
1743.000000	100.386410
1742.000000	100.386853
1741.000000	100.387622
1740.000000	100.389098
1739.000000	100.391665
1738.000000	100.394280
1737.000000	100.395658
1736.000000	100.395542
1735.000000	100.394127
1734.000000	100.391551
1733.000000	100.388790
1732.000000	100.386703
1731.000000	100.385579
1730.000000	100.385919
1729.000000	100.387473
1728.000000	100.389201
1727.000000	100.390037
1726.000000	100.389256
1725.000000	100.386740
1724.000000	100.383274
1723.000000	100.379774
1722.000000	100.376259
1721.000000	100.372545
1720.000000	100.369001
1719.000000	100.365756
1718.000000	100.362004
1717.000000	100.358784
1716.000000	100.357984
1715.000000	100.358411
1714.000000	100.358158
1713.000000	100.356552
1712.000000	100.353463
1711.000000	100.349023
1710.000000	100.344123
1709.000000	100.340616
1708.000000	100.339894
1707.000000	100.341214
1706.000000	100.342130
1705.000000	100.341153
1704.000000	100.338943
1703.000000	100.335800
1702.000000	100.330571
1701.000000	100.322796
1700.000000	100.315699
1699.000000	100.312305
1698.000000	100.310640
1697.000000	100.307953
1696.000000	100.303327
1695.000000	100.297683
1694.000000	100.292332
1693.000000	100.287426
1692.000000	100.282794
1691.000000	100.278364
1690.000000	100.273894
1689.000000	100.269089
1688.000000	100.264011
1687.000000	100.259034
1686.000000	100.254542
1685.000000	100.250768
1684.000000	100.247368
1683.000000	100.243605
1682.000000	100.239406
1681.000000	100.234757
1680.000000	100.229743
1679.000000	100.224740
1678.000000	100.220261
1677.000000	100.216592
1676.000000	100.213597
1675.000000	100.210630
1674.000000	100.206868
1673.000000	100.202070
1672.000000	100.196746
1671.000000	100.191922
1670.000000	100.188482
1669.000000	100.186203
1668.000000	100.183896
1667.000000	100.180868
1666.000000	100.177015
1665.000000	100.172356
1664.000000	100.167050
1663.000000	100.161657
1662.000000	100.157007
1661.000000	100.153348
1660.000000	100.150206
1659.000000	100.147288
1658.000000	100.144525
1657.000000	100.141586
1656.000000	100.137999
1655.000000	100.134069
1654.000000	100.130888
1653.000000	100.128780
1652.000000	100.126734
1651.000000	100.123844
1650.000000	100.119046
1649.000000	100.113013
1648.000000	100.106531
1647.000000	100.101293
1646.000000	100.098910
1645.000000	100.098055
1644.000000	100.096186
1643.000000	100.093344
1642.000000	100.091626
1641.000000	100.091967
1640.000000	100.092850
1639.000000	100.092873
1638.000000	100.093348
1637.000000	100.097029
1636.000000	100.103038
1635.000000	100.105608
1634.000000	100.102377
1633.000000	100.096164
1632.000000	100.090070
1631.000000	100.085988
1630.000000	100.084670
1629.000000	100.085421
1628.000000	100.085875
1627.000000	100.083882
1626.000000	100.079528
1625.000000	100.074640
1624.000000	100.071460
1623.000000	100.071423
1622.000000	100.073843
1621.000000	100.076493
1620.000000	100.078613
1619.000000	100.082037
1618.000000	100.088646
1617.000000	100.096220
1616.000000	100.099172
1615.000000	100.097338
1614.000000	100.095644
1613.000000	100.096587
1612.000000	100.098912
1611.000000	100.100621
1610.000000	100.101968
1609.000000	100.104251
1608.000000	100.107162
1607.000000	100.109521
1606.000000	100.111069
1605.000000	100.112022
1604.000000	100.112436
1603.000000	100.113081
1602.000000	100.115248
1601.000000	100.119109
1600.000000	100.123524
1599.000000	100.127855
1598.000000	100.132671
1597.000000	100.138553
1596.000000	100.145170
1595.000000	100.151767
1594.000000	100.157996
1593.000000	100.163703
1592.000000	100.168802
1591.000000	100.173796
1590.000000	100.179494
1589.000000	100.185631
1588.000000	100.190943
1587.000000	100.194878
1586.000000	100.197986
1585.000000	100.200553
1584.000000	100.202284
1583.000000	100.203857
1582.000000	100.206885
1581.000000	100.211327
1580.000000	100.215453
1579.000000	100.218949
1578.000000	100.223828
1577.000000	100.231012
1576.000000	100.237068
1575.000000	100.238732
1574.000000	100.238070
1573.000000	100.238695
1572.000000	100.242671
1571.000000	100.249895
1570.000000	100.258070
1569.000000	100.264039
1568.000000	100.267379
1567.000000	100.269915
1566.000000	100.272379
1565.000000	100.274355
1564.000000	100.275657
1563.000000	100.276957
1562.000000	100.278891
1561.000000	100.280877
1560.000000	100.282438
1559.000000	100.283125
1558.000000	100.285165
1557.000000	100.288883
1556.000000	100.291703
1555.000000	100.293179
1554.000000	100.293937
1553.000000	100.294660
1552.000000	100.296105
1551.000000	100.298563
1550.000000	100.300995
1549.000000	100.301795
1548.000000	100.300860
1547.000000	100.299350
1546.000000	100.298595
1545.000000	100.299392
1544.000000	100.301573
1543.000000	100.304395
1542.000000	100.307196
1541.000000	100.309493
1540.000000	100.310488
1539.000000	100.310708
1538.000000	100.311582
1537.000000	100.312339
1536.000000	100.312863
1535.000000	100.313997
1534.000000	100.315819
1533.000000	100.316826
1532.000000	100.315724
1531.000000	100.312829
1530.000000	100.309189
1529.000000	100.305919
1528.000000	100.303534
1527.000000	100.301945
1526.000000	100.301384
1525.000000	100.302362
1524.000000	100.304375
1523.000000	100.306034
1522.000000	100.306537
1521.000000	100.306927
1520.000000	100.308498
1519.000000	100.310546
1518.000000	100.311560
1517.000000	100.310800
1516.000000	100.308986
1515.000000	100.307770
1514.000000	100.307739
1513.000000	100.308384
1512.000000	100.309155
1511.000000	100.309772
1510.000000	100.310268
1509.000000	100.310863
1508.000000	100.311434
1507.000000	100.310894
1506.000000	100.309758
1505.000000	100.310561
1504.000000	100.312756
1503.000000	100.314567
1502.000000	100.315557
1501.000000	100.316295
1500.000000	100.317785
1499.000000	100.320222
1498.000000	100.322120
1497.000000	100.321989
1496.000000	100.320541
1495.000000	100.319344
1494.000000	100.318959
1493.000000	100.319798
1492.000000	100.322504
1491.000000	100.326729
1490.000000	100.330381
1489.000000	100.332334
1488.000000	100.333848
1487.000000	100.335442
1486.000000	100.336520
1485.000000	100.336893
1484.000000	100.336856
1483.000000	100.336875
1482.000000	100.337464
1481.000000	100.339272
1480.000000	100.342511
1479.000000	100.346292
1478.000000	100.349610
1477.000000	100.352522
1476.000000	100.355789
1475.000000	100.359244
1474.000000	100.362237
1473.000000	100.364761
1472.000000	100.367036
1471.000000	100.368379
1470.000000	100.368415
1469.000000	100.368179
1468.000000	100.369357
1467.000000	100.372526
1466.000000	100.376771
1465.000000	100.380755
1464.000000	100.383524
1463.000000	100.384549
1462.000000	100.383531
1461.000000	100.381463
1460.000000	100.380655
1459.000000	100.382788
1458.000000	100.385558
1457.000000	100.383888
1456.000000	100.378763
1455.000000	100.375149
1454.000000	100.373695
1453.000000	100.373860
1452.000000	100.375477
1451.000000	100.377886
1450.000000	100.379595
1449.000000	100.379527
1448.000000	100.378020
1447.000000	100.376017
1446.000000	100.374123
1445.000000	100.372620
1444.000000	100.371402
1443.000000	100.369848
1442.000000	100.366949
1441.000000	100.362530
1440.000000	100.358129
1439.000000	100.356049
1438.000000	100.357515
1437.000000	100.361745
1436.000000	100.366086
1435.000000	100.368171
1434.000000	100.367453
1433.000000	100.364831
1432.000000	100.361845
1431.000000	100.359961
1430.000000	100.359470
1429.000000	100.359540
1428.000000	100.359457
1427.000000	100.358693
1426.000000	100.356773
1425.000000	100.353656
1424.000000	100.350279
1423.000000	100.347977
1422.000000	100.346742
1421.000000	100.346011
1420.000000	100.346436
1419.000000	100.348894
1418.000000	100.351970
1417.000000	100.354446
1416.000000	100.357267
1415.000000	100.360734
1414.000000	100.363295
1413.000000	100.363520
1412.000000	100.362412
1411.000000	100.362441
1410.000000	100.364197
1409.000000	100.366091
1408.000000	100.367169
1407.000000	100.368219
1406.000000	100.370394
1405.000000	100.373590
1404.000000	100.376515
1403.000000	100.377903
1402.000000	100.377257
1401.000000	100.375363
1400.000000	100.374264
1399.000000	100.375697
1398.000000	100.378906
1397.000000	100.381649
1396.000000	100.383111
1395.000000	100.384116
1394.000000	100.385204
1393.000000	100.386008
1392.000000	100.386866
1391.000000	100.388960
1390.000000	100.392973
1389.000000	100.398334
1388.000000	100.403568
1387.000000	100.407278
1386.000000	100.408935
1385.000000	100.408979
1384.000000	100.408518
1383.000000	100.408820
1382.000000	100.410296
1381.000000	100.412037
1380.000000	100.412704
1379.000000	100.411803
1378.000000	100.409927
1377.000000	100.407965
1376.000000	100.406654
1375.000000	100.406833
1374.000000	100.409257
1373.000000	100.413679
1372.000000	100.418829
1371.000000	100.423470
1370.000000	100.427148
1369.000000	100.429864
1368.000000	100.431779
1367.000000	100.433181
1366.000000	100.434217
1365.000000	100.434819
1364.000000	100.434957
1363.000000	100.434920
1362.000000	100.435484
1361.000000	100.437282
1360.000000	100.440006
1359.000000	100.442652
1358.000000	100.444431
1357.000000	100.445244
1356.000000	100.445540
1355.000000	100.445724
1354.000000	100.445751
1353.000000	100.445500
1352.000000	100.445176
1351.000000	100.445061
1350.000000	100.445394
1349.000000	100.446140
1348.000000	100.447092
1347.000000	100.448007
1346.000000	100.448588
1345.000000	100.448703
1344.000000	100.448783
1343.000000	100.449567
1342.000000	100.451199
1341.000000	100.452752
1340.000000	100.452914
1339.000000	100.451341
1338.000000	100.448952
1337.000000	100.446828
1336.000000	100.445461
1335.000000	100.444959
1334.000000	100.445463
1333.000000	100.447118
1332.000000	100.449554
1331.000000	100.451583
1330.000000	100.451954
1329.000000	100.450662
1328.000000	100.449166
1327.000000	100.448849
1326.000000	100.449432
1325.000000	100.449523
1324.000000	100.448872
1323.000000	100.448963
1322.000000	100.450872
1321.000000	100.453426
1320.000000	100.454428
1319.000000	100.453203
1318.000000	100.451015
1317.000000	100.449210
1316.000000	100.447874
1315.000000	100.446646
1314.000000	100.445881
1313.000000	100.446455
1312.000000	100.448561
1311.000000	100.451069
1310.000000	100.452380
1309.000000	100.452024
1308.000000	100.451150
1307.000000	100.451056
1306.000000	100.451376
1305.000000	100.450478
1304.000000	100.448004
1303.000000	100.445940
1302.000000	100.446400
1301.000000	100.448875
1300.000000	100.450662
1299.000000	100.449982
1298.000000	100.447842
1297.000000	100.446682
1296.000000	100.447685
1295.000000	100.450007
1294.000000	100.452190
1293.000000	100.453455
1292.000000	100.453379
1291.000000	100.451216
1290.000000	100.446536
1289.000000	100.440436
1288.000000	100.435169
1287.000000	100.432081
1286.000000	100.430444
1285.000000	100.428658
1284.000000	100.426018
1283.000000	100.422866
1282.000000	100.419928
1281.000000	100.418279
1280.000000	100.419028
1279.000000	100.422009
1278.000000	100.425321
1277.000000	100.427415
1276.000000	100.429055
1275.000000	100.431995
1274.000000	100.436228
1273.000000	100.439925
1272.000000	100.441685
1271.000000	100.441396
1270.000000	100.439256
1269.000000	100.435567
1268.000000	100.431326
1267.000000	100.427358
1266.000000	100.423040
1265.000000	100.417793
1264.000000	100.413569
1263.000000	100.413505
1262.000000	100.417875
1261.000000	100.423505
1260.000000	100.427512
1259.000000	100.429709
1258.000000	100.430891
1257.000000	100.431036
1256.000000	100.429757
1255.000000	100.426601
1254.000000	100.420503
1253.000000	100.411056
1252.000000	100.400808
1251.000000	100.394208
1250.000000	100.393265
1249.000000	100.395760
1248.000000	100.398178
1247.000000	100.398609
1246.000000	100.396542
1245.000000	100.392264
1244.000000	100.387014
1243.000000	100.381447
1242.000000	100.373550
1241.000000	100.360715
1240.000000	100.344488
1239.000000	100.330424
1238.000000	100.321917
1237.000000	100.316602
1236.000000	100.310290
1235.000000	100.301847
1234.000000	100.292594
1233.000000	100.283359
1232.000000	100.274293
1231.000000	100.265743
1230.000000	100.257236
1229.000000	100.247038
1228.000000	100.234282
1227.000000	100.219950
1226.000000	100.204243
1225.000000	100.184881
1224.000000	100.160325
1223.000000	100.133487
1222.000000	100.109846
1221.000000	100.091942
1220.000000	100.077140
1219.000000	100.060439
1218.000000	100.038451
1217.000000	100.011497
1216.000000	99.983103
1215.000000	99.956978
1214.000000	99.933451
1213.000000	99.909045
1212.000000	99.879803
1211.000000	99.844280
1210.000000	99.803692
1209.000000	99.761023
1208.000000	99.720678
1207.000000	99.687134
1206.000000	99.662225
1205.000000	99.643829
1204.000000	99.627166
1203.000000	99.606834
1202.000000	99.578771
1201.000000	99.542686
1200.000000	99.502978
1199.000000	99.465521
1198.000000	99.432999
1197.000000	99.404616
1196.000000	99.379268
1195.000000	99.355976
1194.000000	99.331555
1193.000000	99.301680
1192.000000	99.265700
1191.000000	99.227960
1190.000000	99.193112
1189.000000	99.162222
1188.000000	99.134418
1187.000000	99.109485
1186.000000	99.086872
1185.000000	99.064056
1184.000000	99.037804
1183.000000	99.006444
1182.000000	98.970486
1181.000000	98.932003
1180.000000	98.893233
1179.000000	98.854387
1178.000000	98.813377
1177.000000	98.769453
1176.000000	98.725860
1175.000000	98.686084
1174.000000	98.648710
1173.000000	98.609699
1172.000000	98.568748
1171.000000	98.528643
1170.000000	98.488961
1169.000000	98.446387
1168.000000	98.402192
1167.000000	98.363323
1166.000000	98.333647
1165.000000	98.309563
1164.000000	98.287435
1163.000000	98.270914
1162.000000	98.266838
1161.000000	98.276577
1160.000000	98.294109
1159.000000	98.310412
1158.000000	98.318240
1157.000000	98.314997
1156.000000	98.302873
1155.000000	98.284980
1154.000000	98.260824
1153.000000	98.227769
1152.000000	98.186789
1151.000000	98.143047
1150.000000	98.099669
1149.000000	98.054685
1148.000000	98.006030
1147.000000	97.956386
1146.000000	97.910944
1145.000000	97.872372
1144.000000	97.839196
1143.000000	97.807234
1142.000000	97.772526
1141.000000	97.735015
1140.000000	97.698319
1139.000000	97.662984
1138.000000	97.622300
1137.000000	97.570187
1136.000000	97.511697
1135.000000	97.459228
1134.000000	97.418006
1133.000000	97.381960
1132.000000	97.344286
1131.000000	97.304214
1130.000000	97.261884
1129.000000	97.215092
1128.000000	97.164972
1127.000000	97.117678
1126.000000	97.075687
1125.000000	97.033473
1124.000000	96.986371
1123.000000	96.937904
1122.000000	96.892983
1121.000000	96.849123
1120.000000	96.800755
1119.000000	96.748926
1118.000000	96.700677
1117.000000	96.660619
1116.000000	96.627952
1115.000000	96.599911
1114.000000	96.574007
1113.000000	96.547723
1112.000000	96.518824
1111.000000	96.485964
1110.000000	96.448699
1109.000000	96.408580
1108.000000	96.369941
1107.000000	96.336091
1106.000000	96.304840
1105.000000	96.272165
1104.000000	96.240276
1103.000000	96.216316
1102.000000	96.201873
1101.000000	96.189382
1100.000000	96.171012
1099.000000	96.145028
1098.000000	96.113094
1097.000000	96.076876
1096.000000	96.040062
1095.000000	96.007511
1094.000000	95.978704
1093.000000	95.946845
1092.000000	95.907750
1091.000000	95.865588
1090.000000	95.827618
1089.000000	95.797601
1088.000000	95.776081
1087.000000	95.761512
1086.000000	95.748286
1085.000000	95.728913
1084.000000	95.701828
1083.000000	95.673833
1082.000000	95.652441
1081.000000	95.638382
1080.000000	95.626560
1079.000000	95.611007
1078.000000	95.588500
1077.000000	95.560851
1076.000000	95.533610
1075.000000	95.509267
1074.000000	95.483387
1073.000000	95.451336
1072.000000	95.414971
1071.000000	95.376289
1070.000000	95.328242
1069.000000	95.261038
1068.000000	95.175829
1067.000000	95.083362
1066.000000	94.989842
1065.000000	94.893800
1064.000000	94.796965
1063.000000	94.706611
1062.000000	94.624675
1061.000000	94.545242
1060.000000	94.465979
1059.000000	94.391860
1058.000000	94.324114
1057.000000	94.255795
1056.000000	94.183007
1055.000000	94.111226
1054.000000	94.045207
1053.000000	93.980456
1052.000000	93.910212
1051.000000	93.834024
1050.000000	93.754430
1049.000000	93.672022
1048.000000	93.587983
1047.000000	93.503933
1046.000000	93.416166
1045.000000	93.318054
1044.000000	93.210780
1043.000000	93.104347
1042.000000	93.006063
1041.000000	92.915429
1040.000000	92.831387
1039.000000	92.755173
1038.000000	92.683633
1037.000000	92.609611
1036.000000	92.532908
1035.000000	92.462352
1034.000000	92.403805
1033.000000	92.354403
1032.000000	92.310826
1031.000000	92.274223
1030.000000	92.244086
1029.000000	92.216085
1028.000000	92.189010
1027.000000	92.165946
1026.000000	92.147017
1025.000000	92.129631
1024.000000	92.116538
1023.000000	92.113007
1022.000000	92.114392
1021.000000	92.107731
1020.000000	92.088817
1019.000000	92.066939
1018.000000	92.049467
1017.000000	92.032557
1016.000000	92.011008
1015.000000	91.986718
1014.000000	91.962511
1013.000000	91.937274
1012.000000	91.912511
1011.000000	91.894892
1010.000000	91.886596
1009.000000	91.880322
1008.000000	91.868684
1007.000000	91.852562
1006.000000	91.837005
1005.000000	91.825400
1004.000000	91.820481
1003.000000	91.824537
1002.000000	91.835857
1001.000000	91.850797
1000.000000	91.870527
999.000000	91.899278
998.000000	91.935617
997.000000	91.972829
996.000000	92.007992
995.000000	92.042675
994.000000	92.074975
993.000000	92.100220
992.000000	92.120539
991.000000	92.144765
990.000000	92.177542
989.000000	92.216967
988.000000	92.263234
987.000000	92.319737
986.000000	92.384146
985.000000	92.447835
984.000000	92.506392
983.000000	92.562928
982.000000	92.620645
981.000000	92.681413
980.000000	92.751939
979.000000	92.840398
978.000000	92.944090
977.000000	93.049337
976.000000	93.146273
975.000000	93.236024
974.000000	93.322897
973.000000	93.409583
972.000000	93.501370
971.000000	93.604146
970.000000	93.714548
969.000000	93.821185
968.000000	93.919003
967.000000	94.014128
966.000000	94.111966
965.000000	94.209628
964.000000	94.303497
963.000000	94.395472
962.000000	94.487543
961.000000	94.578099
960.000000	94.667704
959.000000	94.760924
958.000000	94.857940
957.000000	94.951121
956.000000	95.034070
955.000000	95.107762
954.000000	95.174712
953.000000	95.234458
952.000000	95.289065
951.000000	95.345474
950.000000	95.405782
949.000000	95.460644
948.000000	95.499220
947.000000	95.522630
946.000000	95.542832
945.000000	95.569991
944.000000	95.604321
943.000000	95.638477
942.000000	95.665114
941.000000	95.683875
940.000000	95.702392
939.000000	95.728507
938.000000	95.761840
937.000000	95.796657
936.000000	95.831725
935.000000	95.870819
934.000000	95.913009
933.000000	95.949696
932.000000	95.974145
931.000000	95.988602
930.000000	95.999968
929.000000	96.013651
928.000000	96.033563
927.000000	96.061898
926.000000	96.095025
925.000000	96.124052
924.000000	96.142907
923.000000	96.153164
922.000000	96.160080
921.000000	96.168012
920.000000	96.180291
919.000000	96.198034
918.000000	96.217354
917.000000	96.232998
916.000000	96.246562
915.000000	96.266169
914.000000	96.296494
913.000000	96.334076
912.000000	96.373411
911.000000	96.412432
910.000000	96.451478
909.000000	96.493442
908.000000	96.546263
907.000000	96.617928
906.000000	96.706060
905.000000	96.797917
904.000000	96.883153
903.000000	96.961723
902.000000	97.038338
901.000000	97.116335
900.000000	97.198844
899.000000	97.288072
898.000000	97.379842
897.000000	97.465020
896.000000	97.540152
895.000000	97.610795
894.000000	97.680942
893.000000	97.745384
892.000000	97.797602
891.000000	97.840610
890.000000	97.884826
889.000000	97.937571
888.000000	97.998218
887.000000	98.060942
886.000000	98.119026
885.000000	98.169242
884.000000	98.214984
883.000000	98.263102
882.000000	98.315750
881.000000	98.368049
880.000000	98.415417
879.000000	98.459834
878.000000	98.507143
877.000000	98.561271
876.000000	98.622271
875.000000	98.686065
874.000000	98.744769
873.000000	98.791917
872.000000	98.829687
871.000000	98.867609
870.000000	98.912355
869.000000	98.962007
868.000000	99.011275
867.000000	99.057828
866.000000	99.101908
865.000000	99.144085
864.000000	99.186162
863.000000	99.231669
862.000000	99.283226
861.000000	99.340266
860.000000	99.398673
859.000000	99.450122
858.000000	99.484176
857.000000	99.497294
856.000000	99.500574
855.000000	99.512916
854.000000	99.543810
853.000000	99.586865
852.000000	99.630703
851.000000	99.669340
850.000000	99.699885
849.000000	99.717996
848.000000	99.721480
847.000000	99.714531
846.000000	99.704016
845.000000	99.694530
844.000000	99.690110
843.000000	99.695657
842.000000	99.710987
841.000000	99.726187
840.000000	99.727764
839.000000	99.708820
838.000000	99.672413
837.000000	99.628973
836.000000	99.592627
835.000000	99.574307
834.000000	99.572545
833.000000	99.573737
832.000000	99.565939
831.000000	99.550073
830.000000	99.534588
829.000000	99.524202
828.000000	99.520457
827.000000	99.528871
826.000000	99.554674
825.000000	99.590025
824.000000	99.614480
823.000000	99.613147
822.000000	99.590365
821.000000	99.563288
820.000000	99.546180
819.000000	99.542294
818.000000	99.545787
817.000000	99.547278
816.000000	99.538121
815.000000	99.511834
814.000000	99.463963
813.000000	99.392246
812.000000	99.296432
811.000000	99.176211
810.000000	99.029390
809.000000	98.854590
808.000000	98.656383
807.000000	98.444825
806.000000	98.228377
805.000000	98.010189
804.000000	97.793022
803.000000	97.584337
802.000000	97.394037
801.000000	97.230430
800.000000	97.100268
799.000000	97.008258
798.000000	96.953783
797.000000	96.931877
796.000000	96.939067
795.000000	96.973928
794.000000	97.030693
793.000000	97.097563
792.000000	97.163014
791.000000	97.219345
790.000000	97.259805
789.000000	97.278459
788.000000	97.274987
787.000000	97.254456
786.000000	97.219808
785.000000	97.168422
784.000000	97.098071
783.000000	97.012651
782.000000	96.921033
781.000000	96.835063
780.000000	96.769465
779.000000	96.736796
778.000000	96.738791
777.000000	96.766835
776.000000	96.812638
775.000000	96.873070
774.000000	96.943393
773.000000	97.014021
772.000000	97.079136
771.000000	97.143196
770.000000	97.213801
769.000000	97.291736
768.000000	97.371612
767.000000	97.448096
766.000000	97.517212
765.000000	97.574548
764.000000	97.617059
763.000000	97.646267
762.000000	97.667773
761.000000	97.688917
760.000000	97.717223
759.000000	97.756974
758.000000	97.804278
757.000000	97.848669
756.000000	97.883583
755.000000	97.913915
754.000000	97.950196
753.000000	97.995947
752.000000	98.043437
751.000000	98.082402
750.000000	98.111535
749.000000	98.140002
748.000000	98.177009
747.000000	98.220988
746.000000	98.261865
745.000000	98.294045
744.000000	98.322541
743.000000	98.354137
742.000000	98.388158
741.000000	98.421671
740.000000	98.459567
739.000000	98.511584
738.000000	98.579598
737.000000	98.653504
736.000000	98.720084
735.000000	98.772096
734.000000	98.809730
733.000000	98.838658
732.000000	98.867035
731.000000	98.899427
730.000000	98.932464
729.000000	98.959668
728.000000	98.980200
727.000000	98.999058
726.000000	99.019666
725.000000	99.040981
724.000000	99.061210
723.000000	99.079730
722.000000	99.096275
721.000000	99.112966
720.000000	99.135192
719.000000	99.163896
718.000000	99.189606
717.000000	99.201793
716.000000	99.201422
715.000000	99.198252
714.000000	99.198287
713.000000	99.200957
712.000000	99.206743
711.000000	99.216452
710.000000	99.221649
709.000000	99.208166
708.000000	99.174898
707.000000	99.140935
706.000000	99.127508
705.000000	99.137448
704.000000	99.155071
703.000000	99.158182
702.000000	99.126715
701.000000	99.049306
700.000000	98.930043
699.000000	98.787108
698.000000	98.640952
697.000000	98.506550
696.000000	98.397522
695.000000	98.328593
694.000000	98.309311
693.000000	98.339178
692.000000	98.409391
691.000000	98.503944
690.000000	98.599157
689.000000	98.674741
688.000000	98.732935
687.000000	98.795842
686.000000	98.875769
685.000000	98.958535
684.000000	99.022795
683.000000	99.065128
682.000000	99.097267
681.000000	99.128067
680.000000	99.158172
679.000000	99.186522
678.000000	99.212704
677.000000	99.236976
676.000000	99.264411
675.000000	99.302730
674.000000	99.348184
673.000000	99.382199
672.000000	99.391239
671.000000	99.383016
670.000000	99.381769
669.000000	99.417569
668.000000	99.486887
667.000000	99.537605
666.000000	99.572663
665.000000	99.613558
664.000000	99.655432
663.000000	99.689761
662.000000	99.711130
661.000000	99.719671
660.000000	99.721331
659.000000	99.723489
658.000000	99.727057
657.000000	99.724941
656.000000	99.714423
655.000000	99.708092
654.000000	99.723057
653.000000	99.759649
652.000000	99.799120
651.000000	99.822107
650.000000	99.826325
