4000.000000	99.959904
3999.000000	99.959480
3998.000000	99.959019
3997.000000	99.958473
3996.000000	99.957881
3995.000000	99.957356
3994.000000	99.956990
3993.000000	99.956770
3992.000000	99.956509
3991.000000	99.956042
3990.000000	99.955401
3989.000000	99.954848
3988.000000	99.954565
3987.000000	99.954442
3986.000000	99.954203
3985.000000	99.953732
3984.000000	99.953228
3983.000000	99.952980
3982.000000	99.953043
3981.000000	99.953248
3980.000000	99.953505
3979.000000	99.953854
3978.000000	99.954125
3977.000000	99.953776
3976.000000	99.952364
3975.000000	99.950070
3974.000000	99.947774
3973.000000	99.946439
3972.000000	99.946365
3971.000000	99.947044
3970.000000	99.947516
3969.000000	99.947183
3968.000000	99.946271
3967.000000	99.945538
3966.000000	99.945554
3965.000000	99.946231
3964.000000	99.947035
3963.000000	99.947531
3962.000000	99.947703
3961.000000	99.947774
3960.000000	99.947787
3959.000000	99.947442
3958.000000	99.946371
3957.000000	99.944593
3956.000000	99.942728
3955.000000	99.941607
3954.000000	99.941527
3953.000000	99.942001
3952.000000	99.942268
3951.000000	99.942130
3950.000000	99.942169
3949.000000	99.943115
3948.000000	99.945093
3947.000000	99.947587
3946.000000	99.949911
3945.000000	99.951511
3944.000000	99.952034
3943.000000	99.951401
3942.000000	99.949899
3941.000000	99.948201
3940.000000	99.947013
3939.000000	99.946474
3938.000000	99.946187
3937.000000	99.945793
3936.000000	99.945412
3935.000000	99.945518
3934.000000	99.946401
3933.000000	99.947791
3932.000000	99.948937
3931.000000	99.949197
3930.000000	99.948527
3929.000000	99.947428
3928.000000	99.946576
3927.000000	99.946373
3926.000000	99.946743
3925.000000	99.947182
3924.000000	99.947168
3923.000000	99.946640
3922.000000	99.945938
3921.000000	99.945397
3920.000000	99.945090
3919.000000	99.944894
3918.000000	99.944655
3917.000000	99.944301
3916.000000	99.943879
3915.000000	99.943521
3914.000000	99.943331
3913.000000	99.943277
3912.000000	99.943229
3911.000000	99.943084
3910.000000	99.942832
3909.000000	99.942521
3908.000000	99.942202
3907.000000	99.941894
3906.000000	99.941585
3905.000000	99.941233
3904.000000	99.940800
3903.000000	99.940368
3902.000000	99.940144
3901.000000	99.940257
3900.000000	99.940555
3899.000000	99.940646
3898.000000	99.940293
3897.000000	99.939594
3896.000000	99.938879
3895.000000	99.938361
3894.000000	99.938073
3893.000000	99.937976
3892.000000	99.937991
3891.000000	99.937944
3890.000000	99.937774
3889.000000	99.937676
3888.000000	99.937761
3887.000000	99.937839
3886.000000	99.937604
3885.000000	99.936847
3884.000000	99.935696
3883.000000	99.934531
3882.000000	99.933543
3881.000000	99.932755
3880.000000	99.932262
3879.000000	99.932238
3878.000000	99.932799
3877.000000	99.933607
3876.000000	99.934033
3875.000000	99.933812
3874.000000	99.933164
3873.000000	99.932589
3872.000000	99.932600
3871.000000	99.933317
3870.000000	99.934275
3869.000000	99.934862
3868.000000	99.935100
3867.000000	99.935360
3866.000000	99.935665
3865.000000	99.935831
3864.000000	99.935895
3863.000000	99.936022
3862.000000	99.936240
3861.000000	99.936436
3860.000000	99.936606
3859.000000	99.936890
3858.000000	99.937341
3857.000000	99.937823
3856.000000	99.938152
3855.000000	99.938312
3854.000000	99.938466
3853.000000	99.938625
3852.000000	99.938725
3851.000000	99.938856
3850.000000	99.939033
3849.000000	99.939206
3848.000000	99.939392
3847.000000	99.939624
3846.000000	99.939904
3845.000000	99.940223
3844.000000	99.940573
3843.000000	99.940935
3842.000000	99.941286
3841.000000	99.941614
3840.000000	99.941932
3839.000000	99.942253
3838.000000	99.942571
3837.000000	99.942870
3836.000000	99.943144
3835.000000	99.943403
3834.000000	99.943644
3833.000000	99.943836
3832.000000	99.943933
3831.000000	99.943927
3830.000000	99.943871
3829.000000	99.943836
3828.000000	99.943834
3827.000000	99.943780
3826.000000	99.943553
3825.000000	99.943107
3824.000000	99.942536
3823.000000	99.942070
3822.000000	99.941915
3821.000000	99.942019
3820.000000	99.941988
3819.000000	99.941679
3818.000000	99.941309
3817.000000	99.941078
3816.000000	99.940993
3815.000000	99.940933
3814.000000	99.940894
3813.000000	99.940940
3812.000000	99.940921
3811.000000	99.940639
3810.000000	99.940207
3809.000000	99.940088
3808.000000	99.940642
3807.000000	99.941639
3806.000000	99.942372
3805.000000	99.942571
3804.000000	99.942555
3803.000000	99.942628
3802.000000	99.942635
3801.000000	99.942027
3800.000000	99.940837
3799.000000	99.939953
3798.000000	99.939769
3797.000000	99.939720
3796.000000	99.939066
3795.000000	99.937657
3794.000000	99.936049
3793.000000	99.934939
3792.000000	99.934554
3791.000000	99.934647
3790.000000	99.934750
3789.000000	99.934554
3788.000000	99.934148
3787.000000	99.933902
3786.000000	99.934029
3785.000000	99.934271
3784.000000	99.934129
3783.000000	99.933447
3782.000000	99.932573
3781.000000	99.931909
3780.000000	99.931444
3779.000000	99.930830
3778.000000	99.929927
3777.000000	99.929052
3776.000000	99.928534
3775.000000	99.928346
3774.000000	99.928286
3773.000000	99.928228
3772.000000	99.928099
3771.000000	99.927699
3770.000000	99.926768
3769.000000	99.925305
3768.000000	99.923768
3767.000000	99.922725
3766.000000	99.922332
3765.000000	99.922207
3764.000000	99.921790
3763.000000	99.920940
3762.000000	99.919904
3761.000000	99.918850
3760.000000	99.917691
3759.000000	99.916381
3758.000000	99.915213
3757.000000	99.914567
3756.000000	99.914407
3755.000000	99.914217
3754.000000	99.913443
3753.000000	99.911902
3752.000000	99.909750
3751.000000	99.906828
3750.000000	99.902640
3749.000000	99.898072
3748.000000	99.895020
3747.000000	99.893988
3746.000000	99.893788
3745.000000	99.892556
3744.000000	99.888657
3743.000000	99.883944
3742.000000	99.883067
3741.000000	99.886649
3740.000000	99.890892
3739.000000	99.892341
3738.000000	99.890243
3737.000000	99.886077
3736.000000	99.882298
3735.000000	99.880767
3734.000000	99.881241
3733.000000	99.881747
3732.000000	99.880113
3731.000000	99.876396
3730.000000	99.873316
3729.000000	99.873017
3728.000000	99.874902
3727.000000	99.876626
3726.000000	99.876320
3725.000000	99.873857
3724.000000	99.869976
3723.000000	99.864878
3722.000000	99.858431
3721.000000	99.851166
3720.000000	99.843919
3719.000000	99.836682
3718.000000	99.828939
3717.000000	99.820449
3716.000000	99.811607
3715.000000	99.803191
3714.000000	99.796212
3713.000000	99.792352
3712.000000	99.792724
3711.000000	99.795049
3710.000000	99.795291
3709.000000	99.792251
3708.000000	99.787366
3707.000000	99.781846
3706.000000	99.776046
3705.000000	99.770349
3704.000000	99.765478
3703.000000	99.761783
3702.000000	99.758235
3701.000000	99.753074
3700.000000	99.746184
3699.000000	99.739437
3698.000000	99.734225
3697.000000	99.730250
3696.000000	99.726489
3695.000000	99.722393
3694.000000	99.718032
3693.000000	99.713896
3692.000000	99.711348
3691.000000	99.712210
3690.000000	99.716156
3689.000000	99.718631
3688.000000	99.715550
3687.000000	99.708750
3686.000000	99.702618
3685.000000	99.698500
3684.000000	99.694958
3683.000000	99.690755
3682.000000	99.686323
3681.000000	99.682400
3680.000000	99.677658
3679.000000	99.669333
3678.000000	99.657187
3677.000000	99.646262
3676.000000	99.642004
3675.000000	99.640506
3674.000000	99.634827
3673.000000	99.627601
3672.000000	99.623919
3671.000000	99.624856
3670.000000	99.627354
3669.000000	99.625325
3668.000000	99.618240
3667.000000	99.611859
3666.000000	99.609347
3665.000000	99.609538
3664.000000	99.610372
3663.000000	99.610820
3662.000000	99.610771
3661.000000	99.609851
3660.000000	99.607130
3659.000000	99.602243
3658.000000	99.596323
3657.000000	99.591323
3656.000000	99.587631
3655.000000	99.584573
3654.000000	99.582464
3653.000000	99.581026
3652.000000	99.579020
3651.000000	99.577884
3650.000000	99.581672
3649.000000	99.590020
3648.000000	99.597072
3647.000000	99.600528
3646.000000	99.604036
3645.000000	99.611114
3644.000000	99.620963
3643.000000	99.628740
3642.000000	99.629520
3641.000000	99.622033
3640.000000	99.609046
3639.000000	99.594467
3638.000000	99.580643
3637.000000	99.568728
3636.000000	99.559657
3635.000000	99.553066
3634.000000	99.546302
3633.000000	99.536607
3632.000000	99.524588
3631.000000	99.514814
3630.000000	99.513098
3629.000000	99.519314
3628.000000	99.524381
3627.000000	99.524857
3626.000000	99.525427
3625.000000	99.526183
3624.000000	99.523894
3623.000000	99.518045
3622.000000	99.511417
3621.000000	99.508383
3620.000000	99.512090
3619.000000	99.520914
3618.000000	99.529245
3617.000000	99.534345
3616.000000	99.538015
3615.000000	99.542300
3614.000000	99.546315
3613.000000	99.546680
3612.000000	99.541975
3611.000000	99.535975
3610.000000	99.534132
3609.000000	99.537778
3608.000000	99.543021
3607.000000	99.545229
3606.000000	99.544055
3605.000000	99.542195
3604.000000	99.541570
3603.000000	99.542547
3602.000000	99.544899
3601.000000	99.548265
3600.000000	99.551931
3599.000000	99.555271
3598.000000	99.558103
3597.000000	99.560517
3596.000000	99.562465
3595.000000	99.563708
3594.000000	99.564077
3593.000000	99.564097
3592.000000	99.564736
3591.000000	99.566326
3590.000000	99.568275
3589.000000	99.569780
3588.000000	99.570556
3587.000000	99.570840
3586.000000	99.571254
3585.000000	99.572295
3584.000000	99.573791
3583.000000	99.575251
3582.000000	99.576440
3581.000000	99.577431
3580.000000	99.578363
3579.000000	99.579292
3578.000000	99.580203
3577.000000	99.581071
3576.000000	99.581887
3575.000000	99.582655
3574.000000	99.583385
3573.000000	99.584088
3572.000000	99.584779
3571.000000	99.585479
3570.000000	99.586217
3569.000000	99.586994
3568.000000	99.587776
3567.000000	99.588514
3566.000000	99.589162
3565.000000	99.589721
3564.000000	99.590220
3563.000000	99.590683
3562.000000	99.591116
3561.000000	99.591523
3560.000000	99.591899
3559.000000	99.592236
3558.000000	99.592533
3557.000000	99.592797
3556.000000	99.593044
3555.000000	99.593287
3554.000000	99.593527
3553.000000	99.593753
3552.000000	99.593950
3551.000000	99.594117
3550.000000	99.594262
3549.000000	99.594404
3548.000000	99.594562
3547.000000	99.594751
3546.000000	99.594978
3545.000000	99.595235
3544.000000	99.595511
3543.000000	99.595794
3542.000000	99.596084
3541.000000	99.596384
3540.000000	99.596696
3539.000000	99.597015
3538.000000	99.597330
3537.000000	99.597624
3536.000000	99.597883
3535.000000	99.598102
3534.000000	99.598290
3533.000000	99.598463
3532.000000	99.598641
3531.000000	99.598829
3530.000000	99.599019
3529.000000	99.599198
3528.000000	99.599351
3527.000000	99.599478
3526.000000	99.599588
3525.000000	99.599700
3524.000000	99.599829
3523.000000	99.599983
3522.000000	99.600157
3521.000000	99.600339
3520.000000	99.600517
3519.000000	99.600686
3518.000000	99.600850
3517.000000	99.601019
3516.000000	99.601200
3515.000000	99.601420
3514.000000	99.601693
3513.000000	99.601979
3512.000000	99.602194
3511.000000	99.602303
3510.000000	99.602377
3509.000000	99.602520
3508.000000	99.602771
3507.000000	99.603122
3506.000000	99.603620
3505.000000	99.604395
3504.000000	99.605539
3503.000000	99.606835
3502.000000	99.607690
3501.000000	99.607520
3500.000000	99.606272
3499.000000	99.604523
3498.000000	99.603006
3497.000000	99.602082
3496.000000	99.601662
3495.000000	99.601545
3494.000000	99.601611
3493.000000	99.601690
3492.000000	99.601614
3491.000000	99.601594
3490.000000	99.602255
3489.000000	99.603921
3488.000000	99.605972
3487.000000	99.607287
3486.000000	99.607325
3485.000000	99.606548
3484.000000	99.605950
3483.000000	99.606339
3482.000000	99.607909
3481.000000	99.610052
3480.000000	99.611620
3479.000000	99.611754
3478.000000	99.610682
3477.000000	99.609637
3476.000000	99.609766
3475.000000	99.611039
3474.000000	99.612319
3473.000000	99.612466
3472.000000	99.611271
3471.000000	99.609357
3470.000000	99.607527
3469.000000	99.606212
3468.000000	99.605404
3467.000000	99.604900
3466.000000	99.604574
3465.000000	99.604450
3464.000000	99.604622
3463.000000	99.605144
3462.000000	99.606002
3461.000000	99.607109
3460.000000	99.608302
3459.000000	99.609351
3458.000000	99.609999
3457.000000	99.610057
3456.000000	99.609488
3455.000000	99.608498
3454.000000	99.607563
3453.000000	99.607183
3452.000000	99.607525
3451.000000	99.608328
3450.000000	99.609069
3449.000000	99.609342
3448.000000	99.609092
3447.000000	99.608551
3446.000000	99.608073
3445.000000	99.607945
3444.000000	99.608271
3443.000000	99.608947
3442.000000	99.609730
3441.000000	99.610348
3440.000000	99.610610
3439.000000	99.610521
3438.000000	99.610324
3437.000000	99.610345
3436.000000	99.610657
3435.000000	99.610956
3434.000000	99.610852
3433.000000	99.610319
3432.000000	99.609791
3431.000000	99.609724
3430.000000	99.610193
3429.000000	99.610883
3428.000000	99.611421
3427.000000	99.611686
3426.000000	99.611822
3425.000000	99.612081
3424.000000	99.612676
3423.000000	99.613696
3422.000000	99.615044
3421.000000	99.616407
3420.000000	99.617346
3419.000000	99.617541
3418.000000	99.616997
3417.000000	99.616056
3416.000000	99.615177
3415.000000	99.614621
3414.000000	99.614364
3413.000000	99.614253
3412.000000	99.614243
3411.000000	99.614471
3410.000000	99.615071
3409.000000	99.615977
3408.000000	99.616933
3407.000000	99.617651
3406.000000	99.617982
3405.000000	99.617990
3404.000000	99.617912
3403.000000	99.617968
3402.000000	99.618203
3401.000000	99.618498
3400.000000	99.618711
3399.000000	99.618796
3398.000000	99.618797
3397.000000	99.618771
3396.000000	99.618758
3395.000000	99.618788
3394.000000	99.618867
3393.000000	99.618974
3392.000000	99.619089
3391.000000	99.619206
3390.000000	99.619327
3389.000000	99.619451
3388.000000	99.619577
3387.000000	99.619705
3386.000000	99.619830
3385.000000	99.619941
3384.000000	99.620024
3383.000000	99.620075
3382.000000	99.620104
3381.000000	99.620127
3380.000000	99.620163
3379.000000	99.620218
3378.000000	99.620289
3377.000000	99.620371
3376.000000	99.620462
3375.000000	99.620563
3374.000000	99.620674
3373.000000	99.620786
3372.000000	99.620892
3371.000000	99.620980
3370.000000	99.621044
3369.000000	99.621074
3368.000000	99.621062
3367.000000	99.620997
3366.000000	99.620898
3365.000000	99.620812
3364.000000	99.620771
3363.000000	99.620749
3362.000000	99.620702
3361.000000	99.620652
3360.000000	99.620687
3359.000000	99.620855
3358.000000	99.621097
3357.000000	99.621282
3356.000000	99.621346
3355.000000	99.621360
3354.000000	99.621483
3353.000000	99.621794
3352.000000	99.622196
3351.000000	99.622485
3350.000000	99.622546
3349.000000	99.622404
3348.000000	99.622138
3347.000000	99.621796
3346.000000	99.621433
3345.000000	99.621109
3344.000000	99.620835
3343.000000	99.620568
3342.000000	99.620313
3341.000000	99.620170
3340.000000	99.620217
3339.000000	99.620386
3338.000000	99.620465
3337.000000	99.620291
3336.000000	99.619888
3335.000000	99.619417
3334.000000	99.619059
3333.000000	99.618857
3332.000000	99.618726
3331.000000	99.618561
3330.000000	99.618341
3329.000000	99.618147
3328.000000	99.618066
3327.000000	99.618105
3326.000000	99.618205
3325.000000	99.618279
3324.000000	99.618264
3323.000000	99.618150
3322.000000	99.617975
3321.000000	99.617796
3320.000000	99.617640
3319.000000	99.617495
3318.000000	99.617333
3317.000000	99.617133
3316.000000	99.616889
3315.000000	99.616603
3314.000000	99.616277
3313.000000	99.615921
3312.000000	99.615559
3311.000000	99.615233
3310.000000	99.614981
3309.000000	99.614800
3308.000000	99.614654
3307.000000	99.614502
3306.000000	99.614335
3305.000000	99.614165
3304.000000	99.613995
3303.000000	99.613799
3302.000000	99.613574
3301.000000	99.613401
3300.000000	99.613390
3299.000000	99.613538
3298.000000	99.613653
3297.000000	99.613562
3296.000000	99.613332
3295.000000	99.613185
3294.000000	99.613162
3293.000000	99.613088
3292.000000	99.612883
3291.000000	99.612694
3290.000000	99.612634
3289.000000	99.612566
3288.000000	99.612271
3287.000000	99.611705
3286.000000	99.611027
3285.000000	99.610427
3284.000000	99.610025
3283.000000	99.609810
3282.000000	99.609614
3281.000000	99.609171
3280.000000	99.608327
3279.000000	99.607239
3278.000000	99.606349
3277.000000	99.606065
3276.000000	99.606442
3275.000000	99.607153
3274.000000	99.607765
3273.000000	99.608053
3272.000000	99.608035
3271.000000	99.607806
3270.000000	99.607393
3269.000000	99.606792
3268.000000	99.606125
3267.000000	99.605652
3266.000000	99.605576
3265.000000	99.605898
3264.000000	99.606446
3263.000000	99.606996
3262.000000	99.607353
3261.000000	99.607390
3260.000000	99.607103
3259.000000	99.606638
3258.000000	99.606195
3257.000000	99.605873
3256.000000	99.605622
3255.000000	99.605357
3254.000000	99.605100
3253.000000	99.604981
3252.000000	99.605104
3251.000000	99.605420
3250.000000	99.605752
3249.000000	99.605930
3248.000000	99.605918
3247.000000	99.605805
3246.000000	99.605746
3245.000000	99.605868
3244.000000	99.606212
3243.000000	99.606708
3242.000000	99.607230
3241.000000	99.607676
3240.000000	99.608050
3239.000000	99.608425
3238.000000	99.608856
3237.000000	99.609332
3236.000000	99.609799
3235.000000	99.610210
3234.000000	99.610556
3233.000000	99.610858
3232.000000	99.611148
3231.000000	99.611471
3230.000000	99.611862
3229.000000	99.612322
3228.000000	99.612825
3227.000000	99.613339
3226.000000	99.613852
3225.000000	99.614369
3224.000000	99.614893
3223.000000	99.615425
3222.000000	99.615964
3221.000000	99.616512
3220.000000	99.617065
3219.000000	99.617620
3218.000000	99.618175
3217.000000	99.618730
3216.000000	99.619288
3215.000000	99.619846
3214.000000	99.620400
3213.000000	99.620947
3212.000000	99.621488
3211.000000	99.622021
3210.000000	99.622544
3209.000000	99.623055
3208.000000	99.623557
3207.000000	99.624061
3206.000000	99.624576
3205.000000	99.625108
3204.000000	99.625639
3203.000000	99.626127
3202.000000	99.626539
3201.000000	99.626869
3200.000000	99.627159
3199.000000	99.627472
3198.000000	99.627843
3197.000000	99.628265
3196.000000	99.628696
3195.000000	99.629121
3194.000000	99.629547
3193.000000	99.629938
3192.000000	99.630215
3191.000000	99.630347
3190.000000	99.630429
3189.000000	99.630600
3188.000000	99.630903
3187.000000	99.631303
3186.000000	99.631822
3185.000000	99.632573
3184.000000	99.633555
3183.000000	99.634447
3182.000000	99.634860
3181.000000	99.634770
3180.000000	99.634588
3179.000000	99.634600
3178.000000	99.634595
3177.000000	99.634237
3176.000000	99.633632
3175.000000	99.633247
3174.000000	99.633383
3173.000000	99.634053
3172.000000	99.635221
3171.000000	99.636805
3170.000000	99.638434
3169.000000	99.639587
3168.000000	99.640094
3167.000000	99.640276
3166.000000	99.640509
3165.000000	99.640780
3164.000000	99.640817
3163.000000	99.640516
3162.000000	99.640118
3161.000000	99.640038
3160.000000	99.640548
3159.000000	99.641427
3158.000000	99.641993
3157.000000	99.641818
3156.000000	99.641446
3155.000000	99.642042
3154.000000	99.644062
3153.000000	99.646567
3152.000000	99.648080
3151.000000	99.648093
3150.000000	99.647396
3149.000000	99.647120
3148.000000	99.647762
3147.000000	99.649198
3146.000000	99.651104
3145.000000	99.652978
3144.000000	99.654124
3143.000000	99.654124
3142.000000	99.653342
3141.000000	99.652490
3140.000000	99.651646
3139.000000	99.650144
3138.000000	99.647616
3137.000000	99.644781
3136.000000	99.642977
3135.000000	99.642906
3134.000000	99.644182
3133.000000	99.645869
3132.000000	99.647218
3131.000000	99.647946
3130.000000	99.648031
3129.000000	99.647545
3128.000000	99.646687
3127.000000	99.645845
3126.000000	99.645516
3125.000000	99.646076
3124.000000	99.647517
3123.000000	99.649338
3122.000000	99.650749
3121.000000	99.651174
3120.000000	99.650669
3119.000000	99.649960
3118.000000	99.649946
3117.000000	99.650953
3116.000000	99.652556
3115.000000	99.654035
3114.000000	99.655044
3113.000000	99.655723
3112.000000	99.656283
3111.000000	99.656729
3110.000000	99.657002
3109.000000	99.657169
3108.000000	99.657332
3107.000000	99.657472
3106.000000	99.657575
3105.000000	99.657795
3104.000000	99.658322
3103.000000	99.659130
3102.000000	99.659989
3101.000000	99.660710
3100.000000	99.661311
3099.000000	99.661930
3098.000000	99.662662
3097.000000	99.663501
3096.000000	99.664359
3095.000000	99.665097
3094.000000	99.665565
3093.000000	99.665706
3092.000000	99.665699
3091.000000	99.665938
3090.000000	99.666723
3089.000000	99.668002
3088.000000	99.669305
3087.000000	99.670158
3086.000000	99.670535
3085.000000	99.670875
3084.000000	99.671597
3083.000000	99.672634
3082.000000	99.673535
3081.000000	99.674012
3080.000000	99.674212
3079.000000	99.674403
3078.000000	99.674701
3077.000000	99.675301
3076.000000	99.676646
3075.000000	99.678959
3074.000000	99.681671
3073.000000	99.683825
3072.000000	99.685009
3071.000000	99.685469
3070.000000	99.685398
3069.000000	99.684664
3068.000000	99.683399
3067.000000	99.682246
3066.000000	99.681620
3065.000000	99.681180
3064.000000	99.680455
3063.000000	99.679620
3062.000000	99.679171
3061.000000	99.679138
3060.000000	99.679252
3059.000000	99.679766
3058.000000	99.681265
3057.000000	99.683638
3056.000000	99.686002
3055.000000	99.687966
3054.000000	99.690260
3053.000000	99.693515
3052.000000	99.696797
3051.000000	99.698224
3050.000000	99.697092
3049.000000	99.694719
3048.000000	99.693109
3047.000000	99.692975
3046.000000	99.693557
3045.000000	99.693997
3044.000000	99.694231
3043.000000	99.694577
3042.000000	99.695124
3041.000000	99.695824
3040.000000	99.696798
3039.000000	99.698129
3038.000000	99.699467
3037.000000	99.700225
3036.000000	99.700253
3035.000000	99.700077
3034.000000	99.700359
3033.000000	99.701217
3032.000000	99.702261
3031.000000	99.703212
3030.000000	99.704228
3029.000000	99.705518
3028.000000	99.706935
3027.000000	99.708236
3026.000000	99.709622
3025.000000	99.711585
3024.000000	99.714102
3023.000000	99.716348
3022.000000	99.717539
3021.000000	99.717854
3020.000000	99.718341
3019.000000	99.719930
3018.000000	99.722679
3017.000000	99.725831
3016.000000	99.728555
3015.000000	99.730684
3014.000000	99.732585
3013.000000	99.734493
3012.000000	99.736205
3011.000000	99.737443
3010.000000	99.738297
3009.000000	99.739171
3008.000000	99.740320
3007.000000	99.741620
3006.000000	99.742921
3005.000000	99.744521
3004.000000	99.746919
3003.000000	99.750144
3002.000000	99.753614
3001.000000	99.756768
3000.000000	99.759603
2999.000000	99.762453
2998.000000	99.765437
2997.000000	99.768190
2996.000000	99.769943
2995.000000	99.769893
2994.000000	99.768035
2993.000000	99.765885
2992.000000	99.765804
2991.000000	99.769068
2990.000000	99.774779
2989.000000	99.780690
2988.000000	99.785005
2987.000000	99.787098
2986.000000	99.787254
2985.000000	99.786748
2984.000000	99.787816
2983.000000	99.792254
2982.000000	99.799766
2981.000000	99.808361
2980.000000	99.816604
2979.000000	99.824404
2978.000000	99.831290
2977.000000	99.835342
2976.000000	99.835039
2975.000000	99.831578
2974.000000	99.828134
2973.000000	99.826820
2972.000000	99.827246
2971.000000	99.828032
2970.000000	99.828709
2969.000000	99.829699
2968.000000	99.831012
2967.000000	99.831620
2966.000000	99.830301
2965.000000	99.826956
2964.000000	99.823073
2963.000000	99.820870
2962.000000	99.821913
2961.000000	99.826336
2960.000000	99.832947
2959.000000	99.839646
2958.000000	99.843986
2957.000000	99.844270
2956.000000	99.840863
2955.000000	99.836222
2954.000000	99.832912
2953.000000	99.831413
2952.000000	99.830290
2951.000000	99.828553
2950.000000	99.827315
2949.000000	99.828568
2948.000000	99.832705
2947.000000	99.838008
2946.000000	99.842702
2945.000000	99.846708
2944.000000	99.850894
2943.000000	99.855283
2942.000000	99.859048
2941.000000	99.862215
2940.000000	99.866322
2939.000000	99.872931
2938.000000	99.882218
2937.000000	99.893456
2936.000000	99.906019
2935.000000	99.918930
2934.000000	99.930016
2933.000000	99.937063
2932.000000	99.940260
2931.000000	99.942596
2930.000000	99.947225
2929.000000	99.954669
2928.000000	99.962749
2927.000000	99.968814
2926.000000	99.971383
2925.000000	99.969972
2924.000000	99.964352
2923.000000	99.954731
2922.000000	99.942613
2921.000000	99.931080
2920.000000	99.923412
2919.000000	99.920933
2918.000000	99.922251
2917.000000	99.924685
2916.000000	99.926162
2915.000000	99.925540
2914.000000	99.921867
2913.000000	99.914610
2912.000000	99.904956
2911.000000	99.895802
2910.000000	99.889392
2909.000000	99.885306
2908.000000	99.881667
2907.000000	99.878059
2906.000000	99.876016
2905.000000	99.876322
2904.000000	99.877150
2903.000000	99.875969
2902.000000	99.872658
2901.000000	99.869614
2900.000000	99.868638
2899.000000	99.869424
2898.000000	99.870818
2897.000000	99.872166
2896.000000	99.872684
2895.000000	99.870915
2894.000000	99.866233
2893.000000	99.860249
2892.000000	99.855249
2891.000000	99.851562
2890.000000	99.848078
2889.000000	99.845295
2888.000000	99.845851
2887.000000	99.850907
2886.000000	99.857381
2885.000000	99.860461
2884.000000	99.858889
2883.000000	99.856326
2882.000000	99.857245
2881.000000	99.862240
2880.000000	99.867772
2879.000000	99.869940
2878.000000	99.867811
2877.000000	99.863292
2876.000000	99.858723
2875.000000	99.855174
2874.000000	99.852622
2873.000000	99.850687
2872.000000	99.848818
2871.000000	99.846659
2870.000000	99.845030
2869.000000	99.846000
2868.000000	99.850817
2867.000000	99.857769
2866.000000	99.863274
2865.000000	99.865742
2864.000000	99.867306
2863.000000	99.870923
2862.000000	99.876594
2861.000000	99.881739
2860.000000	99.884968
2859.000000	99.887818
2858.000000	99.892285
2857.000000	99.897845
2856.000000	99.902046
2855.000000	99.903544
2854.000000	99.903269
2853.000000	99.902349
2852.000000	99.899816
2851.000000	99.893455
2850.000000	99.882818
2849.000000	99.870491
2848.000000	99.859980
2847.000000	99.852960
2846.000000	99.849311
2845.000000	99.848881
2844.000000	99.851512
2843.000000	99.855347
2842.000000	99.856963
2841.000000	99.854484
2840.000000	99.849661
2839.000000	99.845641
2838.000000	99.843256
2837.000000	99.840944
2836.000000	99.838084
2835.000000	99.836495
2834.000000	99.837853
2833.000000	99.840921
2832.000000	99.842560
2831.000000	99.841161
2830.000000	99.838153
2829.000000	99.836160
2828.000000	99.836474
2827.000000	99.838348
2826.000000	99.839909
2825.000000	99.839603
2824.000000	99.837201
2823.000000	99.833978
2822.000000	99.831720
2821.000000	99.831193
2820.000000	99.831620
2819.000000	99.831860
2818.000000	99.831863
2817.000000	99.832514
2816.000000	99.834193
2815.000000	99.836170
2814.000000	99.837618
2813.000000	99.838656
2812.000000	99.839969
2811.000000	99.841744
2810.000000	99.843382
2809.000000	99.844120
2808.000000	99.843646
2807.000000	99.842200
2806.000000	99.840377
2805.000000	99.838871
2804.000000	99.838146
2803.000000	99.838189
2802.000000	99.838634
2801.000000	99.839166
2800.000000	99.839726
2799.000000	99.840341
2798.000000	99.840930
2797.000000	99.841390
2796.000000	99.841741
2795.000000	99.842046
2794.000000	99.842259
2793.000000	99.842307
2792.000000	99.842303
2791.000000	99.842531
2790.000000	99.843121
2789.000000	99.843807
2788.000000	99.844107
2787.000000	99.843823
2786.000000	99.843312
2785.000000	99.843246
2784.000000	99.843913
2783.000000	99.845033
2782.000000	99.845985
2781.000000	99.846459
2780.000000	99.846606
2779.000000	99.846713
2778.000000	99.846937
2777.000000	99.847351
2776.000000	99.848067
2775.000000	99.849107
2774.000000	99.850238
2773.000000	99.851130
2772.000000	99.851707
2771.000000	99.852172
2770.000000	99.852682
2769.000000	99.853122
2768.000000	99.853303
2767.000000	99.853208
2766.000000	99.852987
2765.000000	99.852833
2764.000000	99.852863
2763.000000	99.853038
2762.000000	99.853166
2761.000000	99.853094
2760.000000	99.852907
2759.000000	99.852920
2758.000000	99.853479
2757.000000	99.854795
2756.000000	99.856851
2755.000000	99.859222
2754.000000	99.861092
2753.000000	99.861778
2752.000000	99.861266
2751.000000	99.860148
2750.000000	99.858971
2749.000000	99.857909
2748.000000	99.857203
2747.000000	99.857450
2746.000000	99.858985
2745.000000	99.861160
2744.000000	99.862748
2743.000000	99.863293
2742.000000	99.863569
2741.000000	99.864532
2740.000000	99.866226
2739.000000	99.867999
2738.000000	99.869378
2737.000000	99.870306
2736.000000	99.870709
2735.000000	99.870464
2734.000000	99.869922
2733.000000	99.869916
2732.000000	99.870898
2731.000000	99.872363
2730.000000	99.873480
2729.000000	99.874098
2728.000000	99.874814
2727.000000	99.876208
2726.000000	99.878418
2725.000000	99.881232
2724.000000	99.884075
2723.000000	99.885958
2722.000000	99.886134
2721.000000	99.885135
2720.000000	99.884695
2719.000000	99.886140
2718.000000	99.889006
2717.000000	99.891444
2716.000000	99.891870
2715.000000	99.890012
2714.000000	99.886746
2713.000000	99.883412
2712.000000	99.881053
2711.000000	99.880059
2710.000000	99.880293
2709.000000	99.881442
2708.000000	99.883139
2707.000000	99.884831
2706.000000	99.885894
2705.000000	99.886111
2704.000000	99.885884
2703.000000	99.885849
2702.000000	99.886376
2701.000000	99.887410
2700.000000	99.888537
2699.000000	99.889172
2698.000000	99.889023
2697.000000	99.888549
2696.000000	99.888665
2695.000000	99.889778
2694.000000	99.891340
2693.000000	99.892525
2692.000000	99.893103
2691.000000	99.893414
2690.000000	99.893722
2689.000000	99.893986
2688.000000	99.894185
2687.000000	99.894533
2686.000000	99.895266
2685.000000	99.896267
2684.000000	99.896930
2683.000000	99.896572
2682.000000	99.895140
2681.000000	99.893447
2680.000000	99.892498
2679.000000	99.892479
2678.000000	99.892778
2677.000000	99.892910
2676.000000	99.893097
2675.000000	99.893667
2674.000000	99.894376
2673.000000	99.894716
2672.000000	99.894564
2671.000000	99.894224
2670.000000	99.894007
2669.000000	99.894015
2668.000000	99.894262
2667.000000	99.894686
2666.000000	99.895035
2665.000000	99.895016
2664.000000	99.894683
2663.000000	99.894457
2662.000000	99.894652
2661.000000	99.895159
2660.000000	99.895681
2659.000000	99.896075
2658.000000	99.896329
2657.000000	99.896420
2656.000000	99.896392
2655.000000	99.896433
2654.000000	99.896681
2653.000000	99.897019
2652.000000	99.897204
2651.000000	99.897122
2650.000000	99.896844
2649.000000	99.896569
2648.000000	99.896598
2647.000000	99.897181
2646.000000	99.898198
2645.000000	99.899079
2644.000000	99.899302
2643.000000	99.898888
2642.000000	99.898264
2641.000000	99.897695
2640.000000	99.897086
2639.000000	99.896337
2638.000000	99.895669
2637.000000	99.895536
2636.000000	99.896218
2635.000000	99.897484
2634.000000	99.898543
2633.000000	99.898547
2632.000000	99.897338
2631.000000	99.895725
2630.000000	99.894851
2629.000000	99.895225
2628.000000	99.896581
2627.000000	99.898359
2626.000000	99.900068
2625.000000	99.901272
2624.000000	99.901672
2623.000000	99.901359
2622.000000	99.900812
2621.000000	99.900482
2620.000000	99.900546
2619.000000	99.901111
2618.000000	99.902353
2617.000000	99.904212
2616.000000	99.906088
2615.000000	99.907233
2614.000000	99.907550
2613.000000	99.907774
2612.000000	99.908692
2611.000000	99.910219
2610.000000	99.911495
2609.000000	99.911936
2608.000000	99.911865
2607.000000	99.911988
2606.000000	99.912482
2605.000000	99.912896
2604.000000	99.912841
2603.000000	99.912364
2602.000000	99.911718
2601.000000	99.911136
2600.000000	99.910866
2599.000000	99.911161
2598.000000	99.912052
2597.000000	99.913199
2596.000000	99.914102
2595.000000	99.914492
2594.000000	99.914488
2593.000000	99.914491
2592.000000	99.914883
2591.000000	99.915727
2590.000000	99.916688
2589.000000	99.917335
2588.000000	99.917589
2587.000000	99.917721
2586.000000	99.918026
2585.000000	99.918552
2584.000000	99.919151
2583.000000	99.919659
2582.000000	99.919981
2581.000000	99.920100
2580.000000	99.920096
2579.000000	99.920134
2578.000000	99.920326
2577.000000	99.920632
2576.000000	99.920930
2575.000000	99.921159
2574.000000	99.921325
2573.000000	99.921414
2572.000000	99.921410
2571.000000	99.921394
2570.000000	99.921515
2569.000000	99.921823
2568.000000	99.922193
2567.000000	99.922459
2566.000000	99.922579
2565.000000	99.922659
2564.000000	99.922861
2563.000000	99.923297
2562.000000	99.923947
2561.000000	99.924619
2560.000000	99.925045
2559.000000	99.925109
2558.000000	99.924917
2557.000000	99.924645
2556.000000	99.924335
2555.000000	99.923972
2554.000000	99.923649
2553.000000	99.923556
2552.000000	99.923786
2551.000000	99.924234
2550.000000	99.924689
2549.000000	99.924994
2548.000000	99.925102
2547.000000	99.925045
2546.000000	99.924897
2545.000000	99.924756
2544.000000	99.924680
2543.000000	99.924640
2542.000000	99.924568
2541.000000	99.924455
2540.000000	99.924389
2539.000000	99.924460
2538.000000	99.924654
2537.000000	99.924855
2536.000000	99.924937
2535.000000	99.924866
2534.000000	99.924682
2533.000000	99.924459
2532.000000	99.924278
2531.000000	99.924211
2530.000000	99.924285
2529.000000	99.924453
2528.000000	99.924617
2527.000000	99.924718
2526.000000	99.924773
2525.000000	99.924820
2524.000000	99.924861
2523.000000	99.924863
2522.000000	99.924821
2521.000000	99.924775
2520.000000	99.924784
2519.000000	99.924862
2518.000000	99.924995
2517.000000	99.925158
2516.000000	99.925327
2515.000000	99.925487
2514.000000	99.925631
2513.000000	99.925771
2512.000000	99.925908
2511.000000	99.926035
2510.000000	99.926146
2509.000000	99.926250
2508.000000	99.926373
2507.000000	99.926547
2506.000000	99.926808
2505.000000	99.927162
2504.000000	99.927554
2503.000000	99.927874
2502.000000	99.928046
2501.000000	99.928112
2500.000000	99.928244
2499.000000	99.928591
2498.000000	99.929136
2497.000000	99.929692
2496.000000	99.930079
2495.000000	99.930279
2494.000000	99.930405
2493.000000	99.930539
2492.000000	99.930672
2491.000000	99.930861
2490.000000	99.931324
2489.000000	99.932247
2488.000000	99.933453
2487.000000	99.934377
2486.000000	99.934586
2485.000000	99.934193
2484.000000	99.933721
2483.000000	99.933485
2482.000000	99.933378
2481.000000	99.933340
2480.000000	99.933692
2479.000000	99.934795
2478.000000	99.936515
2477.000000	99.938219
2476.000000	99.939258
2475.000000	99.939353
2474.000000	99.938658
2473.000000	99.937794
2472.000000	99.937652
2471.000000	99.938749
2470.000000	99.940621
2469.000000	99.942016
2468.000000	99.941905
2467.000000	99.940279
2466.000000	99.938097
2465.000000	99.936556
2464.000000	99.936215
2463.000000	99.936621
2462.000000	99.936775
2461.000000	99.936152
2460.000000	99.935222
2459.000000	99.934765
2458.000000	99.934824
2457.000000	99.934792
2456.000000	99.934423
2455.000000	99.934201
2454.000000	99.934572
2453.000000	99.935317
2452.000000	99.935915
2451.000000	99.936028
2450.000000	99.935377
2449.000000	99.933735
2448.000000	99.931576
2447.000000	99.930264
2446.000000	99.930926
2445.000000	99.933285
2444.000000	99.935991
2443.000000	99.937961
2442.000000	99.939114
2441.000000	99.940019
2440.000000	99.941332
2439.000000	99.943433
2438.000000	99.946086
2437.000000	99.948479
2436.000000	99.949977
2435.000000	99.950826
2434.000000	99.951737
2433.000000	99.952846
2432.000000	99.953534
2431.000000	99.953372
2430.000000	99.952916
2429.000000	99.953326
2428.000000	99.955158
2427.000000	99.957546
2426.000000	99.958773
2425.000000	99.957929
2424.000000	99.956014
2423.000000	99.955094
2422.000000	99.956154
2421.000000	99.958207
2420.000000	99.959716
2419.000000	99.960345
2418.000000	99.960731
2417.000000	99.961027
2416.000000	99.960622
2415.000000	99.959326
2414.000000	99.957889
2413.000000	99.957001
2412.000000	99.956429
2411.000000	99.955652
2410.000000	99.954898
2409.000000	99.954949
2408.000000	99.956026
2407.000000	99.957404
2406.000000	99.958387
2405.000000	99.958947
2404.000000	99.959304
2403.000000	99.959377
2402.000000	99.958973
2401.000000	99.958344
2400.000000	99.958150
2399.000000	99.958716
2398.000000	99.959648
2397.000000	99.960244
2396.000000	99.960250
2395.000000	99.960057
2394.000000	99.960123
2393.000000	99.960462
2392.000000	99.960808
2391.000000	99.961013
2390.000000	99.961097
2389.000000	99.961096
2388.000000	99.960999
2387.000000	99.960817
2386.000000	99.960602
2385.000000	99.960403
2384.000000	99.960233
2383.000000	99.960080
2382.000000	99.959929
2381.000000	99.959774
2380.000000	99.959613
2379.000000	99.959451
2378.000000	99.959287
2377.000000	99.959111
2376.000000	99.958912
2375.000000	99.958684
2374.000000	99.958432
2373.000000	99.958168
2372.000000	99.957902
2371.000000	99.957635
2370.000000	99.957361
2369.000000	99.957065
2368.000000	99.956740
2367.000000	99.956396
2366.000000	99.956051
2365.000000	99.955711
2364.000000	99.955361
2363.000000	99.954984
2362.000000	99.954578
2361.000000	99.954146
2360.000000	99.953694
2359.000000	99.953228
2358.000000	99.952758
2357.000000	99.952296
2356.000000	99.951856
2355.000000	99.951453
2354.000000	99.951097
2353.000000	99.950783
2352.000000	99.950490
2351.000000	99.950198
2350.000000	99.949901
2349.000000	99.949606
2348.000000	99.949315
2347.000000	99.949032
2346.000000	99.948760
2345.000000	99.948506
2344.000000	99.948270
2343.000000	99.948044
2342.000000	99.947829
2341.000000	99.947640
2340.000000	99.947494
2339.000000	99.947388
2338.000000	99.947305
2337.000000	99.947228
2336.000000	99.947149
2335.000000	99.947081
2334.000000	99.947047
2333.000000	99.947071
2332.000000	99.947161
2331.000000	99.947303
2330.000000	99.947468
2329.000000	99.947629
2328.000000	99.947774
2327.000000	99.947911
2326.000000	99.948060
2325.000000	99.948227
2324.000000	99.948403
2323.000000	99.948573
2322.000000	99.948740
2321.000000	99.948926
2320.000000	99.949144
2319.000000	99.949385
2318.000000	99.949630
2317.000000	99.949862
2316.000000	99.950075
2315.000000	99.950266
2314.000000	99.950433
2313.000000	99.950573
2312.000000	99.950685
2311.000000	99.950764
2310.000000	99.950809
2309.000000	99.950827
2308.000000	99.950828
2307.000000	99.950822
2306.000000	99.950816
2305.000000	99.950814
2304.000000	99.950817
2303.000000	99.950817
2302.000000	99.950815
2301.000000	99.950817
2300.000000	99.950817
2299.000000	99.950821
2298.000000	99.950848
2297.000000	99.950845
2296.000000	99.950711
2295.000000	99.950400
2294.000000	99.949981
2293.000000	99.949551
2292.000000	99.949079
2291.000000	99.948472
2290.000000	99.947842
2289.000000	99.947577
2288.000000	99.947904
2287.000000	99.948489
2286.000000	99.948596
2285.000000	99.947891
2284.000000	99.946677
2283.000000	99.945248
2282.000000	99.943651
2281.000000	99.942025
2280.000000	99.940717
2279.000000	99.939775
2278.000000	99.938736
2277.000000	99.937332
2276.000000	99.936118
2275.000000	99.935991
2274.000000	99.937040
2273.000000	99.938281
2272.000000	99.938764
2271.000000	99.938460
2270.000000	99.938019
2269.000000	99.937943
2268.000000	99.938133
2267.000000	99.938195
2266.000000	99.937956
2265.000000	99.937564
2264.000000	99.937158
2263.000000	99.936672
2262.000000	99.936007
2261.000000	99.935262
2260.000000	99.934594
2259.000000	99.934039
2258.000000	99.933594
2257.000000	99.933386
2256.000000	99.933528
2255.000000	99.933793
2254.000000	99.933677
2253.000000	99.932903
2252.000000	99.931767
2251.000000	99.930818
2250.000000	99.930224
2249.000000	99.929628
2248.000000	99.928722
2247.000000	99.927821
2246.000000	99.927611
2245.000000	99.928403
2244.000000	99.929793
2243.000000	99.931000
2242.000000	99.931505
2241.000000	99.931412
2240.000000	99.931228
2239.000000	99.931352
2238.000000	99.931700
2237.000000	99.931819
2236.000000	99.931406
2235.000000	99.930634
2234.000000	99.929994
2233.000000	99.929875
2232.000000	99.930413
2231.000000	99.931618
2230.000000	99.933353
2229.000000	99.935084
2228.000000	99.935993
2227.000000	99.935626
2226.000000	99.934279
2225.000000	99.932756
2224.000000	99.931671
2223.000000	99.931122
2222.000000	99.930963
2221.000000	99.931058
2220.000000	99.931309
2219.000000	99.931639
2218.000000	99.931988
2217.000000	99.932229
2216.000000	99.932129
2215.000000	99.931548
2214.000000	99.930717
2213.000000	99.930165
2212.000000	99.930243
2211.000000	99.930827
2210.000000	99.931499
2209.000000	99.931949
2208.000000	99.932169
2207.000000	99.932353
2206.000000	99.932725
2205.000000	99.933410
2204.000000	99.934369
2203.000000	99.935417
2202.000000	99.936270
2201.000000	99.936618
2200.000000	99.936284
2199.000000	99.935423
2198.000000	99.934607
2197.000000	99.934410
2196.000000	99.934915
2195.000000	99.935687
2194.000000	99.936222
2193.000000	99.936460
2192.000000	99.936686
2191.000000	99.937094
2190.000000	99.937630
2189.000000	99.938125
2188.000000	99.938392
2187.000000	99.938256
2186.000000	99.937685
2185.000000	99.936936
2184.000000	99.936454
2183.000000	99.936549
2182.000000	99.937251
2181.000000	99.938399
2180.000000	99.939699
2179.000000	99.940781
2178.000000	99.941368
2177.000000	99.941466
2176.000000	99.941273
2175.000000	99.940892
2174.000000	99.940298
2173.000000	99.939588
2172.000000	99.938981
2171.000000	99.938477
2170.000000	99.937836
2169.000000	99.937081
2168.000000	99.936739
2167.000000	99.937257
2166.000000	99.938366
2165.000000	99.939281
2164.000000	99.939591
2163.000000	99.939615
2162.000000	99.939841
2161.000000	99.940264
2160.000000	99.940432
2159.000000	99.939996
2158.000000	99.939031
2157.000000	99.937902
2156.000000	99.936894
2155.000000	99.936048
2154.000000	99.935403
2153.000000	99.935268
2152.000000	99.936081
2151.000000	99.937890
2150.000000	99.939964
2149.000000	99.941181
2148.000000	99.940975
2147.000000	99.939784
2146.000000	99.938644
2145.000000	99.938318
2144.000000	99.938835
2143.000000	99.939641
2142.000000	99.939970
2141.000000	99.939199
2140.000000	99.937284
2139.000000	99.935004
2138.000000	99.933440
2137.000000	99.932912
2136.000000	99.932697
2135.000000	99.932052
2134.000000	99.931364
2133.000000	99.931723
2132.000000	99.933511
2131.000000	99.936005
2130.000000	99.938259
2129.000000	99.939833
2128.000000	99.940542
2127.000000	99.940221
2126.000000	99.939175
2125.000000	99.938386
2124.000000	99.938667
2123.000000	99.939841
2122.000000	99.941167
2121.000000	99.942309
2120.000000	99.943465
2119.000000	99.944749
2118.000000	99.946048
2117.000000	99.947347
2116.000000	99.948567
2115.000000	99.949083
2114.000000	99.948107
2113.000000	99.945786
2112.000000	99.943541
2111.000000	99.942840
2110.000000	99.943901
2109.000000	99.945834
2108.000000	99.947729
2107.000000	99.949368
2106.000000	99.950858
2105.000000	99.952096
2104.000000	99.952828
2103.000000	99.952982
2102.000000	99.952680
2101.000000	99.951965
2100.000000	99.950739
2099.000000	99.949054
2098.000000	99.947374
2097.000000	99.946335
2096.000000	99.946221
2095.000000	99.946902
2094.000000	99.948195
2093.000000	99.950015
2092.000000	99.952014
2091.000000	99.953421
2090.000000	99.953681
2089.000000	99.953157
2088.000000	99.952877
2087.000000	99.953495
2086.000000	99.954760
2085.000000	99.955921
2084.000000	99.956353
2083.000000	99.955812
2082.000000	99.954515
2081.000000	99.953237
2080.000000	99.952975
2079.000000	99.954215
2078.000000	99.956569
2077.000000	99.959087
2076.000000	99.960928
2075.000000	99.961723
2074.000000	99.961539
2073.000000	99.960749
2072.000000	99.959743
2071.000000	99.958569
2070.000000	99.956992
2069.000000	99.955041
2068.000000	99.953355
2067.000000	99.952711
2066.000000	99.953164
2065.000000	99.953870
2064.000000	99.953913
2063.000000	99.953302
2062.000000	99.952921
2061.000000	99.953429
2060.000000	99.954361
2059.000000	99.954612
2058.000000	99.953730
2057.000000	99.952300
2056.000000	99.951007
2055.000000	99.949810
2054.000000	99.948386
2053.000000	99.946853
2052.000000	99.945510
2051.000000	99.944134
2050.000000	99.942227
2049.000000	99.939937
2048.000000	99.938202
2047.000000	99.937792
2046.000000	99.938594
2045.000000	99.939747
2044.000000	99.940162
2043.000000	99.939051
2042.000000	99.936364
2041.000000	99.932992
2040.000000	99.930155
2039.000000	99.928190
2038.000000	99.926433
2037.000000	99.924338
2036.000000	99.922295
2035.000000	99.921033
2034.000000	99.920615
2033.000000	99.920419
2032.000000	99.919853
2031.000000	99.918795
2030.000000	99.917426
2029.000000	99.915972
2028.000000	99.914605
2027.000000	99.913334
2026.000000	99.911985
2025.000000	99.910421
2024.000000	99.908770
2023.000000	99.907298
2022.000000	99.906146
2021.000000	99.905345
2020.000000	99.904963
2019.000000	99.904994
2018.000000	99.905150
2017.000000	99.904973
2016.000000	99.904212
2015.000000	99.902940
2014.000000	99.901342
2013.000000	99.899564
2012.000000	99.897823
2011.000000	99.896479
2010.000000	99.895836
2009.000000	99.895874
2008.000000	99.896171
2007.000000	99.896181
2006.000000	99.895621
2005.000000	99.894616
2004.000000	99.893554
2003.000000	99.892772
2002.000000	99.892341
2001.000000	99.892129
2000.000000	99.891971
1999.000000	99.891764
1998.000000	99.891456
1997.000000	99.891000
1996.000000	99.890378
1995.000000	99.889640
1994.000000	99.888943
1993.000000	99.888487
1992.000000	99.888372
1991.000000	99.888461
1990.000000	99.888483
1989.000000	99.888298
1988.000000	99.887991
1987.000000	99.887745
1986.000000	99.887681
1985.000000	99.887830
1984.000000	99.888182
1983.000000	99.888662
1982.000000	99.889104
1981.000000	99.889331
1980.000000	99.889287
1979.000000	99.889072
1978.000000	99.888867
1977.000000	99.888795
1976.000000	99.888893
1975.000000	99.889128
1974.000000	99.889376
1973.000000	99.889450
1972.000000	99.889285
1971.000000	99.889104
1970.000000	99.889268
1969.000000	99.889906
1968.000000	99.890703
1967.000000	99.891129
1966.000000	99.891007
1965.000000	99.890737
1964.000000	99.890829
1963.000000	99.891269
1962.000000	99.891591
1961.000000	99.891581
1960.000000	99.891623
1959.000000	99.892177
1958.000000	99.893150
1957.000000	99.894001
1956.000000	99.894331
1955.000000	99.894127
1954.000000	99.893581
1953.000000	99.892888
1952.000000	99.892215
1951.000000	99.891673
1950.000000	99.891275
1949.000000	99.890998
1948.000000	99.890873
1947.000000	99.890963
1946.000000	99.891296
1945.000000	99.891917
1944.000000	99.892938
1943.000000	99.894337
1942.000000	99.895651
1941.000000	99.896163
1940.000000	99.895496
1939.000000	99.893845
1938.000000	99.891809
1937.000000	99.890023
1936.000000	99.888848
1935.000000	99.888308
1934.000000	99.888189
1933.000000	99.888110
1932.000000	99.887652
1931.000000	99.886663
1930.000000	99.885537
1929.000000	99.884968
1928.000000	99.885160
1927.000000	99.885457
1926.000000	99.885047
1925.000000	99.883855
1924.000000	99.882482
1923.000000	99.881239
1922.000000	99.879697
1921.000000	99.877503
1920.000000	99.875193
1919.000000	99.873839
1918.000000	99.873819
1917.000000	99.874094
1916.000000	99.873293
1915.000000	99.871252
1914.000000	99.868852
1913.000000	99.866811
1912.000000	99.864937
1911.000000	99.862766
1910.000000	99.860573
1909.000000	99.859240
1908.000000	99.859051
1907.000000	99.859259
1906.000000	99.858987
1905.000000	99.858057
1904.000000	99.856808
1903.000000	99.855455
1902.000000	99.853889
1901.000000	99.851956
1900.000000	99.849690
1899.000000	99.847274
1898.000000	99.844867
1897.000000	99.842388
1896.000000	99.839509
1895.000000	99.836154
1894.000000	99.833067
1893.000000	99.831369
1892.000000	99.831444
1891.000000	99.832692
1890.000000	99.834238
1889.000000	99.835526
1888.000000	99.836131
1887.000000	99.835399
1886.000000	99.832861
1885.000000	99.829126
1884.000000	99.825842
1883.000000	99.824250
1882.000000	99.824101
1881.000000	99.824125
1880.000000	99.823416
1879.000000	99.822237
1878.000000	99.821534
1877.000000	99.821920
1876.000000	99.823213
1875.000000	99.824712
1874.000000	99.825650
1873.000000	99.825415
1872.000000	99.823809
1871.000000	99.821573
1870.000000	99.820518
1869.000000	99.822067
1868.000000	99.825220
1867.000000	99.827377
1866.000000	99.827438
1865.000000	99.826314
1864.000000	99.825276
1863.000000	99.824829
1862.000000	99.825024
1861.000000	99.826088
1860.000000	99.828073
1859.000000	99.830341
1858.000000	99.832243
1857.000000	99.834067
1856.000000	99.836617
1855.000000	99.839944
1854.000000	99.842961
1853.000000	99.844520
1852.000000	99.844713
1851.000000	99.844806
1850.000000	99.846112
1849.000000	99.848796
1848.000000	99.851697
1847.000000	99.853453
1846.000000	99.853905
1845.000000	99.854342
1844.000000	99.855914
1843.000000	99.857822
1842.000000	99.858398
1841.000000	99.857148
1840.000000	99.855222
1839.000000	99.854510
1838.000000	99.856059
1837.000000	99.859217
1836.000000	99.862338
1835.000000	99.864373
1834.000000	99.865549
1833.000000	99.866720
1832.000000	99.868408
1831.000000	99.870291
1830.000000	99.871497
1829.000000	99.871653
1828.000000	99.871398
1827.000000	99.871249
1826.000000	99.871163
1825.000000	99.871136
1824.000000	99.871232
1823.000000	99.871351
1822.000000	99.871465
1821.000000	99.871905
1820.000000	99.872840
1819.000000	99.873503
1818.000000	99.872747
1817.000000	99.870480
1816.000000	99.867985
1815.000000	99.866581
1814.000000	99.866507
1813.000000	99.867134
1812.000000	99.867436
1811.000000	99.866446
1810.000000	99.864185
1809.000000	99.862068
1808.000000	99.861401
1807.000000	99.862057
1806.000000	99.862996
1805.000000	99.863372
1804.000000	99.862788
1803.000000	99.861174
1802.000000	99.859234
1801.000000	99.858629
1800.000000	99.860172
1799.000000	99.862391
1798.000000	99.863215
1797.000000	99.862506
1796.000000	99.861726
1795.000000	99.861847
1794.000000	99.862543
1793.000000	99.863172
1792.000000	99.863357
1791.000000	99.862764
1790.000000	99.861641
1789.000000	99.861044
1788.000000	99.861902
1787.000000	99.864002
1786.000000	99.865886
1785.000000	99.866302
1784.000000	99.865739
1783.000000	99.865652
1782.000000	99.866566
1781.000000	99.868018
1780.000000	99.869482
1779.000000	99.870971
1778.000000	99.872697
1777.000000	99.874740
1776.000000	99.876999
1775.000000	99.878961
1774.000000	99.879944
1773.000000	99.879963
1772.000000	99.879979
1771.000000	99.880475
1770.000000	99.880840
1769.000000	99.880837
1768.000000	99.881813
1767.000000	99.885084
1766.000000	99.889736
1765.000000	99.893571
1764.000000	99.895614
1763.000000	99.896957
1762.000000	99.899179
1761.000000	99.902336
1760.000000	99.905171
1759.000000	99.906677
1758.000000	99.906756
1757.000000	99.906230
1756.000000	99.906124
1755.000000	99.906444
1754.000000	99.906137
1753.000000	99.904638
1752.000000	99.903176
1751.000000	99.903808
1750.000000	99.906585
1749.000000	99.909499
1748.000000	99.911550
1747.000000	99.913130
1746.000000	99.914209
1745.000000	99.914104
1744.000000	99.912735
1743.000000	99.910880
1742.000000	99.908905
1741.000000	99.906657
1740.000000	99.904808
1739.000000	99.904640
1738.000000	99.905718
1737.000000	99.905776
1736.000000	99.902935
1735.000000	99.897874
1734.000000	99.894406
1733.000000	99.894652
1732.000000	99.896379
1731.000000	99.897150
1730.000000	99.896960
1729.000000	99.897052
1728.000000	99.898132
1727.000000	99.899640
1726.000000	99.900388
1725.000000	99.899549
1724.000000	99.897164
1723.000000	99.894156
1722.000000	99.891351
1721.000000	99.888663
1720.000000	99.885385
1719.000000	99.881171
1718.000000	99.876958
1717.000000	99.874674
1716.000000	99.874487
1715.000000	99.874471
1714.000000	99.873651
1713.000000	99.872326
1712.000000	99.870457
1711.000000	99.867537
1710.000000	99.863718
1709.000000	99.860275
1708.000000	99.858193
1707.000000	99.856776
1706.000000	99.854846
1705.000000	99.852604
1704.000000	99.850879
1703.000000	99.848822
1702.000000	99.844571
1701.000000	99.837964
1700.000000	99.831769
1699.000000	99.827556
1698.000000	99.824084
1697.000000	99.820674
1696.000000	99.818303
1695.000000	99.816784
1694.000000	99.814436
1693.000000	99.810624
1692.000000	99.806085
1691.000000	99.801758
1690.000000	99.797616
1689.000000	99.793035
1688.000000	99.788017
1687.000000	99.782969
1686.000000	99.778113
1685.000000	99.773962
1684.000000	99.771081
1683.000000	99.768585
1682.000000	99.765675
1681.000000	99.761936
1680.000000	99.757843
1679.000000	99.754372
1678.000000	99.751766
1677.000000	99.749428
1676.000000	99.746911
1675.000000	99.744115
1674.000000	99.740588
1673.000000	99.735944
1672.000000	99.730615
1671.000000	99.726208
1670.000000	99.724395
1669.000000	99.724755
1668.000000	99.725268
1667.000000	99.724829
1666.000000	99.722888
1665.000000	99.718767
1664.000000	99.712355
1663.000000	99.705022
1662.000000	99.698797
1661.000000	99.694333
1660.000000	99.691022
1659.000000	99.688628
1658.000000	99.687308
1657.000000	99.686708
1656.000000	99.685835
1655.000000	99.684005
1654.000000	99.680761
1653.000000	99.674472
1652.000000	99.666642
1651.000000	99.662723
1650.000000	99.661482
1649.000000	99.660050
1648.000000	99.656585
1647.000000	99.651716
1646.000000	99.648232
1645.000000	99.647488
1644.000000	99.647890
1643.000000	99.647876
1642.000000	99.647776
1641.000000	99.648637
1640.000000	99.650541
1639.000000	99.652747
1638.000000	99.654779
1637.000000	99.656374
1636.000000	99.656383
1635.000000	99.653734
1634.000000	99.650390
1633.000000	99.647936
1632.000000	99.645472
1631.000000	99.642420
1630.000000	99.639729
1629.000000	99.638934
1628.000000	99.640321
1627.000000	99.642433
1626.000000	99.643408
1625.000000	99.642653
1624.000000	99.641605
1623.000000	99.642959
1622.000000	99.647650
1621.000000	99.653786
1620.000000	99.659281
1619.000000	99.663715
1618.000000	99.667436
1617.000000	99.669306
1616.000000	99.667228
1615.000000	99.662971
1614.000000	99.660474
1613.000000	99.661001
1612.000000	99.663634
1611.000000	99.667040
1610.000000	99.670494
1609.000000	99.673783
1608.000000	99.676734
1607.000000	99.679320
1606.000000	99.681733
1605.000000	99.684322
1604.000000	99.687605
1603.000000	99.692129
1602.000000	99.697625
1601.000000	99.702520
1600.000000	99.705342
1599.000000	99.706242
1598.000000	99.706736
1597.000000	99.708261
1596.000000	99.711214
1595.000000	99.715056
1594.000000	99.718758
1593.000000	99.721327
1592.000000	99.722762
1591.000000	99.724547
1590.000000	99.728371
1589.000000	99.734141
1588.000000	99.740148
1587.000000	99.745276
1586.000000	99.749918
1585.000000	99.754437
1584.000000	99.758097
1583.000000	99.760096
1582.000000	99.761147
1581.000000	99.762734
1580.000000	99.765233
1579.000000	99.767873
1578.000000	99.770516
1577.000000	99.774334
1576.000000	99.779546
1575.000000	99.783779
1574.000000	99.785548
1573.000000	99.785699
1572.000000	99.786153
1571.000000	99.788642
1570.000000	99.792965
1569.000000	99.796312
1568.000000	99.797402
1567.000000	99.797692
1566.000000	99.798154
1565.000000	99.798537
1564.000000	99.798361
1563.000000	99.797333
1562.000000	99.795081
1561.000000	99.791234
1560.000000	99.787780
1559.000000	99.789125
1558.000000	99.793610
1557.000000	99.796852
1556.000000	99.798518
1555.000000	99.799593
1554.000000	99.800997
1553.000000	99.802893
1552.000000	99.804941
1551.000000	99.806735
1550.000000	99.807688
1549.000000	99.807022
1548.000000	99.804775
1547.000000	99.801997
1546.000000	99.800246
1545.000000	99.800737
1544.000000	99.803160
1543.000000	99.805772
1542.000000	99.807405
1541.000000	99.808725
1540.000000	99.810875
1539.000000	99.813341
1538.000000	99.815243
1537.000000	99.816362
1536.000000	99.816873
1535.000000	99.817262
1534.000000	99.817983
1533.000000	99.818859
1532.000000	99.819352
1531.000000	99.819421
1530.000000	99.819348
1529.000000	99.819363
1528.000000	99.819569
1527.000000	99.820062
1526.000000	99.821004
1525.000000	99.822412
1524.000000	99.823985
1523.000000	99.825385
1522.000000	99.826622
1521.000000	99.827989
1520.000000	99.829563
1519.000000	99.831072
1518.000000	99.832276
1517.000000	99.833199
1516.000000	99.834123
1515.000000	99.835337
1514.000000	99.836842
1513.000000	99.838509
1512.000000	99.840211
1511.000000	99.841881
1510.000000	99.843478
1509.000000	99.844976
1508.000000	99.846380
1507.000000	99.847758
1506.000000	99.849245
1505.000000	99.850902
1504.000000	99.852655
1503.000000	99.854416
1502.000000	99.856183
1501.000000	99.857995
1500.000000	99.859885
1499.000000	99.861830
1498.000000	99.863732
1497.000000	99.865494
1496.000000	99.867141
1495.000000	99.868770
1494.000000	99.870449
1493.000000	99.872230
1492.000000	99.874142
1491.000000	99.876118
1490.000000	99.877987
1489.000000	99.879791
1488.000000	99.881863
1487.000000	99.884295
1486.000000	99.886833
1485.000000	99.889099
1484.000000	99.890756
1483.000000	99.891669
1482.000000	99.892208
1481.000000	99.893252
1480.000000	99.895396
1479.000000	99.898271
1478.000000	99.901141
1477.000000	99.903801
1476.000000	99.906479
1475.000000	99.909119
1474.000000	99.911665
1473.000000	99.914455
1472.000000	99.916966
1471.000000	99.917821
1470.000000	99.916976
1469.000000	99.915666
1468.000000	99.915258
1467.000000	99.916323
1466.000000	99.918500
1465.000000	99.921239
1464.000000	99.924060
1463.000000	99.926623
1462.000000	99.929031
1461.000000	99.932029
1460.000000	99.936352
1459.000000	99.941197
1458.000000	99.943284
1457.000000	99.939922
1456.000000	99.934443
1455.000000	99.931470
1454.000000	99.929911
1453.000000	99.928091
1452.000000	99.926621
1451.000000	99.926539
1450.000000	99.927389
1449.000000	99.928091
1448.000000	99.928417
1447.000000	99.928438
1446.000000	99.927682
1445.000000	99.926021
1444.000000	99.923983
1443.000000	99.922211
1442.000000	99.920809
1441.000000	99.919458
1440.000000	99.918000
1439.000000	99.916615
1438.000000	99.915837
1437.000000	99.916502
1436.000000	99.918556
1435.000000	99.920283
1434.000000	99.920121
1433.000000	99.918087
1432.000000	99.915555
1431.000000	99.914129
1430.000000	99.914038
1429.000000	99.914100
1428.000000	99.913262
1427.000000	99.911230
1426.000000	99.908135
1425.000000	99.904731
1424.000000	99.902399
1423.000000	99.901851
1422.000000	99.902223
1421.000000	99.902448
1420.000000	99.902650
1419.000000	99.903280
1418.000000	99.903631
1417.000000	99.903254
1416.000000	99.902909
1415.000000	99.903279
1414.000000	99.904180
1413.000000	99.904884
1412.000000	99.905020
1411.000000	99.904880
1410.000000	99.904830
1409.000000	99.904814
1408.000000	99.904613
1407.000000	99.904304
1406.000000	99.904269
1405.000000	99.904786
1404.000000	99.905684
1403.000000	99.906433
1402.000000	99.906679
1401.000000	99.906540
1400.000000	99.906501
1399.000000	99.906966
1398.000000	99.907795
1397.000000	99.908493
1396.000000	99.908802
1395.000000	99.908848
1394.000000	99.908903
1393.000000	99.909126
1392.000000	99.909588
1391.000000	99.910331
1390.000000	99.911309
1389.000000	99.912368
1388.000000	99.913337
1387.000000	99.914151
1386.000000	99.914892
1385.000000	99.915733
1384.000000	99.916877
1383.000000	99.918439
1382.000000	99.920211
1381.000000	99.921632
1380.000000	99.922244
1379.000000	99.922105
1378.000000	99.921739
1377.000000	99.921576
1376.000000	99.921613
1375.000000	99.921770
1374.000000	99.922242
1373.000000	99.923219
1372.000000	99.924502
1371.000000	99.925734
1370.000000	99.926922
1369.000000	99.928353
1368.000000	99.929965
1367.000000	99.931212
1366.000000	99.931758
1365.000000	99.932025
1364.000000	99.932736
1363.000000	99.933943
1362.000000	99.935086
1361.000000	99.936307
1360.000000	99.938530
1359.000000	99.941873
1358.000000	99.945140
1357.000000	99.947186
1356.000000	99.948092
1355.000000	99.948500
1354.000000	99.948384
1353.000000	99.947644
1352.000000	99.947300
1351.000000	99.948800
1350.000000	99.952306
1349.000000	99.956256
1348.000000	99.959044
1347.000000	99.960360
1346.000000	99.960615
1345.000000	99.960147
1344.000000	99.959416
1343.000000	99.958953
1342.000000	99.958641
1341.000000	99.957663
1340.000000	99.955613
1339.000000	99.953162
1338.000000	99.951062
1337.000000	99.949294
1336.000000	99.947770
1335.000000	99.946839
1334.000000	99.946657
1333.000000	99.946811
1332.000000	99.947022
1331.000000	99.947621
1330.000000	99.948826
1329.000000	99.950140
1328.000000	99.951226
1327.000000	99.952778
1326.000000	99.955629
1325.000000	99.959230
1324.000000	99.962016
1323.000000	99.963111
1322.000000	99.962968
1321.000000	99.962368
1320.000000	99.961600
1319.000000	99.960768
1318.000000	99.960101
1317.000000	99.959526
1316.000000	99.958395
1315.000000	99.956199
1314.000000	99.953512
1313.000000	99.951824
1312.000000	99.952132
1311.000000	99.953870
1310.000000	99.955413
1309.000000	99.955622
1308.000000	99.954787
1307.000000	99.954168
1306.000000	99.954807
1305.000000	99.956702
1304.000000	99.958933
1303.000000	99.960335
1302.000000	99.960309
1301.000000	99.959201
1300.000000	99.957922
1299.000000	99.957082
1298.000000	99.956554
1297.000000	99.955965
1296.000000	99.955420
1295.000000	99.955582
1294.000000	99.957093
1293.000000	99.959911
1292.000000	99.962945
1291.000000	99.964394
1290.000000	99.963026
1289.000000	99.959411
1288.000000	99.955775
1287.000000	99.953918
1286.000000	99.953345
1285.000000	99.951941
1284.000000	99.948275
1283.000000	99.942913
1282.000000	99.937850
1281.000000	99.935174
1280.000000	99.935936
1279.000000	99.939283
1278.000000	99.942675
1277.000000	99.944210
1276.000000	99.944657
1275.000000	99.946130
1274.000000	99.948945
1273.000000	99.951284
1272.000000	99.952057
1271.000000	99.952229
1270.000000	99.952521
1269.000000	99.951631
1268.000000	99.948042
1267.000000	99.942200
1266.000000	99.935896
1265.000000	99.930899
1264.000000	99.929102
1263.000000	99.932050
1262.000000	99.938547
1261.000000	99.944227
1260.000000	99.945464
1259.000000	99.942809
1258.000000	99.939143
1257.000000	99.935723
1256.000000	99.931715
1255.000000	99.926375
1254.000000	99.919879
1253.000000	99.912955
1252.000000	99.907371
1251.000000	99.905822
1250.000000	99.909371
1249.000000	99.915526
1248.000000	99.920440
1247.000000	99.922317
1246.000000	99.921225
1245.000000	99.916664
1244.000000	99.907642
1243.000000	99.895072
1242.000000	99.881966
1241.000000	99.870826
1240.000000	99.862223
1239.000000	99.856008
1238.000000	99.852213
1237.000000	99.850052
1236.000000	99.847270
1235.000000	99.841733
1234.000000	99.833713
1233.000000	99.825939
1232.000000	99.820852
1231.000000	99.817783
1230.000000	99.813340
1229.000000	99.804960
1228.000000	99.793237
1227.000000	99.779899
1226.000000	99.764711
1225.000000	99.746395
1224.000000	99.726205
1223.000000	99.707930
1222.000000	99.693528
1221.000000	99.680968
1220.000000	99.667357
1219.000000	99.651913
1218.000000	99.634561
1217.000000	99.614082
1216.000000	99.589975
1215.000000	99.564600
1214.000000	99.540902
1213.000000	99.518470
1212.000000	99.493837
1211.000000	99.464413
1210.000000	99.430983
1209.000000	99.397236
1208.000000	99.367907
1207.000000	99.345919
1206.000000	99.329363
1205.000000	99.312035
1204.000000	99.288621
1203.000000	99.258812
1202.000000	99.225622
1201.000000	99.191408
1200.000000	99.157417
1199.000000	99.125882
1198.000000	99.099570
1197.000000	99.078983
1196.000000	99.061626
1195.000000	99.043926
1194.000000	99.022684
1193.000000	98.995508
1192.000000	98.962288
1191.000000	98.926887
1190.000000	98.895334
1189.000000	98.870593
1188.000000	98.849558
1187.000000	98.826195
1186.000000	98.797735
1185.000000	98.766971
1184.000000	98.738027
1183.000000	98.710798
1182.000000	98.681155
1181.000000	98.646527
1180.000000	98.608883
1179.000000	98.571058
1178.000000	98.532741
1177.000000	98.492843
1176.000000	98.453564
1175.000000	98.417824
1174.000000	98.383472
1173.000000	98.344969
1172.000000	98.301629
1171.000000	98.259434
1170.000000	98.223136
1169.000000	98.191298
1168.000000	98.161453
1167.000000	98.135520
1166.000000	98.116428
1165.000000	98.103249
1164.000000	98.094332
1163.000000	98.092667
1162.000000	98.102724
1161.000000	98.122227
1160.000000	98.141131
1159.000000	98.149821
1158.000000	98.145813
1157.000000	98.132001
1156.000000	98.111326
1155.000000	98.084695
1154.000000	98.052372
1153.000000	98.015297
1152.000000	97.975015
1151.000000	97.933021
1150.000000	97.890227
1149.000000	97.847084
1148.000000	97.804624
1147.000000	97.765309
1146.000000	97.732084
1145.000000	97.705597
1144.000000	97.682083
1143.000000	97.655111
1142.000000	97.621373
1141.000000	97.584650
1140.000000	97.551404
1139.000000	97.521541
1138.000000	97.487144
1137.000000	97.443335
1136.000000	97.397209
1135.000000	97.361045
1134.000000	97.337605
1133.000000	97.317189
1132.000000	97.289211
1131.000000	97.251859
1130.000000	97.209869
1129.000000	97.167981
1128.000000	97.128760
1127.000000	97.092734
1126.000000	97.057781
1125.000000	97.021005
1124.000000	96.982923
1123.000000	96.946928
1122.000000	96.913247
1121.000000	96.877150
1120.000000	96.835495
1119.000000	96.792009
1118.000000	96.753490
1117.000000	96.723384
1116.000000	96.701081
1115.000000	96.684392
1114.000000	96.670221
1113.000000	96.655073
1112.000000	96.637387
1111.000000	96.618230
1110.000000	96.598564
1109.000000	96.577539
1108.000000	96.554531
1107.000000	96.530831
1106.000000	96.508373
1105.000000	96.488551
1104.000000	96.472719
1103.000000	96.461774
1102.000000	96.454923
1101.000000	96.450704
1100.000000	96.448606
1099.000000	96.446445
1098.000000	96.438428
1097.000000	96.420059
1096.000000	96.394999
1095.000000	96.372454
1094.000000	96.357135
1093.000000	96.346019
1092.000000	96.335411
1091.000000	96.326083
1090.000000	96.319922
1089.000000	96.316074
1088.000000	96.312506
1087.000000	96.307822
1086.000000	96.299982
1085.000000	96.286733
1084.000000	96.268907
1083.000000	96.250527
1082.000000	96.234618
1081.000000	96.221526
1080.000000	96.211324
1079.000000	96.203913
1078.000000	96.196090
1077.000000	96.182717
1076.000000	96.162264
1075.000000	96.138238
1074.000000	96.114545
1073.000000	96.091966
1072.000000	96.068340
1071.000000	96.038143
1070.000000	95.992858
1069.000000	95.927439
1068.000000	95.847257
1067.000000	95.763947
1066.000000	95.683305
1065.000000	95.602652
1064.000000	95.521031
1063.000000	95.444434
1062.000000	95.377565
1061.000000	95.317199
1060.000000	95.258850
1059.000000	95.204832
1058.000000	95.159848
1057.000000	95.121527
1056.000000	95.080673
1055.000000	95.030090
1054.000000	94.970372
1053.000000	94.908120
1052.000000	94.850119
1051.000000	94.797406
1050.000000	94.743438
1049.000000	94.680201
1048.000000	94.606871
1047.000000	94.530117
1046.000000	94.455894
1045.000000	94.383972
1044.000000	94.310547
1043.000000	94.233274
1042.000000	94.153750
1041.000000	94.077451
1040.000000	94.010583
1039.000000	93.954305
1038.000000	93.903226
1037.000000	93.853130
1036.000000	93.808096
1035.000000	93.775108
1034.000000	93.753704
1033.000000	93.736869
1032.000000	93.721111
1031.000000	93.709430
1030.000000	93.704506
1029.000000	93.705065
1028.000000	93.709214
1027.000000	93.715702
1026.000000	93.721429
1025.000000	93.722742
1024.000000	93.719732
1023.000000	93.715422
1022.000000	93.711568
1021.000000	93.709038
1020.000000	93.710180
1019.000000	93.715594
1018.000000	93.720575
1017.000000	93.720678
1016.000000	93.718654
1015.000000	93.719214
1014.000000	93.719089
1013.000000	93.710493
1012.000000	93.694235
1011.000000	93.681222
1010.000000	93.679389
1009.000000	93.685932
1008.000000	93.694343
1007.000000	93.703391
1006.000000	93.716552
1005.000000	93.736045
1004.000000	93.759154
1003.000000	93.778901
1002.000000	93.790207
1001.000000	93.798416
1000.000000	93.818209
999.000000	93.858887
998.000000	93.912926
997.000000	93.964168
996.000000	94.005279
995.000000	94.041033
994.000000	94.077024
993.000000	94.113466
992.000000	94.149796
991.000000	94.187801
990.000000	94.228809
989.000000	94.273013
988.000000	94.322059
987.000000	94.377779
986.000000	94.438641
985.000000	94.501393
984.000000	94.564569
983.000000	94.626375
982.000000	94.682801
981.000000	94.734336
980.000000	94.791322
979.000000	94.864343
978.000000	94.950283
977.000000	95.035395
976.000000	95.111939
975.000000	95.184232
974.000000	95.258318
973.000000	95.334029
972.000000	95.408991
971.000000	95.483339
970.000000	95.557544
969.000000	95.630659
968.000000	95.702958
967.000000	95.776358
966.000000	95.851231
965.000000	95.926765
964.000000	96.004521
963.000000	96.086546
962.000000	96.169152
961.000000	96.243798
960.000000	96.305969
959.000000	96.359413
958.000000	96.410650
957.000000	96.462977
956.000000	96.517003
955.000000	96.572689
954.000000	96.628290
953.000000	96.680227
952.000000	96.726062
951.000000	96.765977
950.000000	96.800595
949.000000	96.829223
948.000000	96.851345
947.000000	96.868871
946.000000	96.886350
945.000000	96.908854
944.000000	96.937949
943.000000	96.968558
942.000000	96.992043
941.000000	97.004865
940.000000	97.012792
939.000000	97.024677
938.000000	97.044021
937.000000	97.068920
936.000000	97.097050
935.000000	97.126532
934.000000	97.154236
933.000000	97.177943
932.000000	97.198914
931.000000	97.218440
930.000000	97.233817
929.000000	97.242282
928.000000	97.247314
927.000000	97.256033
926.000000	97.271160
925.000000	97.290131
924.000000	97.310767
923.000000	97.332074
922.000000	97.350061
921.000000	97.359412
920.000000	97.360954
919.000000	97.362417
918.000000	97.369734
917.000000	97.381271
916.000000	97.392180
915.000000	97.401075
914.000000	97.411028
913.000000	97.427014
912.000000	97.453632
911.000000	97.492357
910.000000	97.539543
909.000000	97.589272
908.000000	97.639056
907.000000	97.690675
906.000000	97.745169
905.000000	97.799372
904.000000	97.848220
903.000000	97.889651
902.000000	97.927523
901.000000	97.969849
900.000000	98.021997
899.000000	98.080268
898.000000	98.134641
897.000000	98.179780
896.000000	98.220383
895.000000	98.263378
894.000000	98.308517
893.000000	98.350519
892.000000	98.387389
891.000000	98.421772
890.000000	98.456058
889.000000	98.490933
888.000000	98.527656
887.000000	98.567013
886.000000	98.606246
885.000000	98.641055
884.000000	98.670696
883.000000	98.698175
882.000000	98.725894
881.000000	98.753758
880.000000	98.780603
879.000000	98.804698
878.000000	98.824173
877.000000	98.840127
876.000000	98.857884
875.000000	98.881921
874.000000	98.910975
873.000000	98.940854
872.000000	98.969657
871.000000	98.997084
870.000000	99.021671
869.000000	99.042989
868.000000	99.064336
867.000000	99.088988
866.000000	99.115273
865.000000	99.139163
864.000000	99.160536
863.000000	99.183664
862.000000	99.212648
861.000000	99.248670
860.000000	99.289274
859.000000	99.327248
858.000000	99.353585
857.000000	99.366193
856.000000	99.373594
855.000000	99.386054
854.000000	99.405120
853.000000	99.425605
852.000000	99.444110
851.000000	99.459751
850.000000	99.469543
849.000000	99.470502
848.000000	99.465847
847.000000	99.463136
846.000000	99.465842
845.000000	99.470983
844.000000	99.474513
843.000000	99.474925
842.000000	99.472979
841.000000	99.472188
840.000000	99.477306
839.000000	99.487027
838.000000	99.490313
837.000000	99.476767
836.000000	99.450226
835.000000	99.426135
834.000000	99.415206
833.000000	99.415065
832.000000	99.418004
831.000000	99.420400
830.000000	99.422922
829.000000	99.426766
828.000000	99.431975
827.000000	99.436348
826.000000	99.436288
825.000000	99.432512
824.000000	99.432395
823.000000	99.439981
822.000000	99.446290
821.000000	99.438760
820.000000	99.418548
819.000000	99.399442
818.000000	99.390215
817.000000	99.385405
816.000000	99.373857
815.000000	99.349129
814.000000	99.309201
813.000000	99.251631
812.000000	99.172798
811.000000	99.069492
810.000000	98.940102
809.000000	98.787638
808.000000	98.622662
807.000000	98.458803
806.000000	98.302285
805.000000	98.148250
804.000000	97.989185
803.000000	97.825224
802.000000	97.666995
801.000000	97.532316
800.000000	97.439198
799.000000	97.395115
798.000000	97.390045
797.000000	97.404391
796.000000	97.426055
795.000000	97.456682
794.000000	97.501734
793.000000	97.559399
792.000000	97.619181
791.000000	97.667156
790.000000	97.693628
789.000000	97.699808
788.000000	97.695578
787.000000	97.687089
786.000000	97.669023
785.000000	97.633333
784.000000	97.582133
783.000000	97.525958
782.000000	97.472682
781.000000	97.425554
780.000000	97.389060
779.000000	97.367900
778.000000	97.361801
777.000000	97.369805
776.000000	97.397270
775.000000	97.447912
774.000000	97.510425
773.000000	97.565946
772.000000	97.610972
771.000000	97.661013
770.000000	97.727813
769.000000	97.803218
768.000000	97.869981
767.000000	97.919554
766.000000	97.954066
765.000000	97.978832
764.000000	97.999451
763.000000	98.020983
762.000000	98.044728
761.000000	98.069276
760.000000	98.096679
759.000000	98.131562
758.000000	98.171480
757.000000	98.205361
756.000000	98.226374
755.000000	98.240556
754.000000	98.257907
753.000000	98.280083
752.000000	98.302217
751.000000	98.323209
750.000000	98.348603
749.000000	98.383859
748.000000	98.427306
747.000000	98.469210
746.000000	98.498406
745.000000	98.512799
744.000000	98.522810
743.000000	98.540398
742.000000	98.565386
741.000000	98.588686
740.000000	98.608296
739.000000	98.633460
738.000000	98.670489
737.000000	98.712383
736.000000	98.747450
735.000000	98.772534
734.000000	98.792529
733.000000	98.811005
732.000000	98.827155
731.000000	98.840310
730.000000	98.852462
729.000000	98.866263
728.000000	98.883039
727.000000	98.902110
726.000000	98.920886
725.000000	98.936948
724.000000	98.949882
723.000000	98.958622
722.000000	98.959166
721.000000	98.951501
720.000000	98.948468
719.000000	98.966626
718.000000	99.004179
717.000000	99.038914
716.000000	99.051471
715.000000	99.043319
714.000000	99.030013
713.000000	99.023075
712.000000	99.024442
711.000000	99.032798
710.000000	99.044685
709.000000	99.051129
708.000000	99.042783
707.000000	99.020394
706.000000	98.995050
705.000000	98.976711
704.000000	98.965413
703.000000	98.952589
702.000000	98.926639
701.000000	98.877848
700.000000	98.803306
699.000000	98.710547
698.000000	98.615256
697.000000	98.533619
696.000000	98.475364
695.000000	98.441665
694.000000	98.429416
693.000000	98.438841
692.000000	98.474995
691.000000	98.538142
690.000000	98.613858
689.000000	98.680067
688.000000	98.728097
687.000000	98.769382
686.000000	98.815520
685.000000	98.860944
684.000000	98.893370
683.000000	98.914077
682.000000	98.937550
681.000000	98.973672
680.000000	99.018137
679.000000	99.059472
678.000000	99.089054
677.000000	99.105436
676.000000	99.116386
675.000000	99.135764
674.000000	99.170118
673.000000	99.208566
672.000000	99.233306
671.000000	99.239842
670.000000	99.243695
669.000000	99.272795
668.000000	99.327197
667.000000	99.358956
666.000000	99.366540
665.000000	99.372298
664.000000	99.380810
663.000000	99.389549
662.000000	99.394586
661.000000	99.393946
660.000000	99.388772
659.000000	99.382906
658.000000	99.382197
657.000000	99.391287
656.000000	99.409778
655.000000	99.431893
654.000000	99.450445
653.000000	99.462269
652.000000	99.468993
651.000000	99.473437
650.000000	99.477338
