4000.000000	100.342400
3999.000000	100.341989
3998.000000	100.344284
3997.000000	100.347999
3996.000000	100.351691
3995.000000	100.354601
3994.000000	100.356240
3993.000000	100.355690
3992.000000	100.351956
3991.000000	100.345151
3990.000000	100.337134
3989.000000	100.330453
3988.000000	100.326226
3987.000000	100.323397
3986.000000	100.320135
3985.000000	100.316048
3984.000000	100.313007
3983.000000	100.313428
3982.000000	100.318011
3981.000000	100.325068
3980.000000	100.331489
3979.000000	100.334971
3978.000000	100.335170
3977.000000	100.333108
3976.000000	100.330158
3975.000000	100.327376
3974.000000	100.325424
3973.000000	100.324699
3972.000000	100.325201
3971.000000	100.326360
3970.000000	100.327319
3969.000000	100.327533
3968.000000	100.327056
3967.000000	100.326270
3966.000000	100.325519
3965.000000	100.325009
3964.000000	100.324816
3963.000000	100.324769
3962.000000	100.324439
3961.000000	100.323510
3960.000000	100.322207
3959.000000	100.321175
3958.000000	100.320843
3957.000000	100.320994
3956.000000	100.321073
3955.000000	100.320836
3954.000000	100.320524
3953.000000	100.320395
3952.000000	100.320390
3951.000000	100.320319
3950.000000	100.320144
3949.000000	100.319967
3948.000000	100.319833
3947.000000	100.319657
3946.000000	100.319347
3945.000000	100.318943
3944.000000	100.318550
3943.000000	100.318214
3942.000000	100.317896
3941.000000	100.317555
3940.000000	100.317189
3939.000000	100.316800
3938.000000	100.316391
3937.000000	100.315975
3936.000000	100.315562
3935.000000	100.315161
3934.000000	100.314778
3933.000000	100.314409
3932.000000	100.314045
3931.000000	100.313673
3930.000000	100.313283
3929.000000	100.312876
3928.000000	100.312467
3927.000000	100.312079
3926.000000	100.311727
3925.000000	100.311416
3924.000000	100.311132
3923.000000	100.310856
3922.000000	100.310574
3921.000000	100.310284
3920.000000	100.309999
3919.000000	100.309728
3918.000000	100.309480
3917.000000	100.309248
3916.000000	100.309022
3915.000000	100.308795
3914.000000	100.308572
3913.000000	100.308365
3912.000000	100.308197
3911.000000	100.308085
3910.000000	100.308036
3909.000000	100.308042
3908.000000	100.308091
3907.000000	100.308178
3906.000000	100.308304
3905.000000	100.308457
3904.000000	100.308637
3903.000000	100.308874
3902.000000	100.309142
3901.000000	100.309335
3900.000000	100.309396
3899.000000	100.309431
3898.000000	100.309561
3897.000000	100.309751
3896.000000	100.309962
3895.000000	100.310321
3894.000000	100.310958
3893.000000	100.311802
3892.000000	100.312760
3891.000000	100.313874
3890.000000	100.315072
3889.000000	100.315973
3888.000000	100.316382
3887.000000	100.316641
3886.000000	100.317326
3885.000000	100.318676
3884.000000	100.320086
3883.000000	100.320615
3882.000000	100.320236
3881.000000	100.319917
3880.000000	100.320500
3879.000000	100.321695
3878.000000	100.322303
3877.000000	100.321635
3876.000000	100.320321
3875.000000	100.319647
3874.000000	100.320354
3873.000000	100.321957
3872.000000	100.323422
3871.000000	100.324712
3870.000000	100.326873
3869.000000	100.330275
3868.000000	100.333605
3867.000000	100.335485
3866.000000	100.336047
3865.000000	100.335788
3864.000000	100.334381
3863.000000	100.331542
3862.000000	100.328102
3861.000000	100.325663
3860.000000	100.325224
3859.000000	100.326524
3858.000000	100.328742
3857.000000	100.331278
3856.000000	100.334065
3855.000000	100.337068
3854.000000	100.339570
3853.000000	100.340370
3852.000000	100.338804
3851.000000	100.335304
3850.000000	100.331840
3849.000000	100.330385
3848.000000	100.331087
3847.000000	100.332889
3846.000000	100.334675
3845.000000	100.335991
3844.000000	100.336882
3843.000000	100.337296
3842.000000	100.336835
3841.000000	100.335191
3840.000000	100.332722
3839.000000	100.330457
3838.000000	100.329298
3837.000000	100.329214
3836.000000	100.329523
3835.000000	100.329704
3834.000000	100.329760
3833.000000	100.329896
3832.000000	100.330196
3831.000000	100.330561
3830.000000	100.330800
3829.000000	100.330804
3828.000000	100.330634
3827.000000	100.330437
3826.000000	100.330295
3825.000000	100.330153
3824.000000	100.329952
3823.000000	100.329743
3822.000000	100.329636
3821.000000	100.329670
3820.000000	100.329766
3819.000000	100.329820
3818.000000	100.329817
3817.000000	100.329791
3816.000000	100.329765
3815.000000	100.329752
3814.000000	100.329760
3813.000000	100.329789
3812.000000	100.329848
3811.000000	100.329946
3810.000000	100.330080
3809.000000	100.330221
3808.000000	100.330318
3807.000000	100.330361
3806.000000	100.330416
3805.000000	100.330517
3804.000000	100.330643
3803.000000	100.330829
3802.000000	100.331134
3801.000000	100.331548
3800.000000	100.331903
3799.000000	100.331965
3798.000000	100.331647
3797.000000	100.331223
3796.000000	100.331032
3795.000000	100.331161
3794.000000	100.331385
3793.000000	100.331488
3792.000000	100.331509
3791.000000	100.331605
3790.000000	100.331855
3789.000000	100.332249
3788.000000	100.332699
3787.000000	100.332995
3786.000000	100.332863
3785.000000	100.332094
3784.000000	100.330550
3783.000000	100.328098
3782.000000	100.324966
3781.000000	100.322366
3780.000000	100.322070
3779.000000	100.324906
3778.000000	100.329766
3777.000000	100.334620
3776.000000	100.338722
3775.000000	100.342537
3774.000000	100.345697
3773.000000	100.346158
3772.000000	100.342256
3771.000000	100.335285
3770.000000	100.329137
3769.000000	100.326148
3768.000000	100.324729
3767.000000	100.322373
3766.000000	100.319374
3765.000000	100.317967
3764.000000	100.318862
3763.000000	100.320174
3762.000000	100.319918
3761.000000	100.318030
3760.000000	100.315408
3759.000000	100.312463
3758.000000	100.309132
3757.000000	100.305458
3756.000000	100.301815
3755.000000	100.298465
3754.000000	100.295746
3753.000000	100.293821
3752.000000	100.292323
3751.000000	100.291715
3750.000000	100.293654
3749.000000	100.298254
3748.000000	100.303220
3747.000000	100.306698
3746.000000	100.309452
3745.000000	100.313907
3744.000000	100.320962
3743.000000	100.325087
3742.000000	100.317935
3741.000000	100.301900
3740.000000	100.287322
3739.000000	100.277709
3738.000000	100.268860
3737.000000	100.256647
3736.000000	100.242615
3735.000000	100.232453
3734.000000	100.230062
3733.000000	100.235166
3732.000000	100.245040
3731.000000	100.255045
3730.000000	100.259692
3729.000000	100.256942
3728.000000	100.249934
3727.000000	100.243099
3726.000000	100.237693
3725.000000	100.232016
3724.000000	100.225470
3723.000000	100.220505
3722.000000	100.218219
3721.000000	100.215146
3720.000000	100.207016
3719.000000	100.193847
3718.000000	100.179670
3717.000000	100.167694
3716.000000	100.157195
3715.000000	100.145260
3714.000000	100.130649
3713.000000	100.114995
3712.000000	100.101343
3711.000000	100.091162
3710.000000	100.082083
3709.000000	100.070350
3708.000000	100.055523
3707.000000	100.040513
3706.000000	100.028024
3705.000000	100.017992
3704.000000	100.008109
3703.000000	99.996461
3702.000000	99.984173
3701.000000	99.974465
3700.000000	99.968167
3699.000000	99.962538
3698.000000	99.955077
3697.000000	99.946401
3696.000000	99.938722
3695.000000	99.933159
3694.000000	99.929588
3693.000000	99.928059
3692.000000	99.928677
3691.000000	99.930823
3690.000000	99.933583
3689.000000	99.936027
3688.000000	99.935962
3687.000000	99.929897
3686.000000	99.916630
3685.000000	99.899473
3684.000000	99.883702
3683.000000	99.872048
3682.000000	99.863292
3681.000000	99.854722
3680.000000	99.845131
3679.000000	99.835235
3678.000000	99.826277
3677.000000	99.819401
3676.000000	99.814946
3675.000000	99.811298
3674.000000	99.805090
3673.000000	99.794563
3672.000000	99.781824
3671.000000	99.770503
3670.000000	99.762237
3669.000000	99.756106
3668.000000	99.749717
3667.000000	99.741771
3666.000000	99.733193
3665.000000	99.725256
3664.000000	99.718237
3663.000000	99.711772
3662.000000	99.705379
3661.000000	99.698372
3660.000000	99.689746
3659.000000	99.678766
3658.000000	99.666283
3657.000000	99.655277
3656.000000	99.648768
3655.000000	99.646418
3654.000000	99.644420
3653.000000	99.639747
3652.000000	99.631656
3651.000000	99.619487
3650.000000	99.603135
3649.000000	99.586031
3648.000000	99.573021
3647.000000	99.566033
3646.000000	99.564487
3645.000000	99.567077
3644.000000	99.571856
3643.000000	99.575704
3642.000000	99.574901
3641.000000	99.567299
3640.000000	99.554570
3639.000000	99.541540
3638.000000	99.532238
3637.000000	99.525908
3636.000000	99.518321
3635.000000	99.507234
3634.000000	99.494826
3633.000000	99.484030
3632.000000	99.474231
3631.000000	99.462365
3630.000000	99.446058
3629.000000	99.427526
3628.000000	99.413242
3627.000000	99.404840
3626.000000	99.400868
3625.000000	99.403509
3624.000000	99.411210
3623.000000	99.416386
3622.000000	99.414672
3621.000000	99.410522
3620.000000	99.412134
3619.000000	99.421421
3618.000000	99.431341
3617.000000	99.434274
3616.000000	99.430783
3615.000000	99.428273
3614.000000	99.433301
3613.000000	99.446700
3612.000000	99.464503
3611.000000	99.482680
3610.000000	99.500189
3609.000000	99.516842
3608.000000	99.530349
3607.000000	99.537713
3606.000000	99.538387
3605.000000	99.534846
3604.000000	99.530335
3603.000000	99.526883
3602.000000	99.526172
3601.000000	99.529962
3600.000000	99.537398
3599.000000	99.543723
3598.000000	99.544603
3597.000000	99.541341
3596.000000	99.539829
3595.000000	99.544643
3594.000000	99.554643
3593.000000	99.564686
3592.000000	99.570835
3591.000000	99.573274
3590.000000	99.574698
3589.000000	99.577740
3588.000000	99.583642
3587.000000	99.591336
3586.000000	99.596855
3585.000000	99.596164
3584.000000	99.589370
3583.000000	99.580497
3582.000000	99.574301
3581.000000	99.573524
3580.000000	99.577576
3579.000000	99.583267
3578.000000	99.587408
3577.000000	99.588935
3576.000000	99.588366
3575.000000	99.586392
3574.000000	99.583688
3573.000000	99.581484
3572.000000	99.581046
3571.000000	99.582443
3570.000000	99.584252
3569.000000	99.584809
3568.000000	99.584080
3567.000000	99.583842
3566.000000	99.585283
3565.000000	99.587356
3564.000000	99.588563
3563.000000	99.588697
3562.000000	99.588354
3561.000000	99.588197
3560.000000	99.588612
3559.000000	99.589381
3558.000000	99.589829
3557.000000	99.589620
3556.000000	99.589208
3555.000000	99.589293
3554.000000	99.589990
3553.000000	99.590697
3552.000000	99.590762
3551.000000	99.590109
3550.000000	99.589147
3549.000000	99.588412
3548.000000	99.588221
3547.000000	99.588538
3546.000000	99.589133
3545.000000	99.589742
3544.000000	99.590221
3543.000000	99.590547
3542.000000	99.590683
3541.000000	99.590557
3540.000000	99.590174
3539.000000	99.589682
3538.000000	99.589302
3537.000000	99.589159
3536.000000	99.589251
3535.000000	99.589483
3534.000000	99.589685
3533.000000	99.589695
3532.000000	99.589472
3531.000000	99.589115
3530.000000	99.588743
3529.000000	99.588397
3528.000000	99.588038
3527.000000	99.587567
3526.000000	99.586807
3525.000000	99.585690
3524.000000	99.584584
3523.000000	99.584191
3522.000000	99.584859
3521.000000	99.586045
3520.000000	99.586744
3519.000000	99.586499
3518.000000	99.585720
3517.000000	99.585017
3516.000000	99.584438
3515.000000	99.583588
3514.000000	99.582287
3513.000000	99.580823
3512.000000	99.579698
3511.000000	99.579400
3510.000000	99.580199
3509.000000	99.581663
3508.000000	99.582349
3507.000000	99.580703
3506.000000	99.576355
3505.000000	99.570565
3504.000000	99.565455
3503.000000	99.562379
3502.000000	99.561352
3501.000000	99.561648
3500.000000	99.562463
3499.000000	99.563066
3498.000000	99.562834
3497.000000	99.561601
3496.000000	99.559749
3495.000000	99.557672
3494.000000	99.555225
3493.000000	99.551958
3492.000000	99.547835
3491.000000	99.543617
3490.000000	99.540548
3489.000000	99.539574
3488.000000	99.540653
3487.000000	99.542538
3486.000000	99.543591
3485.000000	99.543176
3484.000000	99.541929
3483.000000	99.540696
3482.000000	99.539471
3481.000000	99.537722
3480.000000	99.535505
3479.000000	99.533606
3478.000000	99.532523
3477.000000	99.531847
3476.000000	99.530818
3475.000000	99.529072
3474.000000	99.526667
3473.000000	99.523783
3472.000000	99.520711
3471.000000	99.517875
3470.000000	99.515503
3469.000000	99.513379
3468.000000	99.511165
3467.000000	99.508863
3466.000000	99.506764
3465.000000	99.505045
3464.000000	99.503621
3463.000000	99.502310
3462.000000	99.500936
3461.000000	99.499291
3460.000000	99.497207
3459.000000	99.494793
3458.000000	99.492484
3457.000000	99.490737
3456.000000	99.489646
3455.000000	99.488854
3454.000000	99.487794
3453.000000	99.486161
3452.000000	99.484049
3451.000000	99.481793
3450.000000	99.479759
3449.000000	99.478124
3448.000000	99.476861
3447.000000	99.475793
3446.000000	99.474694
3445.000000	99.473433
3444.000000	99.472039
3443.000000	99.470633
3442.000000	99.469304
3441.000000	99.468056
3440.000000	99.466862
3439.000000	99.465714
3438.000000	99.464597
3437.000000	99.463490
3436.000000	99.462392
3435.000000	99.461312
3434.000000	99.460248
3433.000000	99.459207
3432.000000	99.458191
3431.000000	99.457199
3430.000000	99.456225
3429.000000	99.455266
3428.000000	99.454327
3427.000000	99.453412
3426.000000	99.452524
3425.000000	99.451660
3424.000000	99.450809
3423.000000	99.449964
3422.000000	99.449122
3421.000000	99.448284
3420.000000	99.447452
3419.000000	99.446631
3418.000000	99.445825
3417.000000	99.445033
3416.000000	99.444250
3415.000000	99.443465
3414.000000	99.442675
3413.000000	99.441885
3412.000000	99.441114
3411.000000	99.440376
3410.000000	99.439675
3409.000000	99.439000
3408.000000	99.438335
3407.000000	99.437671
3406.000000	99.437009
3405.000000	99.436352
3404.000000	99.435699
3403.000000	99.435042
3402.000000	99.434376
3401.000000	99.433706
3400.000000	99.433040
3399.000000	99.432387
3398.000000	99.431757
3397.000000	99.431141
3396.000000	99.430525
3395.000000	99.429919
3394.000000	99.429332
3393.000000	99.428705
3392.000000	99.427922
3391.000000	99.426934
3390.000000	99.425903
3389.000000	99.425125
3388.000000	99.424766
3387.000000	99.424734
3386.000000	99.424759
3385.000000	99.424665
3384.000000	99.424500
3383.000000	99.424398
3382.000000	99.424363
3381.000000	99.424237
3380.000000	99.423910
3379.000000	99.423499
3378.000000	99.423226
3377.000000	99.423115
3376.000000	99.422941
3375.000000	99.422513
3374.000000	99.421956
3373.000000	99.421639
3372.000000	99.421857
3371.000000	99.422650
3370.000000	99.423802
3369.000000	99.424870
3368.000000	99.425382
3367.000000	99.425138
3366.000000	99.424362
3365.000000	99.423562
3364.000000	99.423092
3363.000000	99.422929
3362.000000	99.422858
3361.000000	99.422780
3360.000000	99.422856
3359.000000	99.423309
3358.000000	99.424107
3357.000000	99.424892
3356.000000	99.425283
3355.000000	99.425234
3354.000000	99.425015
3353.000000	99.424879
3352.000000	99.424899
3351.000000	99.425170
3350.000000	99.425908
3349.000000	99.427139
3348.000000	99.428452
3347.000000	99.429354
3346.000000	99.429788
3345.000000	99.430136
3344.000000	99.430725
3343.000000	99.431482
3342.000000	99.432085
3341.000000	99.432274
3340.000000	99.431925
3339.000000	99.431109
3338.000000	99.430232
3337.000000	99.429910
3336.000000	99.430456
3335.000000	99.431571
3334.000000	99.432622
3333.000000	99.433243
3332.000000	99.433514
3331.000000	99.433648
3330.000000	99.433733
3329.000000	99.433805
3328.000000	99.434017
3327.000000	99.434603
3326.000000	99.435707
3325.000000	99.437256
3324.000000	99.438929
3323.000000	99.440277
3322.000000	99.440967
3321.000000	99.440964
3320.000000	99.440536
3319.000000	99.440085
3318.000000	99.439901
3317.000000	99.440037
3316.000000	99.440328
3315.000000	99.440532
3314.000000	99.440558
3313.000000	99.440556
3312.000000	99.440745
3311.000000	99.441181
3310.000000	99.441732
3309.000000	99.442221
3308.000000	99.442547
3307.000000	99.442706
3306.000000	99.442755
3305.000000	99.442821
3304.000000	99.443045
3303.000000	99.443469
3302.000000	99.444014
3301.000000	99.444543
3300.000000	99.444974
3299.000000	99.445319
3298.000000	99.445627
3297.000000	99.445942
3296.000000	99.446288
3295.000000	99.446673
3294.000000	99.447105
3293.000000	99.447578
3292.000000	99.448068
3291.000000	99.448525
3290.000000	99.448909
3289.000000	99.449223
3288.000000	99.449517
3287.000000	99.449843
3286.000000	99.450207
3285.000000	99.450587
3284.000000	99.450966
3283.000000	99.451349
3282.000000	99.451752
3281.000000	99.452180
3280.000000	99.452635
3279.000000	99.453136
3278.000000	99.453718
3277.000000	99.454388
3276.000000	99.455122
3275.000000	99.455868
3274.000000	99.456600
3273.000000	99.457322
3272.000000	99.458051
3271.000000	99.458801
3270.000000	99.459571
3269.000000	99.460350
3268.000000	99.461136
3267.000000	99.461930
3266.000000	99.462730
3265.000000	99.463524
3264.000000	99.464319
3263.000000	99.465156
3262.000000	99.466069
3261.000000	99.467036
3260.000000	99.467966
3259.000000	99.468786
3258.000000	99.469505
3257.000000	99.470215
3256.000000	99.471015
3255.000000	99.471940
3254.000000	99.472978
3253.000000	99.474103
3252.000000	99.475284
3251.000000	99.476478
3250.000000	99.477640
3249.000000	99.478733
3248.000000	99.479764
3247.000000	99.480832
3246.000000	99.482097
3245.000000	99.483646
3244.000000	99.485386
3243.000000	99.487063
3242.000000	99.488473
3241.000000	99.489606
3240.000000	99.490616
3239.000000	99.491648
3238.000000	99.492738
3237.000000	99.493867
3236.000000	99.495034
3235.000000	99.496334
3234.000000	99.497918
3233.000000	99.499724
3232.000000	99.501298
3231.000000	99.502129
3230.000000	99.502405
3229.000000	99.503139
3228.000000	99.505133
3227.000000	99.508088
3226.000000	99.510967
3225.000000	99.513278
3224.000000	99.515473
3223.000000	99.517943
3222.000000	99.520191
3221.000000	99.521441
3220.000000	99.521764
3219.000000	99.522154
3218.000000	99.523389
3217.000000	99.525343
3216.000000	99.527559
3215.000000	99.529874
3214.000000	99.532196
3213.000000	99.534128
3212.000000	99.535416
3211.000000	99.536582
3210.000000	99.538531
3209.000000	99.541489
3208.000000	99.544767
3207.000000	99.547682
3206.000000	99.550292
3205.000000	99.553023
3204.000000	99.555997
3203.000000	99.559072
3202.000000	99.562177
3201.000000	99.565093
3200.000000	99.567102
3199.000000	99.567496
3198.000000	99.566485
3197.000000	99.565296
3196.000000	99.565201
3195.000000	99.566609
3194.000000	99.569108
3193.000000	99.571931
3192.000000	99.574378
3191.000000	99.576171
3190.000000	99.577629
3189.000000	99.579354
3188.000000	99.581545
3187.000000	99.583694
3186.000000	99.585135
3185.000000	99.585861
3184.000000	99.586663
3183.000000	99.588404
3182.000000	99.591162
3181.000000	99.594047
3180.000000	99.595936
3179.000000	99.596579
3178.000000	99.597127
3177.000000	99.599353
3176.000000	99.604217
3175.000000	99.611055
3174.000000	99.617815
3173.000000	99.622407
3172.000000	99.624089
3171.000000	99.623874
3170.000000	99.623668
3169.000000	99.624541
3168.000000	99.625994
3167.000000	99.627051
3166.000000	99.627586
3165.000000	99.628105
3164.000000	99.628657
3163.000000	99.628825
3162.000000	99.628812
3161.000000	99.629672
3160.000000	99.632169
3159.000000	99.636003
3158.000000	99.640500
3157.000000	99.645463
3156.000000	99.650751
3155.000000	99.655638
3154.000000	99.659301
3153.000000	99.661674
3152.000000	99.663500
3151.000000	99.665676
3150.000000	99.668787
3149.000000	99.672929
3148.000000	99.677462
3147.000000	99.681124
3146.000000	99.682907
3145.000000	99.682850
3144.000000	99.681809
3143.000000	99.680677
3142.000000	99.680023
3141.000000	99.680275
3140.000000	99.681779
3139.000000	99.684517
3138.000000	99.687889
3137.000000	99.690945
3136.000000	99.692980
3135.000000	99.694002
3134.000000	99.694677
3133.000000	99.695733
3132.000000	99.697351
3131.000000	99.699242
3130.000000	99.701166
3129.000000	99.703155
3128.000000	99.705250
3127.000000	99.707322
3126.000000	99.709200
3125.000000	99.710859
3124.000000	99.712403
3123.000000	99.713953
3122.000000	99.715588
3121.000000	99.717309
3120.000000	99.719052
3119.000000	99.720768
3118.000000	99.722452
3117.000000	99.724100
3116.000000	99.725712
3115.000000	99.727301
3114.000000	99.728890
3113.000000	99.730489
3112.000000	99.732102
3111.000000	99.733723
3110.000000	99.735347
3109.000000	99.736974
3108.000000	99.738610
3107.000000	99.740254
3106.000000	99.741907
3105.000000	99.743568
3104.000000	99.745236
3103.000000	99.746907
3102.000000	99.748573
3101.000000	99.750225
3100.000000	99.751861
3099.000000	99.753491
3098.000000	99.755127
3097.000000	99.756780
3096.000000	99.758457
3095.000000	99.760154
3094.000000	99.761857
3093.000000	99.763550
3092.000000	99.765225
3091.000000	99.766886
3090.000000	99.768543
3089.000000	99.770206
3088.000000	99.771874
3087.000000	99.773540
3086.000000	99.775197
3085.000000	99.776838
3084.000000	99.778464
3083.000000	99.780077
3082.000000	99.781682
3081.000000	99.783274
3080.000000	99.784846
3079.000000	99.786391
3078.000000	99.787905
3077.000000	99.789362
3076.000000	99.790732
3075.000000	99.792045
3074.000000	99.793401
3073.000000	99.794864
3072.000000	99.796379
3071.000000	99.797875
3070.000000	99.799431
3069.000000	99.801230
3068.000000	99.803254
3067.000000	99.805081
3066.000000	99.806204
3065.000000	99.806534
3064.000000	99.806583
3063.000000	99.807013
3062.000000	99.808110
3061.000000	99.809859
3060.000000	99.812301
3059.000000	99.815504
3058.000000	99.819129
3057.000000	99.822332
3056.000000	99.824299
3055.000000	99.824684
3054.000000	99.823673
3053.000000	99.821990
3052.000000	99.820739
3051.000000	99.820804
3050.000000	99.822315
3049.000000	99.824743
3048.000000	99.827575
3047.000000	99.830603
3046.000000	99.833551
3045.000000	99.835985
3044.000000	99.837741
3043.000000	99.838966
3042.000000	99.839538
3041.000000	99.838856
3040.000000	99.836529
3039.000000	99.833050
3038.000000	99.829599
3037.000000	99.827369
3036.000000	99.827126
3035.000000	99.828943
3034.000000	99.832005
3033.000000	99.835082
3032.000000	99.837677
3031.000000	99.840406
3030.000000	99.843899
3029.000000	99.847834
3028.000000	99.851527
3027.000000	99.855012
3026.000000	99.858658
3025.000000	99.861905
3024.000000	99.863416
3023.000000	99.862969
3022.000000	99.862367
3021.000000	99.863539
3020.000000	99.865998
3019.000000	99.867132
3018.000000	99.865275
3017.000000	99.861854
3016.000000	99.859997
3015.000000	99.861048
3014.000000	99.863145
3013.000000	99.863434
3012.000000	99.861207
3011.000000	99.858320
3010.000000	99.856744
3009.000000	99.856350
3008.000000	99.855502
3007.000000	99.853375
3006.000000	99.851212
3005.000000	99.851082
3004.000000	99.853648
3003.000000	99.857435
3002.000000	99.860423
3001.000000	99.862148
3000.000000	99.863696
2999.000000	99.865827
2998.000000	99.867767
2997.000000	99.868204
2996.000000	99.866894
2995.000000	99.864664
2994.000000	99.862214
2993.000000	99.859681
2992.000000	99.857298
2991.000000	99.855564
2990.000000	99.854445
2989.000000	99.853078
2988.000000	99.850644
2987.000000	99.847111
2986.000000	99.842856
2985.000000	99.838061
2984.000000	99.833015
2983.000000	99.828679
2982.000000	99.826211
2981.000000	99.825826
2980.000000	99.826648
2979.000000	99.827788
2978.000000	99.829013
2977.000000	99.830100
2976.000000	99.830028
2975.000000	99.827598
2974.000000	99.823206
2973.000000	99.819469
2972.000000	99.819227
2971.000000	99.822663
2970.000000	99.826805
2969.000000	99.828356
2968.000000	99.826960
2967.000000	99.825132
2966.000000	99.825009
2965.000000	99.825918
2964.000000	99.825467
2963.000000	99.822630
2962.000000	99.819370
2961.000000	99.819244
2960.000000	99.824284
2959.000000	99.832752
2958.000000	99.840054
2957.000000	99.842812
2956.000000	99.841989
2955.000000	99.841245
2954.000000	99.842172
2953.000000	99.842776
2952.000000	99.841377
2951.000000	99.840108
2950.000000	99.842465
2949.000000	99.847930
2948.000000	99.851235
2947.000000	99.847339
2946.000000	99.835889
2945.000000	99.821023
2944.000000	99.808348
2943.000000	99.802061
2942.000000	99.802936
2941.000000	99.807351
2940.000000	99.809185
2939.000000	99.804692
2938.000000	99.795585
2937.000000	99.786479
2936.000000	99.779477
2935.000000	99.772602
2934.000000	99.763626
2933.000000	99.753665
2932.000000	99.745754
2931.000000	99.740833
2930.000000	99.736863
2929.000000	99.732007
2928.000000	99.727148
2927.000000	99.724385
2926.000000	99.724323
2925.000000	99.726395
2924.000000	99.731274
2923.000000	99.740734
2922.000000	99.754482
2921.000000	99.768996
2920.000000	99.780855
2919.000000	99.789994
2918.000000	99.798145
2917.000000	99.805338
2916.000000	99.810302
2915.000000	99.813857
2914.000000	99.819058
2913.000000	99.827104
2912.000000	99.835426
2911.000000	99.841581
2910.000000	99.847307
2909.000000	99.856215
2908.000000	99.868000
2907.000000	99.877590
2906.000000	99.880714
2905.000000	99.878339
2904.000000	99.874603
2903.000000	99.871896
2902.000000	99.869717
2901.000000	99.867826
2900.000000	99.868469
2899.000000	99.874504
2898.000000	99.886248
2897.000000	99.900613
2896.000000	99.912888
2895.000000	99.919603
2894.000000	99.920472
2893.000000	99.918425
2892.000000	99.917512
2891.000000	99.919864
2890.000000	99.924510
2889.000000	99.929100
2888.000000	99.932243
2887.000000	99.933914
2886.000000	99.934440
2885.000000	99.934225
2884.000000	99.934431
2883.000000	99.936764
2882.000000	99.942005
2881.000000	99.949128
2880.000000	99.956179
2879.000000	99.961619
2878.000000	99.964673
2877.000000	99.965225
2876.000000	99.964177
2875.000000	99.963503
2874.000000	99.965106
2873.000000	99.969338
2872.000000	99.974751
2871.000000	99.978973
2870.000000	99.979756
2869.000000	99.976059
2868.000000	99.969125
2867.000000	99.962214
2866.000000	99.958123
2865.000000	99.956744
2864.000000	99.955669
2863.000000	99.953165
2862.000000	99.949815
2861.000000	99.947202
2860.000000	99.945880
2859.000000	99.944989
2858.000000	99.943116
2857.000000	99.939217
2856.000000	99.933446
2855.000000	99.927760
2854.000000	99.925457
2853.000000	99.929477
2852.000000	99.940696
2851.000000	99.957147
2850.000000	99.974406
2849.000000	99.987455
2848.000000	99.993660
2847.000000	99.994766
2846.000000	99.995671
2845.000000	100.000701
2844.000000	100.010840
2843.000000	100.024025
2842.000000	100.037072
2841.000000	100.047350
2840.000000	100.053813
2839.000000	100.057452
2838.000000	100.060392
2837.000000	100.063862
2836.000000	100.067217
2835.000000	100.069270
2834.000000	100.070046
2833.000000	100.070671
2832.000000	100.072015
2831.000000	100.074217
2830.000000	100.077193
2829.000000	100.080716
2828.000000	100.083920
2827.000000	100.085548
2826.000000	100.085087
2825.000000	100.083415
2824.000000	100.082223
2823.000000	100.082939
2822.000000	100.085972
2821.000000	100.090405
2820.000000	100.094463
2819.000000	100.096954
2818.000000	100.098605
2817.000000	100.101485
2816.000000	100.106692
2815.000000	100.112891
2814.000000	100.117634
2813.000000	100.119939
2812.000000	100.120920
2811.000000	100.121976
2810.000000	100.123056
2809.000000	100.123194
2808.000000	100.122288
2807.000000	100.121604
2806.000000	100.122511
2805.000000	100.125203
2804.000000	100.128899
2803.000000	100.132737
2802.000000	100.135943
2801.000000	100.137721
2800.000000	100.137896
2799.000000	100.137559
2798.000000	100.138302
2797.000000	100.140718
2796.000000	100.144103
2795.000000	100.147523
2794.000000	100.150643
2793.000000	100.153411
2792.000000	100.155596
2791.000000	100.157042
2790.000000	100.158059
2789.000000	100.159068
2788.000000	100.159986
2787.000000	100.160374
2786.000000	100.160189
2785.000000	100.160044
2784.000000	100.160615
2783.000000	100.162133
2782.000000	100.164493
2781.000000	100.167508
2780.000000	100.170841
2779.000000	100.173925
2778.000000	100.176281
2777.000000	100.177990
2776.000000	100.179651
2775.000000	100.181699
2774.000000	100.183845
2773.000000	100.185372
2772.000000	100.186017
2771.000000	100.186320
2770.000000	100.187082
2769.000000	100.188492
2768.000000	100.190017
2767.000000	100.191061
2766.000000	100.191551
2765.000000	100.191867
2764.000000	100.192412
2763.000000	100.193343
2762.000000	100.194680
2761.000000	100.196416
2760.000000	100.198403
2759.000000	100.200251
2758.000000	100.201533
2757.000000	100.202131
2756.000000	100.202325
2755.000000	100.202567
2754.000000	100.203130
2753.000000	100.203973
2752.000000	100.204921
2751.000000	100.205909
2750.000000	100.207024
2749.000000	100.208308
2748.000000	100.209574
2747.000000	100.210493
2746.000000	100.210920
2745.000000	100.211063
2744.000000	100.211363
2743.000000	100.212119
2742.000000	100.213265
2741.000000	100.214441
2740.000000	100.215261
2739.000000	100.215571
2738.000000	100.215475
2737.000000	100.215228
2736.000000	100.215154
2735.000000	100.215569
2734.000000	100.216637
2733.000000	100.218161
2732.000000	100.219567
2731.000000	100.220297
2730.000000	100.220162
2729.000000	100.219299
2728.000000	100.217988
2727.000000	100.216663
2726.000000	100.215949
2725.000000	100.216325
2724.000000	100.217660
2723.000000	100.219240
2722.000000	100.220465
2721.000000	100.221338
2720.000000	100.222110
2719.000000	100.222772
2718.000000	100.223128
2717.000000	100.223233
2716.000000	100.223463
2715.000000	100.224106
2714.000000	100.225052
2713.000000	100.225972
2712.000000	100.226688
2711.000000	100.227324
2710.000000	100.228172
2709.000000	100.229453
2708.000000	100.231117
2707.000000	100.232731
2706.000000	100.233657
2705.000000	100.233537
2704.000000	100.232601
2703.000000	100.231583
2702.000000	100.231140
2701.000000	100.231339
2700.000000	100.231857
2699.000000	100.232543
2698.000000	100.233589
2697.000000	100.235086
2696.000000	100.236646
2695.000000	100.237637
2694.000000	100.237815
2693.000000	100.237495
2692.000000	100.237250
2691.000000	100.237437
2690.000000	100.238042
2689.000000	100.238870
2688.000000	100.239716
2687.000000	100.240455
2686.000000	100.241065
2685.000000	100.241573
2684.000000	100.241949
2683.000000	100.242106
2682.000000	100.242053
2681.000000	100.241963
2680.000000	100.242030
2679.000000	100.242288
2678.000000	100.242604
2677.000000	100.242850
2676.000000	100.243020
2675.000000	100.243179
2674.000000	100.243355
2673.000000	100.243536
2672.000000	100.243736
2671.000000	100.243977
2670.000000	100.244229
2669.000000	100.244401
2668.000000	100.244443
2667.000000	100.244433
2666.000000	100.244529
2665.000000	100.244835
2664.000000	100.245338
2663.000000	100.245971
2662.000000	100.246648
2661.000000	100.247251
2660.000000	100.247663
2659.000000	100.247841
2658.000000	100.247882
2657.000000	100.248001
2656.000000	100.248351
2655.000000	100.248923
2654.000000	100.249573
2653.000000	100.250188
2652.000000	100.250779
2651.000000	100.251379
2650.000000	100.251913
2649.000000	100.252233
2648.000000	100.252284
2647.000000	100.252174
2646.000000	100.252117
2645.000000	100.252295
2644.000000	100.252764
2643.000000	100.253462
2642.000000	100.254252
2641.000000	100.254997
2640.000000	100.255594
2639.000000	100.255998
2638.000000	100.256259
2637.000000	100.256511
2636.000000	100.256871
2635.000000	100.257364
2634.000000	100.257967
2633.000000	100.258676
2632.000000	100.259471
2631.000000	100.260227
2630.000000	100.260749
2629.000000	100.260945
2628.000000	100.260937
2627.000000	100.260988
2626.000000	100.261284
2625.000000	100.261807
2624.000000	100.262355
2623.000000	100.262685
2622.000000	100.262684
2621.000000	100.262437
2620.000000	100.262165
2619.000000	100.262057
2618.000000	100.262148
2617.000000	100.262353
2616.000000	100.262575
2615.000000	100.262762
2614.000000	100.262884
2613.000000	100.262950
2612.000000	100.263057
2611.000000	100.263395
2610.000000	100.264124
2609.000000	100.265213
2608.000000	100.266389
2607.000000	100.267247
2606.000000	100.267496
2605.000000	100.267144
2604.000000	100.266495
2603.000000	100.265865
2602.000000	100.265360
2601.000000	100.264912
2600.000000	100.264495
2599.000000	100.264247
2598.000000	100.264360
2597.000000	100.264851
2596.000000	100.265496
2595.000000	100.266005
2594.000000	100.266236
2593.000000	100.266227
2592.000000	100.266105
2591.000000	100.265972
2590.000000	100.265831
2589.000000	100.265591
2588.000000	100.265182
2587.000000	100.264715
2586.000000	100.264486
2585.000000	100.264718
2584.000000	100.265344
2583.000000	100.266041
2582.000000	100.266475
2581.000000	100.266518
2580.000000	100.266199
2579.000000	100.265657
2578.000000	100.265138
2577.000000	100.264955
2576.000000	100.265328
2575.000000	100.266209
2574.000000	100.267249
2573.000000	100.267984
2572.000000	100.268152
2571.000000	100.267810
2570.000000	100.267204
2569.000000	100.266523
2568.000000	100.265846
2567.000000	100.265279
2566.000000	100.265013
2565.000000	100.265167
2564.000000	100.265631
2563.000000	100.266149
2562.000000	100.266583
2561.000000	100.267012
2560.000000	100.267549
2559.000000	100.268143
2558.000000	100.268602
2557.000000	100.268799
2556.000000	100.268781
2555.000000	100.268690
2554.000000	100.268613
2553.000000	100.268533
2552.000000	100.268407
2551.000000	100.268286
2550.000000	100.268331
2549.000000	100.268691
2548.000000	100.269369
2547.000000	100.270169
2546.000000	100.270777
2545.000000	100.270952
2544.000000	100.270661
2543.000000	100.270110
2542.000000	100.269616
2541.000000	100.269344
2540.000000	100.269233
2539.000000	100.269289
2538.000000	100.269806
2537.000000	100.271053
2536.000000	100.272848
2535.000000	100.274510
2534.000000	100.275398
2533.000000	100.275399
2532.000000	100.274890
2531.000000	100.274443
2530.000000	100.274424
2529.000000	100.274916
2528.000000	100.275805
2527.000000	100.276820
2526.000000	100.277658
2525.000000	100.278167
2524.000000	100.278410
2523.000000	100.278572
2522.000000	100.278808
2521.000000	100.279135
2520.000000	100.279435
2519.000000	100.279556
2518.000000	100.279492
2517.000000	100.279440
2516.000000	100.279619
2515.000000	100.280060
2514.000000	100.280651
2513.000000	100.281317
2512.000000	100.282029
2511.000000	100.282690
2510.000000	100.283188
2509.000000	100.283631
2508.000000	100.284371
2507.000000	100.285701
2506.000000	100.287586
2505.000000	100.289664
2504.000000	100.291521
2503.000000	100.292911
2502.000000	100.293788
2501.000000	100.294152
2500.000000	100.293929
2499.000000	100.293185
2498.000000	100.292373
2497.000000	100.292096
2496.000000	100.292593
2495.000000	100.293559
2494.000000	100.294568
2493.000000	100.295471
2492.000000	100.296333
2491.000000	100.297172
2490.000000	100.298040
2489.000000	100.299121
2488.000000	100.300456
2487.000000	100.301670
2486.000000	100.302317
2485.000000	100.302429
2484.000000	100.302476
2483.000000	100.302859
2482.000000	100.303554
2481.000000	100.304271
2480.000000	100.304821
2479.000000	100.305297
2478.000000	100.305983
2477.000000	100.307082
2476.000000	100.308531
2475.000000	100.310070
2474.000000	100.311444
2473.000000	100.312524
2472.000000	100.313294
2471.000000	100.313825
2470.000000	100.314261
2469.000000	100.314780
2468.000000	100.315476
2467.000000	100.316314
2466.000000	100.317199
2465.000000	100.318067
2464.000000	100.318922
2463.000000	100.319777
2462.000000	100.320618
2461.000000	100.321417
2460.000000	100.322172
2459.000000	100.322899
2458.000000	100.323614
2457.000000	100.324316
2456.000000	100.324993
2455.000000	100.325629
2454.000000	100.326220
2453.000000	100.326776
2452.000000	100.327315
2451.000000	100.327850
2450.000000	100.328385
2449.000000	100.328912
2448.000000	100.329426
2447.000000	100.329930
2446.000000	100.330429
2445.000000	100.330924
2444.000000	100.331415
2443.000000	100.331904
2442.000000	100.332401
2441.000000	100.332914
2440.000000	100.333441
2439.000000	100.333971
2438.000000	100.334489
2437.000000	100.334984
2436.000000	100.335436
2435.000000	100.335833
2434.000000	100.336186
2433.000000	100.336526
2432.000000	100.336890
2431.000000	100.337272
2430.000000	100.337605
2429.000000	100.337869
2428.000000	100.338195
2427.000000	100.338733
2426.000000	100.339452
2425.000000	100.340179
2424.000000	100.340802
2423.000000	100.341276
2422.000000	100.341524
2421.000000	100.341529
2420.000000	100.341404
2419.000000	100.341119
2418.000000	100.340321
2417.000000	100.338894
2416.000000	100.337612
2415.000000	100.337553
2414.000000	100.339052
2413.000000	100.341330
2412.000000	100.343314
2411.000000	100.344606
2410.000000	100.345328
2409.000000	100.345452
2408.000000	100.344807
2407.000000	100.343563
2406.000000	100.342413
2405.000000	100.342180
2404.000000	100.343102
2403.000000	100.344632
2402.000000	100.346142
2401.000000	100.347496
2400.000000	100.348787
2399.000000	100.349623
2398.000000	100.349304
2397.000000	100.347803
2396.000000	100.345971
2395.000000	100.344531
2394.000000	100.343349
2393.000000	100.342021
2392.000000	100.340805
2391.000000	100.340398
2390.000000	100.340857
2389.000000	100.341269
2388.000000	100.340669
2387.000000	100.338961
2386.000000	100.336814
2385.000000	100.334927
2384.000000	100.333576
2383.000000	100.332718
2382.000000	100.332229
2381.000000	100.331939
2380.000000	100.331651
2379.000000	100.331301
2378.000000	100.331068
2377.000000	100.331045
2376.000000	100.330696
2375.000000	100.328916
2374.000000	100.325054
2373.000000	100.319900
2372.000000	100.315484
2371.000000	100.313635
2370.000000	100.314976
2369.000000	100.319011
2368.000000	100.324204
2367.000000	100.328303
2366.000000	100.329884
2365.000000	100.329659
2364.000000	100.329195
2363.000000	100.327919
2362.000000	100.323485
2361.000000	100.315677
2360.000000	100.308027
2359.000000	100.304245
2358.000000	100.304442
2357.000000	100.306008
2356.000000	100.306948
2355.000000	100.307190
2354.000000	100.307416
2353.000000	100.308227
2352.000000	100.309764
2351.000000	100.311435
2350.000000	100.312146
2349.000000	100.311504
2348.000000	100.310263
2347.000000	100.309706
2346.000000	100.310757
2345.000000	100.312814
2344.000000	100.314277
2343.000000	100.314332
2342.000000	100.313751
2341.000000	100.313496
2340.000000	100.313123
2339.000000	100.311746
2338.000000	100.309334
2337.000000	100.306886
2336.000000	100.305141
2335.000000	100.303968
2334.000000	100.303205
2333.000000	100.303550
2332.000000	100.305681
2331.000000	100.308937
2330.000000	100.311371
2329.000000	100.311767
2328.000000	100.310458
2327.000000	100.308435
2326.000000	100.306559
2325.000000	100.305170
2324.000000	100.304446
2323.000000	100.304222
2322.000000	100.304236
2321.000000	100.304552
2320.000000	100.305371
2319.000000	100.306562
2318.000000	100.307524
2317.000000	100.308036
2316.000000	100.308427
2315.000000	100.309003
2314.000000	100.309538
2313.000000	100.309619
2312.000000	100.309218
2311.000000	100.308785
2310.000000	100.308847
2309.000000	100.309624
2308.000000	100.310939
2307.000000	100.312156
2306.000000	100.312497
2305.000000	100.311588
2304.000000	100.309757
2303.000000	100.307846
2302.000000	100.306610
2301.000000	100.306320
2300.000000	100.306836
2299.000000	100.307672
2298.000000	100.308180
2297.000000	100.307955
2296.000000	100.307267
2295.000000	100.306938
2294.000000	100.307624
2293.000000	100.309193
2292.000000	100.310911
2291.000000	100.312084
2290.000000	100.312462
2289.000000	100.312110
2288.000000	100.311262
2287.000000	100.310292
2286.000000	100.309733
2285.000000	100.309969
2284.000000	100.310749
2283.000000	100.311241
2282.000000	100.310710
2281.000000	100.309142
2280.000000	100.307050
2279.000000	100.304806
2278.000000	100.302442
2277.000000	100.300137
2276.000000	100.298451
2275.000000	100.297832
2274.000000	100.298121
2273.000000	100.298858
2272.000000	100.299901
2271.000000	100.301232
2270.000000	100.302301
2269.000000	100.302223
2268.000000	100.300847
2267.000000	100.299176
2266.000000	100.298398
2265.000000	100.298616
2264.000000	100.298863
2263.000000	100.298150
2262.000000	100.296267
2261.000000	100.293600
2260.000000	100.290529
2259.000000	100.287243
2258.000000	100.283958
2257.000000	100.281098
2256.000000	100.279188
2255.000000	100.278625
2254.000000	100.279424
2253.000000	100.281111
2252.000000	100.282754
2251.000000	100.283299
2250.000000	100.282370
2249.000000	100.280754
2248.000000	100.279777
2247.000000	100.280078
2246.000000	100.281228
2245.000000	100.282399
2244.000000	100.282994
2243.000000	100.282626
2242.000000	100.281094
2241.000000	100.278711
2240.000000	100.276259
2239.000000	100.274282
2238.000000	100.272634
2237.000000	100.270857
2236.000000	100.268638
2235.000000	100.265839
2234.000000	100.262749
2233.000000	100.260579
2232.000000	100.260874
2231.000000	100.263819
2230.000000	100.267541
2229.000000	100.269615
2228.000000	100.269187
2227.000000	100.267218
2226.000000	100.265387
2225.000000	100.265308
2224.000000	100.268046
2223.000000	100.273261
2222.000000	100.278745
2221.000000	100.281989
2220.000000	100.282496
2219.000000	100.281944
2218.000000	100.282143
2217.000000	100.283315
2216.000000	100.284542
2215.000000	100.285170
2214.000000	100.285252
2213.000000	100.284993
2212.000000	100.284313
2211.000000	100.283051
2210.000000	100.281464
2209.000000	100.280423
2208.000000	100.280899
2207.000000	100.283127
2206.000000	100.286432
2205.000000	100.290000
2204.000000	100.293486
2203.000000	100.296630
2202.000000	100.298785
2201.000000	100.299409
2200.000000	100.298732
2199.000000	100.297436
2198.000000	100.295887
2197.000000	100.294231
2196.000000	100.293015
2195.000000	100.292900
2194.000000	100.293744
2193.000000	100.294649
2192.000000	100.295024
2191.000000	100.295026
2190.000000	100.294901
2189.000000	100.294477
2188.000000	100.293565
2187.000000	100.292340
2186.000000	100.291042
2185.000000	100.289681
2184.000000	100.288287
2183.000000	100.287177
2182.000000	100.286751
2181.000000	100.287214
2180.000000	100.288634
2179.000000	100.290952
2178.000000	100.293735
2177.000000	100.296162
2176.000000	100.297526
2175.000000	100.297654
2174.000000	100.296795
2173.000000	100.295272
2172.000000	100.293389
2171.000000	100.291538
2170.000000	100.290223
2169.000000	100.289891
2168.000000	100.290643
2167.000000	100.291989
2166.000000	100.292984
2165.000000	100.292812
2164.000000	100.291281
2163.000000	100.288838
2162.000000	100.286336
2161.000000	100.284755
2160.000000	100.284777
2159.000000	100.286287
2158.000000	100.288321
2157.000000	100.289790
2156.000000	100.290387
2155.000000	100.290580
2154.000000	100.290856
2153.000000	100.291255
2152.000000	100.291584
2151.000000	100.291852
2150.000000	100.292387
2149.000000	100.293602
2148.000000	100.295633
2147.000000	100.298030
2146.000000	100.299931
2145.000000	100.300759
2144.000000	100.300731
2143.000000	100.300572
2142.000000	100.300709
2141.000000	100.300917
2140.000000	100.300807
2139.000000	100.300421
2138.000000	100.300255
2137.000000	100.300788
2136.000000	100.302044
2135.000000	100.303540
2134.000000	100.304615
2133.000000	100.304956
2132.000000	100.304761
2131.000000	100.304495
2130.000000	100.304504
2129.000000	100.304867
2128.000000	100.305556
2127.000000	100.306548
2126.000000	100.307730
2125.000000	100.308813
2124.000000	100.309497
2123.000000	100.309718
2122.000000	100.309692
2121.000000	100.309742
2120.000000	100.310074
2119.000000	100.310744
2118.000000	100.311738
2117.000000	100.312976
2116.000000	100.314298
2115.000000	100.315531
2114.000000	100.316612
2113.000000	100.317583
2112.000000	100.318417
2111.000000	100.318962
2110.000000	100.319232
2109.000000	100.319702
2108.000000	100.320964
2107.000000	100.322944
2106.000000	100.324656
2105.000000	100.325170
2104.000000	100.324649
2103.000000	100.324067
2102.000000	100.323888
2101.000000	100.323630
2100.000000	100.323022
2099.000000	100.322894
2098.000000	100.324218
2097.000000	100.326645
2096.000000	100.328661
2095.000000	100.329407
2094.000000	100.329747
2093.000000	100.331229
2092.000000	100.334332
2091.000000	100.338066
2090.000000	100.341122
2089.000000	100.343097
2088.000000	100.344429
2087.000000	100.345372
2086.000000	100.345539
2085.000000	100.344624
2084.000000	100.343203
2083.000000	100.342319
2082.000000	100.342322
2081.000000	100.342632
2080.000000	100.342827
2079.000000	100.343464
2078.000000	100.345352
2077.000000	100.348196
2076.000000	100.350419
2075.000000	100.350505
2074.000000	100.348431
2073.000000	100.345746
2072.000000	100.344166
2071.000000	100.343890
2070.000000	100.343390
2069.000000	100.341098
2068.000000	100.337233
2067.000000	100.333603
2066.000000	100.331616
2065.000000	100.331070
2064.000000	100.331102
2063.000000	100.331606
2062.000000	100.332925
2061.000000	100.334734
2060.000000	100.336401
2059.000000	100.338305
2058.000000	100.341580
2057.000000	100.346047
2056.000000	100.349326
2055.000000	100.349069
2054.000000	100.345623
2053.000000	100.341752
2052.000000	100.339674
2051.000000	100.338865
2050.000000	100.337224
2049.000000	100.333735
2048.000000	100.329449
2047.000000	100.326188
2046.000000	100.324757
2045.000000	100.324382
2044.000000	100.323530
2043.000000	100.321171
2042.000000	100.317518
2041.000000	100.313782
2040.000000	100.311140
2039.000000	100.309821
2038.000000	100.309050
2037.000000	100.307670
2036.000000	100.304888
2035.000000	100.300816
2034.000000	100.296586
2033.000000	100.293746
2032.000000	100.293074
2031.000000	100.293872
2030.000000	100.294513
2029.000000	100.293899
2028.000000	100.292381
2027.000000	100.291221
2026.000000	100.291257
2025.000000	100.292055
2024.000000	100.292267
2023.000000	100.290861
2022.000000	100.288022
2021.000000	100.284922
2020.000000	100.282705
2019.000000	100.281699
2018.000000	100.281597
2017.000000	100.281939
2016.000000	100.282240
2015.000000	100.281922
2014.000000	100.280579
2013.000000	100.278339
2012.000000	100.275771
2011.000000	100.273339
2010.000000	100.271072
2009.000000	100.268917
2008.000000	100.267154
2007.000000	100.266245
2006.000000	100.266302
2005.000000	100.266847
2004.000000	100.267128
2003.000000	100.266706
2002.000000	100.265704
2001.000000	100.264489
2000.000000	100.263156
1999.000000	100.261452
1998.000000	100.259260
1997.000000	100.256934
1996.000000	100.254963
1995.000000	100.253510
1994.000000	100.252580
1993.000000	100.252397
1992.000000	100.253091
1991.000000	100.254108
1990.000000	100.254573
1989.000000	100.254286
1988.000000	100.253772
1987.000000	100.253397
1986.000000	100.252964
1985.000000	100.252367
1984.000000	100.251994
1983.000000	100.252008
1982.000000	100.251695
1981.000000	100.250154
1980.000000	100.247430
1979.000000	100.244635
1978.000000	100.242906
1977.000000	100.242584
1976.000000	100.243278
1975.000000	100.244249
1974.000000	100.244934
1973.000000	100.245324
1972.000000	100.245780
1971.000000	100.246378
1970.000000	100.246644
1969.000000	100.246204
1968.000000	100.245519
1967.000000	100.245492
1966.000000	100.246245
1965.000000	100.246954
1964.000000	100.247051
1963.000000	100.246829
1962.000000	100.246789
1961.000000	100.247045
1960.000000	100.247626
1959.000000	100.248702
1958.000000	100.250019
1957.000000	100.250628
1956.000000	100.249849
1955.000000	100.248243
1954.000000	100.247119
1953.000000	100.247059
1952.000000	100.247510
1951.000000	100.247735
1950.000000	100.247603
1949.000000	100.247289
1948.000000	100.246614
1947.000000	100.245158
1946.000000	100.243066
1945.000000	100.241479
1944.000000	100.241805
1943.000000	100.244340
1942.000000	100.247494
1941.000000	100.249063
1940.000000	100.248540
1939.000000	100.247316
1938.000000	100.246811
1937.000000	100.247037
1936.000000	100.247106
1935.000000	100.246664
1934.000000	100.246343
1933.000000	100.246932
1932.000000	100.248493
1931.000000	100.250289
1930.000000	100.251294
1929.000000	100.250729
1928.000000	100.248248
1927.000000	100.243989
1926.000000	100.238817
1925.000000	100.234383
1924.000000	100.232311
1923.000000	100.232575
1922.000000	100.232909
1921.000000	100.230980
1920.000000	100.226958
1919.000000	100.223195
1918.000000	100.221603
1917.000000	100.221493
1916.000000	100.220706
1915.000000	100.218489
1914.000000	100.215777
1913.000000	100.213604
1912.000000	100.212177
1911.000000	100.210979
1910.000000	100.209161
1909.000000	100.205918
1908.000000	100.200986
1907.000000	100.195020
1906.000000	100.189155
1905.000000	100.184078
1904.000000	100.179908
1903.000000	100.176945
1902.000000	100.176053
1901.000000	100.177666
1900.000000	100.180559
1899.000000	100.182377
1898.000000	100.181524
1897.000000	100.178191
1896.000000	100.173713
1895.000000	100.169197
1894.000000	100.164972
1893.000000	100.161167
1892.000000	100.158270
1891.000000	100.156890
1890.000000	100.157082
1889.000000	100.157816
1888.000000	100.157464
1887.000000	100.155499
1886.000000	100.153220
1885.000000	100.152526
1884.000000	100.154204
1883.000000	100.157189
1882.000000	100.159507
1881.000000	100.159924
1880.000000	100.158563
1879.000000	100.156346
1878.000000	100.154231
1877.000000	100.152789
1876.000000	100.152077
1875.000000	100.151731
1874.000000	100.151546
1873.000000	100.152115
1872.000000	100.154430
1871.000000	100.158561
1870.000000	100.162872
1869.000000	100.164951
1868.000000	100.163704
1867.000000	100.160259
1866.000000	100.156960
1865.000000	100.155818
1864.000000	100.157775
1863.000000	100.162618
1862.000000	100.168911
1861.000000	100.174556
1860.000000	100.178241
1859.000000	100.180346
1858.000000	100.182105
1857.000000	100.184141
1856.000000	100.186184
1855.000000	100.188125
1854.000000	100.190775
1853.000000	100.195119
1852.000000	100.201006
1851.000000	100.207015
1850.000000	100.211514
1849.000000	100.213636
1848.000000	100.213534
1847.000000	100.211981
1846.000000	100.210158
1845.000000	100.210035
1844.000000	100.213550
1843.000000	100.220055
1842.000000	100.226793
1841.000000	100.231996
1840.000000	100.235141
1839.000000	100.236278
1838.000000	100.235887
1837.000000	100.234609
1836.000000	100.233256
1835.000000	100.232912
1834.000000	100.234479
1833.000000	100.237820
1832.000000	100.241501
1831.000000	100.243646
1830.000000	100.243390
1829.000000	100.241467
1828.000000	100.239147
1827.000000	100.237164
1826.000000	100.235503
1825.000000	100.234302
1824.000000	100.234195
1823.000000	100.235086
1822.000000	100.235917
1821.000000	100.235764
1820.000000	100.234959
1819.000000	100.234969
1818.000000	100.236811
1817.000000	100.239890
1816.000000	100.242449
1815.000000	100.242989
1814.000000	100.241163
1813.000000	100.237723
1812.000000	100.234112
1811.000000	100.231756
1810.000000	100.231317
1809.000000	100.232828
1808.000000	100.236062
1807.000000	100.240231
1806.000000	100.243898
1805.000000	100.245847
1804.000000	100.246049
1803.000000	100.245557
1802.000000	100.245542
1801.000000	100.246358
1800.000000	100.247359
1799.000000	100.247656
1798.000000	100.247031
1797.000000	100.246052
1796.000000	100.245440
1795.000000	100.245532
1794.000000	100.246490
1793.000000	100.248734
1792.000000	100.252398
1791.000000	100.256273
1790.000000	100.258862
1789.000000	100.260221
1788.000000	100.261361
1787.000000	100.263001
1786.000000	100.265123
1785.000000	100.267222
1784.000000	100.268801
1783.000000	100.269624
1782.000000	100.269641
1781.000000	100.268946
1780.000000	100.267991
1779.000000	100.267389
1778.000000	100.267546
1777.000000	100.268765
1776.000000	100.271022
1775.000000	100.273548
1774.000000	100.275167
1773.000000	100.275764
1772.000000	100.277081
1771.000000	100.280268
1770.000000	100.284089
1769.000000	100.286833
1768.000000	100.287963
1767.000000	100.288247
1766.000000	100.288525
1765.000000	100.288971
1764.000000	100.289572
1763.000000	100.290621
1762.000000	100.292359
1761.000000	100.294209
1760.000000	100.296007
1759.000000	100.299062
1758.000000	100.303549
1757.000000	100.306590
1756.000000	100.305292
1755.000000	100.300968
1754.000000	100.297839
1753.000000	100.297815
1752.000000	100.298862
1751.000000	100.298046
1750.000000	100.295348
1749.000000	100.293502
1748.000000	100.294082
1747.000000	100.295609
1746.000000	100.295966
1745.000000	100.294997
1744.000000	100.294058
1743.000000	100.293714
1742.000000	100.292674
1741.000000	100.289785
1740.000000	100.286334
1739.000000	100.284494
1738.000000	100.283828
1737.000000	100.282156
1736.000000	100.278187
1735.000000	100.273901
1734.000000	100.274212
1733.000000	100.278458
1732.000000	100.282268
1731.000000	100.286515
1730.000000	100.291458
1729.000000	100.294812
1728.000000	100.295393
1727.000000	100.294521
1726.000000	100.293901
1725.000000	100.293717
1724.000000	100.293752
1723.000000	100.294639
1722.000000	100.296935
1721.000000	100.299805
1720.000000	100.301064
1719.000000	100.298328
1718.000000	100.290649
1717.000000	100.279176
1716.000000	100.266573
1715.000000	100.256354
1714.000000	100.250553
1713.000000	100.248455
1712.000000	100.248292
1711.000000	100.248785
1710.000000	100.249029
1709.000000	100.247923
1708.000000	100.244406
1707.000000	100.237912
1706.000000	100.228667
1705.000000	100.218182
1704.000000	100.208279
1703.000000	100.200045
1702.000000	100.194105
1701.000000	100.192157
1700.000000	100.194485
1699.000000	100.195302
1698.000000	100.191082
1697.000000	100.183002
1696.000000	100.172052
1695.000000	100.160771
1694.000000	100.151682
1693.000000	100.145740
1692.000000	100.141628
1691.000000	100.137180
1690.000000	100.131843
1689.000000	100.126311
1688.000000	100.120894
1687.000000	100.114979
1686.000000	100.107416
1685.000000	100.097502
1684.000000	100.086874
1683.000000	100.077459
1682.000000	100.069350
1681.000000	100.063042
1680.000000	100.058096
1679.000000	100.053643
1678.000000	100.049036
1677.000000	100.043674
1676.000000	100.037238
1675.000000	100.030329
1674.000000	100.023792
1673.000000	100.017919
1672.000000	100.012577
1671.000000	100.006790
1670.000000	99.999978
1669.000000	99.992995
1668.000000	99.986660
1667.000000	99.980851
1666.000000	99.974614
1665.000000	99.966679
1664.000000	99.957531
1663.000000	99.950392
1662.000000	99.947244
1661.000000	99.945287
1660.000000	99.941192
1659.000000	99.935092
1658.000000	99.929452
1657.000000	99.926478
1656.000000	99.925739
1655.000000	99.923499
1654.000000	99.914654
1653.000000	99.900208
1652.000000	99.886245
1651.000000	99.877508
1650.000000	99.877914
1649.000000	99.881582
1648.000000	99.881837
1647.000000	99.879526
1646.000000	99.877688
1645.000000	99.875000
1644.000000	99.871810
1643.000000	99.870564
1642.000000	99.871079
1641.000000	99.871188
1640.000000	99.869239
1639.000000	99.864977
1638.000000	99.858529
1637.000000	99.850761
1636.000000	99.846325
1635.000000	99.849189
1634.000000	99.855303
1633.000000	99.860722
1632.000000	99.865276
1631.000000	99.868717
1630.000000	99.871321
1629.000000	99.873482
1628.000000	99.875152
1627.000000	99.876612
1626.000000	99.878418
1625.000000	99.880086
1624.000000	99.880554
1623.000000	99.880631
1622.000000	99.882268
1621.000000	99.885644
1620.000000	99.889539
1619.000000	99.892812
1618.000000	99.896168
1617.000000	99.902137
1616.000000	99.909973
1615.000000	99.915745
1614.000000	99.918889
1613.000000	99.920522
1612.000000	99.921189
1611.000000	99.922865
1610.000000	99.927949
1609.000000	99.936285
1608.000000	99.945286
1607.000000	99.953042
1606.000000	99.959671
1605.000000	99.965675
1604.000000	99.971081
1603.000000	99.976609
1602.000000	99.983720
1601.000000	99.992443
1600.000000	100.000324
1599.000000	100.004678
1598.000000	100.005392
1597.000000	100.004977
1596.000000	100.006261
1595.000000	100.010392
1594.000000	100.016774
1593.000000	100.024251
1592.000000	100.032112
1591.000000	100.040124
1590.000000	100.047957
1589.000000	100.055029
1588.000000	100.061090
1587.000000	100.066508
1586.000000	100.071394
1585.000000	100.074722
1584.000000	100.075314
1583.000000	100.073946
1582.000000	100.073605
1581.000000	100.076944
1580.000000	100.084036
1579.000000	100.092860
1578.000000	100.100940
1577.000000	100.106368
1576.000000	100.108294
1575.000000	100.107771
1574.000000	100.108053
1573.000000	100.111382
1572.000000	100.116542
1571.000000	100.121431
1570.000000	100.125420
1569.000000	100.128574
1568.000000	100.130274
1567.000000	100.130345
1566.000000	100.129069
1565.000000	100.126866
1564.000000	100.125101
1563.000000	100.125531
1562.000000	100.128373
1561.000000	100.132163
1560.000000	100.134281
1559.000000	100.135169
1558.000000	100.136645
1557.000000	100.137340
1556.000000	100.139688
1555.000000	100.143589
1554.000000	100.146615
1553.000000	100.148056
1552.000000	100.148699
1551.000000	100.149452
1550.000000	100.150852
1549.000000	100.152993
1548.000000	100.155135
1547.000000	100.156435
1546.000000	100.156563
1545.000000	100.156023
1544.000000	100.155913
1543.000000	100.156893
1542.000000	100.159269
1541.000000	100.163861
1540.000000	100.170608
1539.000000	100.176081
1538.000000	100.178391
1537.000000	100.180002
1536.000000	100.182023
1535.000000	100.183438
1534.000000	100.184264
1533.000000	100.185931
1532.000000	100.188761
1531.000000	100.191855
1530.000000	100.194693
1529.000000	100.197288
1528.000000	100.199966
1527.000000	100.203032
1526.000000	100.206456
1525.000000	100.209940
1524.000000	100.213264
1523.000000	100.216250
1522.000000	100.218803
1521.000000	100.221136
1520.000000	100.223404
1519.000000	100.226068
1518.000000	100.229826
1517.000000	100.234730
1516.000000	100.239966
1515.000000	100.244256
1514.000000	100.247307
1513.000000	100.249689
1512.000000	100.251804
1511.000000	100.253524
1510.000000	100.254199
1509.000000	100.253467
1508.000000	100.252665
1507.000000	100.255110
1506.000000	100.259432
1505.000000	100.260339
1504.000000	100.259769
1503.000000	100.261756
1502.000000	100.266561
1501.000000	100.272916
1500.000000	100.278877
1499.000000	100.282640
1498.000000	100.283917
1497.000000	100.284591
1496.000000	100.286271
1495.000000	100.287755
1494.000000	100.287449
1493.000000	100.285837
1492.000000	100.284945
1491.000000	100.286919
1490.000000	100.291494
1489.000000	100.295212
1488.000000	100.295743
1487.000000	100.294273
1486.000000	100.292761
1485.000000	100.292031
1484.000000	100.292241
1483.000000	100.293442
1482.000000	100.295025
1481.000000	100.295526
1480.000000	100.294040
1479.000000	100.291294
1478.000000	100.288728
1477.000000	100.287050
1476.000000	100.285788
1475.000000	100.283977
1474.000000	100.281536
1473.000000	100.279956
1472.000000	100.280253
1471.000000	100.280804
1470.000000	100.279730
1469.000000	100.276816
1468.000000	100.272700
1467.000000	100.268587
1466.000000	100.265564
1465.000000	100.263384
1464.000000	100.260463
1463.000000	100.256063
1462.000000	100.251498
1461.000000	100.248479
1460.000000	100.247761
1459.000000	100.248963
1458.000000	100.250429
1457.000000	100.249699
1456.000000	100.246013
1455.000000	100.242037
1454.000000	100.240508
1453.000000	100.240957
1452.000000	100.241429
1451.000000	100.240599
1450.000000	100.238314
1449.000000	100.235079
1448.000000	100.231611
1447.000000	100.228509
1446.000000	100.226042
1445.000000	100.224413
1444.000000	100.223837
1443.000000	100.224228
1442.000000	100.225039
1441.000000	100.225661
1440.000000	100.225890
1439.000000	100.225833
1438.000000	100.225401
1437.000000	100.224223
1436.000000	100.222050
1435.000000	100.219253
1434.000000	100.216852
1433.000000	100.215488
1432.000000	100.215139
1431.000000	100.215703
1430.000000	100.216774
1429.000000	100.217244
1428.000000	100.216097
1427.000000	100.213514
1426.000000	100.210860
1425.000000	100.209760
1424.000000	100.211123
1423.000000	100.214233
1422.000000	100.217196
1421.000000	100.218786
1420.000000	100.219453
1419.000000	100.221019
1418.000000	100.223819
1417.000000	100.225764
1416.000000	100.225656
1415.000000	100.224176
1414.000000	100.222973
1413.000000	100.223383
1412.000000	100.225354
1411.000000	100.228016
1410.000000	100.230917
1409.000000	100.234439
1408.000000	100.238825
1407.000000	100.243265
1406.000000	100.246354
1405.000000	100.247353
1404.000000	100.246933
1403.000000	100.246601
1402.000000	100.247356
1401.000000	100.249195
1400.000000	100.251582
1399.000000	100.254033
1398.000000	100.256337
1397.000000	100.258649
1396.000000	100.261448
1395.000000	100.265080
1394.000000	100.269228
1393.000000	100.273066
1392.000000	100.276181
1391.000000	100.278670
1390.000000	100.280651
1389.000000	100.282180
1388.000000	100.283330
1387.000000	100.284299
1386.000000	100.285420
1385.000000	100.287016
1384.000000	100.289208
1383.000000	100.291865
1382.000000	100.294744
1381.000000	100.297607
1380.000000	100.300237
1379.000000	100.302445
1378.000000	100.304170
1377.000000	100.305560
1376.000000	100.306894
1375.000000	100.308539
1374.000000	100.310892
1373.000000	100.314077
1372.000000	100.317731
1371.000000	100.321115
1370.000000	100.323378
1369.000000	100.324000
1368.000000	100.323263
1367.000000	100.322321
1366.000000	100.322396
1365.000000	100.324002
1364.000000	100.326817
1363.000000	100.329779
1362.000000	100.331721
1361.000000	100.332270
1360.000000	100.331963
1359.000000	100.331548
1358.000000	100.331419
1357.000000	100.331639
1356.000000	100.332222
1355.000000	100.333288
1354.000000	100.334897
1353.000000	100.336740
1352.000000	100.338113
1351.000000	100.338392
1350.000000	100.337759
1349.000000	100.337282
1348.000000	100.337975
1347.000000	100.339901
1346.000000	100.342264
1345.000000	100.344232
1344.000000	100.345462
1343.000000	100.345995
1342.000000	100.346019
1341.000000	100.345945
1340.000000	100.346517
1339.000000	100.348252
1338.000000	100.350585
1337.000000	100.352081
1336.000000	100.351554
1335.000000	100.348908
1334.000000	100.345398
1333.000000	100.343046
1332.000000	100.343273
1331.000000	100.345876
1330.000000	100.349236
1329.000000	100.351522
1328.000000	100.351656
1327.000000	100.349467
1326.000000	100.345771
1325.000000	100.342308
1324.000000	100.340772
1323.000000	100.341314
1322.000000	100.342165
1321.000000	100.341587
1320.000000	100.340191
1319.000000	100.340393
1318.000000	100.343196
1317.000000	100.346633
1316.000000	100.348236
1315.000000	100.348024
1314.000000	100.348006
1313.000000	100.349196
1312.000000	100.350244
1311.000000	100.349448
1310.000000	100.347248
1309.000000	100.345945
1308.000000	100.347140
1307.000000	100.349754
1306.000000	100.350790
1305.000000	100.348116
1304.000000	100.342526
1303.000000	100.337319
1302.000000	100.335630
1301.000000	100.338131
1300.000000	100.342936
1299.000000	100.347143
1298.000000	100.348697
1297.000000	100.347593
1296.000000	100.345981
1295.000000	100.346567
1294.000000	100.349856
1293.000000	100.353193
1292.000000	100.353357
1291.000000	100.349788
1290.000000	100.344628
1289.000000	100.339945
1288.000000	100.335911
1287.000000	100.332014
1286.000000	100.328534
1285.000000	100.326025
1284.000000	100.324488
1283.000000	100.323840
1282.000000	100.324165
1281.000000	100.324551
1280.000000	100.322655
1279.000000	100.317043
1278.000000	100.309728
1277.000000	100.304713
1276.000000	100.303677
1275.000000	100.304319
1274.000000	100.303412
1273.000000	100.300612
1272.000000	100.298454
1271.000000	100.299225
1270.000000	100.302554
1269.000000	100.305769
1268.000000	100.306280
1267.000000	100.304219
1266.000000	100.303025
1265.000000	100.306408
1264.000000	100.313874
1263.000000	100.319894
1262.000000	100.318606
1261.000000	100.309399
1260.000000	100.297481
1259.000000	100.289049
1258.000000	100.286004
1257.000000	100.285300
1256.000000	100.283143
1255.000000	100.279593
1254.000000	100.278450
1253.000000	100.281721
1252.000000	100.284924
1251.000000	100.280182
1250.000000	100.264705
1249.000000	100.244198
1248.000000	100.226604
1247.000000	100.214604
1246.000000	100.206444
1245.000000	100.201885
1244.000000	100.203071
1243.000000	100.209233
1242.000000	100.214542
1241.000000	100.213295
1240.000000	100.204945
1239.000000	100.192719
1238.000000	100.179933
1237.000000	100.169490
1236.000000	100.164244
1235.000000	100.163921
1234.000000	100.162392
1233.000000	100.151765
1232.000000	100.130098
1231.000000	100.103434
1230.000000	100.080071
1229.000000	100.064120
1228.000000	100.054188
1227.000000	100.045279
1226.000000	100.031010
1225.000000	100.007011
1224.000000	99.974708
1223.000000	99.940909
1222.000000	99.911694
1221.000000	99.886931
1220.000000	99.861793
1219.000000	99.832638
1218.000000	99.799609
1217.000000	99.763750
1216.000000	99.723703
1215.000000	99.676919
1214.000000	99.623956
1213.000000	99.570345
1212.000000	99.523196
1211.000000	99.485430
1210.000000	99.453226
1209.000000	99.418908
1208.000000	99.375737
1207.000000	99.320951
1206.000000	99.257287
1205.000000	99.192572
1204.000000	99.134693
1203.000000	99.084250
1202.000000	99.033958
1201.000000	98.977796
1200.000000	98.918220
1199.000000	98.860619
1198.000000	98.803440
1197.000000	98.740375
1196.000000	98.671881
1195.000000	98.607258
1194.000000	98.553048
1193.000000	98.505197
1192.000000	98.455719
1191.000000	98.401667
1190.000000	98.343600
1189.000000	98.279948
1188.000000	98.208387
1187.000000	98.130731
1186.000000	98.051709
1185.000000	97.973573
1184.000000	97.895339
1183.000000	97.816369
1182.000000	97.737318
1181.000000	97.657804
1180.000000	97.575581
1179.000000	97.488240
1178.000000	97.395105
1177.000000	97.298706
1176.000000	97.204800
1175.000000	97.117957
1174.000000	97.034977
1173.000000	96.945304
1172.000000	96.841067
1171.000000	96.725762
1170.000000	96.611206
1169.000000	96.507225
1168.000000	96.415979
1167.000000	96.334936
1166.000000	96.263697
1165.000000	96.208411
1164.000000	96.179193
1163.000000	96.181392
1162.000000	96.209469
1161.000000	96.251038
1160.000000	96.295377
1159.000000	96.335157
1158.000000	96.362789
1157.000000	96.370910
1156.000000	96.356185
1155.000000	96.318374
1154.000000	96.256526
1153.000000	96.171355
1152.000000	96.071929
1151.000000	95.974411
1150.000000	95.890578
1149.000000	95.820207
1148.000000	95.756061
1147.000000	95.692156
1146.000000	95.625583
1145.000000	95.555071
1144.000000	95.481470
1143.000000	95.407609
1142.000000	95.335409
1141.000000	95.264496
1140.000000	95.194297
1139.000000	95.125106
1138.000000	95.056305
1137.000000	94.985951
1136.000000	94.912944
1135.000000	94.838138
1134.000000	94.764004
1133.000000	94.694985
1132.000000	94.635896
1131.000000	94.586018
1130.000000	94.536252
1129.000000	94.476776
1128.000000	94.406637
1127.000000	94.331782
1126.000000	94.255658
1125.000000	94.177069
1124.000000	94.096446
1123.000000	94.018657
1122.000000	93.948722
1121.000000	93.887828
1120.000000	93.832557
1119.000000	93.774858
1118.000000	93.705777
1117.000000	93.624863
1116.000000	93.544191
1115.000000	93.476953
1114.000000	93.423482
1113.000000	93.374408
1112.000000	93.324305
1111.000000	93.273304
1110.000000	93.218502
1109.000000	93.155776
1108.000000	93.089288
1107.000000	93.027825
1106.000000	92.971671
1105.000000	92.913806
1104.000000	92.853272
1103.000000	92.795303
1102.000000	92.738303
1101.000000	92.673296
1100.000000	92.597902
1099.000000	92.519334
1098.000000	92.442614
1097.000000	92.367358
1096.000000	92.296793
1095.000000	92.237155
1094.000000	92.185485
1093.000000	92.129700
1092.000000	92.063416
1091.000000	91.990798
1090.000000	91.916747
1089.000000	91.844207
1088.000000	91.781243
1087.000000	91.736646
1086.000000	91.705550
1085.000000	91.671746
1084.000000	91.626854
1083.000000	91.576318
1082.000000	91.526558
1081.000000	91.478502
1080.000000	91.433750
1079.000000	91.393352
1078.000000	91.349638
1077.000000	91.292977
1076.000000	91.226592
1075.000000	91.160275
1074.000000	91.090413
1073.000000	91.003490
1072.000000	90.899174
1071.000000	90.790639
1070.000000	90.679322
1069.000000	90.549312
1068.000000	90.392263
1067.000000	90.218905
1066.000000	90.039491
1065.000000	89.851106
1064.000000	89.652876
1063.000000	89.455342
1062.000000	89.264142
1061.000000	89.071179
1060.000000	88.873559
1059.000000	88.686064
1058.000000	88.522756
1057.000000	88.378728
1056.000000	88.239984
1055.000000	88.098649
1054.000000	87.949546
1053.000000	87.785336
1052.000000	87.606172
1051.000000	87.423240
1050.000000	87.243646
1049.000000	87.064262
1048.000000	86.886900
1047.000000	86.722159
1046.000000	86.571678
1045.000000	86.425178
1044.000000	86.281327
1043.000000	86.152105
1042.000000	86.037667
1041.000000	85.915637
1040.000000	85.768254
1039.000000	85.605417
1038.000000	85.447731
1037.000000	85.301084
1036.000000	85.161844
1035.000000	85.033958
1034.000000	84.924977
1033.000000	84.833421
1032.000000	84.752791
1031.000000	84.681642
1030.000000	84.620292
1029.000000	84.564249
1028.000000	84.509247
1027.000000	84.456797
1026.000000	84.408823
1025.000000	84.363573
1024.000000	84.320986
1023.000000	84.284407
1022.000000	84.253428
1021.000000	84.222882
1020.000000	84.190872
1019.000000	84.158835
1018.000000	84.122855
1017.000000	84.075720
1016.000000	84.019119
1015.000000	83.962905
1014.000000	83.910781
1013.000000	83.857969
1012.000000	83.803831
1011.000000	83.754033
1010.000000	83.708335
1009.000000	83.659323
1008.000000	83.606517
1007.000000	83.559725
1006.000000	83.525035
1005.000000	83.498509
1004.000000	83.476468
1003.000000	83.461923
1002.000000	83.458388
1001.000000	83.465775
1000.000000	83.482650
999.000000	83.504371
998.000000	83.521439
997.000000	83.529697
996.000000	83.539332
995.000000	83.563463
994.000000	83.601271
993.000000	83.642250
992.000000	83.680721
991.000000	83.713677
990.000000	83.732624
989.000000	83.734997
988.000000	83.738343
987.000000	83.765069
986.000000	83.816081
985.000000	83.874801
984.000000	83.932626
983.000000	83.993917
982.000000	84.061483
981.000000	84.136422
980.000000	84.227100
979.000000	84.337836
978.000000	84.453581
977.000000	84.557948
976.000000	84.662413
975.000000	84.793015
974.000000	84.950955
973.000000	85.111738
972.000000	85.263531
971.000000	85.420449
970.000000	85.594647
969.000000	85.781235
968.000000	85.975532
967.000000	86.179459
966.000000	86.382710
965.000000	86.562075
964.000000	86.711112
963.000000	86.850952
962.000000	87.001463
961.000000	87.159687
960.000000	87.316616
959.000000	87.476400
958.000000	87.645611
957.000000	87.818127
956.000000	87.983446
955.000000	88.138810
954.000000	88.283758
953.000000	88.414666
952.000000	88.533789
951.000000	88.651836
950.000000	88.772097
949.000000	88.883060
948.000000	88.975977
947.000000	89.059025
946.000000	89.145258
945.000000	89.236325
944.000000	89.327018
943.000000	89.415445
942.000000	89.498434
941.000000	89.566711
940.000000	89.616100
939.000000	89.656703
938.000000	89.701265
937.000000	89.750334
936.000000	89.797869
935.000000	89.845154
934.000000	89.899660
933.000000	89.964525
932.000000	90.036859
931.000000	90.112098
930.000000	90.183326
929.000000	90.241353
928.000000	90.282878
927.000000	90.315402
926.000000	90.348772
925.000000	90.385720
924.000000	90.425730
923.000000	90.472788
922.000000	90.531745
921.000000	90.599292
920.000000	90.664156
919.000000	90.715123
918.000000	90.746601
917.000000	90.759865
916.000000	90.762535
915.000000	90.764941
914.000000	90.774794
913.000000	90.797160
912.000000	90.838812
911.000000	90.906599
910.000000	91.000414
909.000000	91.113937
908.000000	91.243899
907.000000	91.390982
906.000000	91.548587
905.000000	91.699653
904.000000	91.831554
903.000000	91.950193
902.000000	92.074078
901.000000	92.216975
900.000000	92.380034
899.000000	92.557357
898.000000	92.743132
897.000000	92.931991
896.000000	93.115786
895.000000	93.284660
894.000000	93.434143
893.000000	93.570283
892.000000	93.705083
891.000000	93.846739
890.000000	93.995080
889.000000	94.143476
888.000000	94.281122
887.000000	94.396776
886.000000	94.488337
885.000000	94.568536
884.000000	94.653872
883.000000	94.748197
882.000000	94.845514
881.000000	94.947780
880.000000	95.066664
879.000000	95.203813
878.000000	95.343290
877.000000	95.471561
876.000000	95.592937
875.000000	95.716965
874.000000	95.843537
873.000000	95.970507
872.000000	96.102487
871.000000	96.239166
870.000000	96.367351
869.000000	96.479761
868.000000	96.591835
867.000000	96.723494
866.000000	96.869783
865.000000	97.004840
864.000000	97.111960
863.000000	97.196779
862.000000	97.274184
861.000000	97.355834
860.000000	97.449740
859.000000	97.557762
858.000000	97.669531
857.000000	97.768790
856.000000	97.849762
855.000000	97.921595
854.000000	97.994767
853.000000	98.067019
852.000000	98.123414
851.000000	98.149303
850.000000	98.148334
849.000000	98.150583
848.000000	98.193738
847.000000	98.287084
846.000000	98.398993
845.000000	98.487532
844.000000	98.536854
843.000000	98.556421
842.000000	98.556946
841.000000	98.541768
840.000000	98.513941
839.000000	98.475517
838.000000	98.423764
837.000000	98.361447
836.000000	98.304529
835.000000	98.264013
834.000000	98.227577
833.000000	98.180407
832.000000	98.139273
831.000000	98.138674
830.000000	98.180198
829.000000	98.224659
828.000000	98.245883
827.000000	98.264066
826.000000	98.306597
825.000000	98.361773
824.000000	98.398816
823.000000	98.412758
822.000000	98.418509
821.000000	98.417344
820.000000	98.401236
819.000000	98.378608
818.000000	98.365310
817.000000	98.353391
816.000000	98.314108
815.000000	98.235964
814.000000	98.140122
813.000000	98.047793
812.000000	97.944726
811.000000	97.790414
810.000000	97.556881
809.000000	97.247967
808.000000	96.882168
807.000000	96.467287
806.000000	95.998879
805.000000	95.482285
804.000000	94.949813
803.000000	94.449738
802.000000	94.017768
801.000000	93.663562
800.000000	93.382283
799.000000	93.167724
798.000000	93.013568
797.000000	92.916092
796.000000	92.879605
795.000000	92.905216
794.000000	92.968806
793.000000	93.026093
792.000000	93.051541
791.000000	93.061508
790.000000	93.087031
789.000000	93.131631
788.000000	93.166272
787.000000	93.159079
786.000000	93.099226
785.000000	92.996472
784.000000	92.870192
783.000000	92.739030
782.000000	92.610089
781.000000	92.475812
780.000000	92.329920
779.000000	92.188625
778.000000	92.087164
777.000000	92.050164
776.000000	92.070740
775.000000	92.124252
774.000000	92.200779
773.000000	92.316235
772.000000	92.487430
771.000000	92.702164
770.000000	92.921674
769.000000	93.112360
768.000000	93.267186
767.000000	93.395847
766.000000	93.506646
765.000000	93.602920
764.000000	93.686729
763.000000	93.759592
762.000000	93.827373
761.000000	93.907737
760.000000	94.019093
759.000000	94.151871
758.000000	94.263304
757.000000	94.317957
756.000000	94.328172
755.000000	94.340618
754.000000	94.387661
753.000000	94.466337
752.000000	94.560454
751.000000	94.663389
750.000000	94.773577
749.000000	94.882263
748.000000	94.977218
747.000000	95.054858
746.000000	95.122690
745.000000	95.190800
744.000000	95.263104
743.000000	95.336334
742.000000	95.406902
741.000000	95.477689
740.000000	95.555994
739.000000	95.646750
738.000000	95.752406
737.000000	95.875517
736.000000	96.010556
735.000000	96.134040
734.000000	96.220073
733.000000	96.274183
732.000000	96.336143
731.000000	96.434246
730.000000	96.546110
729.000000	96.620761
728.000000	96.633995
727.000000	96.607892
726.000000	96.583033
725.000000	96.588245
724.000000	96.632268
723.000000	96.704647
722.000000	96.783007
721.000000	96.855044
720.000000	96.935873
719.000000	97.045852
718.000000	97.170320
717.000000	97.264985
716.000000	97.304466
715.000000	97.309678
714.000000	97.323283
713.000000	97.366528
712.000000	97.424257
711.000000	97.461913
710.000000	97.451964
709.000000	97.394045
708.000000	97.318712
707.000000	97.264084
706.000000	97.240878
705.000000	97.224664
704.000000	97.185760
703.000000	97.120239
702.000000	97.046267
701.000000	96.972046
700.000000	96.869062
699.000000	96.681673
698.000000	96.379342
697.000000	96.012124
696.000000	95.698682
695.000000	95.535945
694.000000	95.525748
693.000000	95.595351
692.000000	95.679705
691.000000	95.770406
690.000000	95.891126
689.000000	96.058180
688.000000	96.272372
687.000000	96.518941
686.000000	96.759836
685.000000	96.949674
684.000000	97.073999
683.000000	97.151214
682.000000	97.188279
681.000000	97.164829
680.000000	97.085078
679.000000	97.019471
678.000000	97.058443
677.000000	97.229531
676.000000	97.477290
675.000000	97.717526
674.000000	97.899034
673.000000	98.014999
672.000000	98.088443
671.000000	98.146748
670.000000	98.201831
669.000000	98.221730
668.000000	98.158291
667.000000	98.078248
666.000000	98.089442
665.000000	98.188282
664.000000	98.317496
663.000000	98.418062
662.000000	98.452445
661.000000	98.441477
660.000000	98.450541
659.000000	98.530927
658.000000	98.672813
657.000000	98.817523
656.000000	98.908928
655.000000	98.926790
654.000000	98.880165
653.000000	98.789949
652.000000	98.684052
651.000000	98.597565
650.000000	98.556461
