4000.000000	99.970120
3999.000000	99.969984
3998.000000	99.969645
3997.000000	99.969098
3996.000000	99.968599
3995.000000	99.968442
3994.000000	99.968675
3993.000000	99.968932
3992.000000	99.968722
3991.000000	99.967877
3990.000000	99.966730
3989.000000	99.965923
3988.000000	99.965768
3987.000000	99.966008
3986.000000	99.966074
3985.000000	99.965637
3984.000000	99.964847
3983.000000	99.964153
3982.000000	99.963925
3981.000000	99.964267
3980.000000	99.965104
3979.000000	99.966303
3978.000000	99.967613
3977.000000	99.968581
3976.000000	99.968729
3975.000000	99.967893
3974.000000	99.966376
3973.000000	99.964795
3972.000000	99.963654
3971.000000	99.963096
3970.000000	99.962987
3969.000000	99.963110
3968.000000	99.963335
3967.000000	99.963665
3966.000000	99.964092
3965.000000	99.964493
3964.000000	99.964702
3963.000000	99.964644
3962.000000	99.964393
3961.000000	99.964097
3960.000000	99.963881
3959.000000	99.963828
3958.000000	99.963968
3957.000000	99.964239
3956.000000	99.964446
3955.000000	99.964351
3954.000000	99.963843
3953.000000	99.963024
3952.000000	99.962196
3951.000000	99.961672
3950.000000	99.961553
3949.000000	99.961697
3948.000000	99.961839
3947.000000	99.961843
3946.000000	99.961753
3945.000000	99.961619
3944.000000	99.961415
3943.000000	99.961124
3942.000000	99.960847
3941.000000	99.960709
3940.000000	99.960612
3939.000000	99.960224
3938.000000	99.959314
3937.000000	99.958034
3936.000000	99.956822
3935.000000	99.956047
3934.000000	99.955790
3933.000000	99.955891
3932.000000	99.956063
3931.000000	99.956007
3930.000000	99.955558
3929.000000	99.954895
3928.000000	99.954624
3927.000000	99.955388
3926.000000	99.957151
3925.000000	99.958760
3924.000000	99.958806
3923.000000	99.957067
3922.000000	99.954860
3921.000000	99.953735
3920.000000	99.953961
3919.000000	99.954403
3918.000000	99.953709
3917.000000	99.951574
3916.000000	99.948882
3915.000000	99.946842
3914.000000	99.946109
3913.000000	99.946480
3912.000000	99.947138
3911.000000	99.947357
3910.000000	99.946983
3909.000000	99.946259
3908.000000	99.945448
3907.000000	99.944742
3906.000000	99.944521
3905.000000	99.945173
3904.000000	99.946645
3903.000000	99.948650
3902.000000	99.951133
3901.000000	99.953884
3900.000000	99.956083
3899.000000	99.956777
3898.000000	99.955959
3897.000000	99.954831
3896.000000	99.954735
3895.000000	99.956204
3894.000000	99.958785
3893.000000	99.961343
3892.000000	99.962789
3891.000000	99.962994
3890.000000	99.962912
3889.000000	99.963287
3888.000000	99.963653
3887.000000	99.963167
3886.000000	99.961774
3885.000000	99.960276
3884.000000	99.959494
3883.000000	99.959483
3882.000000	99.959615
3881.000000	99.959326
3880.000000	99.958663
3879.000000	99.958208
3878.000000	99.958419
3877.000000	99.959023
3876.000000	99.959324
3875.000000	99.958937
3874.000000	99.958058
3873.000000	99.957248
3872.000000	99.957141
3871.000000	99.958137
3870.000000	99.960114
3869.000000	99.962362
3868.000000	99.963957
3867.000000	99.964217
3866.000000	99.962920
3865.000000	99.960641
3864.000000	99.958610
3863.000000	99.957655
3862.000000	99.957701
3861.000000	99.958247
3860.000000	99.959085
3859.000000	99.960344
3858.000000	99.961924
3857.000000	99.963163
3856.000000	99.963271
3855.000000	99.962190
3854.000000	99.960926
3853.000000	99.960228
3852.000000	99.959889
3851.000000	99.959625
3850.000000	99.959171
3849.000000	99.958576
3848.000000	99.958335
3847.000000	99.958883
3846.000000	99.960117
3845.000000	99.961445
3844.000000	99.962335
3843.000000	99.962826
3842.000000	99.963387
3841.000000	99.964388
3840.000000	99.965729
3839.000000	99.966836
3838.000000	99.967085
3837.000000	99.966414
3836.000000	99.965399
3835.000000	99.964552
3834.000000	99.963735
3833.000000	99.962398
3832.000000	99.960282
3831.000000	99.957919
3830.000000	99.956378
3829.000000	99.956319
3828.000000	99.957365
3827.000000	99.958294
3826.000000	99.958097
3825.000000	99.956878
3824.000000	99.955683
3823.000000	99.955659
3822.000000	99.957049
3821.000000	99.958704
3820.000000	99.959230
3819.000000	99.958657
3818.000000	99.957659
3817.000000	99.956652
3816.000000	99.955695
3815.000000	99.954752
3814.000000	99.953958
3813.000000	99.953432
3812.000000	99.953126
3811.000000	99.953040
3810.000000	99.953211
3809.000000	99.953535
3808.000000	99.953781
3807.000000	99.953766
3806.000000	99.953531
3805.000000	99.953232
3804.000000	99.952942
3803.000000	99.952679
3802.000000	99.952454
3801.000000	99.952258
3800.000000	99.952084
3799.000000	99.951925
3798.000000	99.951782
3797.000000	99.951658
3796.000000	99.951566
3795.000000	99.951519
3794.000000	99.951523
3793.000000	99.951577
3792.000000	99.951668
3791.000000	99.951782
3790.000000	99.951907
3789.000000	99.952034
3788.000000	99.952150
3787.000000	99.952241
3786.000000	99.952295
3785.000000	99.952301
3784.000000	99.952267
3783.000000	99.952210
3782.000000	99.952147
3781.000000	99.952090
3780.000000	99.952034
3779.000000	99.951974
3778.000000	99.951911
3777.000000	99.951858
3776.000000	99.951830
3775.000000	99.951828
3774.000000	99.951839
3773.000000	99.951845
3772.000000	99.951850
3771.000000	99.951760
3770.000000	99.951429
3769.000000	99.950885
3768.000000	99.950430
3767.000000	99.950442
3766.000000	99.950968
3765.000000	99.951558
3764.000000	99.951750
3763.000000	99.951552
3762.000000	99.951311
3761.000000	99.951219
3760.000000	99.950951
3759.000000	99.949927
3758.000000	99.948127
3757.000000	99.946360
3756.000000	99.945416
3755.000000	99.945353
3754.000000	99.945796
3753.000000	99.946359
3752.000000	99.946215
3751.000000	99.943630
3750.000000	99.937853
3749.000000	99.931500
3748.000000	99.927744
3747.000000	99.926517
3746.000000	99.925618
3745.000000	99.923437
3744.000000	99.920318
3743.000000	99.919117
3742.000000	99.921830
3741.000000	99.926176
3740.000000	99.928690
3739.000000	99.928209
3738.000000	99.925730
3737.000000	99.922691
3736.000000	99.919932
3735.000000	99.917665
3734.000000	99.915406
3733.000000	99.911835
3732.000000	99.905534
3731.000000	99.897049
3730.000000	99.888873
3729.000000	99.883073
3728.000000	99.880248
3727.000000	99.879527
3726.000000	99.878546
3725.000000	99.874709
3724.000000	99.867259
3723.000000	99.857658
3722.000000	99.848074
3721.000000	99.840312
3720.000000	99.835283
3719.000000	99.832767
3718.000000	99.831611
3717.000000	99.829985
3716.000000	99.825795
3715.000000	99.817337
3714.000000	99.804384
3713.000000	99.789256
3712.000000	99.775835
3711.000000	99.766749
3710.000000	99.762191
3709.000000	99.760560
3708.000000	99.759312
3707.000000	99.756058
3706.000000	99.749826
3705.000000	99.741455
3704.000000	99.732949
3703.000000	99.726116
3702.000000	99.720885
3701.000000	99.715496
3700.000000	99.708852
3699.000000	99.701539
3698.000000	99.694888
3697.000000	99.690275
3696.000000	99.688508
3695.000000	99.689265
3694.000000	99.691165
3693.000000	99.692482
3692.000000	99.692064
3691.000000	99.689653
3690.000000	99.685342
3689.000000	99.678908
3688.000000	99.671172
3687.000000	99.664781
3686.000000	99.661298
3685.000000	99.659907
3684.000000	99.659050
3683.000000	99.657530
3682.000000	99.654345
3681.000000	99.648421
3680.000000	99.639060
3679.000000	99.626553
3678.000000	99.613117
3677.000000	99.603482
3676.000000	99.601321
3675.000000	99.603374
3674.000000	99.604237
3673.000000	99.602836
3672.000000	99.598732
3671.000000	99.591665
3670.000000	99.582538
3669.000000	99.572310
3668.000000	99.562776
3667.000000	99.555203
3666.000000	99.548551
3665.000000	99.541856
3664.000000	99.536044
3663.000000	99.532630
3662.000000	99.531838
3661.000000	99.532326
3660.000000	99.532686
3659.000000	99.532355
3658.000000	99.531127
3657.000000	99.528115
3656.000000	99.521980
3655.000000	99.513415
3654.000000	99.505108
3653.000000	99.499106
3652.000000	99.497332
3651.000000	99.502683
3650.000000	99.514606
3649.000000	99.525345
3648.000000	99.528641
3647.000000	99.527576
3646.000000	99.528059
3645.000000	99.531329
3644.000000	99.534351
3643.000000	99.533690
3642.000000	99.528343
3641.000000	99.519293
3640.000000	99.507882
3639.000000	99.494805
3638.000000	99.480290
3637.000000	99.464654
3636.000000	99.448568
3635.000000	99.433060
3634.000000	99.419157
3633.000000	99.407417
3632.000000	99.398092
3631.000000	99.392392
3630.000000	99.392255
3629.000000	99.395020
3628.000000	99.393199
3627.000000	99.386381
3626.000000	99.379473
3625.000000	99.373751
3624.000000	99.368623
3623.000000	99.364852
3622.000000	99.364130
3621.000000	99.367846
3620.000000	99.375668
3619.000000	99.384869
3618.000000	99.393077
3617.000000	99.400828
3616.000000	99.408625
3615.000000	99.414583
3614.000000	99.415725
3613.000000	99.410754
3612.000000	99.402212
3611.000000	99.395810
3610.000000	99.396602
3609.000000	99.405607
3608.000000	99.418673
3607.000000	99.429367
3606.000000	99.433939
3605.000000	99.432453
3604.000000	99.427134
3603.000000	99.421297
3602.000000	99.418264
3601.000000	99.419769
3600.000000	99.424713
3599.000000	99.430277
3598.000000	99.434502
3597.000000	99.437434
3596.000000	99.440063
3595.000000	99.442869
3594.000000	99.445361
3593.000000	99.447048
3592.000000	99.447979
3591.000000	99.448138
3590.000000	99.447379
3589.000000	99.446142
3588.000000	99.445577
3587.000000	99.446465
3586.000000	99.448893
3585.000000	99.452521
3584.000000	99.456479
3583.000000	99.459595
3582.000000	99.461140
3581.000000	99.461232
3580.000000	99.460668
3579.000000	99.460368
3578.000000	99.460798
3577.000000	99.461911
3576.000000	99.463406
3575.000000	99.464982
3574.000000	99.466402
3573.000000	99.467420
3572.000000	99.467860
3571.000000	99.467802
3570.000000	99.467678
3569.000000	99.468081
3568.000000	99.469281
3567.000000	99.470675
3566.000000	99.471208
3565.000000	99.470685
3564.000000	99.470018
3563.000000	99.470404
3562.000000	99.472485
3561.000000	99.475831
3560.000000	99.478947
3559.000000	99.480318
3558.000000	99.479542
3557.000000	99.477373
3556.000000	99.474918
3555.000000	99.472756
3554.000000	99.470855
3553.000000	99.469031
3552.000000	99.467379
3551.000000	99.466346
3550.000000	99.466358
3549.000000	99.467406
3548.000000	99.469051
3547.000000	99.470723
3546.000000	99.471991
3545.000000	99.472645
3544.000000	99.472686
3543.000000	99.472251
3542.000000	99.471494
3541.000000	99.470557
3540.000000	99.469782
3539.000000	99.469782
3538.000000	99.471036
3537.000000	99.473271
3536.000000	99.475315
3535.000000	99.476031
3534.000000	99.475323
3533.000000	99.474077
3532.000000	99.473273
3531.000000	99.473195
3530.000000	99.473413
3529.000000	99.473285
3528.000000	99.472459
3527.000000	99.471119
3526.000000	99.469874
3525.000000	99.469276
3524.000000	99.469342
3523.000000	99.469648
3522.000000	99.469889
3521.000000	99.470211
3520.000000	99.470840
3519.000000	99.471587
3518.000000	99.472007
3517.000000	99.471957
3516.000000	99.471702
3515.000000	99.471643
3514.000000	99.471989
3513.000000	99.472665
3512.000000	99.473374
3511.000000	99.473844
3510.000000	99.474038
3509.000000	99.474112
3508.000000	99.474224
3507.000000	99.474416
3506.000000	99.474611
3505.000000	99.474688
3504.000000	99.474600
3503.000000	99.474455
3502.000000	99.474425
3501.000000	99.474538
3500.000000	99.474644
3499.000000	99.474710
3498.000000	99.475028
3497.000000	99.475966
3496.000000	99.477479
3495.000000	99.478970
3494.000000	99.479810
3493.000000	99.479863
3492.000000	99.479506
3491.000000	99.479326
3490.000000	99.479704
3489.000000	99.480568
3488.000000	99.481377
3487.000000	99.481481
3486.000000	99.480689
3485.000000	99.479531
3484.000000	99.478895
3483.000000	99.479284
3482.000000	99.480468
3481.000000	99.481695
3480.000000	99.482343
3479.000000	99.482394
3478.000000	99.482387
3477.000000	99.482959
3476.000000	99.484269
3475.000000	99.485727
3474.000000	99.486424
3473.000000	99.485947
3472.000000	99.484644
3471.000000	99.483229
3470.000000	99.482199
3469.000000	99.481610
3468.000000	99.481261
3467.000000	99.480861
3466.000000	99.480115
3465.000000	99.478839
3464.000000	99.477105
3463.000000	99.475281
3462.000000	99.473899
3461.000000	99.473345
3460.000000	99.473615
3459.000000	99.474293
3458.000000	99.474748
3457.000000	99.474549
3456.000000	99.473695
3455.000000	99.472559
3454.000000	99.471648
3453.000000	99.471238
3452.000000	99.471239
3451.000000	99.471335
3450.000000	99.471219
3449.000000	99.470784
3448.000000	99.470138
3447.000000	99.469537
3446.000000	99.469222
3445.000000	99.469224
3444.000000	99.469347
3443.000000	99.469324
3442.000000	99.469063
3441.000000	99.468700
3440.000000	99.468448
3439.000000	99.468386
3438.000000	99.468431
3437.000000	99.468439
3436.000000	99.468293
3435.000000	99.467930
3434.000000	99.467370
3433.000000	99.466779
3432.000000	99.466409
3431.000000	99.466411
3430.000000	99.466730
3429.000000	99.467175
3428.000000	99.467608
3427.000000	99.468008
3426.000000	99.468380
3425.000000	99.468707
3424.000000	99.469020
3423.000000	99.469475
3422.000000	99.470229
3421.000000	99.471186
3420.000000	99.471938
3419.000000	99.472125
3418.000000	99.471837
3417.000000	99.471622
3416.000000	99.471913
3415.000000	99.472488
3414.000000	99.472667
3413.000000	99.472143
3412.000000	99.471438
3411.000000	99.471329
3410.000000	99.472000
3409.000000	99.472955
3408.000000	99.473802
3407.000000	99.474772
3406.000000	99.476174
3405.000000	99.477673
3404.000000	99.478542
3403.000000	99.478536
3402.000000	99.478131
3401.000000	99.477836
3400.000000	99.477626
3399.000000	99.477246
3398.000000	99.476595
3397.000000	99.475608
3396.000000	99.474103
3395.000000	99.472067
3394.000000	99.470018
3393.000000	99.468901
3392.000000	99.469434
3391.000000	99.471494
3390.000000	99.474054
3389.000000	99.475748
3388.000000	99.475858
3387.000000	99.474815
3386.000000	99.473765
3385.000000	99.473512
3384.000000	99.473912
3383.000000	99.474366
3382.000000	99.474693
3381.000000	99.475194
3380.000000	99.475909
3379.000000	99.476260
3378.000000	99.475715
3377.000000	99.474558
3376.000000	99.473627
3375.000000	99.473179
3374.000000	99.472397
3373.000000	99.470297
3372.000000	99.467109
3371.000000	99.464429
3370.000000	99.463689
3369.000000	99.464727
3368.000000	99.466155
3367.000000	99.467042
3366.000000	99.467739
3365.000000	99.468880
3364.000000	99.470250
3363.000000	99.471170
3362.000000	99.471634
3361.000000	99.472469
3360.000000	99.474324
3359.000000	99.476897
3358.000000	99.479093
3357.000000	99.479748
3356.000000	99.478420
3355.000000	99.476030
3354.000000	99.474696
3353.000000	99.476153
3352.000000	99.480040
3351.000000	99.483914
3350.000000	99.485527
3349.000000	99.484797
3348.000000	99.483520
3347.000000	99.483530
3346.000000	99.485455
3345.000000	99.488777
3344.000000	99.492236
3343.000000	99.494360
3342.000000	99.494325
3341.000000	99.492490
3340.000000	99.489796
3339.000000	99.486581
3338.000000	99.482479
3337.000000	99.477620
3336.000000	99.473370
3335.000000	99.471409
3334.000000	99.472256
3333.000000	99.474899
3332.000000	99.477634
3331.000000	99.479232
3330.000000	99.479488
3329.000000	99.479059
3328.000000	99.479013
3327.000000	99.480252
3326.000000	99.482932
3325.000000	99.486260
3324.000000	99.488962
3323.000000	99.490289
3322.000000	99.490554
3321.000000	99.490565
3320.000000	99.490576
3319.000000	99.490077
3318.000000	99.488712
3317.000000	99.487031
3316.000000	99.486003
3315.000000	99.485915
3314.000000	99.486078
3313.000000	99.485669
3312.000000	99.484694
3311.000000	99.484099
3310.000000	99.484942
3309.000000	99.487441
3308.000000	99.490690
3307.000000	99.493178
3306.000000	99.493960
3305.000000	99.493290
3304.000000	99.492257
3303.000000	99.491888
3302.000000	99.492500
3301.000000	99.493859
3300.000000	99.495477
3299.000000	99.496683
3298.000000	99.496871
3297.000000	99.495969
3296.000000	99.494638
3295.000000	99.493738
3294.000000	99.493511
3293.000000	99.493604
3292.000000	99.493764
3291.000000	99.494172
3290.000000	99.494974
3289.000000	99.495823
3288.000000	99.496165
3287.000000	99.495917
3286.000000	99.495601
3285.000000	99.495744
3284.000000	99.496381
3283.000000	99.497180
3282.000000	99.497903
3281.000000	99.498594
3280.000000	99.499324
3279.000000	99.499964
3278.000000	99.500319
3277.000000	99.500424
3276.000000	99.500564
3275.000000	99.500922
3274.000000	99.501272
3273.000000	99.501177
3272.000000	99.500521
3271.000000	99.499697
3270.000000	99.499182
3269.000000	99.499019
3268.000000	99.498824
3267.000000	99.498308
3266.000000	99.497695
3265.000000	99.497557
3264.000000	99.498307
3263.000000	99.499869
3262.000000	99.501756
3261.000000	99.503427
3260.000000	99.504553
3259.000000	99.505071
3258.000000	99.505132
3257.000000	99.504948
3256.000000	99.504692
3255.000000	99.504497
3254.000000	99.504478
3253.000000	99.504711
3252.000000	99.505179
3251.000000	99.505765
3250.000000	99.506290
3249.000000	99.506609
3248.000000	99.506697
3247.000000	99.506651
3246.000000	99.506643
3245.000000	99.506816
3244.000000	99.507193
3243.000000	99.507674
3242.000000	99.508104
3241.000000	99.508380
3240.000000	99.508515
3239.000000	99.508599
3238.000000	99.508739
3237.000000	99.508985
3236.000000	99.509327
3235.000000	99.509721
3234.000000	99.510113
3233.000000	99.510477
3232.000000	99.510822
3231.000000	99.511185
3230.000000	99.511605
3229.000000	99.512085
3228.000000	99.512595
3227.000000	99.513089
3226.000000	99.513543
3225.000000	99.513965
3224.000000	99.514375
3223.000000	99.514785
3222.000000	99.515195
3221.000000	99.515612
3220.000000	99.516057
3219.000000	99.516528
3218.000000	99.516976
3217.000000	99.517334
3216.000000	99.517586
3215.000000	99.517785
3214.000000	99.518005
3213.000000	99.518281
3212.000000	99.518624
3211.000000	99.519051
3210.000000	99.519590
3209.000000	99.520233
3208.000000	99.520907
3207.000000	99.521531
3206.000000	99.522102
3205.000000	99.522706
3204.000000	99.523421
3203.000000	99.524215
3202.000000	99.524936
3201.000000	99.525474
3200.000000	99.525875
3199.000000	99.526315
3198.000000	99.526928
3197.000000	99.527696
3196.000000	99.528496
3195.000000	99.529252
3194.000000	99.529976
3193.000000	99.530691
3192.000000	99.531356
3191.000000	99.531904
3190.000000	99.532336
3189.000000	99.532738
3188.000000	99.533232
3187.000000	99.533945
3186.000000	99.534949
3185.000000	99.536174
3184.000000	99.537411
3183.000000	99.538453
3182.000000	99.539271
3181.000000	99.539992
3180.000000	99.540784
3179.000000	99.541696
3178.000000	99.542652
3177.000000	99.543559
3176.000000	99.544421
3175.000000	99.545320
3174.000000	99.546337
3173.000000	99.547477
3172.000000	99.548675
3171.000000	99.549833
3170.000000	99.550884
3169.000000	99.551825
3168.000000	99.552698
3167.000000	99.553551
3166.000000	99.554420
3165.000000	99.555317
3164.000000	99.556229
3163.000000	99.557130
3162.000000	99.558005
3161.000000	99.558858
3160.000000	99.559712
3159.000000	99.560591
3158.000000	99.561507
3157.000000	99.562450
3156.000000	99.563405
3155.000000	99.564359
3154.000000	99.565308
3153.000000	99.566249
3152.000000	99.567183
3151.000000	99.568113
3150.000000	99.569045
3149.000000	99.569984
3148.000000	99.570927
3147.000000	99.571866
3146.000000	99.572790
3145.000000	99.573692
3144.000000	99.574572
3143.000000	99.575431
3142.000000	99.576277
3141.000000	99.577117
3140.000000	99.577961
3139.000000	99.578815
3138.000000	99.579683
3137.000000	99.580569
3136.000000	99.581479
3135.000000	99.582414
3134.000000	99.583366
3133.000000	99.584316
3132.000000	99.585245
3131.000000	99.586144
3130.000000	99.587022
3129.000000	99.587900
3128.000000	99.588799
3127.000000	99.589735
3126.000000	99.590712
3125.000000	99.591726
3124.000000	99.592766
3123.000000	99.593818
3122.000000	99.594874
3121.000000	99.595933
3120.000000	99.597010
3119.000000	99.598123
3118.000000	99.599280
3117.000000	99.600468
3116.000000	99.601664
3115.000000	99.602848
3114.000000	99.604014
3113.000000	99.605167
3112.000000	99.606314
3111.000000	99.607462
3110.000000	99.608623
3109.000000	99.609809
3108.000000	99.611002
3107.000000	99.612153
3106.000000	99.613226
3105.000000	99.614246
3104.000000	99.615280
3103.000000	99.616378
3102.000000	99.617556
3101.000000	99.618812
3100.000000	99.620141
3099.000000	99.621513
3098.000000	99.622877
3097.000000	99.624189
3096.000000	99.625423
3095.000000	99.626573
3094.000000	99.627656
3093.000000	99.628706
3092.000000	99.629765
3091.000000	99.630864
3090.000000	99.632009
3089.000000	99.633184
3088.000000	99.634354
3087.000000	99.635498
3086.000000	99.636629
3085.000000	99.637776
3084.000000	99.638938
3083.000000	99.640083
3082.000000	99.641181
3081.000000	99.642234
3080.000000	99.643264
3079.000000	99.644294
3078.000000	99.645329
3077.000000	99.646356
3076.000000	99.647361
3075.000000	99.648336
3074.000000	99.649284
3073.000000	99.650209
3072.000000	99.651117
3071.000000	99.652007
3070.000000	99.652878
3069.000000	99.653729
3068.000000	99.654569
3067.000000	99.655409
3066.000000	99.656258
3065.000000	99.657117
3064.000000	99.657978
3063.000000	99.658830
3062.000000	99.659665
3061.000000	99.660486
3060.000000	99.661304
3059.000000	99.662132
3058.000000	99.662979
3057.000000	99.663845
3056.000000	99.664724
3055.000000	99.665611
3054.000000	99.666503
3053.000000	99.667402
3052.000000	99.668299
3051.000000	99.669175
3050.000000	99.670018
3049.000000	99.670837
3048.000000	99.671666
3047.000000	99.672522
3046.000000	99.673401
3045.000000	99.674281
3044.000000	99.675132
3043.000000	99.675932
3042.000000	99.676683
3041.000000	99.677437
3040.000000	99.678265
3039.000000	99.679195
3038.000000	99.680201
3037.000000	99.681215
3036.000000	99.682182
3035.000000	99.683088
3034.000000	99.683964
3033.000000	99.684865
3032.000000	99.685832
3031.000000	99.686877
3030.000000	99.687987
3029.000000	99.689152
3028.000000	99.690359
3027.000000	99.691595
3026.000000	99.692859
3025.000000	99.694157
3024.000000	99.695477
3023.000000	99.696776
3022.000000	99.698030
3021.000000	99.699273
3020.000000	99.700581
3019.000000	99.702006
3018.000000	99.703538
3017.000000	99.705116
3016.000000	99.706748
3015.000000	99.708541
3014.000000	99.710514
3013.000000	99.712459
3012.000000	99.714144
3011.000000	99.715626
3010.000000	99.717239
3009.000000	99.719208
3008.000000	99.721344
3007.000000	99.723112
3006.000000	99.724055
3005.000000	99.724305
3004.000000	99.724774
3003.000000	99.726542
3002.000000	99.729950
3001.000000	99.734171
3000.000000	99.737745
2999.000000	99.739799
2998.000000	99.740600
2997.000000	99.741112
2996.000000	99.742056
2995.000000	99.743497
2994.000000	99.745369
2993.000000	99.747982
2992.000000	99.751600
2991.000000	99.755713
2990.000000	99.759198
2989.000000	99.761362
2988.000000	99.762404
2987.000000	99.762723
2986.000000	99.762440
2985.000000	99.762108
2984.000000	99.763377
2983.000000	99.767861
2982.000000	99.775331
2981.000000	99.783575
2980.000000	99.790521
2979.000000	99.795978
2978.000000	99.800748
2977.000000	99.804680
2976.000000	99.806597
2975.000000	99.806107
2974.000000	99.804575
2973.000000	99.803893
2972.000000	99.804659
2971.000000	99.806069
2970.000000	99.807247
2969.000000	99.807993
2968.000000	99.808272
2967.000000	99.807760
2966.000000	99.806437
2965.000000	99.805262
2964.000000	99.805655
2963.000000	99.808315
2962.000000	99.812861
2961.000000	99.818306
2960.000000	99.823277
2959.000000	99.826302
2958.000000	99.826903
2957.000000	99.826381
2956.000000	99.826713
2955.000000	99.828401
2954.000000	99.830046
2953.000000	99.830326
2952.000000	99.829934
2951.000000	99.831201
2950.000000	99.835770
2949.000000	99.842435
2948.000000	99.847327
2947.000000	99.847175
2946.000000	99.843236
2945.000000	99.841088
2944.000000	99.845093
2943.000000	99.853535
2942.000000	99.860553
2941.000000	99.863056
2940.000000	99.863780
2939.000000	99.867084
2938.000000	99.873928
2937.000000	99.882254
2936.000000	99.890367
2935.000000	99.897936
2934.000000	99.904573
2933.000000	99.909581
2932.000000	99.913143
2931.000000	99.916419
2930.000000	99.920400
2929.000000	99.925422
2928.000000	99.931278
2927.000000	99.936699
2926.000000	99.939128
2925.000000	99.936411
2924.000000	99.929022
2923.000000	99.920258
2922.000000	99.914380
2921.000000	99.914315
2920.000000	99.919761
2919.000000	99.926286
2918.000000	99.927630
2917.000000	99.920918
2916.000000	99.909705
2915.000000	99.900918
2914.000000	99.898211
2913.000000	99.899485
2912.000000	99.900268
2911.000000	99.897842
2910.000000	99.892040
2909.000000	99.884099
2908.000000	99.875896
2907.000000	99.869349
2906.000000	99.865311
2905.000000	99.863343
2904.000000	99.862945
2903.000000	99.864278
2902.000000	99.867047
2901.000000	99.869548
2900.000000	99.869633
2899.000000	99.867011
2898.000000	99.863372
2897.000000	99.860381
2896.000000	99.858121
2895.000000	99.855672
2894.000000	99.852575
2893.000000	99.849283
2892.000000	99.846386
2891.000000	99.843895
2890.000000	99.841419
2889.000000	99.838794
2888.000000	99.836396
2887.000000	99.834930
2886.000000	99.835005
2885.000000	99.836706
2884.000000	99.839330
2883.000000	99.841675
2882.000000	99.842901
2881.000000	99.843150
2880.000000	99.843211
2879.000000	99.843767
2878.000000	99.845291
2877.000000	99.848232
2876.000000	99.852443
2875.000000	99.856401
2874.000000	99.857865
2873.000000	99.855757
2872.000000	99.850842
2871.000000	99.844734
2870.000000	99.839289
2869.000000	99.837112
2868.000000	99.840833
2867.000000	99.850354
2866.000000	99.861485
2865.000000	99.869099
2864.000000	99.871916
2863.000000	99.873140
2862.000000	99.876482
2861.000000	99.882557
2860.000000	99.889255
2859.000000	99.894574
2858.000000	99.898521
2857.000000	99.902704
2856.000000	99.908439
2855.000000	99.915015
2854.000000	99.919892
2853.000000	99.920895
2852.000000	99.917875
2851.000000	99.912063
2850.000000	99.904328
2849.000000	99.894788
2848.000000	99.883973
2847.000000	99.873541
2846.000000	99.865563
2845.000000	99.861235
2844.000000	99.859896
2843.000000	99.859146
2842.000000	99.856702
2841.000000	99.852794
2840.000000	99.849950
2839.000000	99.849566
2838.000000	99.849528
2837.000000	99.846587
2836.000000	99.840590
2835.000000	99.834744
2834.000000	99.831620
2833.000000	99.830564
2832.000000	99.829536
2831.000000	99.828116
2830.000000	99.827678
2829.000000	99.829317
2828.000000	99.832569
2827.000000	99.835826
2826.000000	99.837365
2825.000000	99.836230
2824.000000	99.832664
2823.000000	99.827953
2822.000000	99.823818
2821.000000	99.821766
2820.000000	99.822503
2819.000000	99.825468
2818.000000	99.829042
2817.000000	99.831807
2816.000000	99.833610
2815.000000	99.835149
2814.000000	99.836930
2813.000000	99.839156
2812.000000	99.842088
2811.000000	99.845528
2810.000000	99.848059
2809.000000	99.847935
2808.000000	99.845022
2807.000000	99.841342
2806.000000	99.839262
2805.000000	99.839337
2804.000000	99.840274
2803.000000	99.840637
2802.000000	99.840229
2801.000000	99.840081
2800.000000	99.841435
2799.000000	99.844558
2798.000000	99.848190
2797.000000	99.850310
2796.000000	99.849822
2795.000000	99.847398
2794.000000	99.844743
2793.000000	99.843162
2792.000000	99.842949
2791.000000	99.843736
2790.000000	99.844777
2789.000000	99.845016
2788.000000	99.843579
2787.000000	99.840646
2786.000000	99.837735
2785.000000	99.836731
2784.000000	99.838525
2783.000000	99.842573
2782.000000	99.847497
2781.000000	99.852090
2780.000000	99.855793
2779.000000	99.858498
2778.000000	99.860322
2777.000000	99.861646
2776.000000	99.862961
2775.000000	99.864298
2774.000000	99.865034
2773.000000	99.864785
2772.000000	99.864354
2771.000000	99.865142
2770.000000	99.867345
2769.000000	99.869326
2768.000000	99.869327
2767.000000	99.867350
2766.000000	99.865017
2765.000000	99.863810
2764.000000	99.863917
2763.000000	99.864766
2762.000000	99.865885
2761.000000	99.867038
2760.000000	99.868082
2759.000000	99.869074
2758.000000	99.870289
2757.000000	99.871825
2756.000000	99.873316
2755.000000	99.874276
2754.000000	99.874632
2753.000000	99.874718
2752.000000	99.874860
2751.000000	99.875139
2750.000000	99.875518
2749.000000	99.876044
2748.000000	99.876855
2747.000000	99.878011
2746.000000	99.879294
2745.000000	99.880260
2744.000000	99.880662
2743.000000	99.880758
2742.000000	99.881050
2741.000000	99.881753
2740.000000	99.882609
2739.000000	99.883195
2738.000000	99.883387
2737.000000	99.883451
2736.000000	99.883631
2735.000000	99.883837
2734.000000	99.883900
2733.000000	99.883919
2732.000000	99.884138
2731.000000	99.884593
2730.000000	99.885107
2729.000000	99.885577
2728.000000	99.886044
2727.000000	99.886512
2726.000000	99.886988
2725.000000	99.887678
2724.000000	99.888762
2723.000000	99.889981
2722.000000	99.890798
2721.000000	99.891165
2720.000000	99.891773
2719.000000	99.893218
2718.000000	99.895100
2717.000000	99.896317
2716.000000	99.896266
2715.000000	99.895330
2714.000000	99.894407
2713.000000	99.894128
2712.000000	99.894567
2711.000000	99.895364
2710.000000	99.895929
2709.000000	99.895791
2708.000000	99.894952
2707.000000	99.893934
2706.000000	99.893399
2705.000000	99.893687
2704.000000	99.894614
2703.000000	99.895601
2702.000000	99.896115
2701.000000	99.896127
2700.000000	99.896087
2699.000000	99.896328
2698.000000	99.896648
2697.000000	99.896723
2696.000000	99.896794
2695.000000	99.897511
2694.000000	99.899090
2693.000000	99.901025
2692.000000	99.902679
2691.000000	99.903880
2690.000000	99.904724
2689.000000	99.905115
2688.000000	99.904875
2687.000000	99.904239
2686.000000	99.903921
2685.000000	99.904474
2684.000000	99.905716
2683.000000	99.906855
2682.000000	99.907295
2681.000000	99.907231
2680.000000	99.907379
2679.000000	99.908099
2678.000000	99.908923
2677.000000	99.909084
2676.000000	99.908398
2675.000000	99.907448
2674.000000	99.906929
2673.000000	99.907002
2672.000000	99.907308
2671.000000	99.907447
2670.000000	99.907364
2669.000000	99.907353
2668.000000	99.907729
2667.000000	99.908461
2666.000000	99.909110
2665.000000	99.909253
2664.000000	99.909030
2663.000000	99.909104
2662.000000	99.909985
2661.000000	99.911488
2660.000000	99.912847
2659.000000	99.913375
2658.000000	99.912952
2657.000000	99.911978
2656.000000	99.911065
2655.000000	99.910663
2654.000000	99.910894
2653.000000	99.911598
2652.000000	99.912499
2651.000000	99.913384
2650.000000	99.914179
2649.000000	99.914950
2648.000000	99.915827
2647.000000	99.916758
2646.000000	99.917299
2645.000000	99.916900
2644.000000	99.915579
2643.000000	99.914101
2642.000000	99.913202
2641.000000	99.912718
2640.000000	99.911894
2639.000000	99.910465
2638.000000	99.909126
2637.000000	99.908790
2636.000000	99.909606
2635.000000	99.910800
2634.000000	99.911296
2633.000000	99.910575
2632.000000	99.909046
2631.000000	99.907756
2630.000000	99.907508
2629.000000	99.908189
2628.000000	99.908992
2627.000000	99.909242
2626.000000	99.908832
2625.000000	99.907900
2624.000000	99.906536
2623.000000	99.905020
2622.000000	99.903953
2621.000000	99.903652
2620.000000	99.903642
2619.000000	99.903281
2618.000000	99.902844
2617.000000	99.903335
2616.000000	99.905033
2615.000000	99.906833
2614.000000	99.907511
2613.000000	99.907185
2612.000000	99.907013
2611.000000	99.907704
2610.000000	99.908882
2609.000000	99.909908
2608.000000	99.910739
2607.000000	99.911611
2606.000000	99.912289
2605.000000	99.912161
2604.000000	99.911002
2603.000000	99.909230
2602.000000	99.907478
2601.000000	99.906194
2600.000000	99.905689
2599.000000	99.906186
2598.000000	99.907484
2597.000000	99.908718
2596.000000	99.908831
2595.000000	99.907403
2594.000000	99.905030
2593.000000	99.902978
2592.000000	99.902257
2591.000000	99.903007
2590.000000	99.904530
2589.000000	99.905995
2588.000000	99.907267
2587.000000	99.908790
2586.000000	99.910691
2585.000000	99.912321
2584.000000	99.912976
2583.000000	99.912823
2582.000000	99.912678
2581.000000	99.912891
2580.000000	99.912934
2579.000000	99.912341
2578.000000	99.911596
2577.000000	99.911655
2576.000000	99.912725
2575.000000	99.913925
2574.000000	99.914184
2573.000000	99.913197
2572.000000	99.911482
2571.000000	99.909797
2570.000000	99.908721
2569.000000	99.908514
2568.000000	99.909055
2567.000000	99.909862
2566.000000	99.910445
2565.000000	99.910808
2564.000000	99.911485
2563.000000	99.912948
2562.000000	99.915012
2561.000000	99.916827
2560.000000	99.917616
2559.000000	99.917324
2558.000000	99.916474
2557.000000	99.915544
2556.000000	99.914604
2555.000000	99.913604
2554.000000	99.912748
2553.000000	99.912374
2552.000000	99.912584
2551.000000	99.913183
2550.000000	99.913921
2549.000000	99.914621
2548.000000	99.915109
2547.000000	99.915212
2546.000000	99.914903
2545.000000	99.914360
2544.000000	99.913824
2543.000000	99.913418
2542.000000	99.913157
2541.000000	99.913072
2540.000000	99.913237
2539.000000	99.913661
2538.000000	99.914246
2537.000000	99.914838
2536.000000	99.915289
2535.000000	99.915479
2534.000000	99.915375
2533.000000	99.915085
2532.000000	99.914836
2531.000000	99.914829
2530.000000	99.915078
2529.000000	99.915437
2528.000000	99.915702
2527.000000	99.915800
2526.000000	99.915819
2525.000000	99.915889
2524.000000	99.916041
2523.000000	99.916184
2522.000000	99.916225
2521.000000	99.916170
2520.000000	99.916138
2519.000000	99.916242
2518.000000	99.916508
2517.000000	99.916895
2516.000000	99.917324
2515.000000	99.917709
2514.000000	99.917994
2513.000000	99.918212
2512.000000	99.918474
2511.000000	99.918847
2510.000000	99.919252
2509.000000	99.919545
2508.000000	99.919683
2507.000000	99.919734
2506.000000	99.919790
2505.000000	99.919878
2504.000000	99.919998
2503.000000	99.920168
2502.000000	99.920422
2501.000000	99.920787
2500.000000	99.921250
2499.000000	99.921753
2498.000000	99.922227
2497.000000	99.922643
2496.000000	99.923019
2495.000000	99.923383
2494.000000	99.923744
2493.000000	99.924098
2492.000000	99.924446
2491.000000	99.924797
2490.000000	99.925161
2489.000000	99.925546
2488.000000	99.925949
2487.000000	99.926361
2486.000000	99.926784
2485.000000	99.927227
2484.000000	99.927689
2483.000000	99.928161
2482.000000	99.928633
2481.000000	99.929101
2480.000000	99.929572
2479.000000	99.930056
2478.000000	99.930557
2477.000000	99.931071
2476.000000	99.931593
2475.000000	99.932113
2474.000000	99.932630
2473.000000	99.933149
2472.000000	99.933680
2471.000000	99.934233
2470.000000	99.934809
2469.000000	99.935399
2468.000000	99.935995
2467.000000	99.936601
2466.000000	99.937228
2465.000000	99.937882
2464.000000	99.938576
2463.000000	99.939321
2462.000000	99.940099
2461.000000	99.940867
2460.000000	99.941594
2459.000000	99.942286
2458.000000	99.942977
2457.000000	99.943668
2456.000000	99.944286
2455.000000	99.944741
2454.000000	99.945037
2453.000000	99.945298
2452.000000	99.945619
2451.000000	99.945981
2450.000000	99.946410
2449.000000	99.947157
2448.000000	99.948498
2447.000000	99.950363
2446.000000	99.952297
2445.000000	99.953858
2444.000000	99.954935
2443.000000	99.955614
2442.000000	99.956026
2441.000000	99.956464
2440.000000	99.957410
2439.000000	99.959094
2438.000000	99.961026
2437.000000	99.962310
2436.000000	99.962556
2435.000000	99.962277
2434.000000	99.962360
2433.000000	99.963167
2432.000000	99.964244
2431.000000	99.964813
2430.000000	99.964535
2429.000000	99.963881
2428.000000	99.963735
2427.000000	99.964546
2426.000000	99.965963
2425.000000	99.967356
2424.000000	99.968470
2423.000000	99.969347
2422.000000	99.969841
2421.000000	99.969771
2420.000000	99.969470
2419.000000	99.969594
2418.000000	99.970256
2417.000000	99.970824
2416.000000	99.970732
2415.000000	99.970120
2414.000000	99.969496
2413.000000	99.969096
2412.000000	99.968866
2411.000000	99.968775
2410.000000	99.968871
2409.000000	99.969157
2408.000000	99.969562
2407.000000	99.970000
2406.000000	99.970404
2405.000000	99.970668
2404.000000	99.970612
2403.000000	99.970108
2402.000000	99.969309
2401.000000	99.968688
2400.000000	99.968745
2399.000000	99.969523
2398.000000	99.970386
2397.000000	99.970664
2396.000000	99.970307
2395.000000	99.969869
2394.000000	99.969875
2393.000000	99.970305
2392.000000	99.970743
2391.000000	99.970959
2390.000000	99.971089
2389.000000	99.971219
2388.000000	99.971140
2387.000000	99.970666
2386.000000	99.970028
2385.000000	99.969734
2384.000000	99.970073
2383.000000	99.970896
2382.000000	99.971850
2381.000000	99.972698
2380.000000	99.973343
2379.000000	99.973610
2378.000000	99.973159
2377.000000	99.971758
2376.000000	99.969678
2375.000000	99.967753
2374.000000	99.966904
2373.000000	99.967553
2372.000000	99.969565
2371.000000	99.972399
2370.000000	99.975170
2369.000000	99.976885
2368.000000	99.977037
2367.000000	99.976084
2366.000000	99.974976
2365.000000	99.974135
2364.000000	99.973273
2363.000000	99.972103
2362.000000	99.970737
2361.000000	99.969584
2360.000000	99.969164
2359.000000	99.969636
2358.000000	99.970230
2357.000000	99.969698
2356.000000	99.967731
2355.000000	99.965492
2354.000000	99.964393
2353.000000	99.964624
2352.000000	99.965521
2351.000000	99.966629
2350.000000	99.967880
2349.000000	99.969059
2348.000000	99.969755
2347.000000	99.969753
2346.000000	99.969273
2345.000000	99.968787
2344.000000	99.968533
2343.000000	99.968408
2342.000000	99.968310
2341.000000	99.968237
2340.000000	99.968170
2339.000000	99.968108
2338.000000	99.968144
2337.000000	99.968320
2336.000000	99.968489
2335.000000	99.968464
2334.000000	99.968254
2333.000000	99.968065
2332.000000	99.968070
2331.000000	99.968249
2330.000000	99.968435
2329.000000	99.968444
2328.000000	99.968243
2327.000000	99.967964
2326.000000	99.967798
2325.000000	99.967808
2324.000000	99.967881
2323.000000	99.967874
2322.000000	99.967836
2321.000000	99.967985
2320.000000	99.968400
2319.000000	99.968802
2318.000000	99.968824
2317.000000	99.968403
2316.000000	99.967825
2315.000000	99.967374
2314.000000	99.967152
2313.000000	99.967216
2312.000000	99.967580
2311.000000	99.967936
2310.000000	99.967719
2309.000000	99.966651
2308.000000	99.965028
2307.000000	99.963481
2306.000000	99.962358
2305.000000	99.961604
2304.000000	99.961095
2303.000000	99.960779
2302.000000	99.960462
2301.000000	99.959792
2300.000000	99.958712
2299.000000	99.957715
2298.000000	99.957284
2297.000000	99.957101
2296.000000	99.956184
2295.000000	99.953913
2294.000000	99.950626
2293.000000	99.947147
2292.000000	99.943991
2291.000000	99.941281
2290.000000	99.939211
2289.000000	99.938071
2288.000000	99.937730
2287.000000	99.937587
2286.000000	99.937203
2285.000000	99.936612
2284.000000	99.935863
2283.000000	99.934601
2282.000000	99.932464
2281.000000	99.929752
2280.000000	99.927253
2279.000000	99.925346
2278.000000	99.923654
2277.000000	99.921752
2276.000000	99.919956
2275.000000	99.918980
2274.000000	99.918848
2273.000000	99.918666
2272.000000	99.917487
2271.000000	99.915310
2270.000000	99.913109
2269.000000	99.911934
2268.000000	99.912074
2267.000000	99.912988
2266.000000	99.913642
2265.000000	99.913204
2264.000000	99.911520
2263.000000	99.909151
2262.000000	99.906946
2261.000000	99.905384
2260.000000	99.904397
2259.000000	99.903700
2258.000000	99.903061
2257.000000	99.902353
2256.000000	99.901559
2255.000000	99.900832
2254.000000	99.900364
2253.000000	99.900109
2252.000000	99.899751
2251.000000	99.899059
2250.000000	99.898208
2249.000000	99.897584
2248.000000	99.897349
2247.000000	99.897411
2246.000000	99.897626
2245.000000	99.897886
2244.000000	99.898057
2243.000000	99.898058
2242.000000	99.897992
2241.000000	99.898055
2240.000000	99.898241
2239.000000	99.898301
2238.000000	99.898061
2237.000000	99.897647
2236.000000	99.897330
2235.000000	99.897225
2234.000000	99.897200
2233.000000	99.897088
2232.000000	99.896928
2231.000000	99.896955
2230.000000	99.897329
2229.000000	99.897919
2228.000000	99.898351
2227.000000	99.898388
2226.000000	99.898100
2225.000000	99.897773
2224.000000	99.897610
2223.000000	99.897594
2222.000000	99.897638
2221.000000	99.897730
2220.000000	99.897898
2219.000000	99.898101
2218.000000	99.898235
2217.000000	99.898217
2216.000000	99.898016
2215.000000	99.897670
2214.000000	99.897330
2213.000000	99.897227
2212.000000	99.897499
2211.000000	99.898060
2210.000000	99.898656
2209.000000	99.899082
2208.000000	99.899310
2207.000000	99.899441
2206.000000	99.899599
2205.000000	99.899853
2204.000000	99.900198
2203.000000	99.900604
2202.000000	99.901026
2201.000000	99.901367
2200.000000	99.901484
2199.000000	99.901330
2198.000000	99.901075
2197.000000	99.901009
2196.000000	99.901235
2195.000000	99.901576
2194.000000	99.901789
2193.000000	99.901911
2192.000000	99.902193
2191.000000	99.902717
2190.000000	99.903245
2189.000000	99.903508
2188.000000	99.903443
2187.000000	99.903133
2186.000000	99.902700
2185.000000	99.902330
2184.000000	99.902287
2183.000000	99.902694
2182.000000	99.903433
2181.000000	99.904290
2180.000000	99.905128
2179.000000	99.905884
2178.000000	99.906474
2177.000000	99.906810
2176.000000	99.906884
2175.000000	99.906802
2174.000000	99.906751
2173.000000	99.906912
2172.000000	99.907337
2171.000000	99.907906
2170.000000	99.908410
2169.000000	99.908752
2168.000000	99.909025
2167.000000	99.909392
2166.000000	99.909902
2165.000000	99.910446
2164.000000	99.910896
2163.000000	99.911238
2162.000000	99.911551
2161.000000	99.911884
2160.000000	99.912183
2159.000000	99.912374
2158.000000	99.912473
2157.000000	99.912605
2156.000000	99.912888
2155.000000	99.913319
2154.000000	99.913819
2153.000000	99.914359
2152.000000	99.914969
2151.000000	99.915628
2150.000000	99.916253
2149.000000	99.916804
2148.000000	99.917321
2147.000000	99.917851
2146.000000	99.918422
2145.000000	99.919029
2144.000000	99.919654
2143.000000	99.920281
2142.000000	99.920899
2141.000000	99.921504
2140.000000	99.922095
2139.000000	99.922681
2138.000000	99.923273
2137.000000	99.923882
2136.000000	99.924516
2135.000000	99.925180
2134.000000	99.925874
2133.000000	99.926592
2132.000000	99.927324
2131.000000	99.928053
2130.000000	99.928774
2129.000000	99.929488
2128.000000	99.930200
2127.000000	99.930918
2126.000000	99.931643
2125.000000	99.932373
2124.000000	99.933106
2123.000000	99.933838
2122.000000	99.934570
2121.000000	99.935301
2120.000000	99.936034
2119.000000	99.936770
2118.000000	99.937513
2117.000000	99.938267
2116.000000	99.939028
2115.000000	99.939787
2114.000000	99.940531
2113.000000	99.941257
2112.000000	99.941967
2111.000000	99.942670
2110.000000	99.943367
2109.000000	99.944052
2108.000000	99.944718
2107.000000	99.945360
2106.000000	99.945974
2105.000000	99.946556
2104.000000	99.947114
2103.000000	99.947662
2102.000000	99.948209
2101.000000	99.948764
2100.000000	99.949328
2099.000000	99.949894
2098.000000	99.950443
2097.000000	99.950970
2096.000000	99.951539
2095.000000	99.952258
2094.000000	99.953145
2093.000000	99.954029
2092.000000	99.954621
2091.000000	99.954700
2090.000000	99.954335
2089.000000	99.953931
2088.000000	99.953920
2087.000000	99.954407
2086.000000	99.955192
2085.000000	99.956038
2084.000000	99.956758
2083.000000	99.957076
2082.000000	99.956762
2081.000000	99.956048
2080.000000	99.955606
2079.000000	99.955899
2078.000000	99.956784
2077.000000	99.957906
2076.000000	99.959245
2075.000000	99.960885
2074.000000	99.962408
2073.000000	99.963026
2072.000000	99.962523
2071.000000	99.961716
2070.000000	99.961577
2069.000000	99.961979
2068.000000	99.961747
2067.000000	99.960067
2066.000000	99.957555
2065.000000	99.955726
2064.000000	99.955686
2063.000000	99.957694
2062.000000	99.961534
2061.000000	99.966425
2060.000000	99.970680
2059.000000	99.972662
2058.000000	99.972550
2057.000000	99.972195
2056.000000	99.972610
2055.000000	99.972400
2054.000000	99.969608
2053.000000	99.964457
2052.000000	99.959249
2051.000000	99.955641
2050.000000	99.953132
2049.000000	99.950513
2048.000000	99.947865
2047.000000	99.946563
2046.000000	99.947561
2045.000000	99.949925
2044.000000	99.951192
2043.000000	99.949529
2042.000000	99.945525
2041.000000	99.941366
2040.000000	99.937953
2039.000000	99.933808
2038.000000	99.927529
2037.000000	99.920234
2036.000000	99.914475
2035.000000	99.911412
2034.000000	99.910415
2033.000000	99.910767
2032.000000	99.912173
2031.000000	99.913774
2030.000000	99.914328
2029.000000	99.913730
2028.000000	99.913111
2027.000000	99.913144
2026.000000	99.913400
2025.000000	99.913517
2024.000000	99.913660
2023.000000	99.913498
2022.000000	99.912179
2021.000000	99.909985
2020.000000	99.908645
2019.000000	99.909097
2018.000000	99.910028
2017.000000	99.909582
2016.000000	99.907682
2015.000000	99.905563
2014.000000	99.903760
2013.000000	99.901790
2012.000000	99.899433
2011.000000	99.897275
2010.000000	99.895932
2009.000000	99.895316
2008.000000	99.894790
2007.000000	99.893734
2006.000000	99.891959
2005.000000	99.889827
2004.000000	99.887993
2003.000000	99.886867
2002.000000	99.886378
2001.000000	99.886239
2000.000000	99.886168
1999.000000	99.885803
1998.000000	99.884821
1997.000000	99.883437
1996.000000	99.882461
1995.000000	99.882368
1994.000000	99.882673
1993.000000	99.882496
1992.000000	99.881617
1991.000000	99.880522
1990.000000	99.879631
1989.000000	99.878907
1988.000000	99.878184
1987.000000	99.877530
1986.000000	99.877111
1985.000000	99.876866
1984.000000	99.876518
1983.000000	99.875874
1982.000000	99.874948
1981.000000	99.873860
1980.000000	99.872790
1979.000000	99.872014
1978.000000	99.871726
1977.000000	99.871793
1976.000000	99.871879
1975.000000	99.871819
1974.000000	99.871670
1973.000000	99.871407
1972.000000	99.870850
1971.000000	99.869991
1970.000000	99.869134
1969.000000	99.868507
1968.000000	99.867891
1967.000000	99.866924
1966.000000	99.865701
1965.000000	99.864686
1964.000000	99.864014
1963.000000	99.863267
1962.000000	99.862035
1961.000000	99.860539
1960.000000	99.859520
1959.000000	99.859603
1958.000000	99.860938
1957.000000	99.863132
1956.000000	99.865241
1955.000000	99.866132
1954.000000	99.865310
1953.000000	99.863473
1952.000000	99.862052
1951.000000	99.861861
1950.000000	99.862479
1949.000000	99.862950
1948.000000	99.862809
1947.000000	99.862353
1946.000000	99.862191
1945.000000	99.862683
1944.000000	99.863540
1943.000000	99.863799
1942.000000	99.862600
1941.000000	99.860163
1940.000000	99.857654
1939.000000	99.855977
1938.000000	99.855050
1937.000000	99.854331
1936.000000	99.853686
1935.000000	99.853355
1934.000000	99.853261
1933.000000	99.852947
1932.000000	99.852274
1931.000000	99.851702
1930.000000	99.851586
1929.000000	99.851419
1928.000000	99.850162
1927.000000	99.847387
1926.000000	99.843806
1925.000000	99.840665
1924.000000	99.838810
1923.000000	99.838205
1922.000000	99.838153
1921.000000	99.837786
1920.000000	99.836735
1919.000000	99.835462
1918.000000	99.834790
1917.000000	99.834736
1916.000000	99.833995
1915.000000	99.831345
1914.000000	99.827003
1913.000000	99.822314
1912.000000	99.818460
1911.000000	99.815669
1910.000000	99.813507
1909.000000	99.811401
1908.000000	99.808872
1907.000000	99.805955
1906.000000	99.803438
1905.000000	99.802106
1904.000000	99.801738
1903.000000	99.801284
1902.000000	99.800125
1901.000000	99.798437
1900.000000	99.796429
1899.000000	99.793827
1898.000000	99.790179
1897.000000	99.785235
1896.000000	99.779195
1895.000000	99.773207
1894.000000	99.769294
1893.000000	99.768598
1892.000000	99.770139
1891.000000	99.772016
1890.000000	99.773574
1889.000000	99.775654
1888.000000	99.778222
1887.000000	99.779502
1886.000000	99.778134
1885.000000	99.774656
1884.000000	99.770556
1883.000000	99.766742
1882.000000	99.763514
1881.000000	99.761315
1880.000000	99.760700
1879.000000	99.761797
1878.000000	99.764099
1877.000000	99.766486
1876.000000	99.767550
1875.000000	99.766560
1874.000000	99.764219
1873.000000	99.761896
1872.000000	99.760028
1871.000000	99.758177
1870.000000	99.756705
1869.000000	99.757016
1868.000000	99.759047
1867.000000	99.760513
1866.000000	99.760511
1865.000000	99.760902
1864.000000	99.763306
1863.000000	99.766905
1862.000000	99.770002
1861.000000	99.772413
1860.000000	99.774830
1859.000000	99.776979
1858.000000	99.778338
1857.000000	99.779738
1856.000000	99.782353
1855.000000	99.785640
1854.000000	99.787954
1853.000000	99.789294
1852.000000	99.791761
1851.000000	99.796679
1850.000000	99.802614
1849.000000	99.806807
1848.000000	99.808285
1847.000000	99.808525
1846.000000	99.809499
1845.000000	99.811659
1844.000000	99.813741
1843.000000	99.814171
1842.000000	99.812464
1841.000000	99.809708
1840.000000	99.807933
1839.000000	99.808407
1838.000000	99.810589
1837.000000	99.812973
1836.000000	99.814939
1835.000000	99.817199
1834.000000	99.820548
1833.000000	99.824824
1832.000000	99.829005
1831.000000	99.831582
1830.000000	99.831687
1829.000000	99.830683
1828.000000	99.830566
1827.000000	99.831258
1826.000000	99.831303
1825.000000	99.830110
1824.000000	99.828916
1823.000000	99.828919
1822.000000	99.829804
1821.000000	99.830737
1820.000000	99.831224
1819.000000	99.830812
1818.000000	99.828988
1817.000000	99.825891
1816.000000	99.822630
1815.000000	99.820410
1814.000000	99.819767
1813.000000	99.820614
1812.000000	99.822282
1811.000000	99.823566
1810.000000	99.823690
1809.000000	99.823040
1808.000000	99.822297
1807.000000	99.821780
1806.000000	99.821803
1805.000000	99.822532
1804.000000	99.823221
1803.000000	99.822532
1802.000000	99.820434
1801.000000	99.819149
1800.000000	99.820494
1799.000000	99.823117
1798.000000	99.824256
1797.000000	99.823223
1796.000000	99.821665
1795.000000	99.821315
1794.000000	99.822422
1793.000000	99.824118
1792.000000	99.825525
1791.000000	99.826235
1790.000000	99.826238
1789.000000	99.826030
1788.000000	99.826358
1787.000000	99.827522
1786.000000	99.829126
1785.000000	99.830604
1784.000000	99.831918
1783.000000	99.833605
1782.000000	99.836240
1781.000000	99.839812
1780.000000	99.843327
1779.000000	99.845378
1778.000000	99.845276
1777.000000	99.843744
1776.000000	99.842528
1775.000000	99.842977
1774.000000	99.844878
1773.000000	99.846800
1772.000000	99.848164
1771.000000	99.849560
1770.000000	99.850921
1769.000000	99.852261
1768.000000	99.854942
1767.000000	99.859960
1766.000000	99.866050
1765.000000	99.870895
1764.000000	99.873385
1763.000000	99.874140
1762.000000	99.874961
1761.000000	99.877709
1760.000000	99.882625
1759.000000	99.888416
1758.000000	99.893252
1757.000000	99.895562
1756.000000	99.895530
1755.000000	99.894985
1754.000000	99.894986
1753.000000	99.894863
1752.000000	99.893504
1751.000000	99.891591
1750.000000	99.891497
1749.000000	99.894209
1748.000000	99.898609
1747.000000	99.902825
1746.000000	99.905516
1745.000000	99.906595
1744.000000	99.907144
1743.000000	99.908173
1742.000000	99.909257
1741.000000	99.909308
1740.000000	99.908280
1739.000000	99.907508
1738.000000	99.907956
1737.000000	99.909185
1736.000000	99.909680
1735.000000	99.907330
1734.000000	99.902897
1733.000000	99.901191
1732.000000	99.902460
1731.000000	99.903286
1730.000000	99.902167
1729.000000	99.900202
1728.000000	99.899707
1727.000000	99.901125
1726.000000	99.902188
1725.000000	99.900468
1724.000000	99.896065
1723.000000	99.891305
1722.000000	99.887801
1721.000000	99.885431
1720.000000	99.883447
1719.000000	99.880837
1718.000000	99.876553
1717.000000	99.872010
1716.000000	99.869042
1715.000000	99.867115
1714.000000	99.865396
1713.000000	99.863392
1712.000000	99.860588
1711.000000	99.856958
1710.000000	99.853160
1709.000000	99.850234
1708.000000	99.848739
1707.000000	99.848191
1706.000000	99.847496
1705.000000	99.846023
1704.000000	99.843672
1703.000000	99.839955
1702.000000	99.834144
1701.000000	99.826364
1700.000000	99.819583
1699.000000	99.815836
1698.000000	99.813359
1697.000000	99.810599
1696.000000	99.807445
1695.000000	99.804063
1694.000000	99.800144
1693.000000	99.795661
1692.000000	99.791200
1691.000000	99.787027
1690.000000	99.782664
1689.000000	99.777664
1688.000000	99.772421
1687.000000	99.767650
1686.000000	99.763686
1685.000000	99.760213
1684.000000	99.756864
1683.000000	99.753504
1682.000000	99.749674
1681.000000	99.745117
1680.000000	99.740442
1679.000000	99.736477
1678.000000	99.733597
1677.000000	99.731455
1676.000000	99.729285
1675.000000	99.726485
1674.000000	99.722949
1673.000000	99.718846
1672.000000	99.714451
1671.000000	99.710222
1670.000000	99.706652
1669.000000	99.703871
1668.000000	99.701357
1667.000000	99.698479
1666.000000	99.694917
1665.000000	99.690560
1664.000000	99.685432
1663.000000	99.679978
1662.000000	99.675110
1661.000000	99.671289
1660.000000	99.668302
1659.000000	99.666102
1658.000000	99.664621
1657.000000	99.663480
1656.000000	99.661906
1655.000000	99.659368
1654.000000	99.654966
1653.000000	99.650326
1652.000000	99.648533
1651.000000	99.647575
1650.000000	99.645351
1649.000000	99.642582
1648.000000	99.638534
1647.000000	99.632705
1646.000000	99.627521
1645.000000	99.624587
1644.000000	99.622322
1643.000000	99.619676
1642.000000	99.617264
1641.000000	99.615788
1640.000000	99.614975
1639.000000	99.614253
1638.000000	99.613648
1637.000000	99.613500
1636.000000	99.613330
1635.000000	99.612670
1634.000000	99.610214
1633.000000	99.605124
1632.000000	99.599157
1631.000000	99.595038
1630.000000	99.593933
1629.000000	99.594477
1628.000000	99.594030
1627.000000	99.591927
1626.000000	99.589883
1625.000000	99.589613
1624.000000	99.591461
1623.000000	99.594712
1622.000000	99.597977
1621.000000	99.599846
1620.000000	99.600699
1619.000000	99.602368
1618.000000	99.605457
1617.000000	99.607707
1616.000000	99.607612
1615.000000	99.607530
1614.000000	99.609756
1613.000000	99.613267
1612.000000	99.614934
1611.000000	99.612911
1610.000000	99.609461
1609.000000	99.608577
1608.000000	99.611885
1607.000000	99.618326
1606.000000	99.625600
1605.000000	99.631339
1604.000000	99.634136
1603.000000	99.634446
1602.000000	99.634026
1601.000000	99.634469
1600.000000	99.636557
1599.000000	99.640739
1598.000000	99.647194
1597.000000	99.655142
1596.000000	99.662923
1595.000000	99.669043
1594.000000	99.673050
1593.000000	99.675465
1592.000000	99.677380
1591.000000	99.680034
1590.000000	99.684076
1589.000000	99.689025
1588.000000	99.693961
1587.000000	99.698552
1586.000000	99.702937
1585.000000	99.707072
1584.000000	99.710864
1583.000000	99.714652
1582.000000	99.718864
1581.000000	99.723243
1580.000000	99.727438
1579.000000	99.731961
1578.000000	99.737756
1577.000000	99.744355
1576.000000	99.749537
1575.000000	99.752058
1574.000000	99.752947
1573.000000	99.753874
1572.000000	99.755772
1571.000000	99.758405
1570.000000	99.760926
1569.000000	99.763069
1568.000000	99.765415
1567.000000	99.768412
1566.000000	99.771827
1565.000000	99.775074
1564.000000	99.777730
1563.000000	99.779880
1562.000000	99.781696
1561.000000	99.782651
1560.000000	99.781887
1559.000000	99.780309
1558.000000	99.782345
1557.000000	99.786869
1556.000000	99.791111
1555.000000	99.794799
1554.000000	99.797975
1553.000000	99.800599
1552.000000	99.802873
1551.000000	99.805038
1550.000000	99.806940
1549.000000	99.808182
1548.000000	99.808755
1547.000000	99.809081
1546.000000	99.809735
1545.000000	99.811134
1544.000000	99.813347
1543.000000	99.815994
1542.000000	99.818470
1541.000000	99.820216
1540.000000	99.821162
1539.000000	99.822089
1538.000000	99.822966
1537.000000	99.823357
1536.000000	99.823697
1535.000000	99.824578
1534.000000	99.826016
1533.000000	99.827401
1532.000000	99.828025
1531.000000	99.827820
1530.000000	99.827270
1529.000000	99.826859
1528.000000	99.826617
1527.000000	99.826348
1526.000000	99.826296
1525.000000	99.827112
1524.000000	99.828875
1523.000000	99.830855
1522.000000	99.832137
1521.000000	99.832919
1520.000000	99.834025
1519.000000	99.835269
1518.000000	99.835819
1517.000000	99.835229
1516.000000	99.834374
1515.000000	99.834833
1514.000000	99.836913
1513.000000	99.839852
1512.000000	99.842474
1511.000000	99.843965
1510.000000	99.844588
1509.000000	99.845174
1508.000000	99.845954
1507.000000	99.845868
1506.000000	99.845508
1505.000000	99.846048
1504.000000	99.846907
1503.000000	99.847648
1502.000000	99.848385
1501.000000	99.849216
1500.000000	99.850391
1499.000000	99.852048
1498.000000	99.853814
1497.000000	99.855100
1496.000000	99.855628
1495.000000	99.855262
1494.000000	99.854417
1493.000000	99.854144
1492.000000	99.854978
1491.000000	99.856004
1490.000000	99.855993
1489.000000	99.856053
1488.000000	99.858000
1487.000000	99.861476
1486.000000	99.865179
1485.000000	99.868334
1484.000000	99.870678
1483.000000	99.872050
1482.000000	99.872391
1481.000000	99.872334
1480.000000	99.872950
1479.000000	99.874635
1478.000000	99.877152
1477.000000	99.880371
1476.000000	99.884403
1475.000000	99.888824
1474.000000	99.892517
1473.000000	99.894348
1472.000000	99.894434
1471.000000	99.893844
1470.000000	99.893494
1469.000000	99.893874
1468.000000	99.894810
1467.000000	99.895315
1466.000000	99.894811
1465.000000	99.894598
1464.000000	99.896521
1463.000000	99.899720
1462.000000	99.901569
1461.000000	99.901020
1460.000000	99.899049
1459.000000	99.897517
1458.000000	99.897358
1457.000000	99.898338
1456.000000	99.899663
1455.000000	99.900007
1454.000000	99.899246
1453.000000	99.898578
1452.000000	99.898777
1451.000000	99.899673
1450.000000	99.900341
1449.000000	99.899912
1448.000000	99.898299
1447.000000	99.896316
1446.000000	99.895018
1445.000000	99.894941
1444.000000	99.895809
1443.000000	99.896707
1442.000000	99.896704
1441.000000	99.895711
1440.000000	99.894603
1439.000000	99.894277
1438.000000	99.894820
1437.000000	99.895553
1436.000000	99.895805
1435.000000	99.895081
1434.000000	99.893253
1433.000000	99.890857
1432.000000	99.888710
1431.000000	99.887350
1430.000000	99.886676
1429.000000	99.886255
1428.000000	99.885950
1427.000000	99.885812
1426.000000	99.885819
1425.000000	99.885964
1424.000000	99.886422
1423.000000	99.887252
1422.000000	99.888011
1421.000000	99.888307
1420.000000	99.888250
1419.000000	99.888171
1418.000000	99.888041
1417.000000	99.887761
1416.000000	99.887723
1415.000000	99.888284
1414.000000	99.889216
1413.000000	99.889940
1412.000000	99.890208
1411.000000	99.890286
1410.000000	99.890536
1409.000000	99.891098
1408.000000	99.891935
1407.000000	99.892949
1406.000000	99.894036
1405.000000	99.895107
1404.000000	99.896084
1403.000000	99.896864
1402.000000	99.897422
1401.000000	99.897896
1400.000000	99.898514
1399.000000	99.899405
1398.000000	99.900475
1397.000000	99.901554
1396.000000	99.902563
1395.000000	99.903538
1394.000000	99.904537
1393.000000	99.905589
1392.000000	99.906697
1391.000000	99.907850
1390.000000	99.909031
1389.000000	99.910222
1388.000000	99.911410
1387.000000	99.912592
1386.000000	99.913769
1385.000000	99.914945
1384.000000	99.916128
1383.000000	99.917319
1382.000000	99.918512
1381.000000	99.919699
1380.000000	99.920877
1379.000000	99.922055
1378.000000	99.923240
1377.000000	99.924437
1376.000000	99.925655
1375.000000	99.926904
1374.000000	99.928189
1373.000000	99.929506
1372.000000	99.930840
1371.000000	99.932161
1370.000000	99.933443
1369.000000	99.934680
1368.000000	99.935907
1367.000000	99.937172
1366.000000	99.938489
1365.000000	99.939812
1364.000000	99.941033
1363.000000	99.942034
1362.000000	99.942861
1361.000000	99.943831
1360.000000	99.945290
1359.000000	99.947234
1358.000000	99.949140
1357.000000	99.950400
1356.000000	99.950924
1355.000000	99.951191
1354.000000	99.951535
1353.000000	99.951902
1352.000000	99.952424
1351.000000	99.953668
1350.000000	99.955919
1349.000000	99.958371
1348.000000	99.959841
1347.000000	99.960171
1346.000000	99.960310
1345.000000	99.961157
1344.000000	99.962826
1343.000000	99.964939
1342.000000	99.967025
1341.000000	99.968600
1340.000000	99.969522
1339.000000	99.970335
1338.000000	99.971470
1337.000000	99.972423
1336.000000	99.972439
1335.000000	99.971296
1334.000000	99.969223
1333.000000	99.966647
1332.000000	99.964319
1331.000000	99.963207
1330.000000	99.963527
1329.000000	99.964199
1328.000000	99.964174
1327.000000	99.964057
1326.000000	99.965413
1325.000000	99.968445
1324.000000	99.971663
1323.000000	99.973632
1322.000000	99.974233
1321.000000	99.974168
1320.000000	99.973904
1319.000000	99.973293
1318.000000	99.971945
1317.000000	99.969927
1316.000000	99.968020
1315.000000	99.967072
1314.000000	99.967085
1313.000000	99.967274
1312.000000	99.967033
1311.000000	99.966329
1310.000000	99.965144
1309.000000	99.963406
1308.000000	99.961741
1307.000000	99.961377
1306.000000	99.962601
1305.000000	99.963986
1304.000000	99.964247
1303.000000	99.964161
1302.000000	99.965642
1301.000000	99.969042
1300.000000	99.972349
1299.000000	99.973308
1298.000000	99.971659
1297.000000	99.968989
1296.000000	99.966975
1295.000000	99.966189
1294.000000	99.966227
1293.000000	99.966298
1292.000000	99.965443
1291.000000	99.962727
1290.000000	99.957937
1289.000000	99.952296
1288.000000	99.947996
1287.000000	99.946401
1286.000000	99.946598
1285.000000	99.945934
1284.000000	99.942118
1283.000000	99.934876
1282.000000	99.926165
1281.000000	99.919080
1280.000000	99.916144
1279.000000	99.917925
1278.000000	99.922630
1277.000000	99.927330
1276.000000	99.930009
1275.000000	99.930442
1274.000000	99.929490
1273.000000	99.928140
1272.000000	99.927176
1271.000000	99.927050
1270.000000	99.927598
1269.000000	99.927986
1268.000000	99.927042
1267.000000	99.923692
1266.000000	99.917818
1265.000000	99.911525
1264.000000	99.908802
1263.000000	99.912186
1262.000000	99.919344
1261.000000	99.924190
1260.000000	99.922286
1259.000000	99.914786
1258.000000	99.906898
1257.000000	99.903034
1256.000000	99.903343
1255.000000	99.903868
1254.000000	99.899889
1253.000000	99.890201
1252.000000	99.878471
1251.000000	99.869922
1250.000000	99.866720
1249.000000	99.867197
1248.000000	99.868667
1247.000000	99.869144
1246.000000	99.866588
1245.000000	99.858974
1244.000000	99.846087
1243.000000	99.830112
1242.000000	99.814032
1241.000000	99.800497
1240.000000	99.792074
1239.000000	99.790185
1238.000000	99.792576
1237.000000	99.793524
1236.000000	99.788135
1235.000000	99.776120
1234.000000	99.761321
1233.000000	99.748330
1232.000000	99.739405
1231.000000	99.733109
1230.000000	99.725524
1229.000000	99.714025
1228.000000	99.699904
1227.000000	99.685961
1226.000000	99.671750
1225.000000	99.653499
1224.000000	99.629351
1223.000000	99.602564
1222.000000	99.578342
1221.000000	99.558905
1220.000000	99.542569
1219.000000	99.525838
1218.000000	99.505147
1217.000000	99.478311
1216.000000	99.446143
1215.000000	99.412081
1214.000000	99.378968
1213.000000	99.346310
1212.000000	99.311322
1211.000000	99.272378
1210.000000	99.231295
1209.000000	99.192403
1208.000000	99.158825
1207.000000	99.129108
1206.000000	99.098714
1205.000000	99.066068
1204.000000	99.035116
1203.000000	99.009408
1202.000000	98.985532
1201.000000	98.956129
1200.000000	98.918380
1199.000000	98.875865
1198.000000	98.833002
1197.000000	98.791800
1196.000000	98.753744
1195.000000	98.719769
1194.000000	98.687157
1193.000000	98.650880
1192.000000	98.609817
1191.000000	98.568113
1190.000000	98.528969
1189.000000	98.490775
1188.000000	98.451280
1187.000000	98.411904
1186.000000	98.375441
1185.000000	98.342166
1184.000000	98.310260
1183.000000	98.277583
1182.000000	98.241413
1181.000000	98.199152
1180.000000	98.151133
1179.000000	98.100656
1178.000000	98.050028
1177.000000	97.998900
1176.000000	97.947193
1175.000000	97.896337
1174.000000	97.846457
1173.000000	97.795884
1172.000000	97.744984
1171.000000	97.696742
1170.000000	97.651945
1169.000000	97.607674
1168.000000	97.562526
1167.000000	97.519431
1166.000000	97.481371
1165.000000	97.449050
1164.000000	97.425667
1163.000000	97.418760
1162.000000	97.432207
1161.000000	97.458513
1160.000000	97.482794
1159.000000	97.493735
1158.000000	97.488540
1157.000000	97.470011
1156.000000	97.442782
1155.000000	97.411315
1154.000000	97.377921
1153.000000	97.341733
1152.000000	97.300454
1151.000000	97.252735
1150.000000	97.198984
1149.000000	97.141994
1148.000000	97.087382
1147.000000	97.040680
1146.000000	97.002195
1145.000000	96.966561
1144.000000	96.928355
1143.000000	96.886192
1142.000000	96.841153
1141.000000	96.794307
1140.000000	96.746857
1139.000000	96.699972
1138.000000	96.653400
1137.000000	96.606605
1136.000000	96.561497
1135.000000	96.520964
1134.000000	96.484500
1133.000000	96.448598
1132.000000	96.411253
1131.000000	96.372024
1130.000000	96.328264
1129.000000	96.277191
1128.000000	96.222736
1127.000000	96.174297
1126.000000	96.136000
1125.000000	96.101953
1124.000000	96.064491
1123.000000	96.022622
1122.000000	95.979725
1121.000000	95.937426
1120.000000	95.895135
1119.000000	95.852282
1118.000000	95.808533
1117.000000	95.764845
1116.000000	95.725755
1115.000000	95.696568
1114.000000	95.676486
1113.000000	95.658217
1112.000000	95.635862
1111.000000	95.609408
1110.000000	95.580809
1109.000000	95.551041
1108.000000	95.522433
1107.000000	95.497692
1106.000000	95.474316
1105.000000	95.445954
1104.000000	95.412475
1103.000000	95.383279
1102.000000	95.366948
1101.000000	95.361508
1100.000000	95.357400
1099.000000	95.345143
1098.000000	95.319944
1097.000000	95.283894
1096.000000	95.246590
1095.000000	95.218347
1094.000000	95.199536
1093.000000	95.180572
1092.000000	95.154299
1091.000000	95.123688
1090.000000	95.096053
1089.000000	95.075454
1088.000000	95.062897
1087.000000	95.057651
1086.000000	95.054731
1085.000000	95.046143
1084.000000	95.028338
1083.000000	95.005566
1082.000000	94.984404
1081.000000	94.968236
1080.000000	94.957247
1079.000000	94.948886
1078.000000	94.937708
1077.000000	94.919903
1076.000000	94.898188
1075.000000	94.877065
1074.000000	94.853868
1073.000000	94.821032
1072.000000	94.776306
1071.000000	94.722959
1070.000000	94.660281
1069.000000	94.583131
1068.000000	94.492354
1067.000000	94.396230
1066.000000	94.298464
1065.000000	94.193940
1064.000000	94.080959
1063.000000	93.968979
1062.000000	93.868509
1061.000000	93.779945
1060.000000	93.697451
1059.000000	93.617351
1058.000000	93.538064
1057.000000	93.458074
1056.000000	93.378782
1055.000000	93.304249
1054.000000	93.234437
1053.000000	93.163582
1052.000000	93.087749
1051.000000	93.007800
1050.000000	92.922816
1049.000000	92.829264
1048.000000	92.729892
1047.000000	92.633806
1046.000000	92.543831
1045.000000	92.452605
1044.000000	92.354678
1043.000000	92.254643
1042.000000	92.159972
1041.000000	92.073090
1040.000000	91.994107
1039.000000	91.924253
1038.000000	91.862554
1037.000000	91.805263
1036.000000	91.751565
1035.000000	91.703923
1034.000000	91.661119
1033.000000	91.618056
1032.000000	91.574406
1031.000000	91.536422
1030.000000	91.508460
1029.000000	91.489357
1028.000000	91.477291
1027.000000	91.469953
1026.000000	91.459914
1025.000000	91.440038
1024.000000	91.415402
1023.000000	91.400072
1022.000000	91.399582
1021.000000	91.405251
1020.000000	91.407421
1019.000000	91.404663
1018.000000	91.397771
1017.000000	91.385519
1016.000000	91.370636
1015.000000	91.360418
1014.000000	91.356183
1013.000000	91.349671
1012.000000	91.334177
1011.000000	91.312362
1010.000000	91.289762
1009.000000	91.268069
1008.000000	91.248812
1007.000000	91.236731
1006.000000	91.234874
1005.000000	91.240791
1004.000000	91.249835
1003.000000	91.258184
1002.000000	91.263206
1001.000000	91.267256
1000.000000	91.280300
999.000000	91.310676
998.000000	91.352921
997.000000	91.392685
996.000000	91.424193
995.000000	91.454271
994.000000	91.488913
993.000000	91.525969
992.000000	91.562865
991.000000	91.601665
990.000000	91.643348
989.000000	91.685734
988.000000	91.730393
987.000000	91.783665
986.000000	91.847400
985.000000	91.915278
984.000000	91.980749
983.000000	92.042881
982.000000	92.103715
981.000000	92.166756
980.000000	92.238448
979.000000	92.323075
978.000000	92.415215
977.000000	92.505218
976.000000	92.592894
975.000000	92.686853
974.000000	92.789242
973.000000	92.891191
972.000000	92.986395
971.000000	93.080178
970.000000	93.180915
969.000000	93.289933
968.000000	93.403470
967.000000	93.517328
966.000000	93.625866
965.000000	93.723492
964.000000	93.811747
963.000000	93.899708
962.000000	93.993596
961.000000	94.090422
960.000000	94.184323
959.000000	94.273230
958.000000	94.356255
957.000000	94.430952
956.000000	94.498169
955.000000	94.565087
954.000000	94.638170
953.000000	94.715579
952.000000	94.790214
951.000000	94.857384
950.000000	94.915982
949.000000	94.964775
948.000000	95.002194
947.000000	95.030294
946.000000	95.056672
945.000000	95.090421
944.000000	95.134514
943.000000	95.181572
942.000000	95.219330
941.000000	95.242756
940.000000	95.259456
939.000000	95.281120
938.000000	95.311662
937.000000	95.347041
936.000000	95.383851
935.000000	95.422482
934.000000	95.463158
933.000000	95.504193
932.000000	95.543597
931.000000	95.578091
930.000000	95.602411
929.000000	95.615212
928.000000	95.624537
927.000000	95.641415
926.000000	95.668046
925.000000	95.697400
924.000000	95.723484
923.000000	95.746092
922.000000	95.766333
921.000000	95.784247
920.000000	95.801177
919.000000	95.818605
918.000000	95.834663
917.000000	95.847594
916.000000	95.861954
915.000000	95.884765
914.000000	95.915911
913.000000	95.949391
912.000000	95.983747
911.000000	96.023551
910.000000	96.070828
909.000000	96.124031
908.000000	96.186304
907.000000	96.264735
906.000000	96.357589
905.000000	96.449849
904.000000	96.526278
903.000000	96.584703
902.000000	96.634925
901.000000	96.690338
900.000000	96.761200
899.000000	96.848069
898.000000	96.938663
897.000000	97.017671
896.000000	97.082395
895.000000	97.142821
894.000000	97.205486
893.000000	97.265505
892.000000	97.317587
891.000000	97.365904
890.000000	97.417056
889.000000	97.470133
888.000000	97.520779
887.000000	97.570059
886.000000	97.622270
885.000000	97.677316
884.000000	97.731615
883.000000	97.784037
882.000000	97.835089
881.000000	97.882274
880.000000	97.922256
879.000000	97.957006
878.000000	97.993216
877.000000	98.035828
876.000000	98.085293
875.000000	98.139448
874.000000	98.193919
873.000000	98.242163
872.000000	98.280144
871.000000	98.312052
870.000000	98.348365
869.000000	98.396217
868.000000	98.452121
867.000000	98.504872
866.000000	98.546085
865.000000	98.578083
864.000000	98.610794
863.000000	98.651128
862.000000	98.697733
861.000000	98.746834
860.000000	98.798118
859.000000	98.850313
858.000000	98.895516
857.000000	98.925924
856.000000	98.945108
855.000000	98.965383
854.000000	98.993524
853.000000	99.025594
852.000000	99.056198
851.000000	99.084518
850.000000	99.108874
849.000000	99.123787
848.000000	99.127507
847.000000	99.126700
846.000000	99.128782
845.000000	99.133807
844.000000	99.137959
843.000000	99.140470
842.000000	99.142727
841.000000	99.144358
840.000000	99.144248
839.000000	99.141999
838.000000	99.135137
837.000000	99.119165
836.000000	99.094610
835.000000	99.070513
834.000000	99.056484
833.000000	99.053447
832.000000	99.054954
831.000000	99.054258
830.000000	99.047697
829.000000	99.036509
828.000000	99.029775
827.000000	99.039869
826.000000	99.067683
825.000000	99.096341
824.000000	99.107208
823.000000	99.098981
822.000000	99.084254
821.000000	99.071856
820.000000	99.061158
819.000000	99.049481
818.000000	99.035316
817.000000	99.014809
816.000000	98.982023
815.000000	98.934117
814.000000	98.872577
813.000000	98.798387
812.000000	98.707979
811.000000	98.593435
810.000000	98.445350
809.000000	98.258436
808.000000	98.038191
807.000000	97.800263
806.000000	97.559019
805.000000	97.318071
804.000000	97.075913
803.000000	96.838491
802.000000	96.621348
801.000000	96.440821
800.000000	96.306609
799.000000	96.219455
798.000000	96.171057
797.000000	96.149162
796.000000	96.147411
795.000000	96.168233
794.000000	96.213437
793.000000	96.275106
792.000000	96.338326
791.000000	96.389650
790.000000	96.421192
789.000000	96.431204
788.000000	96.424453
787.000000	96.408787
786.000000	96.386741
785.000000	96.351428
784.000000	96.293587
783.000000	96.211905
782.000000	96.115562
781.000000	96.019626
780.000000	95.939861
779.000000	95.888362
778.000000	95.869940
777.000000	95.882950
776.000000	95.923594
775.000000	95.986259
774.000000	96.060621
773.000000	96.135530
772.000000	96.209164
771.000000	96.290951
770.000000	96.389502
769.000000	96.500340
768.000000	96.606868
767.000000	96.691396
766.000000	96.746098
765.000000	96.778037
764.000000	96.804949
763.000000	96.842088
762.000000	96.891192
761.000000	96.944612
760.000000	96.998500
759.000000	97.055349
758.000000	97.113478
757.000000	97.163353
756.000000	97.199408
755.000000	97.228860
754.000000	97.262633
753.000000	97.301755
752.000000	97.338865
751.000000	97.370494
750.000000	97.401983
749.000000	97.440653
748.000000	97.487523
747.000000	97.535258
746.000000	97.573159
745.000000	97.597139
744.000000	97.616778
743.000000	97.648951
742.000000	97.701259
741.000000	97.765238
740.000000	97.828474
739.000000	97.888025
738.000000	97.946833
737.000000	98.001780
736.000000	98.043908
735.000000	98.070227
734.000000	98.088384
733.000000	98.107655
732.000000	98.129836
731.000000	98.151332
730.000000	98.170656
729.000000	98.190638
728.000000	98.214424
727.000000	98.241543
726.000000	98.268069
725.000000	98.290094
724.000000	98.307234
723.000000	98.322954
722.000000	98.341322
721.000000	98.363390
720.000000	98.386343
719.000000	98.406157
718.000000	98.421467
717.000000	98.434325
716.000000	98.446716
715.000000	98.456913
714.000000	98.461166
713.000000	98.460265
712.000000	98.462116
711.000000	98.474436
710.000000	98.495002
709.000000	98.511725
708.000000	98.512823
707.000000	98.496154
706.000000	98.470209
705.000000	98.448408
704.000000	98.439526
703.000000	98.437435
702.000000	98.419576
701.000000	98.360633
700.000000	98.250595
699.000000	98.100656
698.000000	97.935066
697.000000	97.780649
696.000000	97.660896
695.000000	97.591388
694.000000	97.577016
693.000000	97.614304
692.000000	97.693973
691.000000	97.797993
690.000000	97.900192
689.000000	97.982267
688.000000	98.051226
687.000000	98.129870
686.000000	98.226167
685.000000	98.322270
684.000000	98.395876
683.000000	98.441066
682.000000	98.464717
681.000000	98.475236
680.000000	98.482155
679.000000	98.496156
678.000000	98.519755
677.000000	98.544847
676.000000	98.569380
675.000000	98.606027
674.000000	98.665403
673.000000	98.737643
672.000000	98.801662
671.000000	98.848583
670.000000	98.886721
669.000000	98.926920
668.000000	98.954744
667.000000	98.958023
666.000000	98.973054
665.000000	99.010511
664.000000	99.053567
663.000000	99.086588
662.000000	99.099759
661.000000	99.093877
660.000000	99.079528
659.000000	99.070216
658.000000	99.072797
657.000000	99.082053
656.000000	99.090668
655.000000	99.100850
654.000000	99.119342
653.000000	99.141841
652.000000	99.153390
651.000000	99.148024
650.000000	99.141039
