4000.000000	100.821339
3999.000000	100.819498
3998.000000	100.817443
3997.000000	100.815886
3996.000000	100.814823
3995.000000	100.813575
3994.000000	100.811278
3993.000000	100.807521
3992.000000	100.802763
3991.000000	100.798294
3990.000000	100.795497
3989.000000	100.795009
3988.000000	100.796573
3987.000000	100.799402
3986.000000	100.802448
3985.000000	100.804551
3984.000000	100.804876
3983.000000	100.803583
3982.000000	100.801989
3981.000000	100.801569
3980.000000	100.802523
3979.000000	100.803493
3978.000000	100.802907
3977.000000	100.800538
3976.000000	100.797802
3975.000000	100.796468
3974.000000	100.797020
3973.000000	100.798233
3972.000000	100.798265
3971.000000	100.796232
3970.000000	100.792768
3969.000000	100.789384
3968.000000	100.787254
3967.000000	100.786611
3966.000000	100.786893
3965.000000	100.787165
3964.000000	100.786680
3963.000000	100.785415
3962.000000	100.784097
3961.000000	100.783378
3960.000000	100.783074
3959.000000	100.782498
3958.000000	100.781599
3957.000000	100.781420
3956.000000	100.783245
3955.000000	100.787443
3954.000000	100.793060
3953.000000	100.798248
3952.000000	100.801227
3951.000000	100.801208
3950.000000	100.798771
3949.000000	100.795457
3948.000000	100.792654
3947.000000	100.790846
3946.000000	100.789862
3945.000000	100.789291
3944.000000	100.788637
3943.000000	100.787453
3942.000000	100.785513
3941.000000	100.782985
3940.000000	100.780535
3939.000000	100.779064
3938.000000	100.779273
3937.000000	100.781321
3936.000000	100.784589
3935.000000	100.787731
3934.000000	100.789303
3933.000000	100.788665
3932.000000	100.786502
3931.000000	100.784399
3930.000000	100.783602
3929.000000	100.784138
3928.000000	100.784926
3927.000000	100.784746
3926.000000	100.783365
3925.000000	100.781736
3924.000000	100.780771
3923.000000	100.780240
3922.000000	100.779330
3921.000000	100.777726
3920.000000	100.775867
3919.000000	100.774521
3918.000000	100.774186
3917.000000	100.774755
3916.000000	100.775736
3915.000000	100.776801
3914.000000	100.777914
3913.000000	100.778818
3912.000000	100.778700
3911.000000	100.776761
3910.000000	100.773125
3909.000000	100.768936
3908.000000	100.765406
3907.000000	100.762940
3906.000000	100.761221
3905.000000	100.759962
3904.000000	100.759267
3903.000000	100.759347
3902.000000	100.760527
3901.000000	100.763108
3900.000000	100.766366
3899.000000	100.768299
3898.000000	100.767147
3897.000000	100.762978
3896.000000	100.757569
3895.000000	100.753092
3894.000000	100.751346
3893.000000	100.753325
3892.000000	100.758176
3891.000000	100.762941
3890.000000	100.765174
3889.000000	100.765677
3888.000000	100.767014
3887.000000	100.770601
3886.000000	100.775997
3885.000000	100.781474
3884.000000	100.785173
3883.000000	100.786595
3882.000000	100.786907
3881.000000	100.787782
3880.000000	100.789625
3879.000000	100.790919
3878.000000	100.790355
3877.000000	100.787817
3876.000000	100.783484
3875.000000	100.778514
3874.000000	100.775166
3873.000000	100.774756
3872.000000	100.776725
3871.000000	100.779611
3870.000000	100.782072
3869.000000	100.783341
3868.000000	100.783840
3867.000000	100.784835
3866.000000	100.786082
3865.000000	100.785725
3864.000000	100.782913
3863.000000	100.778861
3862.000000	100.775558
3861.000000	100.774469
3860.000000	100.776062
3859.000000	100.780490
3858.000000	100.788319
3857.000000	100.800193
3856.000000	100.814823
3855.000000	100.827309
3854.000000	100.832482
3853.000000	100.830667
3852.000000	100.825608
3851.000000	100.820491
3850.000000	100.817172
3849.000000	100.814733
3848.000000	100.811152
3847.000000	100.805243
3846.000000	100.797756
3845.000000	100.791503
3844.000000	100.789285
3843.000000	100.791339
3842.000000	100.795085
3841.000000	100.797745
3840.000000	100.798876
3839.000000	100.800243
3838.000000	100.803140
3837.000000	100.806477
3836.000000	100.808188
3835.000000	100.807577
3834.000000	100.805240
3833.000000	100.801971
3832.000000	100.798322
3831.000000	100.794808
3830.000000	100.792231
3829.000000	100.791434
3828.000000	100.792561
3827.000000	100.794800
3826.000000	100.796921
3825.000000	100.798175
3824.000000	100.798618
3823.000000	100.798549
3822.000000	100.798005
3821.000000	100.797112
3820.000000	100.796301
3819.000000	100.796477
3818.000000	100.798574
3817.000000	100.801890
3816.000000	100.804369
3815.000000	100.804818
3814.000000	100.803950
3813.000000	100.803207
3812.000000	100.803075
3811.000000	100.803021
3810.000000	100.802466
3809.000000	100.801291
3808.000000	100.799781
3807.000000	100.798424
3806.000000	100.797701
3805.000000	100.798070
3804.000000	100.799945
3803.000000	100.803187
3802.000000	100.806535
3801.000000	100.808139
3800.000000	100.807124
3799.000000	100.804411
3798.000000	100.801847
3797.000000	100.800474
3796.000000	100.800051
3795.000000	100.799639
3794.000000	100.798605
3793.000000	100.797080
3792.000000	100.795663
3791.000000	100.794983
3790.000000	100.795336
3789.000000	100.796455
3788.000000	100.797613
3787.000000	100.798087
3786.000000	100.797606
3785.000000	100.796428
3784.000000	100.794936
3783.000000	100.793224
3782.000000	100.791131
3781.000000	100.788572
3780.000000	100.785783
3779.000000	100.783137
3778.000000	100.780787
3777.000000	100.778989
3776.000000	100.778532
3775.000000	100.780165
3774.000000	100.783728
3773.000000	100.787888
3772.000000	100.790589
3771.000000	100.790372
3770.000000	100.787594
3769.000000	100.784143
3768.000000	100.781835
3767.000000	100.781295
3766.000000	100.781845
3765.000000	100.782291
3764.000000	100.781880
3763.000000	100.780411
3762.000000	100.777478
3761.000000	100.772357
3760.000000	100.765750
3759.000000	100.760575
3758.000000	100.759056
3757.000000	100.759972
3756.000000	100.760103
3755.000000	100.757807
3754.000000	100.754912
3753.000000	100.755665
3752.000000	100.762882
3751.000000	100.772770
3750.000000	100.776023
3749.000000	100.768895
3748.000000	100.758186
3747.000000	100.751979
3746.000000	100.751892
3745.000000	100.753815
3744.000000	100.752539
3743.000000	100.747141
3742.000000	100.740878
3741.000000	100.734535
3740.000000	100.726146
3739.000000	100.715000
3738.000000	100.702090
3737.000000	100.691246
3736.000000	100.689010
3735.000000	100.698623
3734.000000	100.713197
3733.000000	100.720981
3732.000000	100.716551
3731.000000	100.702730
3730.000000	100.686204
3729.000000	100.672615
3728.000000	100.664538
3727.000000	100.661796
3726.000000	100.661417
3725.000000	100.658573
3724.000000	100.649598
3723.000000	100.634792
3722.000000	100.618244
3721.000000	100.604231
3720.000000	100.593502
3719.000000	100.582990
3718.000000	100.569292
3717.000000	100.551625
3716.000000	100.530805
3715.000000	100.506830
3714.000000	100.478740
3713.000000	100.447490
3712.000000	100.417565
3711.000000	100.391681
3710.000000	100.365695
3709.000000	100.335022
3708.000000	100.301225
3707.000000	100.268135
3706.000000	100.237214
3705.000000	100.208710
3704.000000	100.183777
3703.000000	100.163431
3702.000000	100.146262
3701.000000	100.129428
3700.000000	100.112962
3699.000000	100.100471
3698.000000	100.094408
3697.000000	100.093017
3696.000000	100.093091
3695.000000	100.093742
3694.000000	100.096745
3693.000000	100.104613
3692.000000	100.119749
3691.000000	100.143674
3690.000000	100.172511
3689.000000	100.193400
3688.000000	100.193517
3687.000000	100.174632
3686.000000	100.150647
3685.000000	100.133071
3684.000000	100.124012
3683.000000	100.117693
3682.000000	100.105832
3681.000000	100.084743
3680.000000	100.058104
3679.000000	100.033010
3678.000000	100.013955
3677.000000	99.999731
3676.000000	99.985280
3675.000000	99.965659
3674.000000	99.940308
3673.000000	99.916224
3672.000000	99.898658
3671.000000	99.882080
3670.000000	99.858180
3669.000000	99.825974
3668.000000	99.792587
3667.000000	99.767156
3666.000000	99.750715
3665.000000	99.734781
3664.000000	99.711487
3663.000000	99.681557
3662.000000	99.652286
3661.000000	99.629044
3660.000000	99.609517
3659.000000	99.585885
3658.000000	99.551296
3657.000000	99.505930
3656.000000	99.458275
3655.000000	99.418409
3654.000000	99.390894
3653.000000	99.372981
3652.000000	99.356072
3651.000000	99.330045
3650.000000	99.291108
3649.000000	99.245519
3648.000000	99.200694
3647.000000	99.160201
3646.000000	99.128217
3645.000000	99.108554
3644.000000	99.100900
3643.000000	99.100816
3642.000000	99.102767
3641.000000	99.103356
3640.000000	99.101973
3639.000000	99.098680
3638.000000	99.091742
3637.000000	99.078171
3636.000000	99.057011
3635.000000	99.031799
3634.000000	99.009017
3633.000000	98.993445
3632.000000	98.984638
3631.000000	98.976538
3630.000000	98.960276
3629.000000	98.931952
3628.000000	98.896997
3627.000000	98.865134
3626.000000	98.845843
3625.000000	98.841500
3624.000000	98.846354
3623.000000	98.853190
3622.000000	98.858181
3621.000000	98.862892
3620.000000	98.873074
3619.000000	98.893182
3618.000000	98.920741
3617.000000	98.949181
3616.000000	98.974030
3615.000000	98.993680
3614.000000	99.008584
3613.000000	99.020582
3612.000000	99.031590
3611.000000	99.043823
3610.000000	99.059672
3609.000000	99.079235
3608.000000	99.098910
3607.000000	99.114139
3606.000000	99.124773
3605.000000	99.136088
3604.000000	99.152895
3603.000000	99.174797
3602.000000	99.197917
3601.000000	99.219012
3600.000000	99.236376
3599.000000	99.248047
3598.000000	99.252461
3597.000000	99.251594
3596.000000	99.251555
3595.000000	99.257483
3594.000000	99.267311
3593.000000	99.273138
3592.000000	99.269803
3591.000000	99.259193
3590.000000	99.247484
3589.000000	99.241058
3588.000000	99.243885
3587.000000	99.254981
3586.000000	99.268854
3585.000000	99.281258
3584.000000	99.291034
3583.000000	99.297214
3582.000000	99.299948
3581.000000	99.302090
3580.000000	99.306368
3579.000000	99.311407
3578.000000	99.312613
3577.000000	99.307102
3576.000000	99.297009
3575.000000	99.287913
3574.000000	99.284495
3573.000000	99.287295
3572.000000	99.292559
3571.000000	99.294496
3570.000000	99.288491
3569.000000	99.274473
3568.000000	99.258766
3567.000000	99.249862
3566.000000	99.249807
3565.000000	99.253671
3564.000000	99.256483
3563.000000	99.255755
3562.000000	99.251004
3561.000000	99.244461
3560.000000	99.240101
3559.000000	99.239826
3558.000000	99.241262
3557.000000	99.240258
3556.000000	99.235331
3555.000000	99.228887
3554.000000	99.224296
3553.000000	99.222392
3552.000000	99.221354
3551.000000	99.219514
3550.000000	99.217099
3549.000000	99.214935
3548.000000	99.212868
3547.000000	99.210388
3546.000000	99.208053
3545.000000	99.206992
3544.000000	99.207098
3543.000000	99.206799
3542.000000	99.204765
3541.000000	99.201208
3540.000000	99.197331
3539.000000	99.194130
3538.000000	99.191712
3537.000000	99.189625
3536.000000	99.187473
3535.000000	99.185167
3534.000000	99.182802
3533.000000	99.180474
3532.000000	99.178232
3531.000000	99.176056
3530.000000	99.173876
3529.000000	99.171625
3528.000000	99.169307
3527.000000	99.167045
3526.000000	99.165037
3525.000000	99.163411
3524.000000	99.162076
3523.000000	99.160657
3522.000000	99.158730
3521.000000	99.156213
3520.000000	99.153586
3519.000000	99.151476
3518.000000	99.150012
3517.000000	99.148813
3516.000000	99.147619
3515.000000	99.146677
3514.000000	99.146257
3513.000000	99.145916
3512.000000	99.144615
3511.000000	99.141658
3510.000000	99.137420
3509.000000	99.133013
3508.000000	99.129167
3507.000000	99.125773
3506.000000	99.122614
3505.000000	99.120221
3504.000000	99.119530
3503.000000	99.120330
3502.000000	99.120528
3501.000000	99.117953
3500.000000	99.112502
3499.000000	99.105939
3498.000000	99.099945
3497.000000	99.094760
3496.000000	99.089917
3495.000000	99.085589
3494.000000	99.082705
3493.000000	99.082017
3492.000000	99.083348
3491.000000	99.085582
3490.000000	99.087321
3489.000000	99.087719
3488.000000	99.086744
3487.000000	99.084560
3486.000000	99.080959
3485.000000	99.075964
3484.000000	99.070789
3483.000000	99.067305
3482.000000	99.065936
3481.000000	99.064520
3480.000000	99.060091
3479.000000	99.051639
3478.000000	99.040842
3477.000000	99.030611
3476.000000	99.023092
3475.000000	99.018691
3474.000000	99.016319
3473.000000	99.014448
3472.000000	99.012275
3471.000000	99.009969
3470.000000	99.007892
3469.000000	99.005842
3468.000000	99.003178
3467.000000	98.999510
3466.000000	98.995047
3465.000000	98.990352
3464.000000	98.985933
3463.000000	98.982029
3462.000000	98.978721
3461.000000	98.976295
3460.000000	98.975342
3459.000000	98.976109
3458.000000	98.977558
3457.000000	98.977634
3456.000000	98.974943
3455.000000	98.969984
3454.000000	98.964592
3453.000000	98.960230
3452.000000	98.957101
3451.000000	98.954675
3450.000000	98.952415
3449.000000	98.949795
3448.000000	98.946055
3447.000000	98.940447
3446.000000	98.932906
3445.000000	98.924492
3444.000000	98.917022
3443.000000	98.912013
3442.000000	98.909787
3441.000000	98.909387
3440.000000	98.909290
3439.000000	98.908257
3438.000000	98.905716
3437.000000	98.901886
3436.000000	98.897856
3435.000000	98.895052
3434.000000	98.893895
3433.000000	98.893066
3432.000000	98.890695
3431.000000	98.886453
3430.000000	98.882059
3429.000000	98.879466
3428.000000	98.878789
3427.000000	98.878282
3426.000000	98.876073
3425.000000	98.871627
3424.000000	98.865790
3423.000000	98.859969
3422.000000	98.855240
3421.000000	98.851820
3420.000000	98.849143
3419.000000	98.846617
3418.000000	98.844450
3417.000000	98.843488
3416.000000	98.844182
3415.000000	98.845948
3414.000000	98.847597
3413.000000	98.848352
3412.000000	98.848369
3411.000000	98.848276
3410.000000	98.848357
3409.000000	98.848178
3408.000000	98.846952
3407.000000	98.844235
3406.000000	98.840373
3405.000000	98.836383
3404.000000	98.833307
3403.000000	98.831543
3402.000000	98.830750
3401.000000	98.830426
3400.000000	98.830493
3399.000000	98.831107
3398.000000	98.831926
3397.000000	98.831886
3396.000000	98.830054
3395.000000	98.826622
3394.000000	98.823078
3393.000000	98.821094
3392.000000	98.821209
3391.000000	98.822744
3390.000000	98.824573
3389.000000	98.825955
3388.000000	98.826612
3387.000000	98.826377
3386.000000	98.825182
3385.000000	98.823344
3384.000000	98.821601
3383.000000	98.820611
3382.000000	98.820453
3381.000000	98.820723
3380.000000	98.821108
3379.000000	98.821715
3378.000000	98.822750
3377.000000	98.824046
3376.000000	98.825049
3375.000000	98.825289
3374.000000	98.824772
3373.000000	98.823979
3372.000000	98.823512
3371.000000	98.823683
3370.000000	98.824422
3369.000000	98.825453
3368.000000	98.826528
3367.000000	98.827522
3366.000000	98.828409
3365.000000	98.829189
3364.000000	98.829844
3363.000000	98.830398
3362.000000	98.831101
3361.000000	98.832430
3360.000000	98.834653
3359.000000	98.837295
3358.000000	98.839334
3357.000000	98.840280
3356.000000	98.840915
3355.000000	98.842494
3354.000000	98.844955
3353.000000	98.846578
3352.000000	98.845936
3351.000000	98.843510
3350.000000	98.841287
3349.000000	98.840725
3348.000000	98.841546
3347.000000	98.842681
3346.000000	98.843672
3345.000000	98.844836
3344.000000	98.846440
3343.000000	98.848299
3342.000000	98.850137
3341.000000	98.851965
3340.000000	98.854000
3339.000000	98.856399
3338.000000	98.859102
3337.000000	98.861758
3336.000000	98.863835
3335.000000	98.865006
3334.000000	98.865443
3333.000000	98.865651
3332.000000	98.866004
3331.000000	98.866567
3330.000000	98.867374
3329.000000	98.868606
3328.000000	98.870348
3327.000000	98.872348
3326.000000	98.874249
3325.000000	98.875971
3324.000000	98.877671
3323.000000	98.879326
3322.000000	98.880610
3321.000000	98.881269
3320.000000	98.881416
3319.000000	98.881303
3318.000000	98.881018
3317.000000	98.880680
3316.000000	98.880744
3315.000000	98.881753
3314.000000	98.883736
3313.000000	98.886066
3312.000000	98.887962
3311.000000	98.889081
3310.000000	98.889583
3309.000000	98.889881
3308.000000	98.890468
3307.000000	98.891824
3306.000000	98.894179
3305.000000	98.897157
3304.000000	98.899828
3303.000000	98.901341
3302.000000	98.901571
3301.000000	98.901201
3300.000000	98.901064
3299.000000	98.901312
3298.000000	98.901378
3297.000000	98.900805
3296.000000	98.900117
3295.000000	98.900569
3294.000000	98.902927
3293.000000	98.906732
3292.000000	98.910748
3291.000000	98.914036
3290.000000	98.916392
3289.000000	98.917993
3288.000000	98.919100
3287.000000	98.920045
3286.000000	98.921050
3285.000000	98.921970
3284.000000	98.922570
3283.000000	98.923239
3282.000000	98.925001
3281.000000	98.928449
3280.000000	98.932852
3279.000000	98.936648
3278.000000	98.938928
3277.000000	98.940074
3276.000000	98.940976
3275.000000	98.941871
3274.000000	98.942216
3273.000000	98.941618
3272.000000	98.940635
3271.000000	98.940531
3270.000000	98.942310
3269.000000	98.946045
3268.000000	98.950980
3267.000000	98.956162
3266.000000	98.961006
3265.000000	98.965296
3264.000000	98.968839
3263.000000	98.971359
3262.000000	98.972856
3261.000000	98.974039
3260.000000	98.976135
3259.000000	98.979984
3258.000000	98.985299
3257.000000	98.990764
3256.000000	98.995026
3255.000000	98.997665
3254.000000	98.999243
3253.000000	99.000685
3252.000000	99.002570
3251.000000	99.004903
3250.000000	99.007360
3249.000000	99.009679
3248.000000	99.011949
3247.000000	99.014559
3246.000000	99.017805
3245.000000	99.021605
3244.000000	99.025633
3243.000000	99.029642
3242.000000	99.033489
3241.000000	99.036914
3240.000000	99.039565
3239.000000	99.041341
3238.000000	99.042596
3237.000000	99.043948
3236.000000	99.045954
3235.000000	99.049001
3234.000000	99.053245
3233.000000	99.058442
3232.000000	99.063843
3231.000000	99.068559
3230.000000	99.072208
3229.000000	99.075140
3228.000000	99.078049
3227.000000	99.081326
3226.000000	99.084789
3225.000000	99.088035
3224.000000	99.091012
3223.000000	99.094157
3222.000000	99.097862
3221.000000	99.101875
3220.000000	99.105413
3219.000000	99.107938
3218.000000	99.109662
3217.000000	99.111321
3216.000000	99.113562
3215.000000	99.116627
3214.000000	99.120483
3213.000000	99.124927
3212.000000	99.129615
3211.000000	99.134165
3210.000000	99.138381
3209.000000	99.142436
3208.000000	99.146754
3207.000000	99.151624
3206.000000	99.156889
3205.000000	99.161981
3204.000000	99.166324
3203.000000	99.169744
3202.000000	99.172565
3201.000000	99.175408
3200.000000	99.178819
3199.000000	99.182963
3198.000000	99.187615
3197.000000	99.192405
3196.000000	99.197149
3195.000000	99.201899
3194.000000	99.206709
3193.000000	99.211451
3192.000000	99.215918
3191.000000	99.220012
3190.000000	99.223791
3189.000000	99.227421
3188.000000	99.231157
3187.000000	99.235238
3186.000000	99.239719
3185.000000	99.244446
3184.000000	99.249236
3183.000000	99.254049
3182.000000	99.258918
3181.000000	99.263791
3180.000000	99.268559
3179.000000	99.273193
3178.000000	99.277759
3177.000000	99.282314
3176.000000	99.286830
3175.000000	99.291280
3174.000000	99.295717
3173.000000	99.300231
3172.000000	99.304852
3171.000000	99.309537
3170.000000	99.314229
3169.000000	99.318881
3168.000000	99.323492
3167.000000	99.328073
3166.000000	99.332648
3165.000000	99.337233
3164.000000	99.341833
3163.000000	99.346445
3162.000000	99.351065
3161.000000	99.355691
3160.000000	99.360321
3159.000000	99.364952
3158.000000	99.369582
3157.000000	99.374202
3156.000000	99.378792
3155.000000	99.383331
3154.000000	99.387819
3153.000000	99.392267
3152.000000	99.396696
3151.000000	99.401125
3150.000000	99.405560
3149.000000	99.409998
3148.000000	99.414424
3147.000000	99.418822
3146.000000	99.423190
3145.000000	99.427537
3144.000000	99.431878
3143.000000	99.436233
3142.000000	99.440623
3141.000000	99.445053
3140.000000	99.449507
3139.000000	99.453978
3138.000000	99.458475
3137.000000	99.462949
3136.000000	99.467282
3135.000000	99.471388
3134.000000	99.475313
3133.000000	99.479248
3132.000000	99.483352
3131.000000	99.487659
3130.000000	99.492114
3129.000000	99.496640
3128.000000	99.501127
3127.000000	99.505435
3126.000000	99.509492
3125.000000	99.513386
3124.000000	99.517315
3123.000000	99.521400
3122.000000	99.525631
3121.000000	99.529947
3120.000000	99.534327
3119.000000	99.538792
3118.000000	99.543277
3117.000000	99.547516
3116.000000	99.551158
3115.000000	99.554115
3114.000000	99.556796
3113.000000	99.559857
3112.000000	99.563606
3111.000000	99.567771
3110.000000	99.571798
3109.000000	99.575340
3108.000000	99.578480
3107.000000	99.581688
3106.000000	99.585628
3105.000000	99.590771
3104.000000	99.596981
3103.000000	99.603401
3102.000000	99.608983
3101.000000	99.613154
3100.000000	99.615958
3099.000000	99.617836
3098.000000	99.619388
3097.000000	99.621187
3096.000000	99.623661
3095.000000	99.627034
3094.000000	99.631252
3093.000000	99.635872
3092.000000	99.640178
3091.000000	99.643827
3090.000000	99.647352
3089.000000	99.651617
3088.000000	99.656713
3087.000000	99.661875
3086.000000	99.666616
3085.000000	99.671341
3084.000000	99.676423
3083.000000	99.681200
3082.000000	99.684502
3081.000000	99.685950
3080.000000	99.686320
3079.000000	99.686731
3078.000000	99.687815
3077.000000	99.689745
3076.000000	99.692541
3075.000000	99.696111
3074.000000	99.700175
3073.000000	99.704410
3072.000000	99.708797
3071.000000	99.713708
3070.000000	99.719384
3069.000000	99.725211
3068.000000	99.729875
3067.000000	99.732580
3066.000000	99.733952
3065.000000	99.735398
3064.000000	99.737569
3063.000000	99.740012
3062.000000	99.742392
3061.000000	99.745404
3060.000000	99.750087
3059.000000	99.756584
3058.000000	99.763873
3057.000000	99.770571
3056.000000	99.775876
3055.000000	99.779846
3054.000000	99.783131
3053.000000	99.786447
3052.000000	99.790021
3051.000000	99.793439
3050.000000	99.796043
3049.000000	99.797492
3048.000000	99.798124
3047.000000	99.798899
3046.000000	99.800899
3045.000000	99.804622
3044.000000	99.809675
3043.000000	99.815099
3042.000000	99.819954
3041.000000	99.823756
3040.000000	99.826633
3039.000000	99.829322
3038.000000	99.832750
3037.000000	99.837135
3036.000000	99.841571
3035.000000	99.844866
3034.000000	99.846748
3033.000000	99.847858
3032.000000	99.848843
3031.000000	99.849987
3030.000000	99.851727
3029.000000	99.854771
3028.000000	99.859352
3027.000000	99.864770
3026.000000	99.869990
3025.000000	99.874499
3024.000000	99.878182
3023.000000	99.880867
3022.000000	99.882588
3021.000000	99.884035
3020.000000	99.886032
3019.000000	99.888514
3018.000000	99.890618
3017.000000	99.891965
3016.000000	99.893421
3015.000000	99.896185
3014.000000	99.900455
3013.000000	99.905249
3012.000000	99.909430
3011.000000	99.912681
3010.000000	99.915469
3009.000000	99.918326
3008.000000	99.921205
3007.000000	99.923520
3006.000000	99.924886
3005.000000	99.925836
3004.000000	99.927673
3003.000000	99.931445
3002.000000	99.937017
3001.000000	99.943043
3000.000000	99.947955
2999.000000	99.951025
2998.000000	99.952503
2997.000000	99.952882
2996.000000	99.952306
2995.000000	99.950977
2994.000000	99.949873
2993.000000	99.950398
2992.000000	99.953147
2991.000000	99.957275
2990.000000	99.961214
2989.000000	99.963849
2988.000000	99.964944
2987.000000	99.964923
2986.000000	99.964637
2985.000000	99.964987
2984.000000	99.966217
2983.000000	99.967694
2982.000000	99.968721
2981.000000	99.969373
2980.000000	99.970264
2979.000000	99.971730
2978.000000	99.973553
2977.000000	99.975257
2976.000000	99.976255
2975.000000	99.975907
2974.000000	99.974038
2973.000000	99.971451
2972.000000	99.969538
2971.000000	99.969157
2970.000000	99.970076
2969.000000	99.971379
2968.000000	99.972109
2967.000000	99.971683
2966.000000	99.970173
2965.000000	99.968462
2964.000000	99.967670
2963.000000	99.968031
2962.000000	99.968546
2961.000000	99.968085
2960.000000	99.966570
2959.000000	99.964802
2958.000000	99.963508
2957.000000	99.962980
2956.000000	99.963251
2955.000000	99.964139
2954.000000	99.965450
2953.000000	99.967474
2952.000000	99.970724
2951.000000	99.974500
2950.000000	99.976282
2949.000000	99.973887
2948.000000	99.968317
2947.000000	99.963524
2946.000000	99.962434
2945.000000	99.963774
2944.000000	99.963686
2943.000000	99.960407
2942.000000	99.956506
2941.000000	99.956015
2940.000000	99.959929
2939.000000	99.964974
2938.000000	99.966633
2937.000000	99.963136
2936.000000	99.956641
2935.000000	99.951116
2934.000000	99.949063
2933.000000	99.950053
2932.000000	99.951814
2931.000000	99.952573
2930.000000	99.952289
2929.000000	99.951902
2928.000000	99.952140
2927.000000	99.953439
2926.000000	99.956253
2925.000000	99.960384
2924.000000	99.964342
2923.000000	99.966732
2922.000000	99.968627
2921.000000	99.973326
2920.000000	99.982979
2919.000000	99.995989
2918.000000	100.008204
2917.000000	100.016640
2916.000000	100.021756
2915.000000	100.026295
2914.000000	100.032201
2913.000000	100.038649
2912.000000	100.043037
2911.000000	100.044067
2910.000000	100.043570
2909.000000	100.044924
2908.000000	100.049860
2907.000000	100.057431
2906.000000	100.065622
2905.000000	100.072892
2904.000000	100.078216
2903.000000	100.081185
2902.000000	100.082839
2901.000000	100.085450
2900.000000	100.090544
2899.000000	100.097626
2898.000000	100.105570
2897.000000	100.114056
2896.000000	100.122772
2895.000000	100.129951
2894.000000	100.133346
2893.000000	100.132597
2892.000000	100.129617
2891.000000	100.126883
2890.000000	100.126029
2889.000000	100.127958
2888.000000	100.133027
2887.000000	100.140409
2886.000000	100.147945
2885.000000	100.153514
2884.000000	100.156623
2883.000000	100.158489
2882.000000	100.160742
2881.000000	100.164056
2880.000000	100.167919
2879.000000	100.171505
2878.000000	100.174574
2877.000000	100.177325
2876.000000	100.179445
2875.000000	100.179963
2874.000000	100.178603
2873.000000	100.176933
2872.000000	100.177343
2871.000000	100.180861
2870.000000	100.186483
2869.000000	100.192378
2868.000000	100.197191
2867.000000	100.200356
2866.000000	100.202193
2865.000000	100.204068
2864.000000	100.207396
2863.000000	100.211681
2862.000000	100.214188
2861.000000	100.212604
2860.000000	100.208042
2859.000000	100.204721
2858.000000	100.206153
2857.000000	100.212037
2856.000000	100.218768
2855.000000	100.222963
2854.000000	100.224479
2853.000000	100.225882
2852.000000	100.229460
2851.000000	100.235378
2850.000000	100.242619
2849.000000	100.250617
2848.000000	100.259160
2847.000000	100.267411
2846.000000	100.274417
2845.000000	100.280556
2844.000000	100.287277
2843.000000	100.295132
2842.000000	100.302948
2841.000000	100.309314
2840.000000	100.314081
2839.000000	100.318039
2838.000000	100.321844
2837.000000	100.325738
2836.000000	100.329727
2835.000000	100.333496
2834.000000	100.336507
2833.000000	100.338682
2832.000000	100.340741
2831.000000	100.343492
2830.000000	100.346943
2829.000000	100.350387
2828.000000	100.353123
2827.000000	100.354919
2826.000000	100.356004
2825.000000	100.356837
2824.000000	100.357730
2823.000000	100.358633
2822.000000	100.359585
2821.000000	100.361394
2820.000000	100.365400
2819.000000	100.372238
2818.000000	100.380861
2817.000000	100.388907
2816.000000	100.394268
2815.000000	100.396499
2814.000000	100.397129
2813.000000	100.398668
2812.000000	100.402687
2811.000000	100.408687
2810.000000	100.414877
2809.000000	100.419884
2808.000000	100.423478
2807.000000	100.425849
2806.000000	100.427058
2805.000000	100.427534
2804.000000	100.428408
2803.000000	100.430678
2802.000000	100.434283
2801.000000	100.438406
2800.000000	100.442401
2799.000000	100.445947
2798.000000	100.448567
2797.000000	100.449742
2796.000000	100.449693
2795.000000	100.449583
2794.000000	100.450573
2793.000000	100.452856
2792.000000	100.455818
2791.000000	100.458896
2790.000000	100.461983
2789.000000	100.465051
2788.000000	100.467732
2787.000000	100.469529
2786.000000	100.470335
2785.000000	100.470589
2784.000000	100.470900
2783.000000	100.471650
2782.000000	100.472961
2781.000000	100.474848
2780.000000	100.477264
2779.000000	100.480099
2778.000000	100.483307
2777.000000	100.487006
2776.000000	100.491267
2775.000000	100.495878
2774.000000	100.500450
2773.000000	100.504612
2772.000000	100.507879
2771.000000	100.509448
2770.000000	100.508660
2769.000000	100.505920
2768.000000	100.502987
2767.000000	100.501765
2766.000000	100.502863
2765.000000	100.505645
2764.000000	100.509259
2763.000000	100.513271
2762.000000	100.517257
2761.000000	100.520388
2760.000000	100.522086
2759.000000	100.522837
2758.000000	100.523761
2757.000000	100.525275
2756.000000	100.526734
2755.000000	100.527603
2754.000000	100.528386
2753.000000	100.529987
2752.000000	100.532494
2751.000000	100.535089
2750.000000	100.537052
2749.000000	100.538429
2748.000000	100.539630
2747.000000	100.540802
2746.000000	100.541811
2745.000000	100.542618
2744.000000	100.543410
2743.000000	100.544424
2742.000000	100.545731
2741.000000	100.547129
2740.000000	100.548273
2739.000000	100.549062
2738.000000	100.549848
2737.000000	100.551082
2736.000000	100.552755
2735.000000	100.554363
2734.000000	100.555469
2733.000000	100.556140
2732.000000	100.556689
2731.000000	100.557258
2730.000000	100.557832
2729.000000	100.558492
2728.000000	100.559361
2727.000000	100.560344
2726.000000	100.561185
2725.000000	100.561821
2724.000000	100.562469
2723.000000	100.563276
2722.000000	100.564099
2721.000000	100.564740
2720.000000	100.565242
2719.000000	100.565860
2718.000000	100.566789
2717.000000	100.567978
2716.000000	100.569098
2715.000000	100.569751
2714.000000	100.569771
2713.000000	100.569407
2712.000000	100.569170
2711.000000	100.569344
2710.000000	100.569878
2709.000000	100.570674
2708.000000	100.571756
2707.000000	100.573038
2706.000000	100.574208
2705.000000	100.575108
2704.000000	100.575921
2703.000000	100.576868
2702.000000	100.577887
2701.000000	100.578731
2700.000000	100.579294
2699.000000	100.579666
2698.000000	100.579973
2697.000000	100.580294
2696.000000	100.580704
2695.000000	100.581240
2694.000000	100.581859
2693.000000	100.582475
2692.000000	100.583065
2691.000000	100.583674
2690.000000	100.584345
2689.000000	100.585079
2688.000000	100.585840
2687.000000	100.586586
2686.000000	100.587301
2685.000000	100.587994
2684.000000	100.588690
2683.000000	100.589422
2682.000000	100.590199
2681.000000	100.591005
2680.000000	100.591814
2679.000000	100.592600
2678.000000	100.593349
2677.000000	100.594056
2676.000000	100.594736
2675.000000	100.595410
2674.000000	100.596090
2673.000000	100.596777
2672.000000	100.597467
2671.000000	100.598158
2670.000000	100.598851
2669.000000	100.599551
2668.000000	100.600258
2667.000000	100.600966
2666.000000	100.601664
2665.000000	100.602331
2664.000000	100.602953
2663.000000	100.603527
2662.000000	100.604085
2661.000000	100.604662
2660.000000	100.605266
2659.000000	100.605868
2658.000000	100.606444
2657.000000	100.607014
2656.000000	100.607634
2655.000000	100.608348
2654.000000	100.609160
2653.000000	100.610026
2652.000000	100.610893
2651.000000	100.611719
2650.000000	100.612479
2649.000000	100.613156
2648.000000	100.613776
2647.000000	100.614427
2646.000000	100.615233
2645.000000	100.616219
2644.000000	100.617193
2643.000000	100.617866
2642.000000	100.618120
2641.000000	100.618095
2640.000000	100.618050
2639.000000	100.618182
2638.000000	100.618597
2637.000000	100.619308
2636.000000	100.620152
2635.000000	100.620826
2634.000000	100.621203
2633.000000	100.621542
2632.000000	100.622238
2631.000000	100.623356
2630.000000	100.624524
2629.000000	100.625327
2628.000000	100.625714
2627.000000	100.625897
2626.000000	100.625984
2625.000000	100.625900
2624.000000	100.625717
2623.000000	100.625804
2622.000000	100.626524
2621.000000	100.627838
2620.000000	100.629291
2619.000000	100.630447
2618.000000	100.631271
2617.000000	100.632027
2616.000000	100.632796
2615.000000	100.633228
2614.000000	100.632945
2613.000000	100.632101
2612.000000	100.631403
2611.000000	100.631443
2610.000000	100.632206
2609.000000	100.633295
2608.000000	100.634417
2607.000000	100.635540
2606.000000	100.636736
2605.000000	100.638052
2604.000000	100.639443
2603.000000	100.640617
2602.000000	100.641127
2601.000000	100.640760
2600.000000	100.639779
2599.000000	100.638737
2598.000000	100.638069
2597.000000	100.638008
2596.000000	100.638621
2595.000000	100.639596
2594.000000	100.640193
2593.000000	100.639804
2592.000000	100.638590
2591.000000	100.637381
2590.000000	100.636858
2589.000000	100.637110
2588.000000	100.637931
2587.000000	100.639247
2586.000000	100.641058
2585.000000	100.643148
2584.000000	100.645138
2583.000000	100.646723
2582.000000	100.647748
2581.000000	100.648126
2580.000000	100.647848
2579.000000	100.647136
2578.000000	100.646436
2577.000000	100.646071
2576.000000	100.645930
2575.000000	100.645699
2574.000000	100.645503
2573.000000	100.646058
2572.000000	100.647846
2571.000000	100.650259
2570.000000	100.651937
2569.000000	100.652197
2568.000000	100.651632
2567.000000	100.651257
2566.000000	100.651418
2565.000000	100.651882
2564.000000	100.652636
2563.000000	100.653865
2562.000000	100.655300
2561.000000	100.656254
2560.000000	100.656450
2559.000000	100.656399
2558.000000	100.656825
2557.000000	100.657916
2556.000000	100.659323
2555.000000	100.660646
2554.000000	100.661738
2553.000000	100.662646
2552.000000	100.663519
2551.000000	100.664550
2550.000000	100.665841
2549.000000	100.667272
2548.000000	100.668634
2547.000000	100.669861
2546.000000	100.670994
2545.000000	100.672010
2544.000000	100.672820
2543.000000	100.673438
2542.000000	100.674014
2541.000000	100.674657
2540.000000	100.675333
2539.000000	100.675992
2538.000000	100.676684
2537.000000	100.677481
2536.000000	100.678369
2535.000000	100.679265
2534.000000	100.680126
2533.000000	100.680990
2532.000000	100.681887
2531.000000	100.682775
2530.000000	100.683598
2529.000000	100.684371
2528.000000	100.685182
2527.000000	100.686100
2526.000000	100.687107
2525.000000	100.688109
2524.000000	100.689029
2523.000000	100.689864
2522.000000	100.690679
2521.000000	100.691561
2520.000000	100.692538
2519.000000	100.693560
2518.000000	100.694544
2517.000000	100.695449
2516.000000	100.696283
2515.000000	100.697060
2514.000000	100.697791
2513.000000	100.698515
2512.000000	100.699306
2511.000000	100.700236
2510.000000	100.701344
2509.000000	100.702606
2508.000000	100.703891
2507.000000	100.704992
2506.000000	100.705780
2505.000000	100.706325
2504.000000	100.706884
2503.000000	100.707693
2502.000000	100.708830
2501.000000	100.710269
2500.000000	100.711917
2499.000000	100.713601
2498.000000	100.715139
2497.000000	100.716502
2496.000000	100.717826
2495.000000	100.719138
2494.000000	100.720221
2493.000000	100.720888
2492.000000	100.721272
2491.000000	100.721709
2490.000000	100.722418
2489.000000	100.723395
2488.000000	100.724532
2487.000000	100.725713
2486.000000	100.726899
2485.000000	100.728235
2484.000000	100.729919
2483.000000	100.731859
2482.000000	100.733594
2481.000000	100.734729
2480.000000	100.735386
2479.000000	100.736043
2478.000000	100.737046
2477.000000	100.738379
2476.000000	100.739751
2475.000000	100.740819
2474.000000	100.741486
2473.000000	100.742079
2472.000000	100.743076
2471.000000	100.744520
2470.000000	100.745881
2469.000000	100.746672
2468.000000	100.747080
2467.000000	100.747767
2466.000000	100.749071
2465.000000	100.750664
2464.000000	100.752039
2463.000000	100.753136
2462.000000	100.754282
2461.000000	100.755662
2460.000000	100.757105
2459.000000	100.758350
2458.000000	100.759397
2457.000000	100.760470
2456.000000	100.761703
2455.000000	100.762973
2454.000000	100.764134
2453.000000	100.765315
2452.000000	100.766817
2451.000000	100.768733
2450.000000	100.770786
2449.000000	100.772562
2448.000000	100.773887
2447.000000	100.774952
2446.000000	100.776183
2445.000000	100.777934
2444.000000	100.780167
2443.000000	100.782330
2442.000000	100.783813
2441.000000	100.784578
2440.000000	100.785249
2439.000000	100.786381
2438.000000	100.787878
2437.000000	100.789308
2436.000000	100.790518
2435.000000	100.791692
2434.000000	100.792924
2433.000000	100.794017
2432.000000	100.794766
2431.000000	100.795196
2430.000000	100.795497
2429.000000	100.795929
2428.000000	100.796783
2427.000000	100.798255
2426.000000	100.800242
2425.000000	100.802284
2424.000000	100.803863
2423.000000	100.804780
2422.000000	100.805247
2421.000000	100.805627
2420.000000	100.806150
2419.000000	100.806855
2418.000000	100.807719
2417.000000	100.808748
2416.000000	100.809873
2415.000000	100.810823
2414.000000	100.811275
2413.000000	100.811202
2412.000000	100.810946
2411.000000	100.810890
2410.000000	100.811188
2409.000000	100.811916
2408.000000	100.813192
2407.000000	100.814975
2406.000000	100.816877
2405.000000	100.818386
2404.000000	100.819228
2403.000000	100.819300
2402.000000	100.818376
2401.000000	100.816541
2400.000000	100.814579
2399.000000	100.813516
2398.000000	100.813759
2397.000000	100.814669
2396.000000	100.815245
2395.000000	100.815225
2394.000000	100.815221
2393.000000	100.815829
2392.000000	100.816792
2391.000000	100.817194
2390.000000	100.816449
2389.000000	100.814875
2388.000000	100.813286
2387.000000	100.812171
2386.000000	100.811466
2385.000000	100.811019
2384.000000	100.810899
2383.000000	100.811238
2382.000000	100.812202
2381.000000	100.814063
2380.000000	100.816783
2379.000000	100.819561
2378.000000	100.821122
2377.000000	100.820820
2376.000000	100.819306
2375.000000	100.817757
2374.000000	100.816663
2373.000000	100.815711
2372.000000	100.814717
2371.000000	100.814121
2370.000000	100.814464
2369.000000	100.815764
2368.000000	100.817490
2367.000000	100.818886
2366.000000	100.819379
2365.000000	100.818949
2364.000000	100.817997
2363.000000	100.816533
2362.000000	100.814102
2361.000000	100.810989
2360.000000	100.808647
2359.000000	100.808389
2358.000000	100.810172
2357.000000	100.812859
2356.000000	100.815342
2355.000000	100.816974
2354.000000	100.817687
2353.000000	100.817851
2352.000000	100.817803
2351.000000	100.817585
2350.000000	100.816942
2349.000000	100.815820
2348.000000	100.814465
2347.000000	100.813342
2346.000000	100.812926
2345.000000	100.813263
2344.000000	100.814054
2343.000000	100.814745
2342.000000	100.814865
2341.000000	100.814285
2340.000000	100.813220
2339.000000	100.812194
2338.000000	100.811541
2337.000000	100.811155
2336.000000	100.810650
2335.000000	100.809765
2334.000000	100.808565
2333.000000	100.807294
2332.000000	100.806125
2331.000000	100.805075
2330.000000	100.804056
2329.000000	100.803001
2328.000000	100.801870
2327.000000	100.800634
2326.000000	100.799304
2325.000000	100.797923
2324.000000	100.796569
2323.000000	100.795272
2322.000000	100.794011
2321.000000	100.792740
2320.000000	100.791434
2319.000000	100.790097
2318.000000	100.788731
2317.000000	100.787328
2316.000000	100.785877
2315.000000	100.784380
2314.000000	100.782851
2313.000000	100.781310
2312.000000	100.779774
2311.000000	100.778252
2310.000000	100.776746
2309.000000	100.775259
2308.000000	100.773801
2307.000000	100.772367
2306.000000	100.770906
2305.000000	100.769312
2304.000000	100.767493
2303.000000	100.765486
2302.000000	100.763537
2301.000000	100.761916
2300.000000	100.760717
2299.000000	100.759805
2298.000000	100.758847
2297.000000	100.757546
2296.000000	100.755830
2295.000000	100.753884
2294.000000	100.752063
2293.000000	100.750550
2292.000000	100.749389
2291.000000	100.748341
2290.000000	100.747150
2289.000000	100.745818
2288.000000	100.744678
2287.000000	100.744011
2286.000000	100.743776
2285.000000	100.743656
2284.000000	100.743398
2283.000000	100.742995
2282.000000	100.742599
2281.000000	100.742318
2280.000000	100.742035
2279.000000	100.741445
2278.000000	100.740267
2277.000000	100.738588
2276.000000	100.736914
2275.000000	100.735669
2274.000000	100.734709
2273.000000	100.733516
2272.000000	100.731778
2271.000000	100.729695
2270.000000	100.727810
2269.000000	100.726593
2268.000000	100.726119
2267.000000	100.725988
2266.000000	100.725590
2265.000000	100.724629
2264.000000	100.723367
2263.000000	100.722304
2262.000000	100.721672
2261.000000	100.721292
2260.000000	100.720861
2259.000000	100.720189
2258.000000	100.719259
2257.000000	100.718231
2256.000000	100.717389
2255.000000	100.716940
2254.000000	100.716756
2253.000000	100.716386
2252.000000	100.715404
2251.000000	100.713751
2250.000000	100.711849
2249.000000	100.710360
2248.000000	100.709636
2247.000000	100.709457
2246.000000	100.709244
2245.000000	100.708649
2244.000000	100.707870
2243.000000	100.707232
2242.000000	100.706675
2241.000000	100.705834
2240.000000	100.704592
2239.000000	100.703341
2238.000000	100.702606
2237.000000	100.702547
2236.000000	100.702940
2235.000000	100.703462
2234.000000	100.703890
2233.000000	100.704080
2232.000000	100.703937
2231.000000	100.703493
2230.000000	100.702946
2229.000000	100.702541
2228.000000	100.702387
2227.000000	100.702451
2226.000000	100.702668
2225.000000	100.702989
2224.000000	100.703295
2223.000000	100.703383
2222.000000	100.703133
2221.000000	100.702642
2220.000000	100.702185
2219.000000	100.702009
2218.000000	100.702182
2217.000000	100.702619
2216.000000	100.703150
2215.000000	100.703588
2214.000000	100.703831
2213.000000	100.703908
2212.000000	100.703946
2211.000000	100.704047
2210.000000	100.704210
2209.000000	100.704369
2208.000000	100.704457
2207.000000	100.704442
2206.000000	100.704374
2205.000000	100.704426
2204.000000	100.704754
2203.000000	100.705333
2202.000000	100.705961
2201.000000	100.706446
2200.000000	100.706799
2199.000000	100.707140
2198.000000	100.707551
2197.000000	100.708007
2196.000000	100.708450
2195.000000	100.708870
2194.000000	100.709299
2193.000000	100.709768
2192.000000	100.710267
2191.000000	100.710757
2190.000000	100.711210
2189.000000	100.711649
2188.000000	100.712126
2187.000000	100.712658
2186.000000	100.713185
2185.000000	100.713634
2184.000000	100.713994
2183.000000	100.714324
2182.000000	100.714699
2181.000000	100.715138
2180.000000	100.715621
2179.000000	100.716118
2178.000000	100.716611
2177.000000	100.717098
2176.000000	100.717585
2175.000000	100.718072
2174.000000	100.718559
2173.000000	100.719050
2172.000000	100.719554
2171.000000	100.720073
2170.000000	100.720603
2169.000000	100.721143
2168.000000	100.721695
2167.000000	100.722256
2166.000000	100.722814
2165.000000	100.723354
2164.000000	100.723876
2163.000000	100.724389
2162.000000	100.724898
2161.000000	100.725406
2160.000000	100.725919
2159.000000	100.726441
2158.000000	100.726963
2157.000000	100.727479
2156.000000	100.728002
2155.000000	100.728542
2154.000000	100.729093
2153.000000	100.729642
2152.000000	100.730193
2151.000000	100.730775
2150.000000	100.731412
2149.000000	100.732098
2148.000000	100.732795
2147.000000	100.733475
2146.000000	100.734143
2145.000000	100.734846
2144.000000	100.735640
2143.000000	100.736528
2142.000000	100.737423
2141.000000	100.738208
2140.000000	100.738857
2139.000000	100.739514
2138.000000	100.740315
2137.000000	100.741222
2136.000000	100.742120
2135.000000	100.743030
2134.000000	100.744056
2133.000000	100.745195
2132.000000	100.746348
2131.000000	100.747498
2130.000000	100.748731
2129.000000	100.750082
2128.000000	100.751463
2127.000000	100.752776
2126.000000	100.754018
2125.000000	100.755222
2124.000000	100.756355
2123.000000	100.757307
2122.000000	100.757996
2121.000000	100.758514
2120.000000	100.759169
2119.000000	100.760289
2118.000000	100.761945
2117.000000	100.763803
2116.000000	100.765400
2115.000000	100.766645
2114.000000	100.767937
2113.000000	100.769714
2112.000000	100.771917
2111.000000	100.773980
2110.000000	100.775417
2109.000000	100.776327
2108.000000	100.777258
2107.000000	100.778590
2106.000000	100.780248
2105.000000	100.782027
2104.000000	100.783905
2103.000000	100.785840
2102.000000	100.787526
2101.000000	100.788648
2100.000000	100.789247
2099.000000	100.789596
2098.000000	100.789911
2097.000000	100.790353
2096.000000	100.791146
2095.000000	100.792432
2094.000000	100.794067
2093.000000	100.795778
2092.000000	100.797455
2091.000000	100.799098
2090.000000	100.800536
2089.000000	100.801392
2088.000000	100.801395
2087.000000	100.800643
2086.000000	100.799616
2085.000000	100.799035
2084.000000	100.799579
2083.000000	100.801545
2082.000000	100.804711
2081.000000	100.808447
2080.000000	100.811869
2079.000000	100.814073
2078.000000	100.814656
2077.000000	100.814223
2076.000000	100.813923
2075.000000	100.814190
2074.000000	100.814397
2073.000000	100.814145
2072.000000	100.814343
2071.000000	100.816320
2070.000000	100.820041
2069.000000	100.823737
2068.000000	100.825359
2067.000000	100.824116
2066.000000	100.820902
2065.000000	100.817726
2064.000000	100.816274
2063.000000	100.816555
2062.000000	100.817201
2061.000000	100.817279
2060.000000	100.817337
2059.000000	100.818247
2058.000000	100.819526
2057.000000	100.819727
2056.000000	100.818362
2055.000000	100.816671
2054.000000	100.816437
2053.000000	100.818424
2052.000000	100.821791
2051.000000	100.824547
2050.000000	100.824854
2049.000000	100.822574
2048.000000	100.819432
2047.000000	100.817089
2046.000000	100.815409
2045.000000	100.813340
2044.000000	100.810838
2043.000000	100.808776
2042.000000	100.807260
2041.000000	100.805403
2040.000000	100.802985
2039.000000	100.801093
2038.000000	100.800465
2037.000000	100.800131
2036.000000	100.798565
2035.000000	100.795777
2034.000000	100.793383
2033.000000	100.792566
2032.000000	100.792658
2031.000000	100.792127
2030.000000	100.790504
2029.000000	100.788719
2028.000000	100.787536
2027.000000	100.786296
2026.000000	100.783659
2025.000000	100.779192
2024.000000	100.773785
2023.000000	100.768690
2022.000000	100.764674
2021.000000	100.762069
2020.000000	100.760955
2019.000000	100.761109
2018.000000	100.762077
2017.000000	100.763344
2016.000000	100.764254
2015.000000	100.764071
2014.000000	100.762640
2013.000000	100.760746
2012.000000	100.759217
2011.000000	100.757690
2010.000000	100.755074
2009.000000	100.751290
2008.000000	100.747776
2007.000000	100.745905
2006.000000	100.745624
2005.000000	100.745923
2004.000000	100.746006
2003.000000	100.745545
2002.000000	100.744244
2001.000000	100.741998
2000.000000	100.739464
1999.000000	100.737765
1998.000000	100.737383
1997.000000	100.737758
1996.000000	100.737999
1995.000000	100.737647
1994.000000	100.736694
1993.000000	100.735363
1992.000000	100.734070
1991.000000	100.733206
1990.000000	100.732835
1989.000000	100.732805
1988.000000	100.732979
1987.000000	100.733115
1986.000000	100.732776
1985.000000	100.731793
1984.000000	100.730680
1983.000000	100.730156
1982.000000	100.730296
1981.000000	100.730544
1980.000000	100.730480
1979.000000	100.730111
1978.000000	100.729477
1977.000000	100.728559
1976.000000	100.727632
1975.000000	100.727196
1974.000000	100.727432
1973.000000	100.728145
1972.000000	100.729257
1971.000000	100.730828
1970.000000	100.732545
1969.000000	100.733849
1968.000000	100.734684
1967.000000	100.735478
1966.000000	100.736174
1965.000000	100.736034
1964.000000	100.734659
1963.000000	100.732484
1962.000000	100.730156
1961.000000	100.728134
1960.000000	100.727031
1959.000000	100.727510
1958.000000	100.729404
1957.000000	100.731518
1956.000000	100.732644
1955.000000	100.732393
1954.000000	100.731018
1953.000000	100.729216
1952.000000	100.728107
1951.000000	100.728471
1950.000000	100.729699
1949.000000	100.730318
1948.000000	100.729829
1947.000000	100.729246
1946.000000	100.729402
1945.000000	100.729504
1944.000000	100.728042
1943.000000	100.724699
1942.000000	100.720775
1941.000000	100.717807
1940.000000	100.716408
1939.000000	100.716360
1938.000000	100.717069
1937.000000	100.718084
1936.000000	100.719462
1935.000000	100.721373
1934.000000	100.723243
1933.000000	100.723781
1932.000000	100.722039
1931.000000	100.718147
1930.000000	100.713254
1929.000000	100.708891
1928.000000	100.706093
1927.000000	100.704758
1926.000000	100.703786
1925.000000	100.702135
1924.000000	100.699715
1923.000000	100.697198
1922.000000	100.695198
1921.000000	100.693959
1920.000000	100.693543
1919.000000	100.693522
1918.000000	100.692622
1917.000000	100.689610
1916.000000	100.684376
1915.000000	100.677503
1914.000000	100.669556
1913.000000	100.661848
1912.000000	100.656850
1911.000000	100.656121
1910.000000	100.657878
1909.000000	100.657907
1908.000000	100.653795
1907.000000	100.646967
1906.000000	100.640040
1905.000000	100.633917
1904.000000	100.628118
1903.000000	100.622688
1902.000000	100.618452
1901.000000	100.615618
1900.000000	100.613392
1899.000000	100.610871
1898.000000	100.607431
1897.000000	100.602689
1896.000000	100.596742
1895.000000	100.590296
1894.000000	100.584185
1893.000000	100.578976
1892.000000	100.575319
1891.000000	100.573947
1890.000000	100.574424
1889.000000	100.574475
1888.000000	100.572263
1887.000000	100.568786
1886.000000	100.566244
1885.000000	100.564984
1884.000000	100.563473
1883.000000	100.560941
1882.000000	100.558590
1881.000000	100.557492
1880.000000	100.556781
1879.000000	100.555056
1878.000000	100.552763
1877.000000	100.552115
1876.000000	100.554442
1875.000000	100.558127
1874.000000	100.559694
1873.000000	100.556945
1872.000000	100.550769
1871.000000	100.544114
1870.000000	100.539940
1869.000000	100.539753
1868.000000	100.542814
1867.000000	100.547347
1866.000000	100.552664
1865.000000	100.559266
1864.000000	100.567997
1863.000000	100.579307
1862.000000	100.592175
1861.000000	100.603798
1860.000000	100.611461
1859.000000	100.615267
1858.000000	100.618484
1857.000000	100.624556
1856.000000	100.633692
1855.000000	100.642578
1854.000000	100.647469
1853.000000	100.647919
1852.000000	100.647685
1851.000000	100.651420
1850.000000	100.660229
1849.000000	100.670955
1848.000000	100.679649
1847.000000	100.684998
1846.000000	100.688083
1845.000000	100.690319
1844.000000	100.692705
1843.000000	100.695873
1842.000000	100.699664
1841.000000	100.703230
1840.000000	100.706450
1839.000000	100.710362
1838.000000	100.715482
1837.000000	100.720561
1836.000000	100.723896
1835.000000	100.725320
1834.000000	100.725995
1833.000000	100.727247
1832.000000	100.730458
1831.000000	100.736477
1830.000000	100.743245
1829.000000	100.746387
1828.000000	100.744654
1827.000000	100.741458
1826.000000	100.740631
1825.000000	100.742647
1824.000000	100.744511
1823.000000	100.743384
1822.000000	100.739265
1821.000000	100.734065
1820.000000	100.730162
1819.000000	100.729261
1818.000000	100.731364
1817.000000	100.734653
1816.000000	100.736731
1815.000000	100.736730
1814.000000	100.735800
1813.000000	100.735391
1812.000000	100.735660
1811.000000	100.735569
1810.000000	100.734883
1809.000000	100.734954
1808.000000	100.736264
1807.000000	100.736851
1806.000000	100.734688
1805.000000	100.730802
1804.000000	100.728685
1803.000000	100.730527
1802.000000	100.734890
1801.000000	100.738195
1800.000000	100.738317
1799.000000	100.736187
1798.000000	100.734130
1797.000000	100.733408
1796.000000	100.733571
1795.000000	100.733798
1794.000000	100.734322
1793.000000	100.736611
1792.000000	100.741664
1791.000000	100.747704
1790.000000	100.751779
1789.000000	100.753384
1788.000000	100.754496
1787.000000	100.757111
1786.000000	100.761332
1785.000000	100.765356
1784.000000	100.767156
1783.000000	100.766299
1782.000000	100.764104
1781.000000	100.762903
1780.000000	100.764938
1779.000000	100.770199
1778.000000	100.776300
1777.000000	100.780914
1776.000000	100.783966
1775.000000	100.787555
1774.000000	100.793187
1773.000000	100.799281
1772.000000	100.803075
1771.000000	100.805103
1770.000000	100.807969
1769.000000	100.812381
1768.000000	100.817431
1767.000000	100.821639
1766.000000	100.823452
1765.000000	100.822496
1764.000000	100.820321
1763.000000	100.819935
1762.000000	100.822575
1761.000000	100.825111
1760.000000	100.823930
1759.000000	100.819032
1758.000000	100.812920
1757.000000	100.808415
1756.000000	100.807428
1755.000000	100.809847
1754.000000	100.813353
1753.000000	100.814918
1752.000000	100.813497
1751.000000	100.811639
1750.000000	100.811713
1749.000000	100.811818
1748.000000	100.809293
1747.000000	100.805180
1746.000000	100.802331
1745.000000	100.801642
1744.000000	100.801958
1743.000000	100.801610
1742.000000	100.799039
1741.000000	100.793499
1740.000000	100.786340
1739.000000	100.780729
1738.000000	100.778460
1737.000000	100.778110
1736.000000	100.776997
1735.000000	100.772371
1734.000000	100.762280
1733.000000	100.749201
1732.000000	100.738140
1731.000000	100.730420
1730.000000	100.724433
1729.000000	100.719047
1728.000000	100.714434
1727.000000	100.711034
1726.000000	100.708132
1725.000000	100.704697
1724.000000	100.700861
1723.000000	100.696665
1722.000000	100.690389
1721.000000	100.680473
1720.000000	100.668518
1719.000000	100.659095
1718.000000	100.654807
1717.000000	100.651868
1716.000000	100.645366
1715.000000	100.635126
1714.000000	100.622593
1713.000000	100.608562
1712.000000	100.594502
1711.000000	100.582265
1710.000000	100.572182
1709.000000	100.563068
1708.000000	100.554476
1707.000000	100.546724
1706.000000	100.538061
1705.000000	100.525044
1704.000000	100.507419
1703.000000	100.487700
1702.000000	100.466547
1701.000000	100.441895
1700.000000	100.415078
1699.000000	100.393557
1698.000000	100.380429
1697.000000	100.370979
1696.000000	100.358987
1695.000000	100.342230
1694.000000	100.324256
1693.000000	100.307841
1692.000000	100.292127
1691.000000	100.276232
1690.000000	100.259751
1689.000000	100.241602
1688.000000	100.221064
1687.000000	100.198641
1686.000000	100.174733
1685.000000	100.148295
1684.000000	100.121184
1683.000000	100.100225
1682.000000	100.087181
1681.000000	100.076488
1680.000000	100.063305
1679.000000	100.046828
1678.000000	100.028647
1677.000000	100.009674
1676.000000	99.989738
1675.000000	99.969789
1674.000000	99.951681
1673.000000	99.935681
1672.000000	99.920442
1671.000000	99.904821
1670.000000	99.888428
1669.000000	99.871419
1668.000000	99.855318
1667.000000	99.841650
1666.000000	99.829002
1665.000000	99.813880
1664.000000	99.793574
1663.000000	99.768932
1662.000000	99.745133
1661.000000	99.726873
1660.000000	99.714004
1659.000000	99.703287
1658.000000	99.691028
1657.000000	99.675647
1656.000000	99.658387
1655.000000	99.642001
1654.000000	99.625020
1653.000000	99.599161
1652.000000	99.572737
1651.000000	99.564042
1650.000000	99.570046
1649.000000	99.577354
1648.000000	99.575498
1647.000000	99.562142
1646.000000	99.547182
1645.000000	99.539239
1644.000000	99.536130
1643.000000	99.531844
1642.000000	99.524383
1641.000000	99.516205
1640.000000	99.510809
1639.000000	99.509060
1638.000000	99.509144
1637.000000	99.509159
1636.000000	99.508720
1635.000000	99.508554
1634.000000	99.509523
1633.000000	99.511430
1632.000000	99.513481
1631.000000	99.516133
1630.000000	99.520308
1629.000000	99.525377
1628.000000	99.529594
1627.000000	99.532177
1626.000000	99.533683
1625.000000	99.535299
1624.000000	99.539426
1623.000000	99.548610
1622.000000	99.561669
1621.000000	99.573974
1620.000000	99.582498
1619.000000	99.587841
1618.000000	99.592990
1617.000000	99.600199
1616.000000	99.608973
1615.000000	99.618572
1614.000000	99.628389
1613.000000	99.637014
1612.000000	99.644221
1611.000000	99.651774
1610.000000	99.661553
1609.000000	99.673308
1608.000000	99.685000
1607.000000	99.694937
1606.000000	99.703316
1605.000000	99.712407
1604.000000	99.725207
1603.000000	99.742378
1602.000000	99.760060
1601.000000	99.772807
1600.000000	99.779284
1599.000000	99.783153
1598.000000	99.788703
1597.000000	99.797520
1596.000000	99.809317
1595.000000	99.823482
1594.000000	99.838532
1593.000000	99.851948
1592.000000	99.862390
1591.000000	99.871144
1590.000000	99.880448
1589.000000	99.891138
1588.000000	99.902850
1587.000000	99.915532
1586.000000	99.929240
1585.000000	99.943082
1584.000000	99.955633
1583.000000	99.966070
1582.000000	99.974380
1581.000000	99.981131
1580.000000	99.987341
1579.000000	99.994012
1578.000000	100.001303
1577.000000	100.007977
1576.000000	100.012770
1575.000000	100.017265
1574.000000	100.023195
1573.000000	100.028901
1572.000000	100.032968
1571.000000	100.037712
1570.000000	100.047065
1569.000000	100.059916
1568.000000	100.070553
1567.000000	100.076804
1566.000000	100.081143
1565.000000	100.086348
1564.000000	100.092677
1563.000000	100.097998
1562.000000	100.100965
1561.000000	100.102219
1560.000000	100.105075
1559.000000	100.113262
1558.000000	100.123230
1557.000000	100.130821
1556.000000	100.137405
1555.000000	100.143491
1554.000000	100.148384
1553.000000	100.151880
1552.000000	100.154917
1551.000000	100.159028
1550.000000	100.164962
1549.000000	100.171959
1548.000000	100.178456
1547.000000	100.183715
1546.000000	100.187810
1545.000000	100.191427
1544.000000	100.195906
1543.000000	100.202502
1542.000000	100.211570
1541.000000	100.222145
1540.000000	100.231024
1539.000000	100.236252
1538.000000	100.240203
1537.000000	100.244874
1536.000000	100.249960
1535.000000	100.255617
1534.000000	100.263092
1533.000000	100.272287
1532.000000	100.280660
1531.000000	100.286524
1530.000000	100.290675
1529.000000	100.294850
1528.000000	100.300343
1527.000000	100.307562
1526.000000	100.316113
1525.000000	100.325104
1524.000000	100.333753
1523.000000	100.341639
1522.000000	100.348447
1521.000000	100.353745
1520.000000	100.358456
1519.000000	100.365772
1518.000000	100.378685
1517.000000	100.396377
1516.000000	100.412410
1515.000000	100.421324
1514.000000	100.425047
1513.000000	100.428845
1512.000000	100.436133
1511.000000	100.446458
1510.000000	100.457366
1509.000000	100.467828
1508.000000	100.481105
1507.000000	100.500729
1506.000000	100.518938
1505.000000	100.528755
1504.000000	100.534576
1503.000000	100.538879
1502.000000	100.540768
1501.000000	100.540177
1500.000000	100.538531
1499.000000	100.538780
1498.000000	100.543614
1497.000000	100.554524
1496.000000	100.569839
1495.000000	100.585202
1494.000000	100.597880
1493.000000	100.608488
1492.000000	100.619531
1491.000000	100.633168
1490.000000	100.647514
1489.000000	100.656904
1488.000000	100.658719
1487.000000	100.656212
1486.000000	100.653579
1485.000000	100.651393
1484.000000	100.648454
1483.000000	100.645848
1482.000000	100.646341
1481.000000	100.650326
1480.000000	100.654082
1479.000000	100.653497
1478.000000	100.647553
1477.000000	100.638360
1476.000000	100.629738
1475.000000	100.624998
1474.000000	100.626070
1473.000000	100.632051
1472.000000	100.636698
1471.000000	100.633956
1470.000000	100.625190
1469.000000	100.615475
1468.000000	100.607960
1467.000000	100.602471
1466.000000	100.596682
1465.000000	100.589258
1464.000000	100.582074
1463.000000	100.577904
1462.000000	100.576931
1461.000000	100.577343
1460.000000	100.577670
1459.000000	100.577836
1458.000000	100.577984
1457.000000	100.575301
1456.000000	100.566597
1455.000000	100.554806
1454.000000	100.544976
1453.000000	100.539130
1452.000000	100.537266
1451.000000	100.537631
1450.000000	100.537641
1449.000000	100.535866
1448.000000	100.532697
1447.000000	100.529158
1446.000000	100.525759
1445.000000	100.522286
1444.000000	100.517987
1443.000000	100.511989
1442.000000	100.504356
1441.000000	100.496501
1440.000000	100.490328
1439.000000	100.487193
1438.000000	100.487364
1437.000000	100.489455
1436.000000	100.489436
1435.000000	100.483686
1434.000000	100.473228
1433.000000	100.462172
1432.000000	100.454611
1431.000000	100.452453
1430.000000	100.453611
1429.000000	100.454405
1428.000000	100.453466
1427.000000	100.451494
1426.000000	100.449299
1425.000000	100.447701
1424.000000	100.448588
1423.000000	100.452894
1422.000000	100.458486
1421.000000	100.462449
1420.000000	100.463663
1419.000000	100.463467
1418.000000	100.463796
1417.000000	100.465738
1416.000000	100.470272
1415.000000	100.477650
1414.000000	100.486791
1413.000000	100.496176
1412.000000	100.504820
1411.000000	100.511837
1410.000000	100.515868
1409.000000	100.516921
1408.000000	100.517492
1407.000000	100.520359
1406.000000	100.526243
1405.000000	100.533998
1404.000000	100.542178
1403.000000	100.549242
1402.000000	100.553516
1401.000000	100.554429
1400.000000	100.553800
1399.000000	100.555388
1398.000000	100.561376
1397.000000	100.571137
1396.000000	100.583759
1395.000000	100.598233
1394.000000	100.611552
1393.000000	100.620836
1392.000000	100.627026
1391.000000	100.633009
1390.000000	100.639655
1389.000000	100.644843
1388.000000	100.646101
1387.000000	100.644622
1386.000000	100.644690
1385.000000	100.648423
1384.000000	100.654111
1383.000000	100.659631
1382.000000	100.665332
1381.000000	100.672982
1380.000000	100.682351
1379.000000	100.690765
1378.000000	100.696533
1377.000000	100.700941
1376.000000	100.705940
1375.000000	100.711341
1374.000000	100.715544
1373.000000	100.718104
1372.000000	100.719821
1371.000000	100.721026
1370.000000	100.721685
1369.000000	100.722679
1368.000000	100.725695
1367.000000	100.731138
1366.000000	100.737508
1365.000000	100.743556
1364.000000	100.749892
1363.000000	100.758390
1362.000000	100.769752
1361.000000	100.781684
1360.000000	100.790341
1359.000000	100.793218
1358.000000	100.791067
1357.000000	100.787964
1356.000000	100.788268
1355.000000	100.792844
1354.000000	100.799313
1353.000000	100.805876
1352.000000	100.812491
1351.000000	100.818305
1350.000000	100.820930
1349.000000	100.819125
1348.000000	100.815188
1347.000000	100.813005
1346.000000	100.814080
1345.000000	100.816660
1344.000000	100.818181
1343.000000	100.817455
1342.000000	100.814880
1341.000000	100.812073
1340.000000	100.811472
1339.000000	100.814676
1338.000000	100.820442
1337.000000	100.825823
1336.000000	100.828855
1335.000000	100.829067
1334.000000	100.826780
1333.000000	100.823037
1332.000000	100.819558
1331.000000	100.817814
1330.000000	100.818040
1329.000000	100.819588
1328.000000	100.821838
1327.000000	100.824080
1326.000000	100.825035
1325.000000	100.823610
1324.000000	100.820748
1323.000000	100.819000
1322.000000	100.819607
1321.000000	100.821238
1320.000000	100.822030
1319.000000	100.821785
1318.000000	100.821460
1317.000000	100.821462
1316.000000	100.821150
1315.000000	100.819419
1314.000000	100.815540
1313.000000	100.810474
1312.000000	100.807267
1311.000000	100.808693
1310.000000	100.814217
1309.000000	100.820502
1308.000000	100.825008
1307.000000	100.827687
1306.000000	100.828898
1305.000000	100.827595
1304.000000	100.823415
1303.000000	100.818948
1302.000000	100.817583
1301.000000	100.819424
1300.000000	100.821397
1299.000000	100.821289
1298.000000	100.819628
1297.000000	100.817259
1296.000000	100.813142
1295.000000	100.806281
1294.000000	100.798628
1293.000000	100.793761
1292.000000	100.792152
1291.000000	100.789379
1290.000000	100.780638
1289.000000	100.766595
1288.000000	100.753162
1287.000000	100.744664
1286.000000	100.738741
1285.000000	100.729920
1284.000000	100.717416
1283.000000	100.707026
1282.000000	100.704661
1281.000000	100.709602
1280.000000	100.715108
1279.000000	100.714896
1278.000000	100.708038
1277.000000	100.698132
1276.000000	100.689164
1275.000000	100.682737
1274.000000	100.678507
1273.000000	100.676100
1272.000000	100.675673
1271.000000	100.676603
1270.000000	100.676793
1269.000000	100.674318
1268.000000	100.669196
1267.000000	100.662532
1266.000000	100.654520
1265.000000	100.644812
1264.000000	100.634607
1263.000000	100.626493
1262.000000	100.621616
1261.000000	100.618052
1260.000000	100.612486
1259.000000	100.602927
1258.000000	100.589755
1257.000000	100.575113
1256.000000	100.561380
1255.000000	100.549475
1254.000000	100.538524
1253.000000	100.527503
1252.000000	100.516374
1251.000000	100.504931
1250.000000	100.491882
1249.000000	100.476627
1248.000000	100.460770
1247.000000	100.445869
1246.000000	100.430559
1245.000000	100.412325
1244.000000	100.391503
1243.000000	100.370907
1242.000000	100.351742
1241.000000	100.332643
1240.000000	100.312583
1239.000000	100.291828
1238.000000	100.269882
1237.000000	100.245583
1236.000000	100.220121
1235.000000	100.197283
1234.000000	100.179459
1233.000000	100.165199
1232.000000	100.151109
1231.000000	100.133887
1230.000000	100.110481
1229.000000	100.079341
1228.000000	100.042506
1227.000000	100.003884
1226.000000	99.964294
1225.000000	99.920219
1224.000000	99.868403
1223.000000	99.809565
1222.000000	99.746648
1221.000000	99.681227
1220.000000	99.612460
1219.000000	99.537899
1218.000000	99.455124
1217.000000	99.364844
1216.000000	99.272627
1215.000000	99.184689
1214.000000	99.101040
1213.000000	99.015481
1212.000000	98.923088
1211.000000	98.825055
1210.000000	98.726146
1209.000000	98.630619
1208.000000	98.540839
1207.000000	98.455839
1206.000000	98.370173
1205.000000	98.277733
1204.000000	98.177611
1203.000000	98.073715
1202.000000	97.969921
1201.000000	97.869215
1200.000000	97.775621
1199.000000	97.691022
1198.000000	97.610261
1197.000000	97.525119
1196.000000	97.433470
1195.000000	97.339725
1194.000000	97.247123
1193.000000	97.155207
1192.000000	97.063917
1191.000000	96.973217
1190.000000	96.878768
1189.000000	96.775529
1188.000000	96.666710
1187.000000	96.561952
1186.000000	96.464925
1185.000000	96.369530
1184.000000	96.269893
1183.000000	96.166682
1182.000000	96.061425
1181.000000	95.951831
1180.000000	95.835784
1179.000000	95.714107
1178.000000	95.587123
1177.000000	95.454163
1176.000000	95.317692
1175.000000	95.181271
1174.000000	95.042322
1173.000000	94.894467
1172.000000	94.738466
1171.000000	94.582531
1170.000000	94.430061
1169.000000	94.276246
1168.000000	94.119587
1167.000000	93.967710
1166.000000	93.828950
1165.000000	93.708363
1164.000000	93.616087
1163.000000	93.568760
1162.000000	93.575411
1161.000000	93.627583
1160.000000	93.705628
1159.000000	93.787592
1158.000000	93.851545
1157.000000	93.880442
1156.000000	93.870052
1155.000000	93.826624
1154.000000	93.755396
1153.000000	93.658135
1152.000000	93.542124
1151.000000	93.421031
1150.000000	93.302629
1149.000000	93.183852
1148.000000	93.061156
1147.000000	92.936962
1146.000000	92.813098
1145.000000	92.687635
1144.000000	92.561828
1143.000000	92.440632
1142.000000	92.322860
1141.000000	92.200814
1140.000000	92.073206
1139.000000	91.947951
1138.000000	91.828141
1137.000000	91.705826
1136.000000	91.574022
1135.000000	91.434435
1134.000000	91.289548
1133.000000	91.138445
1132.000000	90.985147
1131.000000	90.839228
1130.000000	90.702040
1129.000000	90.562997
1128.000000	90.414839
1127.000000	90.261711
1126.000000	90.107841
1125.000000	89.950702
1124.000000	89.791046
1123.000000	89.636689
1122.000000	89.489091
1121.000000	89.338305
1120.000000	89.178938
1119.000000	89.019621
1118.000000	88.869097
1117.000000	88.724516
1116.000000	88.580732
1115.000000	88.439144
1114.000000	88.300087
1113.000000	88.158506
1112.000000	88.014902
1111.000000	87.878959
1110.000000	87.754832
1109.000000	87.633617
1108.000000	87.506352
1107.000000	87.373355
1106.000000	87.236009
1105.000000	87.092017
1104.000000	86.944528
1103.000000	86.803412
1102.000000	86.671332
1101.000000	86.539532
1100.000000	86.401747
1099.000000	86.259803
1098.000000	86.113684
1097.000000	85.960881
1096.000000	85.808638
1095.000000	85.670463
1094.000000	85.545569
1093.000000	85.417915
1092.000000	85.280201
1091.000000	85.141978
1090.000000	85.009547
1089.000000	84.876994
1088.000000	84.743661
1087.000000	84.621150
1086.000000	84.514028
1085.000000	84.410907
1084.000000	84.303611
1083.000000	84.199303
1082.000000	84.105228
1081.000000	84.016823
1080.000000	83.928917
1079.000000	83.844140
1078.000000	83.763132
1077.000000	83.680414
1076.000000	83.595325
1075.000000	83.512265
1074.000000	83.425789
1073.000000	83.321053
1072.000000	83.192632
1071.000000	83.047234
1070.000000	82.885628
1069.000000	82.699272
1068.000000	82.488001
1067.000000	82.262856
1066.000000	82.027560
1065.000000	81.775859
1064.000000	81.511803
1063.000000	81.253116
1062.000000	81.008853
1061.000000	80.772646
1060.000000	80.542369
1059.000000	80.325491
1058.000000	80.120145
1057.000000	79.912770
1056.000000	79.700192
1055.000000	79.492516
1054.000000	79.288779
1053.000000	79.072700
1052.000000	78.840291
1051.000000	78.607646
1050.000000	78.381325
1049.000000	78.146253
1048.000000	77.893071
1047.000000	77.630712
1046.000000	77.363507
1045.000000	77.082539
1044.000000	76.787459
1043.000000	76.492609
1042.000000	76.204068
1041.000000	75.913074
1040.000000	75.618768
1039.000000	75.334356
1038.000000	75.064170
1037.000000	74.799030
1036.000000	74.541355
1035.000000	74.309757
1034.000000	74.110841
1033.000000	73.930888
1032.000000	73.762315
1031.000000	73.613598
1030.000000	73.486353
1029.000000	73.369001
1028.000000	73.260737
1027.000000	73.175423
1026.000000	73.113382
1025.000000	73.054706
1024.000000	72.988365
1023.000000	72.923229
1022.000000	72.863660
1021.000000	72.800246
1020.000000	72.731437
1019.000000	72.667701
1018.000000	72.606655
1017.000000	72.530445
1016.000000	72.435480
1015.000000	72.338812
1014.000000	72.247846
1013.000000	72.150499
1012.000000	72.043537
1011.000000	71.943699
1010.000000	71.860574
1009.000000	71.783286
1008.000000	71.703658
1007.000000	71.629323
1006.000000	71.565503
1005.000000	71.507061
1004.000000	71.456244
1003.000000	71.425163
1002.000000	71.413496
1001.000000	71.406617
1000.000000	71.402040
999.000000	71.414131
998.000000	71.446613
997.000000	71.484819
996.000000	71.521621
995.000000	71.566938
994.000000	71.624455
993.000000	71.682478
992.000000	71.735315
991.000000	71.791908
990.000000	71.857034
989.000000	71.925392
988.000000	71.999282
987.000000	72.090543
986.000000	72.200055
985.000000	72.316025
984.000000	72.435749
983.000000	72.568199
982.000000	72.714107
981.000000	72.866926
980.000000	73.034740
979.000000	73.235932
978.000000	73.469609
977.000000	73.713892
976.000000	73.956687
975.000000	74.205332
974.000000	74.464334
973.000000	74.728990
972.000000	75.004123
971.000000	75.303565
970.000000	75.625584
969.000000	75.951386
968.000000	76.272196
967.000000	76.596027
966.000000	76.924707
965.000000	77.247008
964.000000	77.558603
963.000000	77.867544
962.000000	78.176235
961.000000	78.478217
960.000000	78.775401
959.000000	79.077398
958.000000	79.380131
957.000000	79.665082
956.000000	79.923529
955.000000	80.163742
954.000000	80.392925
953.000000	80.610390
952.000000	80.819161
951.000000	81.024313
950.000000	81.218423
949.000000	81.388323
948.000000	81.537515
947.000000	81.682893
946.000000	81.828790
945.000000	81.964413
944.000000	82.087324
943.000000	82.207325
942.000000	82.325006
941.000000	82.428683
940.000000	82.516626
939.000000	82.601551
938.000000	82.688916
937.000000	82.770864
936.000000	82.845939
935.000000	82.924742
934.000000	83.011560
933.000000	83.099742
932.000000	83.189210
931.000000	83.288813
930.000000	83.397409
929.000000	83.502459
928.000000	83.601440
927.000000	83.704898
926.000000	83.813990
925.000000	83.914510
924.000000	83.997591
923.000000	84.067279
922.000000	84.124295
921.000000	84.162793
920.000000	84.187962
919.000000	84.216437
918.000000	84.253130
917.000000	84.286623
916.000000	84.312634
915.000000	84.342640
914.000000	84.384636
913.000000	84.437008
912.000000	84.508198
911.000000	84.620067
910.000000	84.781175
909.000000	84.974748
908.000000	85.182088
907.000000	85.402221
906.000000	85.641722
905.000000	85.902303
904.000000	86.185092
903.000000	86.490579
902.000000	86.808257
901.000000	87.121526
900.000000	87.426924
899.000000	87.733386
898.000000	88.040977
897.000000	88.337997
896.000000	88.621826
895.000000	88.904157
894.000000	89.190644
893.000000	89.471843
892.000000	89.739137
891.000000	89.994372
890.000000	90.239651
889.000000	90.472530
888.000000	90.695632
887.000000	90.917220
886.000000	91.138410
885.000000	91.352292
884.000000	91.557110
883.000000	91.756467
882.000000	91.946527
881.000000	92.119998
880.000000	92.284378
879.000000	92.458121
878.000000	92.645603
877.000000	92.834579
876.000000	93.021947
875.000000	93.221179
874.000000	93.437896
873.000000	93.658072
872.000000	93.869063
871.000000	94.075320
870.000000	94.285426
869.000000	94.498654
868.000000	94.711875
867.000000	94.926398
866.000000	95.140596
865.000000	95.347021
864.000000	95.543438
863.000000	95.737216
862.000000	95.933512
861.000000	96.127075
860.000000	96.309519
859.000000	96.477066
858.000000	96.629150
857.000000	96.767633
856.000000	96.899181
855.000000	97.030415
854.000000	97.158922
853.000000	97.275949
852.000000	97.377591
851.000000	97.466099
850.000000	97.542923
849.000000	97.610117
848.000000	97.675725
847.000000	97.745496
846.000000	97.810330
845.000000	97.854212
844.000000	97.873149
843.000000	97.873594
842.000000	97.854843
841.000000	97.809513
840.000000	97.742030
839.000000	97.669234
838.000000	97.598401
837.000000	97.520390
836.000000	97.430200
835.000000	97.339389
834.000000	97.260972
833.000000	97.195195
832.000000	97.138337
831.000000	97.094099
830.000000	97.068252
829.000000	97.061504
828.000000	97.073233
827.000000	97.101183
826.000000	97.132974
825.000000	97.152177
824.000000	97.158718
823.000000	97.167763
822.000000	97.183000
821.000000	97.188917
820.000000	97.174836
819.000000	97.147482
818.000000	97.112186
817.000000	97.056268
816.000000	96.959068
815.000000	96.808765
814.000000	96.603580
813.000000	96.345245
812.000000	96.036922
811.000000	95.679250
810.000000	95.262806
809.000000	94.771954
808.000000	94.200787
807.000000	93.558855
806.000000	92.860786
805.000000	92.122767
804.000000	91.372838
803.000000	90.649320
802.000000	89.980627
801.000000	89.379112
800.000000	88.859653
799.000000	88.447123
798.000000	88.157991
797.000000	87.990145
796.000000	87.935210
795.000000	87.982117
794.000000	88.104283
793.000000	88.263314
792.000000	88.430529
791.000000	88.588541
790.000000	88.714298
789.000000	88.784570
788.000000	88.799098
787.000000	88.772858
786.000000	88.701464
785.000000	88.559892
784.000000	88.342896
783.000000	88.082155
782.000000	87.813948
781.000000	87.554007
780.000000	87.316142
779.000000	87.131545
778.000000	87.032508
777.000000	87.032645
776.000000	87.132074
775.000000	87.321912
774.000000	87.574361
773.000000	87.850765
772.000000	88.132389
771.000000	88.425796
770.000000	88.730015
769.000000	89.019535
768.000000	89.270062
767.000000	89.480726
766.000000	89.659808
765.000000	89.808912
764.000000	89.934689
763.000000	90.056815
762.000000	90.187338
761.000000	90.315837
760.000000	90.429351
759.000000	90.534149
758.000000	90.644577
757.000000	90.762968
756.000000	90.884021
755.000000	91.007897
754.000000	91.136324
753.000000	91.264943
752.000000	91.389552
751.000000	91.511322
750.000000	91.630143
749.000000	91.745125
748.000000	91.866463
747.000000	92.009592
746.000000	92.169351
745.000000	92.319716
744.000000	92.453085
743.000000	92.600841
742.000000	92.795520
741.000000	93.026240
740.000000	93.251973
739.000000	93.449711
738.000000	93.629621
737.000000	93.808979
736.000000	93.991005
735.000000	94.169198
734.000000	94.336661
733.000000	94.487537
732.000000	94.618602
731.000000	94.731701
730.000000	94.829936
729.000000	94.913470
728.000000	94.984427
727.000000	95.051311
726.000000	95.121001
725.000000	95.190194
724.000000	95.252283
723.000000	95.310657
722.000000	95.379470
721.000000	95.471297
720.000000	95.584113
719.000000	95.698763
718.000000	95.792746
717.000000	95.859727
716.000000	95.913539
715.000000	95.971000
714.000000	96.032571
713.000000	96.085036
712.000000	96.119588
711.000000	96.135206
710.000000	96.126189
709.000000	96.083985
708.000000	96.015010
707.000000	95.939593
706.000000	95.863432
705.000000	95.763818
704.000000	95.615148
703.000000	95.415094
702.000000	95.173061
701.000000	94.882890
700.000000	94.522755
699.000000	94.083850
698.000000	93.595900
697.000000	93.128505
696.000000	92.766277
695.000000	92.569208
694.000000	92.547882
693.000000	92.673536
692.000000	92.905316
691.000000	93.202314
690.000000	93.518430
689.000000	93.810098
688.000000	94.060908
687.000000	94.284180
686.000000	94.492284
685.000000	94.678982
684.000000	94.839806
683.000000	94.991076
682.000000	95.152784
681.000000	95.322446
680.000000	95.478722
679.000000	95.606533
678.000000	95.709072
677.000000	95.799222
676.000000	95.893101
675.000000	96.001554
674.000000	96.122308
673.000000	96.245514
672.000000	96.368713
671.000000	96.505705
670.000000	96.679549
669.000000	96.914393
668.000000	97.162599
667.000000	97.288811
666.000000	97.312592
665.000000	97.328482
664.000000	97.360025
663.000000	97.409905
662.000000	97.484305
661.000000	97.584829
660.000000	97.699332
659.000000	97.803850
658.000000	97.879529
657.000000	97.931702
656.000000	97.986803
655.000000	98.055397
654.000000	98.110867
653.000000	98.124204
652.000000	98.110005
651.000000	98.113821
650.000000	98.156245
