4000.000000	97.630739
3999.000000	97.628806
3998.000000	97.626519
3997.000000	97.624032
3996.000000	97.621763
3995.000000	97.620156
3994.000000	97.619193
3993.000000	97.618182
3992.000000	97.616583
3991.000000	97.614775
3990.000000	97.613600
3989.000000	97.613373
3988.000000	97.613757
3987.000000	97.614053
3986.000000	97.613741
3985.000000	97.612728
3984.000000	97.611213
3983.000000	97.609557
3982.000000	97.608144
3981.000000	97.607159
3980.000000	97.606459
3979.000000	97.605676
3978.000000	97.604480
3977.000000	97.602795
3976.000000	97.600851
3975.000000	97.599088
3974.000000	97.597843
3973.000000	97.597079
3972.000000	97.596432
3971.000000	97.595596
3970.000000	97.594584
3969.000000	97.593622
3968.000000	97.592938
3967.000000	97.592624
3966.000000	97.592573
3965.000000	97.592442
3964.000000	97.591828
3963.000000	97.590629
3962.000000	97.589143
3961.000000	97.587820
3960.000000	97.586853
3959.000000	97.586131
3958.000000	97.585453
3957.000000	97.584717
3956.000000	97.583972
3955.000000	97.583333
3954.000000	97.582867
3953.000000	97.582445
3952.000000	97.581743
3951.000000	97.580451
3950.000000	97.578576
3949.000000	97.576672
3948.000000	97.575361
3947.000000	97.574776
3946.000000	97.574541
3945.000000	97.574262
3944.000000	97.573982
3943.000000	97.573871
3942.000000	97.573638
3941.000000	97.572736
3940.000000	97.571178
3939.000000	97.569907
3938.000000	97.569894
3937.000000	97.570769
3936.000000	97.570894
3935.000000	97.568989
3934.000000	97.565452
3933.000000	97.561856
3932.000000	97.559237
3931.000000	97.557697
3930.000000	97.557078
3929.000000	97.556852
3928.000000	97.555581
3927.000000	97.552313
3926.000000	97.548267
3925.000000	97.545604
3924.000000	97.544605
3923.000000	97.543755
3922.000000	97.542108
3921.000000	97.540298
3920.000000	97.539015
3919.000000	97.538161
3918.000000	97.537793
3917.000000	97.538434
3916.000000	97.539773
3915.000000	97.540496
3914.000000	97.539508
3913.000000	97.536969
3912.000000	97.533826
3911.000000	97.531008
3910.000000	97.528842
3909.000000	97.527053
3908.000000	97.524990
3907.000000	97.522179
3906.000000	97.518951
3905.000000	97.516272
3904.000000	97.514624
3903.000000	97.513590
3902.000000	97.512575
3901.000000	97.511468
3900.000000	97.510376
3899.000000	97.509250
3898.000000	97.508000
3897.000000	97.506683
3896.000000	97.505371
3895.000000	97.504086
3894.000000	97.502845
3893.000000	97.501655
3892.000000	97.500522
3891.000000	97.499440
3890.000000	97.498391
3889.000000	97.497350
3888.000000	97.496307
3887.000000	97.495281
3886.000000	97.494299
3885.000000	97.493362
3884.000000	97.492438
3883.000000	97.491490
3882.000000	97.490503
3881.000000	97.489480
3880.000000	97.488415
3879.000000	97.487286
3878.000000	97.486078
3877.000000	97.484807
3876.000000	97.483524
3875.000000	97.482288
3874.000000	97.481127
3873.000000	97.480035
3872.000000	97.479013
3871.000000	97.478090
3870.000000	97.477298
3869.000000	97.476623
3868.000000	97.476024
3867.000000	97.475482
3866.000000	97.475004
3865.000000	97.474590
3864.000000	97.474212
3863.000000	97.473845
3862.000000	97.473489
3861.000000	97.473163
3860.000000	97.472888
3859.000000	97.472679
3858.000000	97.472545
3857.000000	97.472479
3856.000000	97.472459
3855.000000	97.472482
3854.000000	97.472569
3853.000000	97.472724
3852.000000	97.472936
3851.000000	97.473197
3850.000000	97.473493
3849.000000	97.473812
3848.000000	97.474143
3847.000000	97.474479
3846.000000	97.474815
3845.000000	97.475148
3844.000000	97.475485
3843.000000	97.475843
3842.000000	97.476255
3841.000000	97.476719
3840.000000	97.477218
3839.000000	97.477780
3838.000000	97.478481
3837.000000	97.479386
3836.000000	97.480508
3835.000000	97.481801
3834.000000	97.483180
3833.000000	97.484603
3832.000000	97.486058
3831.000000	97.487511
3830.000000	97.488873
3829.000000	97.490062
3828.000000	97.491142
3827.000000	97.492244
3826.000000	97.493418
3825.000000	97.494624
3824.000000	97.495825
3823.000000	97.497038
3822.000000	97.498310
3821.000000	97.499662
3820.000000	97.501085
3819.000000	97.502544
3818.000000	97.504008
3817.000000	97.505482
3816.000000	97.506974
3815.000000	97.508460
3814.000000	97.509912
3813.000000	97.511324
3812.000000	97.512709
3811.000000	97.514070
3810.000000	97.515394
3809.000000	97.516654
3808.000000	97.517841
3807.000000	97.519002
3806.000000	97.520206
3805.000000	97.521467
3804.000000	97.522685
3803.000000	97.523886
3802.000000	97.525353
3801.000000	97.527149
3800.000000	97.528874
3799.000000	97.530185
3798.000000	97.531235
3797.000000	97.532591
3796.000000	97.534498
3795.000000	97.536424
3794.000000	97.537769
3793.000000	97.538739
3792.000000	97.540042
3791.000000	97.541790
3790.000000	97.543227
3789.000000	97.543679
3788.000000	97.543106
3787.000000	97.541778
3786.000000	97.540302
3785.000000	97.539818
3784.000000	97.540799
3783.000000	97.541928
3782.000000	97.541189
3781.000000	97.538979
3780.000000	97.538249
3779.000000	97.539851
3778.000000	97.540299
3777.000000	97.536612
3776.000000	97.531219
3775.000000	97.529903
3774.000000	97.533774
3773.000000	97.536299
3772.000000	97.531942
3771.000000	97.524249
3770.000000	97.520205
3769.000000	97.520032
3768.000000	97.518336
3767.000000	97.513357
3766.000000	97.510317
3765.000000	97.513469
3764.000000	97.518555
3763.000000	97.518496
3762.000000	97.513140
3761.000000	97.508637
3760.000000	97.506203
3759.000000	97.499742
3758.000000	97.486595
3757.000000	97.471062
3756.000000	97.457317
3755.000000	97.445246
3754.000000	97.435404
3753.000000	97.429993
3752.000000	97.425983
3751.000000	97.417244
3750.000000	97.406197
3749.000000	97.403222
3748.000000	97.409713
3747.000000	97.409043
3746.000000	97.398034
3745.000000	97.398471
3744.000000	97.411619
3743.000000	97.416935
3742.000000	97.408306
3741.000000	97.397498
3740.000000	97.394954
3739.000000	97.395876
3738.000000	97.389793
3737.000000	97.379578
3736.000000	97.377504
3735.000000	97.385596
3734.000000	97.395299
3733.000000	97.402475
3732.000000	97.410153
3731.000000	97.419255
3730.000000	97.425293
3729.000000	97.424589
3728.000000	97.421680
3727.000000	97.423843
3726.000000	97.428973
3725.000000	97.429631
3724.000000	97.425495
3723.000000	97.423903
3722.000000	97.429478
3721.000000	97.438778
3720.000000	97.444543
3719.000000	97.443263
3718.000000	97.437165
3717.000000	97.429063
3716.000000	97.418349
3715.000000	97.403683
3714.000000	97.388029
3713.000000	97.378317
3712.000000	97.377327
3711.000000	97.380474
3710.000000	97.382092
3709.000000	97.380797
3708.000000	97.378671
3707.000000	97.377790
3706.000000	97.378325
3705.000000	97.379231
3704.000000	97.380073
3703.000000	97.381479
3702.000000	97.383070
3701.000000	97.382295
3700.000000	97.376711
3699.000000	97.366780
3698.000000	97.356535
3697.000000	97.349542
3696.000000	97.344236
3695.000000	97.336654
3694.000000	97.326712
3693.000000	97.318702
3692.000000	97.315271
3691.000000	97.314362
3690.000000	97.313938
3689.000000	97.314675
3688.000000	97.315971
3687.000000	97.314571
3686.000000	97.308963
3685.000000	97.301978
3684.000000	97.297568
3683.000000	97.293778
3682.000000	97.284556
3681.000000	97.269878
3680.000000	97.256810
3679.000000	97.246786
3678.000000	97.230682
3677.000000	97.209695
3676.000000	97.199326
3675.000000	97.202076
3674.000000	97.205461
3673.000000	97.199364
3672.000000	97.186191
3671.000000	97.180957
3670.000000	97.189251
3669.000000	97.198266
3668.000000	97.199562
3667.000000	97.198281
3666.000000	97.200868
3665.000000	97.206076
3664.000000	97.207103
3663.000000	97.199729
3662.000000	97.187239
3661.000000	97.175678
3660.000000	97.166269
3659.000000	97.153883
3658.000000	97.136463
3657.000000	97.120854
3656.000000	97.111418
3655.000000	97.103339
3654.000000	97.089337
3653.000000	97.066526
3652.000000	97.041111
3651.000000	97.023577
3650.000000	97.013464
3649.000000	97.003080
3648.000000	96.994209
3647.000000	96.994826
3646.000000	97.006330
3645.000000	97.023268
3644.000000	97.039882
3643.000000	97.053233
3642.000000	97.061226
3641.000000	97.061641
3640.000000	97.056425
3639.000000	97.051839
3638.000000	97.050513
3637.000000	97.046428
3636.000000	97.033330
3635.000000	97.015848
3634.000000	97.004802
3633.000000	97.002856
3632.000000	96.998577
3631.000000	96.982620
3630.000000	96.968532
3629.000000	96.969628
3628.000000	96.974698
3627.000000	96.971310
3626.000000	96.963072
3625.000000	96.959373
3624.000000	96.963603
3623.000000	96.969732
3622.000000	96.970154
3621.000000	96.965544
3620.000000	96.962814
3619.000000	96.964577
3618.000000	96.967589
3617.000000	96.968900
3616.000000	96.967918
3615.000000	96.966129
3614.000000	96.966096
3613.000000	96.968518
3612.000000	96.971573
3611.000000	96.974114
3610.000000	96.978450
3609.000000	96.987379
3608.000000	96.998515
3607.000000	97.006260
3606.000000	97.009026
3605.000000	97.009821
3604.000000	97.011271
3603.000000	97.012200
3602.000000	97.010775
3601.000000	97.007581
3600.000000	97.004277
3599.000000	97.001698
3598.000000	96.999873
3597.000000	96.998415
3596.000000	96.997215
3595.000000	96.996640
3594.000000	96.996264
3593.000000	96.995034
3592.000000	96.991257
3591.000000	96.982610
3590.000000	96.969663
3589.000000	96.959774
3588.000000	96.960938
3587.000000	96.972417
3586.000000	96.988015
3585.000000	97.003838
3584.000000	97.018888
3583.000000	97.031906
3582.000000	97.041644
3581.000000	97.048878
3580.000000	97.055478
3579.000000	97.061659
3578.000000	97.065315
3577.000000	97.064427
3576.000000	97.058945
3575.000000	97.050538
3574.000000	97.041168
3573.000000	97.032679
3572.000000	97.025988
3571.000000	97.019000
3570.000000	97.008213
3569.000000	96.994547
3568.000000	96.983867
3567.000000	96.979586
3566.000000	96.980550
3565.000000	96.985946
3564.000000	96.996302
3563.000000	97.010448
3562.000000	97.024696
3561.000000	97.036020
3560.000000	97.044700
3559.000000	97.052387
3558.000000	97.058362
3557.000000	97.059311
3556.000000	97.052943
3555.000000	97.041142
3554.000000	97.029748
3553.000000	97.024112
3552.000000	97.024433
3551.000000	97.026314
3550.000000	97.025977
3549.000000	97.023853
3548.000000	97.022862
3547.000000	97.024491
3546.000000	97.027897
3545.000000	97.032371
3544.000000	97.038327
3543.000000	97.045399
3542.000000	97.051544
3541.000000	97.054462
3540.000000	97.053187
3539.000000	97.048330
3538.000000	97.041784
3537.000000	97.035686
3536.000000	97.030990
3535.000000	97.027235
3534.000000	97.024117
3533.000000	97.022570
3532.000000	97.023227
3531.000000	97.024545
3530.000000	97.023836
3529.000000	97.020445
3528.000000	97.016228
3527.000000	97.013029
3526.000000	97.011569
3525.000000	97.012759
3524.000000	97.017504
3523.000000	97.024388
3522.000000	97.029832
3521.000000	97.031887
3520.000000	97.032562
3519.000000	97.035209
3518.000000	97.040378
3517.000000	97.045443
3516.000000	97.048201
3515.000000	97.048962
3514.000000	97.048628
3513.000000	97.046727
3512.000000	97.042445
3511.000000	97.036637
3510.000000	97.031740
3509.000000	97.029471
3508.000000	97.029156
3507.000000	97.028818
3506.000000	97.027530
3505.000000	97.026425
3504.000000	97.027082
3503.000000	97.029208
3502.000000	97.030685
3501.000000	97.029936
3500.000000	97.027385
3499.000000	97.024655
3498.000000	97.022975
3497.000000	97.022420
3496.000000	97.022376
3495.000000	97.022354
3494.000000	97.022198
3493.000000	97.021799
3492.000000	97.020973
3491.000000	97.019722
3490.000000	97.018527
3489.000000	97.018051
3488.000000	97.018366
3487.000000	97.018674
3486.000000	97.018122
3485.000000	97.016780
3484.000000	97.015515
3483.000000	97.014988
3482.000000	97.014908
3481.000000	97.014388
3480.000000	97.012990
3479.000000	97.011232
3478.000000	97.010094
3477.000000	97.010149
3476.000000	97.011131
3475.000000	97.012069
3474.000000	97.012018
3473.000000	97.010712
3472.000000	97.008549
3471.000000	97.006058
3470.000000	97.003569
3469.000000	97.001530
3468.000000	97.000701
3467.000000	97.001395
3466.000000	97.002652
3465.000000	97.002902
3464.000000	97.001747
3463.000000	97.000492
3462.000000	97.000692
3461.000000	97.002623
3460.000000	97.005434
3459.000000	97.008227
3458.000000	97.010413
3457.000000	97.011387
3456.000000	97.010585
3455.000000	97.008069
3454.000000	97.004919
3453.000000	97.002800
3452.000000	97.002729
3451.000000	97.004045
3450.000000	97.004619
3449.000000	97.002520
3448.000000	96.997594
3447.000000	96.991484
3446.000000	96.986225
3445.000000	96.982863
3444.000000	96.981306
3443.000000	96.981046
3442.000000	96.981799
3441.000000	96.983727
3440.000000	96.987119
3439.000000	96.991564
3438.000000	96.995553
3437.000000	96.997445
3436.000000	96.996887
3435.000000	96.995016
3434.000000	96.993342
3433.000000	96.992483
3432.000000	96.991815
3431.000000	96.990256
3430.000000	96.987466
3429.000000	96.984381
3428.000000	96.982366
3427.000000	96.981872
3426.000000	96.982286
3425.000000	96.982955
3424.000000	96.983805
3423.000000	96.984733
3422.000000	96.984973
3421.000000	96.983718
3420.000000	96.981274
3419.000000	96.979082
3418.000000	96.978508
3417.000000	96.979877
3416.000000	96.982533
3415.000000	96.985468
3414.000000	96.987934
3413.000000	96.989746
3412.000000	96.991138
3411.000000	96.992462
3410.000000	96.994168
3409.000000	96.996715
3408.000000	96.999818
3407.000000	97.001801
3406.000000	97.000669
3405.000000	96.996374
3404.000000	96.991585
3403.000000	96.989416
3402.000000	96.990190
3401.000000	96.991165
3400.000000	96.989629
3399.000000	96.985652
3398.000000	96.981396
3397.000000	96.978260
3396.000000	96.975670
3395.000000	96.972919
3394.000000	96.970959
3393.000000	96.971436
3392.000000	96.974592
3391.000000	96.979001
3390.000000	96.983289
3389.000000	96.987306
3388.000000	96.991149
3387.000000	96.994011
3386.000000	96.994772
3385.000000	96.993359
3384.000000	96.991011
3383.000000	96.989312
3382.000000	96.989051
3381.000000	96.990001
3380.000000	96.991489
3379.000000	96.993031
3378.000000	96.994531
3377.000000	96.995972
3376.000000	96.997084
3375.000000	96.997516
3374.000000	96.997299
3373.000000	96.996949
3372.000000	96.997032
3371.000000	96.997696
3370.000000	96.998683
3369.000000	96.999676
3368.000000	97.000535
3367.000000	97.001287
3366.000000	97.002022
3365.000000	97.002805
3364.000000	97.003639
3363.000000	97.004493
3362.000000	97.005359
3361.000000	97.006252
3360.000000	97.007157
3359.000000	97.008022
3358.000000	97.008832
3357.000000	97.009622
3356.000000	97.010407
3355.000000	97.011172
3354.000000	97.011903
3353.000000	97.012593
3352.000000	97.013234
3351.000000	97.013830
3350.000000	97.014392
3349.000000	97.014936
3348.000000	97.015471
3347.000000	97.015998
3346.000000	97.016512
3345.000000	97.017005
3344.000000	97.017478
3343.000000	97.017937
3342.000000	97.018394
3341.000000	97.018855
3340.000000	97.019322
3339.000000	97.019790
3338.000000	97.020250
3337.000000	97.020694
3336.000000	97.021115
3335.000000	97.021510
3334.000000	97.021882
3333.000000	97.022238
3332.000000	97.022588
3331.000000	97.022934
3330.000000	97.023269
3329.000000	97.023591
3328.000000	97.023896
3327.000000	97.024183
3326.000000	97.024449
3325.000000	97.024689
3324.000000	97.024904
3323.000000	97.025100
3322.000000	97.025283
3321.000000	97.025455
3320.000000	97.025612
3319.000000	97.025753
3318.000000	97.025876
3317.000000	97.025987
3316.000000	97.026091
3315.000000	97.026198
3314.000000	97.026318
3313.000000	97.026456
3312.000000	97.026616
3311.000000	97.026798
3310.000000	97.026993
3309.000000	97.027199
3308.000000	97.027415
3307.000000	97.027649
3306.000000	97.027919
3305.000000	97.028227
3304.000000	97.028549
3303.000000	97.028846
3302.000000	97.029103
3301.000000	97.029332
3300.000000	97.029563
3299.000000	97.029812
3298.000000	97.030086
3297.000000	97.030393
3296.000000	97.030731
3295.000000	97.031092
3294.000000	97.031473
3293.000000	97.031882
3292.000000	97.032333
3291.000000	97.032818
3290.000000	97.033310
3289.000000	97.033777
3288.000000	97.034217
3287.000000	97.034654
3286.000000	97.035115
3285.000000	97.035608
3284.000000	97.036126
3283.000000	97.036670
3282.000000	97.037253
3281.000000	97.037886
3280.000000	97.038555
3279.000000	97.039245
3278.000000	97.039960
3277.000000	97.040726
3276.000000	97.041547
3275.000000	97.042383
3274.000000	97.043176
3273.000000	97.043916
3272.000000	97.044684
3271.000000	97.045582
3270.000000	97.046628
3269.000000	97.047740
3268.000000	97.048830
3267.000000	97.049902
3266.000000	97.051019
3265.000000	97.052215
3264.000000	97.053424
3263.000000	97.054520
3262.000000	97.055439
3261.000000	97.056218
3260.000000	97.057003
3259.000000	97.057932
3258.000000	97.059043
3257.000000	97.060289
3256.000000	97.061588
3255.000000	97.062890
3254.000000	97.064169
3253.000000	97.065400
3252.000000	97.066553
3251.000000	97.067593
3250.000000	97.068474
3249.000000	97.069191
3248.000000	97.069857
3247.000000	97.070682
3246.000000	97.071804
3245.000000	97.073145
3244.000000	97.074470
3243.000000	97.075643
3242.000000	97.076765
3241.000000	97.078033
3240.000000	97.079525
3239.000000	97.081104
3238.000000	97.082524
3237.000000	97.083618
3236.000000	97.084409
3235.000000	97.085086
3234.000000	97.085840
3233.000000	97.086711
3232.000000	97.087624
3231.000000	97.088571
3230.000000	97.089688
3229.000000	97.091073
3228.000000	97.092547
3227.000000	97.093704
3226.000000	97.094297
3225.000000	97.094494
3224.000000	97.094782
3223.000000	97.095477
3222.000000	97.096481
3221.000000	97.097504
3220.000000	97.098437
3219.000000	97.099356
3218.000000	97.100216
3217.000000	97.100806
3216.000000	97.101150
3215.000000	97.101719
3214.000000	97.102983
3213.000000	97.104897
3212.000000	97.106944
3211.000000	97.108643
3210.000000	97.109948
3209.000000	97.111101
3208.000000	97.112317
3207.000000	97.113637
3206.000000	97.114984
3205.000000	97.116243
3204.000000	97.117325
3203.000000	97.118229
3202.000000	97.119103
3201.000000	97.120198
3200.000000	97.121691
3199.000000	97.123522
3198.000000	97.125369
3197.000000	97.126889
3196.000000	97.128035
3195.000000	97.129110
3194.000000	97.130453
3193.000000	97.132042
3192.000000	97.133542
3191.000000	97.134733
3190.000000	97.135773
3189.000000	97.136962
3188.000000	97.138371
3187.000000	97.139863
3186.000000	97.141373
3185.000000	97.142979
3184.000000	97.144737
3183.000000	97.146609
3182.000000	97.148595
3181.000000	97.150795
3180.000000	97.153219
3179.000000	97.155590
3178.000000	97.157485
3177.000000	97.158696
3176.000000	97.159349
3175.000000	97.159762
3174.000000	97.160260
3173.000000	97.161092
3172.000000	97.162444
3171.000000	97.164365
3170.000000	97.166622
3169.000000	97.168729
3168.000000	97.170311
3167.000000	97.171427
3166.000000	97.172494
3165.000000	97.173885
3164.000000	97.175619
3163.000000	97.177470
3162.000000	97.179251
3161.000000	97.180934
3160.000000	97.182581
3159.000000	97.184292
3158.000000	97.186166
3157.000000	97.188165
3156.000000	97.190002
3155.000000	97.191348
3154.000000	97.192189
3153.000000	97.192870
3152.000000	97.193758
3151.000000	97.194934
3150.000000	97.196264
3149.000000	97.197645
3148.000000	97.199092
3147.000000	97.200627
3146.000000	97.202161
3145.000000	97.203507
3144.000000	97.204525
3143.000000	97.205255
3142.000000	97.205937
3141.000000	97.206879
3140.000000	97.208279
3139.000000	97.210143
3138.000000	97.212244
3137.000000	97.214157
3136.000000	97.215489
3135.000000	97.216158
3134.000000	97.216537
3133.000000	97.217216
3132.000000	97.218460
3131.000000	97.220063
3130.000000	97.221712
3129.000000	97.223355
3128.000000	97.225067
3127.000000	97.226754
3126.000000	97.228198
3125.000000	97.229403
3124.000000	97.230720
3123.000000	97.232509
3122.000000	97.234780
3121.000000	97.237188
3120.000000	97.239397
3119.000000	97.241369
3118.000000	97.243232
3117.000000	97.244851
3116.000000	97.245762
3115.000000	97.245770
3114.000000	97.245506
3113.000000	97.246014
3112.000000	97.247612
3111.000000	97.249354
3110.000000	97.249829
3109.000000	97.248480
3108.000000	97.246155
3107.000000	97.244558
3106.000000	97.245045
3105.000000	97.247888
3104.000000	97.252167
3103.000000	97.256467
3102.000000	97.260029
3101.000000	97.262988
3100.000000	97.265526
3099.000000	97.267245
3098.000000	97.267763
3097.000000	97.267619
3096.000000	97.267918
3095.000000	97.269066
3094.000000	97.270370
3093.000000	97.271027
3092.000000	97.271167
3091.000000	97.271737
3090.000000	97.273593
3089.000000	97.276810
3088.000000	97.280700
3087.000000	97.284401
3086.000000	97.287478
3085.000000	97.289887
3084.000000	97.291377
3083.000000	97.291312
3082.000000	97.289384
3081.000000	97.286341
3080.000000	97.283658
3079.000000	97.282391
3078.000000	97.282601
3077.000000	97.283842
3076.000000	97.285761
3075.000000	97.288089
3074.000000	97.290486
3073.000000	97.292754
3072.000000	97.295076
3071.000000	97.297718
3070.000000	97.300451
3069.000000	97.302529
3068.000000	97.303433
3067.000000	97.303572
3066.000000	97.304114
3065.000000	97.305895
3064.000000	97.308619
3063.000000	97.311156
3062.000000	97.312673
3061.000000	97.313408
3060.000000	97.314352
3059.000000	97.316298
3058.000000	97.319208
3057.000000	97.322281
3056.000000	97.324571
3055.000000	97.325694
3054.000000	97.326032
3053.000000	97.326444
3052.000000	97.327611
3051.000000	97.329569
3050.000000	97.331747
3049.000000	97.333436
3048.000000	97.334363
3047.000000	97.334894
3046.000000	97.335689
3045.000000	97.337096
3044.000000	97.338886
3043.000000	97.340550
3042.000000	97.341717
3041.000000	97.342283
3040.000000	97.342343
3039.000000	97.342208
3038.000000	97.342380
3037.000000	97.343232
3036.000000	97.344682
3035.000000	97.346328
3034.000000	97.347885
3033.000000	97.349284
3032.000000	97.350382
3031.000000	97.350966
3030.000000	97.351221
3029.000000	97.351888
3028.000000	97.353578
3027.000000	97.356077
3026.000000	97.358477
3025.000000	97.359996
3024.000000	97.360426
3023.000000	97.359934
3022.000000	97.358823
3021.000000	97.357506
3020.000000	97.356371
3019.000000	97.355639
3018.000000	97.355442
3017.000000	97.355963
3016.000000	97.357237
3015.000000	97.358986
3014.000000	97.360939
3013.000000	97.363127
3012.000000	97.365592
3011.000000	97.367940
3010.000000	97.369512
3009.000000	97.369952
3008.000000	97.369337
3007.000000	97.367865
3006.000000	97.365843
3005.000000	97.363981
3004.000000	97.363263
3003.000000	97.364320
3002.000000	97.366992
3001.000000	97.370305
3000.000000	97.372963
2999.000000	97.374172
2998.000000	97.374075
2997.000000	97.373408
2996.000000	97.372630
2995.000000	97.371583
2994.000000	97.370177
2993.000000	97.368976
2992.000000	97.368724
2991.000000	97.369532
2990.000000	97.370849
2989.000000	97.372084
2988.000000	97.372972
2987.000000	97.373424
2986.000000	97.373454
2985.000000	97.373328
2984.000000	97.373442
2983.000000	97.373942
2982.000000	97.374662
2981.000000	97.375438
2980.000000	97.376311
2979.000000	97.377387
2978.000000	97.378674
2977.000000	97.380040
2976.000000	97.381213
2975.000000	97.381881
2974.000000	97.381945
2973.000000	97.381713
2972.000000	97.381794
2971.000000	97.382597
2970.000000	97.384044
2969.000000	97.385648
2968.000000	97.386864
2967.000000	97.387434
2966.000000	97.387458
2965.000000	97.387328
2964.000000	97.387472
2963.000000	97.388065
2962.000000	97.389004
2961.000000	97.390062
2960.000000	97.391002
2959.000000	97.391641
2958.000000	97.391963
2957.000000	97.392205
2956.000000	97.392666
2955.000000	97.393344
2954.000000	97.393939
2953.000000	97.394283
2952.000000	97.394552
2951.000000	97.394952
2950.000000	97.395381
2949.000000	97.395632
2948.000000	97.395768
2947.000000	97.396019
2946.000000	97.396382
2945.000000	97.396611
2944.000000	97.396661
2943.000000	97.396873
2942.000000	97.397650
2941.000000	97.399079
2940.000000	97.400864
2939.000000	97.402398
2938.000000	97.402920
2937.000000	97.401897
2936.000000	97.399549
2935.000000	97.397081
2934.000000	97.395897
2933.000000	97.396573
2932.000000	97.398712
2931.000000	97.401543
2930.000000	97.404488
2929.000000	97.407063
2928.000000	97.408638
2927.000000	97.408864
2926.000000	97.408254
2925.000000	97.408001
2924.000000	97.408937
2923.000000	97.410853
2922.000000	97.412933
2921.000000	97.414704
2920.000000	97.416352
2919.000000	97.418186
2918.000000	97.420070
2917.000000	97.421503
2916.000000	97.422116
2915.000000	97.421953
2914.000000	97.421253
2913.000000	97.420171
2912.000000	97.418901
2911.000000	97.417989
2910.000000	97.418199
2909.000000	97.419771
2908.000000	97.422028
2907.000000	97.424036
2906.000000	97.425641
2905.000000	97.427434
2904.000000	97.429747
2903.000000	97.432197
2902.000000	97.434272
2901.000000	97.435780
2900.000000	97.436577
2899.000000	97.436431
2898.000000	97.435605
2897.000000	97.435126
2896.000000	97.435833
2895.000000	97.437429
2894.000000	97.438831
2893.000000	97.439399
2892.000000	97.439389
2891.000000	97.439371
2890.000000	97.439667
2889.000000	97.440307
2888.000000	97.441225
2887.000000	97.442337
2886.000000	97.443548
2885.000000	97.444760
2884.000000	97.445831
2883.000000	97.446609
2882.000000	97.447101
2881.000000	97.447585
2880.000000	97.448389
2879.000000	97.449534
2878.000000	97.450726
2877.000000	97.451691
2876.000000	97.452428
2875.000000	97.453115
2874.000000	97.453924
2873.000000	97.454909
2872.000000	97.456015
2871.000000	97.457107
2870.000000	97.458080
2869.000000	97.458989
2868.000000	97.460003
2867.000000	97.461218
2866.000000	97.462586
2865.000000	97.464050
2864.000000	97.465584
2863.000000	97.467016
2862.000000	97.468018
2861.000000	97.468459
2860.000000	97.468743
2859.000000	97.469533
2858.000000	97.471107
2857.000000	97.473197
2856.000000	97.475324
2855.000000	97.477189
2854.000000	97.478683
2853.000000	97.479820
2852.000000	97.480759
2851.000000	97.481757
2850.000000	97.482993
2849.000000	97.484505
2848.000000	97.486312
2847.000000	97.488484
2846.000000	97.491025
2845.000000	97.493763
2844.000000	97.496358
2843.000000	97.498444
2842.000000	97.499840
2841.000000	97.500722
2840.000000	97.501553
2839.000000	97.502715
2838.000000	97.504224
2837.000000	97.505908
2836.000000	97.507735
2835.000000	97.509784
2834.000000	97.511914
2833.000000	97.513681
2832.000000	97.514722
2831.000000	97.515102
2830.000000	97.515269
2829.000000	97.515697
2828.000000	97.516601
2827.000000	97.517942
2826.000000	97.519563
2825.000000	97.521251
2824.000000	97.522738
2823.000000	97.523785
2822.000000	97.524394
2821.000000	97.524968
2820.000000	97.526099
2819.000000	97.528086
2818.000000	97.530650
2817.000000	97.533089
2816.000000	97.534784
2815.000000	97.535600
2814.000000	97.536003
2813.000000	97.536754
2812.000000	97.538231
2811.000000	97.540044
2810.000000	97.541408
2809.000000	97.541962
2808.000000	97.542071
2807.000000	97.542332
2806.000000	97.542956
2805.000000	97.543758
2804.000000	97.544553
2803.000000	97.545375
2802.000000	97.546389
2801.000000	97.547747
2800.000000	97.549448
2799.000000	97.551182
2798.000000	97.552390
2797.000000	97.552688
2796.000000	97.552271
2795.000000	97.551818
2794.000000	97.551931
2793.000000	97.552782
2792.000000	97.554217
2791.000000	97.555957
2790.000000	97.557628
2789.000000	97.558786
2788.000000	97.559172
2787.000000	97.558959
2786.000000	97.558572
2785.000000	97.558152
2784.000000	97.557362
2783.000000	97.555957
2782.000000	97.554513
2781.000000	97.554198
2780.000000	97.555645
2779.000000	97.558329
2778.000000	97.561091
2777.000000	97.563149
2776.000000	97.564436
2775.000000	97.565332
2774.000000	97.566420
2773.000000	97.568192
2772.000000	97.570535
2771.000000	97.572557
2770.000000	97.573315
2769.000000	97.572744
2768.000000	97.571700
2767.000000	97.571158
2766.000000	97.571544
2765.000000	97.572781
2764.000000	97.574566
2763.000000	97.576457
2762.000000	97.578005
2761.000000	97.578984
2760.000000	97.579428
2759.000000	97.579418
2758.000000	97.579025
2757.000000	97.578476
2756.000000	97.578164
2755.000000	97.578438
2754.000000	97.579434
2753.000000	97.581066
2752.000000	97.583018
2751.000000	97.584726
2750.000000	97.585693
2749.000000	97.585901
2748.000000	97.585821
2747.000000	97.585957
2746.000000	97.586434
2745.000000	97.587055
2744.000000	97.587559
2743.000000	97.587808
2742.000000	97.587853
2741.000000	97.587885
2740.000000	97.588079
2739.000000	97.588465
2738.000000	97.588973
2737.000000	97.589556
2736.000000	97.590195
2735.000000	97.590820
2734.000000	97.591297
2733.000000	97.591537
2732.000000	97.591550
2731.000000	97.591403
2730.000000	97.591213
2729.000000	97.591147
2728.000000	97.591314
2727.000000	97.591648
2726.000000	97.592026
2725.000000	97.592496
2724.000000	97.593180
2723.000000	97.593950
2722.000000	97.594456
2721.000000	97.594556
2720.000000	97.594546
2719.000000	97.594846
2718.000000	97.595509
2717.000000	97.596151
2716.000000	97.596341
2715.000000	97.595953
2714.000000	97.595243
2713.000000	97.594705
2712.000000	97.594727
2711.000000	97.595349
2710.000000	97.596292
2709.000000	97.597260
2708.000000	97.598065
2707.000000	97.598456
2706.000000	97.598251
2705.000000	97.597830
2704.000000	97.598083
2703.000000	97.599515
2702.000000	97.601645
2701.000000	97.603540
2700.000000	97.604765
2699.000000	97.605346
2698.000000	97.605123
2697.000000	97.603877
2696.000000	97.602065
2695.000000	97.600710
2694.000000	97.600344
2693.000000	97.600556
2692.000000	97.600675
2691.000000	97.600556
2690.000000	97.600510
2689.000000	97.600746
2688.000000	97.601161
2687.000000	97.601561
2686.000000	97.601927
2685.000000	97.602471
2684.000000	97.603403
2683.000000	97.604646
2682.000000	97.605898
2681.000000	97.607004
2680.000000	97.608045
2679.000000	97.608904
2678.000000	97.609140
2677.000000	97.608612
2676.000000	97.607842
2675.000000	97.607418
2674.000000	97.607262
2673.000000	97.606869
2672.000000	97.606011
2671.000000	97.604872
2670.000000	97.603743
2669.000000	97.602937
2668.000000	97.602795
2667.000000	97.603407
2666.000000	97.604368
2665.000000	97.605014
2664.000000	97.605039
2663.000000	97.604700
2662.000000	97.604466
2661.000000	97.604585
2660.000000	97.604938
2659.000000	97.605253
2658.000000	97.605387
2657.000000	97.605402
2656.000000	97.605421
2655.000000	97.605499
2654.000000	97.605618
2653.000000	97.605752
2652.000000	97.605889
2651.000000	97.606023
2650.000000	97.606149
2649.000000	97.606269
2648.000000	97.606379
2647.000000	97.606480
2646.000000	97.606576
2645.000000	97.606671
2644.000000	97.606765
2643.000000	97.606850
2642.000000	97.606918
2641.000000	97.606968
2640.000000	97.607005
2639.000000	97.607035
2638.000000	97.607060
2637.000000	97.607077
2636.000000	97.607081
2635.000000	97.607071
2634.000000	97.607052
2633.000000	97.607031
2632.000000	97.607015
2631.000000	97.607004
2630.000000	97.606991
2629.000000	97.606966
2628.000000	97.606925
2627.000000	97.606865
2626.000000	97.606790
2625.000000	97.606707
2624.000000	97.606619
2623.000000	97.606531
2622.000000	97.606443
2621.000000	97.606354
2620.000000	97.606261
2619.000000	97.606166
2618.000000	97.606065
2617.000000	97.605952
2616.000000	97.605818
2615.000000	97.605661
2614.000000	97.605480
2613.000000	97.605283
2612.000000	97.605083
2611.000000	97.604888
2610.000000	97.604698
2609.000000	97.604505
2608.000000	97.604299
2607.000000	97.604079
2606.000000	97.603849
2605.000000	97.603615
2604.000000	97.603379
2603.000000	97.603142
2602.000000	97.602898
2601.000000	97.602643
2600.000000	97.602378
2599.000000	97.602108
2598.000000	97.601836
2597.000000	97.601568
2596.000000	97.601313
2595.000000	97.601084
2594.000000	97.600882
2593.000000	97.600695
2592.000000	97.600499
2591.000000	97.600275
2590.000000	97.600028
2589.000000	97.599785
2588.000000	97.599582
2587.000000	97.599446
2586.000000	97.599386
2585.000000	97.599399
2584.000000	97.599465
2583.000000	97.599544
2582.000000	97.599572
2581.000000	97.599494
2580.000000	97.599310
2579.000000	97.599088
2578.000000	97.598901
2577.000000	97.598768
2576.000000	97.598672
2575.000000	97.598593
2574.000000	97.598523
2573.000000	97.598471
2572.000000	97.598450
2571.000000	97.598458
2570.000000	97.598449
2569.000000	97.598352
2568.000000	97.598138
2567.000000	97.597860
2566.000000	97.597611
2565.000000	97.597455
2564.000000	97.597425
2563.000000	97.597502
2562.000000	97.597586
2561.000000	97.597525
2560.000000	97.597243
2559.000000	97.596825
2558.000000	97.596424
2557.000000	97.596136
2556.000000	97.595980
2555.000000	97.595935
2554.000000	97.595930
2553.000000	97.595820
2552.000000	97.595465
2551.000000	97.594889
2550.000000	97.594328
2549.000000	97.594053
2548.000000	97.594126
2547.000000	97.594338
2546.000000	97.594381
2545.000000	97.594094
2544.000000	97.593567
2543.000000	97.593058
2542.000000	97.592727
2541.000000	97.592441
2540.000000	97.591919
2539.000000	97.591086
2538.000000	97.590190
2537.000000	97.589471
2536.000000	97.588851
2535.000000	97.588104
2534.000000	97.587251
2533.000000	97.586562
2532.000000	97.586141
2531.000000	97.585688
2530.000000	97.584822
2529.000000	97.583595
2528.000000	97.582540
2527.000000	97.582147
2526.000000	97.582302
2525.000000	97.582285
2524.000000	97.581464
2523.000000	97.580046
2522.000000	97.579053
2521.000000	97.579304
2520.000000	97.580615
2519.000000	97.581913
2518.000000	97.582258
2517.000000	97.581570
2516.000000	97.580403
2515.000000	97.579375
2514.000000	97.578839
2513.000000	97.578875
2512.000000	97.579284
2511.000000	97.579689
2510.000000	97.579926
2509.000000	97.580240
2508.000000	97.580891
2507.000000	97.581733
2506.000000	97.582452
2505.000000	97.583049
2504.000000	97.583740
2503.000000	97.584499
2502.000000	97.585141
2501.000000	97.585787
2500.000000	97.586815
2499.000000	97.588287
2498.000000	97.589824
2497.000000	97.591129
2496.000000	97.592279
2495.000000	97.593330
2494.000000	97.594008
2493.000000	97.594108
2492.000000	97.594014
2491.000000	97.594502
2490.000000	97.595976
2489.000000	97.598113
2488.000000	97.600091
2487.000000	97.601210
2486.000000	97.601342
2485.000000	97.601041
2484.000000	97.601157
2483.000000	97.602076
2482.000000	97.603443
2481.000000	97.604686
2480.000000	97.605716
2479.000000	97.606844
2478.000000	97.608224
2477.000000	97.609714
2476.000000	97.611116
2475.000000	97.612226
2474.000000	97.612876
2473.000000	97.613213
2472.000000	97.613778
2471.000000	97.614940
2470.000000	97.616334
2469.000000	97.617320
2468.000000	97.617903
2467.000000	97.618712
2466.000000	97.619996
2465.000000	97.621099
2464.000000	97.621234
2463.000000	97.620418
2462.000000	97.619416
2461.000000	97.618857
2460.000000	97.618649
2459.000000	97.618249
2458.000000	97.617389
2457.000000	97.616456
2456.000000	97.616071
2455.000000	97.616354
2454.000000	97.616852
2453.000000	97.617220
2452.000000	97.617659
2451.000000	97.618433
2450.000000	97.619302
2449.000000	97.619846
2448.000000	97.620189
2447.000000	97.620964
2446.000000	97.622556
2445.000000	97.624605
2444.000000	97.626179
2443.000000	97.626479
2442.000000	97.625519
2441.000000	97.624333
2440.000000	97.624283
2439.000000	97.625815
2438.000000	97.628043
2437.000000	97.629588
2436.000000	97.629883
2435.000000	97.629390
2434.000000	97.628842
2433.000000	97.628536
2432.000000	97.628318
2431.000000	97.627896
2430.000000	97.627089
2429.000000	97.626036
2428.000000	97.625229
2427.000000	97.625078
2426.000000	97.625383
2425.000000	97.625470
2424.000000	97.624961
2423.000000	97.624236
2422.000000	97.624001
2421.000000	97.624570
2420.000000	97.625708
2419.000000	97.626961
2418.000000	97.628068
2417.000000	97.629040
2416.000000	97.629851
2415.000000	97.630248
2414.000000	97.629939
2413.000000	97.628870
2412.000000	97.627326
2411.000000	97.625824
2410.000000	97.624939
2409.000000	97.625065
2408.000000	97.626153
2407.000000	97.627563
2406.000000	97.628388
2405.000000	97.628221
2404.000000	97.627464
2403.000000	97.626409
2402.000000	97.624942
2401.000000	97.623209
2400.000000	97.621657
2399.000000	97.620841
2398.000000	97.620804
2397.000000	97.620963
2396.000000	97.620725
2395.000000	97.619958
2394.000000	97.618889
2393.000000	97.617729
2392.000000	97.616481
2391.000000	97.615051
2390.000000	97.613475
2389.000000	97.611932
2388.000000	97.610507
2387.000000	97.609087
2386.000000	97.607597
2385.000000	97.606259
2384.000000	97.605427
2383.000000	97.605156
2382.000000	97.605163
2381.000000	97.605319
2380.000000	97.605888
2379.000000	97.606908
2378.000000	97.607469
2377.000000	97.606230
2376.000000	97.602763
2375.000000	97.598107
2374.000000	97.593876
2373.000000	97.591035
2372.000000	97.589673
2371.000000	97.589412
2370.000000	97.589688
2369.000000	97.589964
2368.000000	97.589971
2367.000000	97.589681
2366.000000	97.589006
2365.000000	97.587661
2364.000000	97.584830
2363.000000	97.578809
2362.000000	97.568870
2361.000000	97.558234
2360.000000	97.552779
2359.000000	97.555594
2358.000000	97.563639
2357.000000	97.570388
2356.000000	97.572936
2355.000000	97.573362
2354.000000	97.574821
2353.000000	97.577429
2352.000000	97.579109
2351.000000	97.578331
2350.000000	97.575192
2349.000000	97.571385
2348.000000	97.568670
2347.000000	97.568339
2346.000000	97.569975
2345.000000	97.572429
2344.000000	97.575858
2343.000000	97.580280
2342.000000	97.584200
2341.000000	97.584930
2340.000000	97.582113
2339.000000	97.578260
2338.000000	97.575643
2337.000000	97.573745
2336.000000	97.570916
2335.000000	97.567042
2334.000000	97.563826
2333.000000	97.562265
2332.000000	97.561736
2331.000000	97.561176
2330.000000	97.560581
2329.000000	97.561104
2328.000000	97.562590
2327.000000	97.563753
2326.000000	97.563394
2325.000000	97.562082
2324.000000	97.561772
2323.000000	97.563447
2322.000000	97.566383
2321.000000	97.568642
2320.000000	97.569176
2319.000000	97.568339
2318.000000	97.567264
2317.000000	97.566918
2316.000000	97.567646
2315.000000	97.569153
2314.000000	97.570703
2313.000000	97.571517
2312.000000	97.571460
2311.000000	97.571113
2310.000000	97.571134
2309.000000	97.571679
2308.000000	97.572380
2307.000000	97.572801
2306.000000	97.572807
2305.000000	97.572573
2304.000000	97.572396
2303.000000	97.572463
2302.000000	97.572812
2301.000000	97.573421
2300.000000	97.574242
2299.000000	97.575188
2298.000000	97.576146
2297.000000	97.577046
2296.000000	97.577873
2295.000000	97.578650
2294.000000	97.579393
2293.000000	97.580116
2292.000000	97.580861
2291.000000	97.581698
2290.000000	97.582637
2289.000000	97.583586
2288.000000	97.584460
2287.000000	97.585323
2286.000000	97.586387
2285.000000	97.587772
2284.000000	97.589281
2283.000000	97.590468
2282.000000	97.591048
2281.000000	97.591070
2280.000000	97.590904
2279.000000	97.591017
2278.000000	97.591605
2277.000000	97.592431
2276.000000	97.593051
2275.000000	97.593240
2274.000000	97.593058
2273.000000	97.592688
2272.000000	97.592194
2271.000000	97.591529
2270.000000	97.590841
2269.000000	97.590553
2268.000000	97.590970
2267.000000	97.591958
2266.000000	97.592950
2265.000000	97.593361
2264.000000	97.592999
2263.000000	97.592163
2262.000000	97.591440
2261.000000	97.591259
2260.000000	97.591594
2259.000000	97.592076
2258.000000	97.592335
2257.000000	97.592289
2256.000000	97.592125
2255.000000	97.592041
2254.000000	97.592028
2253.000000	97.591914
2252.000000	97.591600
2251.000000	97.591173
2250.000000	97.590814
2249.000000	97.590633
2248.000000	97.590596
2247.000000	97.590602
2246.000000	97.590581
2245.000000	97.590516
2244.000000	97.590396
2243.000000	97.590209
2242.000000	97.589975
2241.000000	97.589728
2240.000000	97.589488
2239.000000	97.589261
2238.000000	97.589053
2237.000000	97.588878
2236.000000	97.588753
2235.000000	97.588678
2234.000000	97.588619
2233.000000	97.588530
2232.000000	97.588383
2231.000000	97.588168
2230.000000	97.587861
2229.000000	97.587454
2228.000000	97.587021
2227.000000	97.586705
2226.000000	97.586646
2225.000000	97.586874
2224.000000	97.587170
2223.000000	97.587075
2222.000000	97.586271
2221.000000	97.585038
2220.000000	97.584163
2219.000000	97.584242
2218.000000	97.585256
2217.000000	97.586705
2216.000000	97.587950
2215.000000	97.588438
2214.000000	97.588083
2213.000000	97.587620
2212.000000	97.588042
2211.000000	97.589319
2210.000000	97.590209
2209.000000	97.589748
2208.000000	97.588344
2207.000000	97.586954
2206.000000	97.585821
2205.000000	97.584751
2204.000000	97.583999
2203.000000	97.583849
2202.000000	97.583638
2201.000000	97.582335
2200.000000	97.580121
2199.000000	97.578386
2198.000000	97.577988
2197.000000	97.578425
2196.000000	97.578893
2195.000000	97.579321
2194.000000	97.579956
2193.000000	97.580712
2192.000000	97.581388
2191.000000	97.582149
2190.000000	97.583377
2189.000000	97.585295
2188.000000	97.587931
2187.000000	97.591009
2186.000000	97.593639
2185.000000	97.594629
2184.000000	97.593546
2183.000000	97.591348
2182.000000	97.589786
2181.000000	97.589866
2180.000000	97.591178
2179.000000	97.592567
2178.000000	97.593309
2177.000000	97.593589
2176.000000	97.593963
2175.000000	97.594565
2174.000000	97.594930
2173.000000	97.594578
2172.000000	97.593618
2171.000000	97.592710
2170.000000	97.592419
2169.000000	97.592704
2168.000000	97.593072
2167.000000	97.593194
2166.000000	97.593211
2165.000000	97.593389
2164.000000	97.593642
2163.000000	97.593659
2162.000000	97.593461
2161.000000	97.593477
2160.000000	97.593925
2159.000000	97.594373
2158.000000	97.594226
2157.000000	97.593476
2156.000000	97.592682
2155.000000	97.592295
2154.000000	97.592187
2153.000000	97.591972
2152.000000	97.591563
2151.000000	97.591281
2150.000000	97.591408
2149.000000	97.591847
2148.000000	97.592218
2147.000000	97.592234
2146.000000	97.591924
2145.000000	97.591603
2144.000000	97.591615
2143.000000	97.592028
2142.000000	97.592558
2141.000000	97.592856
2140.000000	97.592883
2139.000000	97.592878
2138.000000	97.592984
2137.000000	97.593056
2136.000000	97.592943
2135.000000	97.592795
2134.000000	97.592904
2133.000000	97.593294
2132.000000	97.593610
2131.000000	97.593509
2130.000000	97.593126
2129.000000	97.593000
2128.000000	97.593414
2127.000000	97.593943
2126.000000	97.593946
2125.000000	97.593515
2124.000000	97.593513
2123.000000	97.594449
2122.000000	97.595786
2121.000000	97.596611
2120.000000	97.596827
2119.000000	97.597191
2118.000000	97.598268
2117.000000	97.599816
2116.000000	97.601311
2115.000000	97.602735
2114.000000	97.604468
2113.000000	97.606553
2112.000000	97.608378
2111.000000	97.609261
2110.000000	97.609235
2109.000000	97.609128
2108.000000	97.609805
2107.000000	97.611365
2106.000000	97.613161
2105.000000	97.614487
2104.000000	97.615173
2103.000000	97.615525
2102.000000	97.615933
2101.000000	97.616621
2100.000000	97.617599
2099.000000	97.618675
2098.000000	97.619534
2097.000000	97.619939
2096.000000	97.619867
2095.000000	97.619541
2094.000000	97.619368
2093.000000	97.619713
2092.000000	97.620607
2091.000000	97.621722
2090.000000	97.622710
2089.000000	97.623515
2088.000000	97.624239
2087.000000	97.624817
2086.000000	97.625084
2085.000000	97.625098
2084.000000	97.625189
2083.000000	97.625658
2082.000000	97.626554
2081.000000	97.627713
2080.000000	97.628811
2079.000000	97.629443
2078.000000	97.629379
2077.000000	97.628805
2076.000000	97.628164
2075.000000	97.627645
2074.000000	97.627106
2073.000000	97.626544
2072.000000	97.626367
2071.000000	97.626956
2070.000000	97.628174
2069.000000	97.629397
2068.000000	97.630068
2067.000000	97.630060
2066.000000	97.629536
2065.000000	97.628766
2064.000000	97.628056
2063.000000	97.627624
2062.000000	97.627494
2061.000000	97.627534
2060.000000	97.627568
2059.000000	97.627445
2058.000000	97.627095
2057.000000	97.626591
2056.000000	97.626114
2055.000000	97.625811
2054.000000	97.625743
2053.000000	97.625902
2052.000000	97.626113
2051.000000	97.625971
2050.000000	97.625138
2049.000000	97.623753
2048.000000	97.622376
2047.000000	97.621409
2046.000000	97.620832
2045.000000	97.620568
2044.000000	97.620736
2043.000000	97.621279
2042.000000	97.621594
2041.000000	97.621033
2040.000000	97.619620
2039.000000	97.617970
2038.000000	97.616508
2037.000000	97.615134
2036.000000	97.613665
2035.000000	97.612200
2034.000000	97.610957
2033.000000	97.610030
2032.000000	97.609376
2031.000000	97.608942
2030.000000	97.608746
2029.000000	97.608821
2028.000000	97.609008
2027.000000	97.608798
2026.000000	97.607663
2025.000000	97.605556
2024.000000	97.603064
2023.000000	97.600949
2022.000000	97.599549
2021.000000	97.598766
2020.000000	97.598292
2019.000000	97.597749
2018.000000	97.596874
2017.000000	97.595812
2016.000000	97.595007
2015.000000	97.594623
2014.000000	97.594313
2013.000000	97.593778
2012.000000	97.593218
2011.000000	97.592897
2010.000000	97.592543
2009.000000	97.591652
2008.000000	97.590228
2007.000000	97.588768
2006.000000	97.587622
2005.000000	97.586783
2004.000000	97.586251
2003.000000	97.586101
2002.000000	97.586134
2001.000000	97.586024
2000.000000	97.585782
1999.000000	97.585678
1998.000000	97.585740
1997.000000	97.585656
1996.000000	97.585235
1995.000000	97.584589
1994.000000	97.583890
1993.000000	97.583139
1992.000000	97.582283
1991.000000	97.581359
1990.000000	97.580521
1989.000000	97.580009
1988.000000	97.580048
1987.000000	97.580628
1986.000000	97.581364
1985.000000	97.581812
1984.000000	97.581880
1983.000000	97.581771
1982.000000	97.581671
1981.000000	97.581596
1980.000000	97.581469
1979.000000	97.581257
1978.000000	97.581064
1977.000000	97.581077
1976.000000	97.581345
1975.000000	97.581606
1974.000000	97.581558
1973.000000	97.581282
1972.000000	97.581184
1971.000000	97.581452
1970.000000	97.581826
1969.000000	97.581960
1968.000000	97.581869
1967.000000	97.581813
1966.000000	97.581903
1965.000000	97.582027
1964.000000	97.582079
1963.000000	97.582040
1962.000000	97.581916
1961.000000	97.581802
1960.000000	97.581893
1959.000000	97.582270
1958.000000	97.582738
1957.000000	97.583007
1956.000000	97.583021
1955.000000	97.582938
1954.000000	97.582881
1953.000000	97.582826
1952.000000	97.582740
1951.000000	97.582604
1950.000000	97.582348
1949.000000	97.581986
1948.000000	97.581729
1947.000000	97.581771
1946.000000	97.581981
1945.000000	97.581952
1944.000000	97.581424
1943.000000	97.580479
1942.000000	97.579408
1941.000000	97.578473
1940.000000	97.577784
1939.000000	97.577325
1938.000000	97.576992
1937.000000	97.576660
1936.000000	97.576243
1935.000000	97.575665
1934.000000	97.574853
1933.000000	97.573841
1932.000000	97.572821
1931.000000	97.571959
1930.000000	97.571203
1929.000000	97.570433
1928.000000	97.569664
1927.000000	97.568996
1926.000000	97.568352
1925.000000	97.567492
1924.000000	97.566339
1923.000000	97.565069
1922.000000	97.563909
1921.000000	97.562924
1920.000000	97.562074
1919.000000	97.561270
1918.000000	97.560333
1917.000000	97.559156
1916.000000	97.557905
1915.000000	97.556773
1914.000000	97.555646
1913.000000	97.554273
1912.000000	97.552704
1911.000000	97.551261
1910.000000	97.550033
1909.000000	97.548783
1908.000000	97.547425
1907.000000	97.546277
1906.000000	97.545542
1905.000000	97.544794
1904.000000	97.543562
1903.000000	97.542071
1902.000000	97.540830
1901.000000	97.539871
1900.000000	97.538966
1899.000000	97.538203
1898.000000	97.537613
1897.000000	97.536729
1896.000000	97.535264
1895.000000	97.533523
1894.000000	97.531713
1893.000000	97.529729
1892.000000	97.528049
1891.000000	97.527618
1890.000000	97.528231
1889.000000	97.528223
1888.000000	97.526907
1887.000000	97.525695
1886.000000	97.525820
1885.000000	97.526588
1884.000000	97.526709
1883.000000	97.526212
1882.000000	97.525961
1881.000000	97.526197
1880.000000	97.526425
1879.000000	97.526335
1878.000000	97.525991
1877.000000	97.525445
1876.000000	97.525047
1875.000000	97.525427
1874.000000	97.526409
1873.000000	97.526897
1872.000000	97.526508
1871.000000	97.526315
1870.000000	97.527087
1869.000000	97.527531
1868.000000	97.526017
1867.000000	97.523570
1866.000000	97.522676
1865.000000	97.524212
1864.000000	97.527349
1863.000000	97.530989
1862.000000	97.534372
1861.000000	97.536827
1860.000000	97.538097
1859.000000	97.538896
1858.000000	97.540254
1857.000000	97.542255
1856.000000	97.544177
1855.000000	97.545509
1854.000000	97.546153
1853.000000	97.546392
1852.000000	97.546877
1851.000000	97.548512
1850.000000	97.551737
1849.000000	97.555510
1848.000000	97.558017
1847.000000	97.558534
1846.000000	97.558088
1845.000000	97.558374
1844.000000	97.559942
1843.000000	97.561844
1842.000000	97.563327
1841.000000	97.564748
1840.000000	97.566579
1839.000000	97.568574
1838.000000	97.569906
1837.000000	97.570321
1836.000000	97.570877
1835.000000	97.572520
1834.000000	97.574682
1833.000000	97.576329
1832.000000	97.577571
1831.000000	97.579440
1830.000000	97.581649
1829.000000	97.581948
1828.000000	97.579777
1827.000000	97.577924
1826.000000	97.579353
1825.000000	97.583153
1824.000000	97.585333
1823.000000	97.584153
1822.000000	97.581860
1821.000000	97.580970
1820.000000	97.581301
1819.000000	97.581576
1818.000000	97.581310
1817.000000	97.580637
1816.000000	97.579921
1815.000000	97.579575
1814.000000	97.579890
1813.000000	97.580036
1812.000000	97.578588
1811.000000	97.575651
1810.000000	97.572569
1809.000000	97.570378
1808.000000	97.569548
1807.000000	97.570425
1806.000000	97.572354
1805.000000	97.573408
1804.000000	97.572600
1803.000000	97.570777
1802.000000	97.569098
1801.000000	97.566787
1800.000000	97.562487
1799.000000	97.557852
1798.000000	97.555402
1797.000000	97.554864
1796.000000	97.554344
1795.000000	97.553789
1794.000000	97.554998
1793.000000	97.557947
1792.000000	97.560236
1791.000000	97.561864
1790.000000	97.565154
1789.000000	97.570267
1788.000000	97.574955
1787.000000	97.577748
1786.000000	97.579185
1785.000000	97.580411
1784.000000	97.581652
1783.000000	97.582277
1782.000000	97.582653
1781.000000	97.583596
1780.000000	97.585144
1779.000000	97.587434
1778.000000	97.590601
1777.000000	97.594173
1776.000000	97.596960
1775.000000	97.598789
1774.000000	97.601401
1773.000000	97.605744
1772.000000	97.608942
1771.000000	97.608496
1770.000000	97.606292
1769.000000	97.605473
1768.000000	97.607062
1767.000000	97.609880
1766.000000	97.612456
1765.000000	97.614411
1764.000000	97.615952
1763.000000	97.617179
1762.000000	97.618132
1761.000000	97.618692
1760.000000	97.618678
1759.000000	97.618293
1758.000000	97.618217
1757.000000	97.619245
1756.000000	97.621247
1755.000000	97.623294
1754.000000	97.624844
1753.000000	97.625924
1752.000000	97.626439
1751.000000	97.626184
1750.000000	97.625366
1749.000000	97.624694
1748.000000	97.624675
1747.000000	97.625158
1746.000000	97.625908
1745.000000	97.626873
1744.000000	97.627819
1743.000000	97.628253
1742.000000	97.628024
1741.000000	97.627782
1740.000000	97.628310
1739.000000	97.629218
1738.000000	97.629484
1737.000000	97.629104
1736.000000	97.628848
1735.000000	97.629074
1734.000000	97.628576
1733.000000	97.626216
1732.000000	97.623302
1731.000000	97.621679
1730.000000	97.621717
1729.000000	97.622575
1728.000000	97.623105
1727.000000	97.622812
1726.000000	97.622004
1725.000000	97.620998
1724.000000	97.620032
1723.000000	97.619416
1722.000000	97.619081
1721.000000	97.618743
1720.000000	97.618370
1719.000000	97.618074
1718.000000	97.616976
1717.000000	97.613591
1716.000000	97.608294
1715.000000	97.603267
1714.000000	97.599698
1713.000000	97.597046
1712.000000	97.594621
1711.000000	97.592388
1710.000000	97.590366
1709.000000	97.588204
1708.000000	97.585616
1707.000000	97.582971
1706.000000	97.580557
1705.000000	97.577582
1704.000000	97.573401
1703.000000	97.568606
1702.000000	97.564389
1701.000000	97.561453
1700.000000	97.558468
1699.000000	97.554129
1698.000000	97.549514
1697.000000	97.545728
1696.000000	97.542645
1695.000000	97.539174
1694.000000	97.534831
1693.000000	97.530207
1692.000000	97.525867
1691.000000	97.521823
1690.000000	97.517739
1689.000000	97.513408
1688.000000	97.508852
1687.000000	97.504206
1686.000000	97.499654
1685.000000	97.495290
1684.000000	97.490845
1683.000000	97.485965
1682.000000	97.480920
1681.000000	97.476167
1680.000000	97.471837
1679.000000	97.467600
1678.000000	97.463165
1677.000000	97.458743
1676.000000	97.454804
1675.000000	97.451213
1674.000000	97.447234
1673.000000	97.442742
1672.000000	97.438423
1671.000000	97.434870
1670.000000	97.431693
1669.000000	97.428119
1668.000000	97.424228
1667.000000	97.420563
1666.000000	97.417210
1665.000000	97.413955
1664.000000	97.410775
1663.000000	97.407385
1662.000000	97.403108
1661.000000	97.398266
1660.000000	97.394155
1659.000000	97.391390
1658.000000	97.389064
1657.000000	97.385660
1656.000000	97.380501
1655.000000	97.374882
1654.000000	97.371520
1653.000000	97.370376
1652.000000	97.365900
1651.000000	97.359631
1650.000000	97.355693
1649.000000	97.355773
1648.000000	97.357641
1647.000000	97.357454
1646.000000	97.353504
1645.000000	97.348284
1644.000000	97.344465
1643.000000	97.342691
1642.000000	97.342411
1641.000000	97.343056
1640.000000	97.343225
1639.000000	97.341641
1638.000000	97.338465
1637.000000	97.336323
1636.000000	97.338388
1635.000000	97.343312
1634.000000	97.346046
1633.000000	97.345540
1632.000000	97.345066
1631.000000	97.346691
1630.000000	97.349727
1629.000000	97.351858
1628.000000	97.351639
1627.000000	97.349082
1626.000000	97.345288
1625.000000	97.342228
1624.000000	97.341956
1623.000000	97.344300
1622.000000	97.346477
1621.000000	97.347897
1620.000000	97.350828
1619.000000	97.356997
1618.000000	97.365057
1617.000000	97.371159
1616.000000	97.373255
1615.000000	97.373831
1614.000000	97.375392
1613.000000	97.378006
1612.000000	97.381209
1611.000000	97.384016
1610.000000	97.385601
1609.000000	97.387131
1608.000000	97.391087
1607.000000	97.397570
1606.000000	97.404422
1605.000000	97.411167
1604.000000	97.418978
1603.000000	97.428100
1602.000000	97.436356
1601.000000	97.441404
1600.000000	97.443070
1599.000000	97.442541
1598.000000	97.441229
1597.000000	97.441023
1596.000000	97.444059
1595.000000	97.450652
1594.000000	97.458204
1593.000000	97.464017
1592.000000	97.468177
1591.000000	97.471999
1590.000000	97.475364
1589.000000	97.477850
1588.000000	97.481137
1587.000000	97.487387
1586.000000	97.495063
1585.000000	97.500885
1584.000000	97.503823
1583.000000	97.505501
1582.000000	97.508142
1581.000000	97.512162
1580.000000	97.516507
1579.000000	97.520799
1578.000000	97.526391
1577.000000	97.533129
1576.000000	97.536789
1575.000000	97.532590
1574.000000	97.523330
1573.000000	97.514933
1572.000000	97.510225
1571.000000	97.509540
1570.000000	97.511259
1569.000000	97.513452
1568.000000	97.514299
1567.000000	97.512367
1566.000000	97.509049
1565.000000	97.508412
1564.000000	97.510858
1563.000000	97.510836
1562.000000	97.503808
1561.000000	97.492283
1560.000000	97.485517
1559.000000	97.485435
1558.000000	97.479422
1557.000000	97.465980
1556.000000	97.455918
1555.000000	97.455455
1554.000000	97.459398
1553.000000	97.460018
1552.000000	97.454133
1551.000000	97.444905
1550.000000	97.434602
1549.000000	97.423304
1548.000000	97.412144
1547.000000	97.402737
1546.000000	97.394831
1545.000000	97.385665
1544.000000	97.373330
1543.000000	97.358806
1542.000000	97.343143
1541.000000	97.326015
1540.000000	97.312402
1539.000000	97.307385
1538.000000	97.304927
1537.000000	97.298586
1536.000000	97.289300
1535.000000	97.279583
1534.000000	97.270281
1533.000000	97.259202
1532.000000	97.245380
1531.000000	97.231891
1530.000000	97.220681
1529.000000	97.210122
1528.000000	97.197595
1527.000000	97.182997
1526.000000	97.168865
1525.000000	97.157003
1524.000000	97.147265
1523.000000	97.139448
1522.000000	97.132186
1521.000000	97.122158
1520.000000	97.108182
1519.000000	97.093798
1518.000000	97.082520
1517.000000	97.074031
1516.000000	97.065134
1515.000000	97.054079
1514.000000	97.042370
1513.000000	97.031821
1512.000000	97.022332
1511.000000	97.012837
1510.000000	97.002805
1509.000000	96.992108
1508.000000	96.980434
1507.000000	96.968919
1506.000000	96.959625
1505.000000	96.951188
1504.000000	96.942060
1503.000000	96.932466
1502.000000	96.922781
1501.000000	96.913137
1500.000000	96.903329
1499.000000	96.893034
1498.000000	96.882615
1497.000000	96.873139
1496.000000	96.865509
1495.000000	96.859094
1494.000000	96.852681
1493.000000	96.845779
1492.000000	96.838269
1491.000000	96.829634
1490.000000	96.819246
1489.000000	96.807812
1488.000000	96.797190
1487.000000	96.788758
1486.000000	96.781873
1485.000000	96.774759
1484.000000	96.766382
1483.000000	96.757302
1482.000000	96.749122
1481.000000	96.742843
1480.000000	96.738171
1479.000000	96.733872
1478.000000	96.728498
1477.000000	96.720544
1476.000000	96.710119
1475.000000	96.699478
1474.000000	96.691236
1473.000000	96.685911
1472.000000	96.680861
1471.000000	96.673538
1470.000000	96.664793
1469.000000	96.656596
1468.000000	96.649646
1467.000000	96.643079
1466.000000	96.635870
1465.000000	96.628742
1464.000000	96.622832
1463.000000	96.618324
1462.000000	96.614853
1461.000000	96.612352
1460.000000	96.610384
1459.000000	96.607455
1458.000000	96.600615
1457.000000	96.589352
1456.000000	96.576240
1455.000000	96.563006
1454.000000	96.552567
1453.000000	96.548329
1452.000000	96.549854
1451.000000	96.553818
1450.000000	96.557170
1449.000000	96.558075
1448.000000	96.554949
1447.000000	96.546909
1446.000000	96.537289
1445.000000	96.531842
1444.000000	96.531704
1443.000000	96.533773
1442.000000	96.534093
1441.000000	96.530684
1440.000000	96.523080
1439.000000	96.512462
1438.000000	96.502292
1437.000000	96.497974
1436.000000	96.502091
1435.000000	96.509178
1434.000000	96.514801
1433.000000	96.518880
1432.000000	96.520939
1431.000000	96.519843
1430.000000	96.517883
1429.000000	96.518994
1428.000000	96.523663
1427.000000	96.528090
1426.000000	96.530890
1425.000000	96.535524
1424.000000	96.543360
1423.000000	96.550440
1422.000000	96.553059
1421.000000	96.552218
1420.000000	96.549207
1419.000000	96.543459
1418.000000	96.538791
1417.000000	96.542788
1416.000000	96.558479
1415.000000	96.581596
1414.000000	96.604846
1413.000000	96.624341
1412.000000	96.640917
1411.000000	96.656197
1410.000000	96.670729
1409.000000	96.685422
1408.000000	96.702231
1407.000000	96.720842
1406.000000	96.738189
1405.000000	96.752973
1404.000000	96.766269
1403.000000	96.778079
1402.000000	96.786785
1401.000000	96.791960
1400.000000	96.795431
1399.000000	96.801107
1398.000000	96.812879
1397.000000	96.831931
1396.000000	96.856624
1395.000000	96.882354
1394.000000	96.904360
1393.000000	96.922971
1392.000000	96.942355
1391.000000	96.964695
1390.000000	96.987801
1389.000000	97.006546
1388.000000	97.017089
1387.000000	97.022034
1386.000000	97.029701
1385.000000	97.045896
1384.000000	97.068787
1383.000000	97.092047
1382.000000	97.110768
1381.000000	97.124905
1380.000000	97.137435
1379.000000	97.150811
1378.000000	97.166208
1377.000000	97.183693
1376.000000	97.201315
1375.000000	97.215178
1374.000000	97.223893
1373.000000	97.231325
1372.000000	97.241637
1371.000000	97.254469
1370.000000	97.266715
1369.000000	97.276489
1368.000000	97.284310
1367.000000	97.291691
1366.000000	97.300101
1365.000000	97.310608
1364.000000	97.322726
1363.000000	97.334898
1362.000000	97.347212
1361.000000	97.360951
1360.000000	97.375222
1359.000000	97.386900
1358.000000	97.394561
1357.000000	97.400894
1356.000000	97.409837
1355.000000	97.422046
1354.000000	97.435361
1353.000000	97.448261
1352.000000	97.460644
1351.000000	97.471883
1350.000000	97.480604
1349.000000	97.486546
1348.000000	97.490669
1347.000000	97.493992
1346.000000	97.497789
1345.000000	97.504261
1344.000000	97.514565
1343.000000	97.526242
1342.000000	97.534521
1341.000000	97.536706
1340.000000	97.535020
1339.000000	97.535069
1338.000000	97.540773
1337.000000	97.551667
1336.000000	97.564326
1335.000000	97.574662
1334.000000	97.580245
1333.000000	97.581693
1332.000000	97.581684
1331.000000	97.582596
1330.000000	97.585219
1329.000000	97.589153
1328.000000	97.593488
1327.000000	97.597082
1326.000000	97.599029
1325.000000	97.599503
1324.000000	97.599736
1323.000000	97.600840
1322.000000	97.602947
1321.000000	97.605390
1320.000000	97.607386
1319.000000	97.608776
1318.000000	97.610429
1317.000000	97.613322
1316.000000	97.616737
1315.000000	97.618184
1314.000000	97.616168
1313.000000	97.612711
1312.000000	97.611804
1311.000000	97.615105
1310.000000	97.620576
1309.000000	97.625411
1308.000000	97.628990
1307.000000	97.632264
1306.000000	97.635025
1305.000000	97.635245
1304.000000	97.631532
1303.000000	97.625516
1302.000000	97.621137
1301.000000	97.621079
1300.000000	97.624461
1299.000000	97.628281
1298.000000	97.630632
1297.000000	97.631733
1296.000000	97.632080
1295.000000	97.631261
1294.000000	97.629336
1293.000000	97.627949
1292.000000	97.628638
1291.000000	97.630579
1290.000000	97.631491
1289.000000	97.630676
1288.000000	97.629745
1287.000000	97.629827
1286.000000	97.629394
1285.000000	97.626287
1284.000000	97.621203
1283.000000	97.617693
1282.000000	97.618298
1281.000000	97.621781
1280.000000	97.625007
1279.000000	97.626838
1278.000000	97.628728
1277.000000	97.631497
1276.000000	97.633380
1275.000000	97.632403
1274.000000	97.629403
1273.000000	97.627118
1272.000000	97.626873
1271.000000	97.627802
1270.000000	97.628981
1269.000000	97.630410
1268.000000	97.631767
1267.000000	97.632051
1266.000000	97.631050
1265.000000	97.629575
1264.000000	97.627689
1263.000000	97.624552
1262.000000	97.620795
1261.000000	97.618983
1260.000000	97.620327
1259.000000	97.622595
1258.000000	97.623025
1257.000000	97.621945
1256.000000	97.621720
1255.000000	97.623358
1254.000000	97.625900
1253.000000	97.628276
1252.000000	97.630083
1251.000000	97.631158
1250.000000	97.631778
1249.000000	97.632512
1248.000000	97.632507
1247.000000	97.629069
1246.000000	97.621064
1245.000000	97.612010
1244.000000	97.607307
1243.000000	97.608124
1242.000000	97.609957
1241.000000	97.607491
1240.000000	97.599003
1239.000000	97.586127
1238.000000	97.571811
1237.000000	97.559286
1236.000000	97.551012
1235.000000	97.546738
1234.000000	97.543195
1233.000000	97.537005
1232.000000	97.527656
1231.000000	97.517137
1230.000000	97.507180
1229.000000	97.497380
1228.000000	97.485660
1227.000000	97.470033
1226.000000	97.450115
1225.000000	97.427299
1224.000000	97.403441
1223.000000	97.379485
1222.000000	97.355508
1221.000000	97.331676
1220.000000	97.308314
1219.000000	97.284817
1218.000000	97.259347
1217.000000	97.230249
1216.000000	97.197438
1215.000000	97.162137
1214.000000	97.125702
1213.000000	97.088999
1212.000000	97.052428
1211.000000	97.015832
1210.000000	96.978462
1209.000000	96.939654
1208.000000	96.899847
1207.000000	96.860694
1206.000000	96.823854
1205.000000	96.789409
1204.000000	96.755382
1203.000000	96.718998
1202.000000	96.678807
1201.000000	96.635798
1200.000000	96.592598
1199.000000	96.551877
1198.000000	96.515351
1197.000000	96.483157
1196.000000	96.452996
1195.000000	96.420687
1194.000000	96.383577
1193.000000	96.343672
1192.000000	96.305771
1191.000000	96.271885
1190.000000	96.239107
1189.000000	96.203651
1188.000000	96.165155
1187.000000	96.125765
1186.000000	96.086621
1185.000000	96.047009
1184.000000	96.006192
1183.000000	95.964504
1182.000000	95.922813
1181.000000	95.881453
1180.000000	95.839000
1179.000000	95.792057
1178.000000	95.738068
1177.000000	95.679100
1176.000000	95.620923
1175.000000	95.567261
1174.000000	95.516859
1173.000000	95.467236
1172.000000	95.418504
1171.000000	95.371167
1170.000000	95.323095
1169.000000	95.272214
1168.000000	95.220504
1167.000000	95.172176
1166.000000	95.129700
1165.000000	95.095067
1164.000000	95.072995
1163.000000	95.068352
1162.000000	95.080740
1161.000000	95.104552
1160.000000	95.132955
1159.000000	95.158713
1158.000000	95.173791
1157.000000	95.173129
1156.000000	95.157629
1155.000000	95.129731
1154.000000	95.088045
1153.000000	95.031363
1152.000000	94.966631
1151.000000	94.906419
1150.000000	94.856664
1149.000000	94.811774
1148.000000	94.763547
1147.000000	94.710608
1146.000000	94.657865
1145.000000	94.610645
1144.000000	94.570926
1143.000000	94.536022
1142.000000	94.499665
1141.000000	94.457353
1140.000000	94.411336
1139.000000	94.367676
1138.000000	94.328450
1137.000000	94.290167
1136.000000	94.249450
1135.000000	94.206149
1134.000000	94.160899
1133.000000	94.114087
1132.000000	94.067744
1131.000000	94.024191
1130.000000	93.982025
1129.000000	93.937167
1128.000000	93.888074
1127.000000	93.836220
1126.000000	93.782201
1125.000000	93.726427
1124.000000	93.673245
1123.000000	93.628155
1122.000000	93.589879
1121.000000	93.550889
1120.000000	93.507405
1119.000000	93.463463
1118.000000	93.423487
1117.000000	93.386768
1116.000000	93.351242
1115.000000	93.316904
1114.000000	93.282820
1113.000000	93.246078
1112.000000	93.206687
1111.000000	93.168703
1110.000000	93.133886
1109.000000	93.099027
1108.000000	93.061692
1107.000000	93.023521
1106.000000	92.985771
1105.000000	92.947000
1104.000000	92.907609
1103.000000	92.871704
1102.000000	92.841620
1101.000000	92.815257
1100.000000	92.789526
1099.000000	92.762238
1098.000000	92.729654
1097.000000	92.688896
1096.000000	92.645119
1095.000000	92.609397
1094.000000	92.585936
1093.000000	92.566821
1092.000000	92.542755
1091.000000	92.513646
1090.000000	92.484702
1089.000000	92.457370
1088.000000	92.429455
1087.000000	92.401087
1086.000000	92.375732
1085.000000	92.356301
1084.000000	92.342901
1083.000000	92.333482
1082.000000	92.325195
1081.000000	92.315952
1080.000000	92.305185
1079.000000	92.292914
1078.000000	92.279480
1077.000000	92.266739
1076.000000	92.255966
1075.000000	92.242497
1074.000000	92.217332
1073.000000	92.177699
1072.000000	92.131000
1071.000000	92.083466
1070.000000	92.030054
1069.000000	91.962724
1068.000000	91.883894
1067.000000	91.802763
1066.000000	91.721112
1065.000000	91.632489
1064.000000	91.534747
1063.000000	91.434294
1062.000000	91.337520
1061.000000	91.245632
1060.000000	91.157951
1059.000000	91.072918
1058.000000	90.986634
1057.000000	90.897945
1056.000000	90.813354
1055.000000	90.738387
1054.000000	90.665882
1053.000000	90.583227
1052.000000	90.491253
1051.000000	90.404556
1050.000000	90.330939
1049.000000	90.261898
1048.000000	90.185572
1047.000000	90.097905
1046.000000	90.000200
1045.000000	89.897002
1044.000000	89.797615
1043.000000	89.709933
1042.000000	89.631593
1041.000000	89.554783
1040.000000	89.478190
1039.000000	89.405079
1038.000000	89.332874
1037.000000	89.257348
1036.000000	89.185682
1035.000000	89.131546
1034.000000	89.096893
1033.000000	89.071125
1032.000000	89.048074
1031.000000	89.030277
1030.000000	89.015968
1029.000000	88.997285
1028.000000	88.974647
1027.000000	88.959236
1026.000000	88.957307
1025.000000	88.963605
1024.000000	88.972458
1023.000000	88.982981
1022.000000	88.991033
1021.000000	88.989361
1020.000000	88.979535
1019.000000	88.971739
1018.000000	88.969270
1017.000000	88.965021
1016.000000	88.956152
1015.000000	88.949391
1014.000000	88.947473
1013.000000	88.942805
1012.000000	88.930149
1011.000000	88.915099
1010.000000	88.905086
1009.000000	88.901623
1008.000000	88.905268
1007.000000	88.918144
1006.000000	88.937793
1005.000000	88.958237
1004.000000	88.980061
1003.000000	89.009400
1002.000000	89.044743
1001.000000	89.076451
1000.000000	89.102895
999.000000	89.134872
998.000000	89.178686
997.000000	89.226058
996.000000	89.266833
995.000000	89.302202
994.000000	89.339153
993.000000	89.380640
992.000000	89.427387
991.000000	89.481473
990.000000	89.542102
989.000000	89.604057
988.000000	89.664887
987.000000	89.728173
986.000000	89.796940
985.000000	89.870257
984.000000	89.948169
983.000000	90.032476
982.000000	90.120775
981.000000	90.207828
980.000000	90.294922
979.000000	90.389417
978.000000	90.492710
977.000000	90.597436
976.000000	90.699289
975.000000	90.802640
974.000000	90.911076
973.000000	91.021430
972.000000	91.131318
971.000000	91.244143
970.000000	91.361877
969.000000	91.480342
968.000000	91.596306
967.000000	91.712252
966.000000	91.829318
965.000000	91.942143
964.000000	92.046047
963.000000	92.144112
962.000000	92.242472
961.000000	92.342897
960.000000	92.443700
959.000000	92.543108
958.000000	92.637734
957.000000	92.722231
956.000000	92.794610
955.000000	92.858950
954.000000	92.920449
953.000000	92.981408
952.000000	93.043834
951.000000	93.110281
950.000000	93.178696
949.000000	93.241710
948.000000	93.295133
947.000000	93.343022
946.000000	93.390763
945.000000	93.437513
944.000000	93.480155
943.000000	93.520917
942.000000	93.565098
941.000000	93.612283
940.000000	93.654659
939.000000	93.684759
938.000000	93.702694
937.000000	93.715484
936.000000	93.730285
935.000000	93.748825
934.000000	93.769108
933.000000	93.792070
932.000000	93.822979
931.000000	93.863801
930.000000	93.908354
929.000000	93.949966
928.000000	93.990136
927.000000	94.032712
926.000000	94.072905
925.000000	94.101958
924.000000	94.121999
923.000000	94.145477
922.000000	94.177336
921.000000	94.207680
920.000000	94.226520
919.000000	94.237287
918.000000	94.250084
917.000000	94.268773
916.000000	94.291320
915.000000	94.317003
914.000000	94.345978
913.000000	94.375859
912.000000	94.405793
911.000000	94.441311
910.000000	94.488945
909.000000	94.547529
908.000000	94.609533
907.000000	94.669859
906.000000	94.729633
905.000000	94.792578
904.000000	94.861096
903.000000	94.935175
902.000000	95.012511
901.000000	95.090320
900.000000	95.168221
899.000000	95.247765
898.000000	95.328290
897.000000	95.405800
896.000000	95.477557
895.000000	95.545151
894.000000	95.610732
893.000000	95.672377
892.000000	95.726140
891.000000	95.771896
890.000000	95.814512
889.000000	95.858320
888.000000	95.900924
887.000000	95.932929
886.000000	95.944890
885.000000	95.935583
884.000000	95.912574
883.000000	95.883287
882.000000	95.846905
881.000000	95.797821
880.000000	95.735787
879.000000	95.668725
878.000000	95.606189
877.000000	95.555191
876.000000	95.522980
875.000000	95.518181
874.000000	95.547405
873.000000	95.615033
872.000000	95.725436
871.000000	95.877571
870.000000	96.055930
869.000000	96.234656
868.000000	96.393975
867.000000	96.528001
866.000000	96.637461
865.000000	96.723934
864.000000	96.794662
863.000000	96.864460
862.000000	96.943941
861.000000	97.027923
860.000000	97.101487
859.000000	97.156344
858.000000	97.197160
857.000000	97.233882
856.000000	97.273338
855.000000	97.317942
854.000000	97.366555
853.000000	97.413934
852.000000	97.452310
851.000000	97.476582
850.000000	97.488758
849.000000	97.497589
848.000000	97.513558
847.000000	97.541871
846.000000	97.578158
845.000000	97.611897
844.000000	97.634970
843.000000	97.645657
842.000000	97.644714
841.000000	97.631831
840.000000	97.608838
839.000000	97.583114
838.000000	97.563242
837.000000	97.552309
836.000000	97.548623
835.000000	97.551196
834.000000	97.560479
833.000000	97.574356
832.000000	97.587285
831.000000	97.594313
830.000000	97.594789
829.000000	97.592948
828.000000	97.595441
827.000000	97.604792
826.000000	97.612798
825.000000	97.605667
824.000000	97.581752
823.000000	97.559794
822.000000	97.561066
821.000000	97.585826
820.000000	97.615385
819.000000	97.633937
818.000000	97.639202
817.000000	97.632727
816.000000	97.609287
815.000000	97.560926
814.000000	97.486967
813.000000	97.394336
812.000000	97.288524
811.000000	97.167275
810.000000	97.022901
809.000000	96.849290
808.000000	96.647378
807.000000	96.425056
806.000000	96.191357
805.000000	95.951240
804.000000	95.708438
803.000000	95.472495
802.000000	95.258701
801.000000	95.080051
800.000000	94.941935
799.000000	94.844580
798.000000	94.787181
797.000000	94.768202
796.000000	94.782945
795.000000	94.822328
794.000000	94.875074
793.000000	94.931312
792.000000	94.983112
791.000000	95.022324
790.000000	95.041996
789.000000	95.042196
788.000000	95.030824
787.000000	95.014229
786.000000	94.988124
785.000000	94.941677
784.000000	94.870242
783.000000	94.780818
782.000000	94.685980
781.000000	94.597259
780.000000	94.525266
779.000000	94.480881
778.000000	94.471957
777.000000	94.499438
776.000000	94.556798
775.000000	94.631536
774.000000	94.709212
773.000000	94.781097
772.000000	94.849228
771.000000	94.921772
770.000000	95.002943
769.000000	95.088283
768.000000	95.168045
767.000000	95.233318
766.000000	95.281601
765.000000	95.319791
764.000000	95.359553
763.000000	95.406096
762.000000	95.453400
761.000000	95.493776
760.000000	95.528739
759.000000	95.565205
758.000000	95.604193
757.000000	95.640663
756.000000	95.673910
755.000000	95.711022
754.000000	95.758548
753.000000	95.815012
752.000000	95.871613
751.000000	95.916990
750.000000	95.944562
749.000000	95.961674
748.000000	95.988472
747.000000	96.038374
746.000000	96.100064
745.000000	96.148806
744.000000	96.176997
743.000000	96.202402
742.000000	96.242494
741.000000	96.292377
740.000000	96.336458
739.000000	96.372529
738.000000	96.412254
737.000000	96.461684
736.000000	96.512889
735.000000	96.556047
734.000000	96.590939
733.000000	96.622835
732.000000	96.652722
731.000000	96.676541
730.000000	96.691927
729.000000	96.701686
728.000000	96.711134
727.000000	96.724331
726.000000	96.742613
725.000000	96.764502
724.000000	96.785897
723.000000	96.802127
722.000000	96.812541
721.000000	96.823082
720.000000	96.839855
719.000000	96.857180
718.000000	96.858015
717.000000	96.831298
716.000000	96.785737
715.000000	96.744781
714.000000	96.728944
713.000000	96.744135
712.000000	96.784041
711.000000	96.836324
710.000000	96.886063
709.000000	96.922128
708.000000	96.944294
707.000000	96.960571
706.000000	96.975862
705.000000	96.985107
704.000000	96.977407
703.000000	96.942535
702.000000	96.873910
701.000000	96.771348
700.000000	96.643544
699.000000	96.505042
698.000000	96.368997
697.000000	96.246105
696.000000	96.149408
695.000000	96.092300
694.000000	96.080092
693.000000	96.107892
692.000000	96.167112
691.000000	96.249103
690.000000	96.341930
689.000000	96.432433
688.000000	96.516245
687.000000	96.597888
686.000000	96.675965
685.000000	96.737080
684.000000	96.771915
683.000000	96.790063
682.000000	96.809502
681.000000	96.836514
680.000000	96.863798
679.000000	96.886290
678.000000	96.907247
677.000000	96.929293
676.000000	96.951415
675.000000	96.974128
674.000000	97.002131
673.000000	97.040940
672.000000	97.088245
671.000000	97.145645
670.000000	97.221003
669.000000	97.330245
668.000000	97.430073
667.000000	97.435407
666.000000	97.372415
665.000000	97.310425
664.000000	97.268259
663.000000	97.252810
662.000000	97.264181
661.000000	97.294941
660.000000	97.334546
659.000000	97.374837
658.000000	97.408882
657.000000	97.431360
656.000000	97.442918
655.000000	97.445462
654.000000	97.438625
653.000000	97.424919
652.000000	97.412182
651.000000	97.405830
650.000000	97.402104
