4000.000000	97.199715
3999.000000	97.202144
3998.000000	97.201679
3997.000000	97.197678
3996.000000	97.190694
3995.000000	97.182124
3994.000000	97.173526
3993.000000	97.166373
3992.000000	97.162121
3991.000000	97.161900
3990.000000	97.165572
3989.000000	97.171500
3988.000000	97.177953
3987.000000	97.184474
3986.000000	97.191340
3985.000000	97.197784
3984.000000	97.201558
3983.000000	97.200836
3982.000000	97.196113
3981.000000	97.189829
3980.000000	97.184194
3979.000000	97.179790
3978.000000	97.176310
3977.000000	97.173650
3976.000000	97.171916
3975.000000	97.170950
3974.000000	97.170077
3973.000000	97.168344
3972.000000	97.165083
3971.000000	97.160537
3970.000000	97.155907
3969.000000	97.152710
3968.000000	97.152004
3967.000000	97.153878
3966.000000	97.157172
3965.000000	97.159626
3964.000000	97.159121
3963.000000	97.155467
3962.000000	97.150617
3961.000000	97.146859
3960.000000	97.144950
3959.000000	97.144339
3958.000000	97.144331
3957.000000	97.144526
3956.000000	97.144703
3955.000000	97.144798
3954.000000	97.145061
3953.000000	97.145708
3952.000000	97.146336
3951.000000	97.146009
3950.000000	97.144353
3949.000000	97.142456
3948.000000	97.141944
3947.000000	97.143100
3946.000000	97.144418
3945.000000	97.144455
3944.000000	97.143530
3943.000000	97.142957
3942.000000	97.142875
3941.000000	97.142177
3940.000000	97.140420
3939.000000	97.139134
3938.000000	97.140355
3937.000000	97.143637
3936.000000	97.145749
3935.000000	97.143755
3934.000000	97.137983
3933.000000	97.131216
3932.000000	97.125302
3931.000000	97.120481
3930.000000	97.117243
3929.000000	97.116187
3928.000000	97.115928
3927.000000	97.114579
3926.000000	97.113339
3925.000000	97.114590
3924.000000	97.117070
3923.000000	97.117019
3922.000000	97.113782
3921.000000	97.110934
3920.000000	97.111044
3919.000000	97.112883
3918.000000	97.114694
3917.000000	97.117437
3916.000000	97.122340
3915.000000	97.128415
3914.000000	97.132998
3913.000000	97.133916
3912.000000	97.130462
3911.000000	97.123527
3910.000000	97.115234
3909.000000	97.107811
3908.000000	97.101261
3907.000000	97.093667
3906.000000	97.084790
3905.000000	97.077536
3904.000000	97.074415
3903.000000	97.074486
3902.000000	97.075356
3901.000000	97.076417
3900.000000	97.078045
3899.000000	97.079465
3898.000000	97.079284
3897.000000	97.077592
3896.000000	97.075602
3895.000000	97.074141
3894.000000	97.073038
3893.000000	97.072070
3892.000000	97.071294
3891.000000	97.070596
3890.000000	97.069755
3889.000000	97.068714
3888.000000	97.067638
3887.000000	97.066623
3886.000000	97.065632
3885.000000	97.064654
3884.000000	97.063674
3883.000000	97.062683
3882.000000	97.061683
3881.000000	97.060686
3880.000000	97.059684
3879.000000	97.058659
3878.000000	97.057601
3877.000000	97.056523
3876.000000	97.055463
3875.000000	97.054457
3874.000000	97.053519
3873.000000	97.052648
3872.000000	97.051860
3871.000000	97.051199
3870.000000	97.050701
3869.000000	97.050352
3868.000000	97.050111
3867.000000	97.049958
3866.000000	97.049907
3865.000000	97.049965
3864.000000	97.050101
3863.000000	97.050264
3862.000000	97.050411
3861.000000	97.050527
3860.000000	97.050611
3859.000000	97.050683
3858.000000	97.050774
3857.000000	97.050904
3856.000000	97.051076
3855.000000	97.051300
3854.000000	97.051604
3853.000000	97.051997
3852.000000	97.052476
3851.000000	97.053030
3850.000000	97.053643
3849.000000	97.054290
3848.000000	97.054939
3847.000000	97.055566
3846.000000	97.056153
3845.000000	97.056699
3844.000000	97.057225
3843.000000	97.057768
3842.000000	97.058353
3841.000000	97.058989
3840.000000	97.059664
3839.000000	97.060398
3838.000000	97.061259
3837.000000	97.062297
3836.000000	97.063519
3835.000000	97.064890
3834.000000	97.066353
3833.000000	97.067877
3832.000000	97.069476
3831.000000	97.071148
3830.000000	97.072771
3829.000000	97.074158
3828.000000	97.075303
3827.000000	97.076507
3826.000000	97.078060
3825.000000	97.079824
3824.000000	97.081216
3823.000000	97.081981
3822.000000	97.082757
3821.000000	97.084046
3820.000000	97.085509
3819.000000	97.086575
3818.000000	97.087261
3817.000000	97.088620
3816.000000	97.091299
3815.000000	97.094451
3814.000000	97.096819
3813.000000	97.098389
3812.000000	97.100166
3811.000000	97.102834
3810.000000	97.105527
3809.000000	97.106768
3808.000000	97.106646
3807.000000	97.106599
3806.000000	97.107240
3805.000000	97.107829
3804.000000	97.107253
3803.000000	97.106941
3802.000000	97.109897
3801.000000	97.115263
3800.000000	97.119210
3799.000000	97.120482
3798.000000	97.121382
3797.000000	97.124903
3796.000000	97.130934
3795.000000	97.136195
3794.000000	97.138587
3793.000000	97.139350
3792.000000	97.140797
3791.000000	97.143340
3790.000000	97.145691
3789.000000	97.146978
3788.000000	97.147155
3787.000000	97.146034
3786.000000	97.143441
3785.000000	97.140332
3784.000000	97.137982
3783.000000	97.136508
3782.000000	97.135177
3781.000000	97.134625
3780.000000	97.136335
3779.000000	97.139014
3778.000000	97.138817
3777.000000	97.134560
3776.000000	97.130281
3775.000000	97.131317
3774.000000	97.137298
3773.000000	97.141061
3772.000000	97.137178
3771.000000	97.128422
3770.000000	97.120672
3769.000000	97.114898
3768.000000	97.108545
3767.000000	97.102159
3766.000000	97.100423
3765.000000	97.105315
3764.000000	97.111348
3763.000000	97.111412
3762.000000	97.104805
3761.000000	97.096897
3760.000000	97.090672
3759.000000	97.083717
3758.000000	97.074653
3757.000000	97.065456
3756.000000	97.057269
3755.000000	97.048568
3754.000000	97.039351
3753.000000	97.031990
3752.000000	97.025539
3751.000000	97.015655
3750.000000	97.003263
3749.000000	96.996426
3748.000000	96.998484
3747.000000	96.999401
3746.000000	96.996024
3745.000000	97.000625
3744.000000	97.010792
3743.000000	97.011761
3742.000000	97.001821
3741.000000	96.990984
3740.000000	96.986650
3739.000000	96.984432
3738.000000	96.975699
3737.000000	96.962470
3736.000000	96.955637
3735.000000	96.959395
3734.000000	96.968473
3733.000000	96.977877
3732.000000	96.986657
3731.000000	96.993652
3730.000000	96.995987
3729.000000	96.992381
3728.000000	96.987006
3727.000000	96.985243
3726.000000	96.985141
3725.000000	96.980761
3724.000000	96.971854
3723.000000	96.964623
3722.000000	96.963799
3721.000000	96.967875
3720.000000	96.971402
3719.000000	96.970699
3718.000000	96.966483
3717.000000	96.960724
3716.000000	96.953267
3715.000000	96.942377
3714.000000	96.928260
3713.000000	96.915052
3712.000000	96.906926
3711.000000	96.904150
3710.000000	96.904025
3709.000000	96.903650
3708.000000	96.901755
3707.000000	96.898483
3706.000000	96.894343
3705.000000	96.889925
3704.000000	96.886288
3703.000000	96.884457
3702.000000	96.883347
3701.000000	96.879670
3700.000000	96.871371
3699.000000	96.859990
3698.000000	96.849666
3697.000000	96.842869
3696.000000	96.836630
3695.000000	96.826428
3694.000000	96.813080
3693.000000	96.802594
3692.000000	96.798610
3691.000000	96.798738
3690.000000	96.800360
3689.000000	96.803783
3688.000000	96.807799
3687.000000	96.808788
3686.000000	96.805807
3685.000000	96.802378
3684.000000	96.801587
3683.000000	96.798060
3682.000000	96.782157
3681.000000	96.754606
3680.000000	96.729019
3679.000000	96.713772
3678.000000	96.699955
3677.000000	96.682898
3676.000000	96.670795
3675.000000	96.662477
3674.000000	96.650703
3673.000000	96.634513
3672.000000	96.620095
3671.000000	96.620017
3670.000000	96.633379
3669.000000	96.642594
3668.000000	96.641513
3667.000000	96.639553
3666.000000	96.643522
3665.000000	96.649559
3664.000000	96.649015
3663.000000	96.638531
3662.000000	96.623847
3661.000000	96.612615
3660.000000	96.605302
3659.000000	96.593707
3658.000000	96.571947
3657.000000	96.545523
3656.000000	96.522139
3655.000000	96.502604
3654.000000	96.483155
3653.000000	96.460164
3652.000000	96.435442
3651.000000	96.414734
3650.000000	96.397026
3649.000000	96.379498
3648.000000	96.369274
3647.000000	96.374676
3646.000000	96.393933
3645.000000	96.418827
3644.000000	96.442494
3643.000000	96.461303
3642.000000	96.471702
3641.000000	96.469734
3640.000000	96.456894
3639.000000	96.441205
3638.000000	96.428161
3637.000000	96.413763
3636.000000	96.392641
3635.000000	96.370336
3634.000000	96.358374
3633.000000	96.358720
3632.000000	96.357210
3631.000000	96.340338
3630.000000	96.320290
3629.000000	96.313469
3628.000000	96.311067
3627.000000	96.301560
3626.000000	96.290064
3625.000000	96.287710
3624.000000	96.298136
3623.000000	96.312323
3622.000000	96.317205
3621.000000	96.309797
3620.000000	96.299233
3619.000000	96.294375
3618.000000	96.295707
3617.000000	96.298692
3616.000000	96.299328
3615.000000	96.298497
3614.000000	96.301192
3613.000000	96.309371
3612.000000	96.318644
3611.000000	96.324404
3610.000000	96.329155
3609.000000	96.339492
3608.000000	96.355820
3607.000000	96.371719
3606.000000	96.383686
3605.000000	96.394339
3604.000000	96.406734
3603.000000	96.419444
3602.000000	96.429568
3601.000000	96.435925
3600.000000	96.437768
3599.000000	96.434269
3598.000000	96.426285
3597.000000	96.416489
3596.000000	96.407981
3595.000000	96.402761
3594.000000	96.400275
3593.000000	96.398687
3592.000000	96.395895
3591.000000	96.389573
3590.000000	96.380012
3589.000000	96.373466
3588.000000	96.375919
3587.000000	96.384197
3586.000000	96.391728
3585.000000	96.397849
3584.000000	96.405855
3583.000000	96.416839
3582.000000	96.428650
3581.000000	96.439135
3580.000000	96.447889
3579.000000	96.455085
3578.000000	96.459894
3577.000000	96.460928
3576.000000	96.457697
3575.000000	96.451636
3574.000000	96.445262
3573.000000	96.440213
3572.000000	96.435145
3571.000000	96.425079
3570.000000	96.405677
3569.000000	96.380718
3568.000000	96.362254
3567.000000	96.358206
3566.000000	96.365310
3565.000000	96.376149
3564.000000	96.386858
3563.000000	96.396738
3562.000000	96.405230
3561.000000	96.412165
3560.000000	96.418984
3559.000000	96.426988
3558.000000	96.434594
3557.000000	96.438098
3556.000000	96.435464
3555.000000	96.428449
3554.000000	96.420982
3553.000000	96.415238
3552.000000	96.409844
3551.000000	96.402564
3550.000000	96.393862
3549.000000	96.386784
3548.000000	96.383696
3547.000000	96.384215
3546.000000	96.386768
3545.000000	96.391239
3544.000000	96.398216
3543.000000	96.406188
3542.000000	96.411749
3541.000000	96.412632
3540.000000	96.409561
3539.000000	96.405097
3538.000000	96.401546
3537.000000	96.399740
3536.000000	96.399254
3535.000000	96.399478
3534.000000	96.400381
3533.000000	96.402095
3532.000000	96.403630
3531.000000	96.402788
3530.000000	96.398172
3529.000000	96.391285
3528.000000	96.385558
3527.000000	96.383121
3526.000000	96.383652
3525.000000	96.386196
3524.000000	96.390045
3523.000000	96.393740
3522.000000	96.395420
3521.000000	96.394803
3520.000000	96.394066
3519.000000	96.395818
3518.000000	96.400354
3517.000000	96.405409
3516.000000	96.408588
3515.000000	96.409270
3514.000000	96.407963
3513.000000	96.405162
3512.000000	96.401424
3511.000000	96.397898
3510.000000	96.395838
3509.000000	96.395408
3508.000000	96.395415
3507.000000	96.394563
3506.000000	96.392801
3505.000000	96.391285
3504.000000	96.390957
3503.000000	96.391287
3502.000000	96.390847
3501.000000	96.389037
3500.000000	96.386741
3499.000000	96.385328
3498.000000	96.385287
3497.000000	96.385856
3496.000000	96.385798
3495.000000	96.384522
3494.000000	96.382406
3493.000000	96.380195
3492.000000	96.378297
3491.000000	96.376715
3490.000000	96.375471
3489.000000	96.374793
3488.000000	96.374648
3487.000000	96.374320
3486.000000	96.372892
3485.000000	96.370131
3484.000000	96.366732
3483.000000	96.363785
3482.000000	96.361950
3481.000000	96.361167
3480.000000	96.360854
3479.000000	96.360277
3478.000000	96.358984
3477.000000	96.357032
3476.000000	96.354751
3475.000000	96.352310
3474.000000	96.349610
3473.000000	96.346671
3472.000000	96.343856
3471.000000	96.341543
3470.000000	96.339766
3469.000000	96.338389
3468.000000	96.337368
3467.000000	96.336406
3466.000000	96.334644
3465.000000	96.331368
3464.000000	96.327179
3463.000000	96.323917
3462.000000	96.323144
3461.000000	96.325069
3460.000000	96.328790
3459.000000	96.332923
3458.000000	96.335835
3457.000000	96.336074
3456.000000	96.333250
3455.000000	96.328526
3454.000000	96.323914
3453.000000	96.320839
3452.000000	96.319282
3451.000000	96.317913
3450.000000	96.315037
3449.000000	96.310023
3448.000000	96.304032
3447.000000	96.298976
3446.000000	96.295703
3445.000000	96.293731
3444.000000	96.292517
3443.000000	96.292172
3442.000000	96.292723
3441.000000	96.293575
3440.000000	96.294305
3439.000000	96.295282
3438.000000	96.296791
3437.000000	96.298072
3436.000000	96.297976
3435.000000	96.296311
3434.000000	96.293987
3433.000000	96.291854
3432.000000	96.289749
3431.000000	96.287023
3430.000000	96.283644
3429.000000	96.280351
3428.000000	96.277764
3427.000000	96.275727
3426.000000	96.273788
3425.000000	96.272006
3424.000000	96.271024
3423.000000	96.271404
3422.000000	96.273040
3421.000000	96.275131
3420.000000	96.276636
3419.000000	96.276858
3418.000000	96.275852
3417.000000	96.274340
3416.000000	96.273080
3415.000000	96.272301
3414.000000	96.271782
3413.000000	96.271338
3412.000000	96.271027
3411.000000	96.270918
3410.000000	96.270920
3409.000000	96.270848
3408.000000	96.270545
3407.000000	96.269920
3406.000000	96.268996
3405.000000	96.267984
3404.000000	96.267220
3403.000000	96.266890
3402.000000	96.266826
3401.000000	96.266647
3400.000000	96.266225
3399.000000	96.265931
3398.000000	96.266236
3397.000000	96.266956
3396.000000	96.267132
3395.000000	96.265915
3394.000000	96.263491
3393.000000	96.261145
3392.000000	96.260139
3391.000000	96.260728
3390.000000	96.262379
3389.000000	96.264474
3388.000000	96.266594
3387.000000	96.268321
3386.000000	96.269273
3385.000000	96.269384
3384.000000	96.268930
3383.000000	96.268203
3382.000000	96.267361
3381.000000	96.266652
3380.000000	96.266574
3379.000000	96.267625
3378.000000	96.269875
3377.000000	96.272783
3376.000000	96.275404
3375.000000	96.276905
3374.000000	96.276955
3373.000000	96.275783
3372.000000	96.273954
3371.000000	96.272142
3370.000000	96.271100
3369.000000	96.271479
3368.000000	96.273358
3367.000000	96.275889
3366.000000	96.277809
3365.000000	96.278672
3364.000000	96.279333
3363.000000	96.281059
3362.000000	96.284256
3361.000000	96.288138
3360.000000	96.291435
3359.000000	96.293380
3358.000000	96.294088
3357.000000	96.294342
3356.000000	96.295042
3355.000000	96.296570
3354.000000	96.298467
3353.000000	96.299760
3352.000000	96.299844
3351.000000	96.299102
3350.000000	96.298562
3349.000000	96.298906
3348.000000	96.299858
3347.000000	96.300599
3346.000000	96.300711
3345.000000	96.300532
3344.000000	96.300643
3343.000000	96.301234
3342.000000	96.302108
3341.000000	96.303108
3340.000000	96.304249
3339.000000	96.305482
3338.000000	96.306600
3337.000000	96.307454
3336.000000	96.308147
3335.000000	96.308909
3334.000000	96.309836
3333.000000	96.310780
3332.000000	96.311501
3331.000000	96.311927
3330.000000	96.312234
3329.000000	96.312691
3328.000000	96.313414
3327.000000	96.314296
3326.000000	96.315155
3325.000000	96.315878
3324.000000	96.316471
3323.000000	96.316991
3322.000000	96.317479
3321.000000	96.317949
3320.000000	96.318415
3319.000000	96.318908
3318.000000	96.319443
3317.000000	96.320017
3316.000000	96.320623
3315.000000	96.321268
3314.000000	96.321957
3313.000000	96.322672
3312.000000	96.323378
3311.000000	96.324038
3310.000000	96.324640
3309.000000	96.325193
3308.000000	96.325741
3307.000000	96.326349
3306.000000	96.327065
3305.000000	96.327887
3304.000000	96.328748
3303.000000	96.329578
3302.000000	96.330360
3301.000000	96.331130
3300.000000	96.331921
3299.000000	96.332713
3298.000000	96.333455
3297.000000	96.334129
3296.000000	96.334802
3295.000000	96.335600
3294.000000	96.336599
3293.000000	96.337783
3292.000000	96.339068
3291.000000	96.340326
3290.000000	96.341432
3289.000000	96.342322
3288.000000	96.343029
3287.000000	96.343698
3286.000000	96.344449
3285.000000	96.345303
3284.000000	96.346220
3283.000000	96.347172
3282.000000	96.348173
3281.000000	96.349231
3280.000000	96.350323
3279.000000	96.351425
3278.000000	96.352534
3277.000000	96.353647
3276.000000	96.354749
3275.000000	96.355829
3274.000000	96.356897
3273.000000	96.357976
3272.000000	96.359080
3271.000000	96.360211
3270.000000	96.361366
3269.000000	96.362545
3268.000000	96.363753
3267.000000	96.364989
3266.000000	96.366247
3265.000000	96.367517
3264.000000	96.368784
3263.000000	96.370038
3262.000000	96.371281
3261.000000	96.372527
3260.000000	96.373794
3259.000000	96.375093
3258.000000	96.376420
3257.000000	96.377764
3256.000000	96.379114
3255.000000	96.380465
3254.000000	96.381815
3253.000000	96.383162
3252.000000	96.384505
3251.000000	96.385841
3250.000000	96.387170
3249.000000	96.388501
3248.000000	96.389854
3247.000000	96.391256
3246.000000	96.392727
3245.000000	96.394269
3244.000000	96.395864
3243.000000	96.397485
3242.000000	96.399114
3241.000000	96.400743
3240.000000	96.402373
3239.000000	96.404010
3238.000000	96.405658
3237.000000	96.407321
3236.000000	96.409006
3235.000000	96.410718
3234.000000	96.412457
3233.000000	96.414223
3232.000000	96.416015
3231.000000	96.417828
3230.000000	96.419655
3229.000000	96.421488
3228.000000	96.423323
3227.000000	96.425161
3226.000000	96.427003
3225.000000	96.428857
3224.000000	96.430739
3223.000000	96.432647
3222.000000	96.434552
3221.000000	96.436417
3220.000000	96.438253
3219.000000	96.440132
3218.000000	96.442112
3217.000000	96.444177
3216.000000	96.446297
3215.000000	96.448533
3214.000000	96.450925
3213.000000	96.453287
3212.000000	96.455305
3211.000000	96.456866
3210.000000	96.458193
3209.000000	96.459660
3208.000000	96.461570
3207.000000	96.464124
3206.000000	96.467369
3205.000000	96.471032
3204.000000	96.474545
3203.000000	96.477370
3202.000000	96.479418
3201.000000	96.481136
3200.000000	96.483093
3199.000000	96.485457
3198.000000	96.487901
3197.000000	96.490132
3196.000000	96.492398
3195.000000	96.495230
3194.000000	96.498632
3193.000000	96.501793
3192.000000	96.503864
3191.000000	96.504816
3190.000000	96.505386
3189.000000	96.506313
3188.000000	96.507863
3187.000000	96.509965
3186.000000	96.512345
3185.000000	96.514523
3184.000000	96.516192
3183.000000	96.517810
3182.000000	96.520489
3181.000000	96.525036
3180.000000	96.531233
3179.000000	96.537917
3178.000000	96.543621
3177.000000	96.547266
3176.000000	96.548497
3175.000000	96.547818
3174.000000	96.546503
3173.000000	96.545924
3172.000000	96.546821
3171.000000	96.549140
3170.000000	96.552204
3169.000000	96.555043
3168.000000	96.556997
3167.000000	96.558242
3166.000000	96.559612
3165.000000	96.561801
3164.000000	96.564854
3163.000000	96.568450
3162.000000	96.572297
3161.000000	96.576023
3160.000000	96.579036
3159.000000	96.581042
3158.000000	96.582555
3157.000000	96.584388
3156.000000	96.586569
3155.000000	96.588248
3154.000000	96.588804
3153.000000	96.588644
3152.000000	96.588749
3151.000000	96.589722
3150.000000	96.591526
3149.000000	96.593813
3148.000000	96.596109
3147.000000	96.597914
3146.000000	96.599048
3145.000000	96.599959
3144.000000	96.601345
3143.000000	96.603430
3142.000000	96.605839
3141.000000	96.608277
3140.000000	96.611055
3139.000000	96.614656
3138.000000	96.618889
3137.000000	96.622702
3136.000000	96.624986
3135.000000	96.625495
3134.000000	96.625021
3133.000000	96.624903
3132.000000	96.626046
3131.000000	96.628410
3130.000000	96.631214
3129.000000	96.633572
3128.000000	96.635110
3127.000000	96.636032
3126.000000	96.636825
3125.000000	96.638010
3124.000000	96.639990
3123.000000	96.642873
3122.000000	96.646405
3121.000000	96.650150
3120.000000	96.653772
3119.000000	96.657088
3118.000000	96.659859
3117.000000	96.661814
3116.000000	96.663040
3115.000000	96.664149
3114.000000	96.665779
3113.000000	96.667934
3112.000000	96.670059
3111.000000	96.671692
3110.000000	96.672851
3109.000000	96.673800
3108.000000	96.674716
3107.000000	96.675688
3106.000000	96.676867
3105.000000	96.678484
3104.000000	96.680707
3103.000000	96.683493
3102.000000	96.686491
3101.000000	96.689065
3100.000000	96.690701
3099.000000	96.691503
3098.000000	96.692265
3097.000000	96.693822
3096.000000	96.696254
3095.000000	96.698819
3094.000000	96.700716
3093.000000	96.701962
3092.000000	96.703420
3091.000000	96.705978
3090.000000	96.709775
3089.000000	96.713999
3088.000000	96.717435
3087.000000	96.719415
3086.000000	96.720433
3085.000000	96.721800
3084.000000	96.724276
3083.000000	96.727090
3082.000000	96.728602
3081.000000	96.727926
3080.000000	96.725752
3079.000000	96.723717
3078.000000	96.723103
3077.000000	96.724264
3076.000000	96.726954
3075.000000	96.730710
3074.000000	96.734910
3073.000000	96.738851
3072.000000	96.742116
3071.000000	96.744839
3070.000000	96.747395
3069.000000	96.749731
3068.000000	96.751239
3067.000000	96.751539
3066.000000	96.751185
3065.000000	96.751159
3064.000000	96.751706
3063.000000	96.752199
3062.000000	96.752325
3061.000000	96.752990
3060.000000	96.755744
3059.000000	96.761458
3058.000000	96.769590
3057.000000	96.778319
3056.000000	96.785526
3055.000000	96.790009
3054.000000	96.791986
3053.000000	96.792432
3052.000000	96.791749
3051.000000	96.789630
3050.000000	96.786351
3049.000000	96.783354
3048.000000	96.782146
3047.000000	96.782948
3046.000000	96.784820
3045.000000	96.786766
3044.000000	96.788346
3043.000000	96.789494
3042.000000	96.790137
3041.000000	96.789987
3040.000000	96.788612
3039.000000	96.785887
3038.000000	96.782534
3037.000000	96.779845
3036.000000	96.778670
3035.000000	96.778883
3034.000000	96.779735
3033.000000	96.780352
3032.000000	96.779998
3031.000000	96.778563
3030.000000	96.777153
3029.000000	96.777582
3028.000000	96.780728
3027.000000	96.785429
3026.000000	96.789197
3025.000000	96.790110
3024.000000	96.787930
3023.000000	96.783873
3022.000000	96.779677
3021.000000	96.776544
3020.000000	96.774426
3019.000000	96.772306
3018.000000	96.769558
3017.000000	96.767054
3016.000000	96.766608
3015.000000	96.769229
3014.000000	96.773999
3013.000000	96.778369
3012.000000	96.779709
3011.000000	96.777103
3010.000000	96.772108
3009.000000	96.767304
3008.000000	96.763450
3007.000000	96.758754
3006.000000	96.751766
3005.000000	96.744315
3004.000000	96.740308
3003.000000	96.741716
3002.000000	96.746892
3001.000000	96.752588
3000.000000	96.756541
2999.000000	96.757840
2998.000000	96.756116
2997.000000	96.751377
2996.000000	96.744291
2995.000000	96.736103
2994.000000	96.728299
2993.000000	96.722217
2992.000000	96.718378
2991.000000	96.716006
2990.000000	96.713571
2989.000000	96.709896
2988.000000	96.704758
2987.000000	96.698982
2986.000000	96.694375
2985.000000	96.692687
2984.000000	96.693459
2983.000000	96.693321
2982.000000	96.688833
2981.000000	96.680233
2980.000000	96.671400
2979.000000	96.666054
2978.000000	96.665186
2977.000000	96.667847
2976.000000	96.672534
2975.000000	96.677197
2974.000000	96.679675
2973.000000	96.679781
2972.000000	96.680410
2971.000000	96.685383
2970.000000	96.696141
2969.000000	96.710465
2968.000000	96.723910
2967.000000	96.732637
2966.000000	96.735753
2965.000000	96.735610
2964.000000	96.735742
2963.000000	96.738061
2962.000000	96.742111
2961.000000	96.746455
2960.000000	96.749779
2959.000000	96.751087
2958.000000	96.750510
2957.000000	96.750313
2956.000000	96.753374
2955.000000	96.759723
2954.000000	96.765894
2953.000000	96.768859
2952.000000	96.769252
2951.000000	96.769501
2950.000000	96.770063
2949.000000	96.769494
2948.000000	96.767645
2947.000000	96.766511
2946.000000	96.767624
2945.000000	96.770391
2944.000000	96.773617
2943.000000	96.777207
2942.000000	96.781393
2941.000000	96.785300
2940.000000	96.787437
2939.000000	96.787317
2938.000000	96.785845
2937.000000	96.784341
2936.000000	96.783697
2935.000000	96.784220
2934.000000	96.785638
2933.000000	96.787372
2932.000000	96.789080
2931.000000	96.790938
2930.000000	96.793198
2929.000000	96.795625
2928.000000	96.797616
2927.000000	96.798885
2926.000000	96.799741
2925.000000	96.800602
2924.000000	96.801405
2923.000000	96.801866
2922.000000	96.802141
2921.000000	96.802832
2920.000000	96.804292
2919.000000	96.806212
2918.000000	96.807869
2917.000000	96.808794
2916.000000	96.809052
2915.000000	96.809073
2914.000000	96.809313
2913.000000	96.809979
2912.000000	96.811045
2911.000000	96.812395
2910.000000	96.813952
2909.000000	96.815610
2908.000000	96.817094
2907.000000	96.818081
2906.000000	96.818501
2905.000000	96.818575
2904.000000	96.818434
2903.000000	96.818032
2902.000000	96.817632
2901.000000	96.817928
2900.000000	96.819235
2899.000000	96.820901
2898.000000	96.822170
2897.000000	96.823486
2896.000000	96.826007
2895.000000	96.829802
2894.000000	96.833245
2893.000000	96.834658
2892.000000	96.834100
2891.000000	96.833318
2890.000000	96.834001
2889.000000	96.836381
2888.000000	96.839504
2887.000000	96.842472
2886.000000	96.845228
2885.000000	96.848075
2884.000000	96.850753
2883.000000	96.852516
2882.000000	96.853292
2881.000000	96.854175
2880.000000	96.856127
2879.000000	96.858555
2878.000000	96.860084
2877.000000	96.860569
2876.000000	96.861165
2875.000000	96.862349
2874.000000	96.863160
2873.000000	96.862920
2872.000000	96.862644
2871.000000	96.863864
2870.000000	96.866894
2869.000000	96.871112
2868.000000	96.876388
2867.000000	96.883212
2866.000000	96.891568
2865.000000	96.900324
2864.000000	96.907763
2863.000000	96.912531
2862.000000	96.914412
2861.000000	96.914599
2860.000000	96.914902
2859.000000	96.916364
2858.000000	96.918859
2857.000000	96.922080
2856.000000	96.926318
2855.000000	96.931933
2854.000000	96.938601
2853.000000	96.945536
2852.000000	96.952135
2851.000000	96.957852
2850.000000	96.961719
2849.000000	96.962931
2848.000000	96.961937
2847.000000	96.960710
2846.000000	96.961560
2845.000000	96.965276
2844.000000	96.970392
2843.000000	96.974415
2842.000000	96.976088
2841.000000	96.976402
2840.000000	96.977336
2839.000000	96.979782
2838.000000	96.982998
2837.000000	96.985794
2836.000000	96.987675
2835.000000	96.988937
2834.000000	96.990249
2833.000000	96.992242
2832.000000	96.995050
2831.000000	96.998095
2830.000000	97.000631
2829.000000	97.002534
2828.000000	97.004232
2827.000000	97.005918
2826.000000	97.007256
2825.000000	97.007829
2824.000000	97.007439
2823.000000	97.006053
2822.000000	97.004134
2821.000000	97.003137
2820.000000	97.004863
2819.000000	97.009840
2818.000000	97.016598
2817.000000	97.022761
2816.000000	97.026970
2815.000000	97.029729
2814.000000	97.032688
2813.000000	97.037070
2812.000000	97.042209
2811.000000	97.045757
2810.000000	97.045989
2809.000000	97.043804
2808.000000	97.042175
2807.000000	97.043194
2806.000000	97.046325
2805.000000	97.049731
2804.000000	97.052391
2803.000000	97.054384
2802.000000	97.055867
2801.000000	97.056810
2800.000000	97.057604
2799.000000	97.058895
2798.000000	97.060585
2797.000000	97.061618
2796.000000	97.061115
2795.000000	97.059409
2794.000000	97.057801
2793.000000	97.057381
2792.000000	97.058157
2791.000000	97.059297
2790.000000	97.060161
2789.000000	97.060985
2788.000000	97.062414
2787.000000	97.064509
2786.000000	97.066537
2785.000000	97.067763
2784.000000	97.068168
2783.000000	97.068316
2782.000000	97.068794
2781.000000	97.069833
2780.000000	97.071263
2779.000000	97.072666
2778.000000	97.073716
2777.000000	97.074413
2776.000000	97.074981
2775.000000	97.075601
2774.000000	97.076394
2773.000000	97.077521
2772.000000	97.078996
2771.000000	97.080427
2770.000000	97.081243
2769.000000	97.081288
2768.000000	97.080981
2767.000000	97.080907
2766.000000	97.081360
2765.000000	97.082419
2764.000000	97.084097
2763.000000	97.086139
2762.000000	97.087933
2761.000000	97.088960
2760.000000	97.089298
2759.000000	97.089562
2758.000000	97.090303
2757.000000	97.091517
2756.000000	97.092804
2755.000000	97.093908
2754.000000	97.095032
2753.000000	97.096600
2752.000000	97.098644
2751.000000	97.100469
2750.000000	97.101248
2749.000000	97.100950
2748.000000	97.100447
2747.000000	97.100551
2746.000000	97.101105
2745.000000	97.101356
2744.000000	97.100971
2743.000000	97.100385
2742.000000	97.100200
2741.000000	97.100529
2740.000000	97.101094
2739.000000	97.101781
2738.000000	97.102902
2737.000000	97.104838
2736.000000	97.107462
2735.000000	97.109942
2734.000000	97.111347
2733.000000	97.111477
2732.000000	97.110948
2731.000000	97.110534
2730.000000	97.110500
2729.000000	97.110689
2728.000000	97.110925
2727.000000	97.111081
2726.000000	97.111073
2725.000000	97.111039
2724.000000	97.111320
2723.000000	97.111987
2722.000000	97.112641
2721.000000	97.112957
2720.000000	97.113210
2719.000000	97.113851
2718.000000	97.114705
2717.000000	97.115096
2716.000000	97.114762
2715.000000	97.114196
2714.000000	97.113992
2713.000000	97.114125
2712.000000	97.114083
2711.000000	97.113543
2710.000000	97.112795
2709.000000	97.112518
2708.000000	97.113167
2707.000000	97.114582
2706.000000	97.116021
2705.000000	97.116878
2704.000000	97.117182
2703.000000	97.117365
2702.000000	97.117672
2701.000000	97.117932
2700.000000	97.117923
2699.000000	97.117676
2698.000000	97.117389
2697.000000	97.117225
2696.000000	97.117227
2695.000000	97.117311
2694.000000	97.117310
2693.000000	97.117117
2692.000000	97.116791
2691.000000	97.116494
2690.000000	97.116342
2689.000000	97.116357
2688.000000	97.116519
2687.000000	97.116751
2686.000000	97.116930
2685.000000	97.117007
2684.000000	97.117084
2683.000000	97.117283
2682.000000	97.117591
2681.000000	97.117883
2680.000000	97.118078
2679.000000	97.118198
2678.000000	97.118285
2677.000000	97.118337
2676.000000	97.118346
2675.000000	97.118330
2674.000000	97.118304
2673.000000	97.118261
2672.000000	97.118201
2671.000000	97.118151
2670.000000	97.118152
2669.000000	97.118225
2668.000000	97.118356
2667.000000	97.118503
2666.000000	97.118596
2665.000000	97.118581
2664.000000	97.118464
2663.000000	97.118294
2662.000000	97.118136
2661.000000	97.118025
2660.000000	97.117957
2659.000000	97.117916
2658.000000	97.117883
2657.000000	97.117857
2656.000000	97.117854
2655.000000	97.117887
2654.000000	97.117949
2653.000000	97.118021
2652.000000	97.118090
2651.000000	97.118154
2650.000000	97.118212
2649.000000	97.118261
2648.000000	97.118293
2647.000000	97.118307
2646.000000	97.118311
2645.000000	97.118315
2644.000000	97.118326
2643.000000	97.118344
2642.000000	97.118359
2641.000000	97.118361
2640.000000	97.118347
2639.000000	97.118316
2638.000000	97.118272
2637.000000	97.118222
2636.000000	97.118172
2635.000000	97.118127
2634.000000	97.118092
2633.000000	97.118069
2632.000000	97.118055
2631.000000	97.118044
2630.000000	97.118025
2629.000000	97.117990
2628.000000	97.117940
2627.000000	97.117880
2626.000000	97.117817
2625.000000	97.117758
2624.000000	97.117713
2623.000000	97.117692
2622.000000	97.117699
2621.000000	97.117732
2620.000000	97.117786
2619.000000	97.117850
2618.000000	97.117916
2617.000000	97.117975
2616.000000	97.118018
2615.000000	97.118039
2614.000000	97.118035
2613.000000	97.118010
2612.000000	97.117972
2611.000000	97.117927
2610.000000	97.117880
2609.000000	97.117828
2608.000000	97.117768
2607.000000	97.117698
2606.000000	97.117620
2605.000000	97.117537
2604.000000	97.117447
2603.000000	97.117357
2602.000000	97.117269
2601.000000	97.117150
2600.000000	97.116956
2599.000000	97.116668
2598.000000	97.116332
2597.000000	97.116045
2596.000000	97.115885
2595.000000	97.115866
2594.000000	97.115905
2593.000000	97.115891
2592.000000	97.115753
2591.000000	97.115446
2590.000000	97.114921
2589.000000	97.114242
2588.000000	97.113689
2587.000000	97.113572
2586.000000	97.113917
2585.000000	97.114481
2584.000000	97.115129
2583.000000	97.115932
2582.000000	97.116771
2581.000000	97.117207
2580.000000	97.116962
2579.000000	97.116252
2578.000000	97.115421
2577.000000	97.114493
2576.000000	97.113409
2575.000000	97.112482
2574.000000	97.112195
2573.000000	97.112601
2572.000000	97.113133
2571.000000	97.113096
2570.000000	97.112305
2569.000000	97.111241
2568.000000	97.110629
2567.000000	97.110769
2566.000000	97.111283
2565.000000	97.111659
2564.000000	97.111842
2563.000000	97.111998
2562.000000	97.111933
2561.000000	97.111276
2560.000000	97.110269
2559.000000	97.109832
2558.000000	97.110576
2557.000000	97.112183
2556.000000	97.113850
2555.000000	97.115075
2554.000000	97.115769
2553.000000	97.115982
2552.000000	97.115895
2551.000000	97.115881
2550.000000	97.116230
2549.000000	97.116915
2548.000000	97.117751
2547.000000	97.118609
2546.000000	97.119348
2545.000000	97.119748
2544.000000	97.119715
2543.000000	97.119433
2542.000000	97.119169
2541.000000	97.119058
2540.000000	97.119144
2539.000000	97.119452
2538.000000	97.119934
2537.000000	97.120453
2536.000000	97.120899
2535.000000	97.121298
2534.000000	97.121748
2533.000000	97.122304
2532.000000	97.122924
2531.000000	97.123537
2530.000000	97.124111
2529.000000	97.124673
2528.000000	97.125256
2527.000000	97.125860
2526.000000	97.126463
2525.000000	97.127057
2524.000000	97.127647
2523.000000	97.128239
2522.000000	97.128845
2521.000000	97.129470
2520.000000	97.130106
2519.000000	97.130743
2518.000000	97.131371
2517.000000	97.131988
2516.000000	97.132591
2515.000000	97.133180
2514.000000	97.133759
2513.000000	97.134329
2512.000000	97.134900
2511.000000	97.135480
2510.000000	97.136076
2509.000000	97.136690
2508.000000	97.137318
2507.000000	97.137948
2506.000000	97.138575
2505.000000	97.139195
2504.000000	97.139817
2503.000000	97.140452
2502.000000	97.141110
2501.000000	97.141792
2500.000000	97.142496
2499.000000	97.143210
2498.000000	97.143927
2497.000000	97.144640
2496.000000	97.145344
2495.000000	97.146033
2494.000000	97.146702
2493.000000	97.147349
2492.000000	97.147973
2491.000000	97.148581
2490.000000	97.149177
2489.000000	97.149768
2488.000000	97.150360
2487.000000	97.150950
2486.000000	97.151529
2485.000000	97.152102
2484.000000	97.152710
2483.000000	97.153406
2482.000000	97.154197
2481.000000	97.154975
2480.000000	97.155612
2479.000000	97.156063
2478.000000	97.156442
2477.000000	97.156953
2476.000000	97.157721
2475.000000	97.158658
2474.000000	97.159537
2473.000000	97.160265
2472.000000	97.161029
2471.000000	97.162039
2470.000000	97.163163
2469.000000	97.163999
2468.000000	97.164383
2467.000000	97.164600
2466.000000	97.165004
2465.000000	97.165621
2464.000000	97.166362
2463.000000	97.167364
2462.000000	97.168763
2461.000000	97.170164
2460.000000	97.170791
2459.000000	97.170301
2458.000000	97.169270
2457.000000	97.168706
2456.000000	97.169010
2455.000000	97.169720
2454.000000	97.170180
2453.000000	97.170352
2452.000000	97.170782
2451.000000	97.171941
2450.000000	97.173798
2449.000000	97.175944
2448.000000	97.177983
2447.000000	97.179803
2446.000000	97.181600
2445.000000	97.183616
2444.000000	97.185662
2443.000000	97.186968
2442.000000	97.186876
2441.000000	97.185726
2440.000000	97.184870
2439.000000	97.185343
2438.000000	97.186927
2437.000000	97.188732
2436.000000	97.190312
2435.000000	97.191768
2434.000000	97.192959
2433.000000	97.193402
2432.000000	97.193024
2431.000000	97.192370
2430.000000	97.191880
2429.000000	97.191478
2428.000000	97.191166
2427.000000	97.191455
2426.000000	97.192692
2425.000000	97.194374
2424.000000	97.195638
2423.000000	97.196234
2422.000000	97.196583
2421.000000	97.197030
2420.000000	97.197454
2419.000000	97.197639
2418.000000	97.197640
2417.000000	97.197666
2416.000000	97.197851
2415.000000	97.198144
2414.000000	97.198383
2413.000000	97.198438
2412.000000	97.198286
2411.000000	97.197958
2410.000000	97.197491
2409.000000	97.197036
2408.000000	97.196939
2407.000000	97.197495
2406.000000	97.198551
2405.000000	97.199529
2404.000000	97.199982
2403.000000	97.199876
2402.000000	97.199289
2401.000000	97.198157
2400.000000	97.196507
2399.000000	97.194817
2398.000000	97.193719
2397.000000	97.193296
2396.000000	97.193048
2395.000000	97.192565
2394.000000	97.191932
2393.000000	97.191374
2392.000000	97.190873
2391.000000	97.190340
2390.000000	97.189805
2389.000000	97.189136
2388.000000	97.187833
2387.000000	97.185532
2386.000000	97.182674
2385.000000	97.180331
2384.000000	97.179237
2383.000000	97.179258
2382.000000	97.179850
2381.000000	97.180779
2380.000000	97.181948
2379.000000	97.182774
2378.000000	97.182223
2377.000000	97.179757
2376.000000	97.175978
2375.000000	97.172322
2374.000000	97.169945
2373.000000	97.168996
2372.000000	97.168877
2371.000000	97.168914
2370.000000	97.168856
2369.000000	97.168867
2368.000000	97.169130
2367.000000	97.169437
2366.000000	97.169185
2365.000000	97.167849
2364.000000	97.165312
2363.000000	97.161766
2362.000000	97.157749
2361.000000	97.154247
2360.000000	97.152217
2359.000000	97.151904
2358.000000	97.152451
2357.000000	97.152624
2356.000000	97.152015
2355.000000	97.151267
2354.000000	97.151261
2353.000000	97.151931
2352.000000	97.152432
2351.000000	97.152099
2350.000000	97.150969
2349.000000	97.149602
2348.000000	97.148522
2347.000000	97.147911
2346.000000	97.147437
2345.000000	97.146869
2344.000000	97.146549
2343.000000	97.146650
2342.000000	97.146697
2341.000000	97.146088
2340.000000	97.144902
2339.000000	97.143724
2338.000000	97.142995
2337.000000	97.142616
2336.000000	97.142237
2335.000000	97.141645
2334.000000	97.140896
2333.000000	97.140109
2332.000000	97.139320
2331.000000	97.138512
2330.000000	97.137694
2329.000000	97.136914
2328.000000	97.136175
2327.000000	97.135484
2326.000000	97.134858
2325.000000	97.134323
2324.000000	97.133861
2323.000000	97.133419
2322.000000	97.132960
2321.000000	97.132480
2320.000000	97.132001
2319.000000	97.131543
2318.000000	97.131112
2317.000000	97.130704
2316.000000	97.130311
2315.000000	97.129925
2314.000000	97.129535
2313.000000	97.129130
2312.000000	97.128704
2311.000000	97.128261
2310.000000	97.127811
2309.000000	97.127366
2308.000000	97.126929
2307.000000	97.126491
2306.000000	97.126039
2305.000000	97.125563
2304.000000	97.125064
2303.000000	97.124559
2302.000000	97.124069
2301.000000	97.123603
2300.000000	97.123152
2299.000000	97.122708
2298.000000	97.122272
2297.000000	97.121855
2296.000000	97.121465
2295.000000	97.121095
2294.000000	97.120730
2293.000000	97.120366
2292.000000	97.120012
2291.000000	97.119668
2290.000000	97.119324
2289.000000	97.118966
2288.000000	97.118578
2287.000000	97.118160
2286.000000	97.117728
2285.000000	97.117298
2284.000000	97.116873
2283.000000	97.116440
2282.000000	97.115970
2281.000000	97.115436
2280.000000	97.114847
2279.000000	97.114283
2278.000000	97.113844
2277.000000	97.113505
2276.000000	97.113101
2275.000000	97.112470
2274.000000	97.111568
2273.000000	97.110485
2272.000000	97.109377
2271.000000	97.108407
2270.000000	97.107682
2269.000000	97.107175
2268.000000	97.106738
2267.000000	97.106216
2266.000000	97.105555
2265.000000	97.104804
2264.000000	97.103975
2263.000000	97.102993
2262.000000	97.101843
2261.000000	97.100771
2260.000000	97.100182
2259.000000	97.100237
2258.000000	97.100594
2257.000000	97.100688
2256.000000	97.100258
2255.000000	97.099465
2254.000000	97.098485
2253.000000	97.097178
2252.000000	97.095306
2251.000000	97.092990
2250.000000	97.090760
2249.000000	97.089161
2248.000000	97.088341
2247.000000	97.088081
2246.000000	97.088158
2245.000000	97.088516
2244.000000	97.088998
2243.000000	97.089045
2242.000000	97.087958
2241.000000	97.085643
2240.000000	97.083046
2239.000000	97.081531
2238.000000	97.081712
2237.000000	97.082984
2236.000000	97.084165
2235.000000	97.084643
2234.000000	97.084826
2233.000000	97.085485
2232.000000	97.086764
2231.000000	97.087921
2230.000000	97.088047
2229.000000	97.086864
2228.000000	97.084740
2227.000000	97.082173
2226.000000	97.079621
2225.000000	97.077772
2224.000000	97.077409
2223.000000	97.078638
2222.000000	97.080561
2221.000000	97.082083
2220.000000	97.082964
2219.000000	97.083751
2218.000000	97.084885
2217.000000	97.086240
2216.000000	97.087506
2215.000000	97.088716
2214.000000	97.090284
2213.000000	97.092544
2212.000000	97.095143
2211.000000	97.096941
2210.000000	97.096876
2209.000000	97.095041
2208.000000	97.092713
2207.000000	97.091072
2206.000000	97.090195
2205.000000	97.089649
2204.000000	97.089489
2203.000000	97.090093
2202.000000	97.091303
2201.000000	97.092412
2200.000000	97.093002
2199.000000	97.093237
2198.000000	97.093323
2197.000000	97.093226
2196.000000	97.093047
2195.000000	97.093164
2194.000000	97.093839
2193.000000	97.095014
2192.000000	97.096464
2191.000000	97.097904
2190.000000	97.098987
2189.000000	97.099597
2188.000000	97.100169
2187.000000	97.101281
2186.000000	97.102845
2185.000000	97.104074
2184.000000	97.104411
2183.000000	97.104112
2182.000000	97.103835
2181.000000	97.103930
2180.000000	97.104325
2179.000000	97.104912
2178.000000	97.105719
2177.000000	97.106707
2176.000000	97.107609
2175.000000	97.108122
2174.000000	97.108218
2173.000000	97.108151
2172.000000	97.108189
2171.000000	97.108388
2170.000000	97.108677
2169.000000	97.109015
2168.000000	97.109407
2167.000000	97.109844
2166.000000	97.110297
2165.000000	97.110745
2164.000000	97.111182
2163.000000	97.111597
2162.000000	97.111986
2161.000000	97.112391
2160.000000	97.112887
2159.000000	97.113474
2158.000000	97.114017
2157.000000	97.114391
2156.000000	97.114674
2155.000000	97.115094
2154.000000	97.115702
2153.000000	97.116235
2152.000000	97.116488
2151.000000	97.116746
2150.000000	97.117480
2149.000000	97.118645
2148.000000	97.119623
2147.000000	97.119968
2146.000000	97.119906
2145.000000	97.120071
2144.000000	97.120837
2143.000000	97.122094
2142.000000	97.123447
2141.000000	97.124560
2140.000000	97.125343
2139.000000	97.125885
2138.000000	97.126305
2137.000000	97.126707
2136.000000	97.127299
2135.000000	97.128380
2134.000000	97.130055
2133.000000	97.132060
2132.000000	97.133980
2131.000000	97.135597
2130.000000	97.136917
2129.000000	97.137961
2128.000000	97.138676
2127.000000	97.139021
2126.000000	97.139044
2125.000000	97.138921
2124.000000	97.138995
2123.000000	97.139591
2122.000000	97.140686
2121.000000	97.141930
2120.000000	97.143239
2119.000000	97.145111
2118.000000	97.148023
2117.000000	97.151646
2116.000000	97.155036
2115.000000	97.157682
2114.000000	97.159942
2113.000000	97.162250
2112.000000	97.164228
2111.000000	97.165105
2110.000000	97.164837
2109.000000	97.164426
2108.000000	97.165005
2107.000000	97.166822
2106.000000	97.169252
2105.000000	97.171417
2104.000000	97.172741
2103.000000	97.173131
2102.000000	97.173005
2101.000000	97.173194
2100.000000	97.174367
2099.000000	97.176462
2098.000000	97.178740
2097.000000	97.180495
2096.000000	97.181645
2095.000000	97.182514
2094.000000	97.183343
2093.000000	97.184216
2092.000000	97.185245
2091.000000	97.186510
2090.000000	97.187817
2089.000000	97.188776
2088.000000	97.189147
2087.000000	97.189012
2086.000000	97.188688
2085.000000	97.188618
2084.000000	97.189204
2083.000000	97.190541
2082.000000	97.192307
2081.000000	97.194029
2080.000000	97.195462
2079.000000	97.196601
2078.000000	97.197423
2077.000000	97.197837
2076.000000	97.197864
2075.000000	97.197621
2074.000000	97.197187
2073.000000	97.196715
2072.000000	97.196588
2071.000000	97.197151
2070.000000	97.198228
2069.000000	97.199183
2068.000000	97.199526
2067.000000	97.199252
2066.000000	97.198628
2065.000000	97.198023
2064.000000	97.197958
2063.000000	97.198745
2062.000000	97.199895
2061.000000	97.200372
2060.000000	97.199739
2059.000000	97.198648
2058.000000	97.197912
2057.000000	97.197469
2056.000000	97.196718
2055.000000	97.195605
2054.000000	97.194901
2053.000000	97.195370
2052.000000	97.196852
2051.000000	97.198192
2050.000000	97.198077
2049.000000	97.196063
2048.000000	97.192951
2047.000000	97.190223
2046.000000	97.188985
2045.000000	97.189501
2044.000000	97.191335
2043.000000	97.193475
2042.000000	97.194520
2041.000000	97.193483
2040.000000	97.190721
2039.000000	97.187629
2038.000000	97.185098
2037.000000	97.182739
2036.000000	97.179896
2035.000000	97.176899
2034.000000	97.174839
2033.000000	97.174378
2032.000000	97.175131
2031.000000	97.176035
2030.000000	97.176136
2029.000000	97.175125
2028.000000	97.173395
2027.000000	97.171392
2026.000000	97.168842
2025.000000	97.164958
2024.000000	97.159584
2023.000000	97.153908
2022.000000	97.149501
2021.000000	97.146790
2020.000000	97.144863
2019.000000	97.142797
2018.000000	97.140780
2017.000000	97.139631
2016.000000	97.139514
2015.000000	97.139648
2014.000000	97.139230
2013.000000	97.138194
2012.000000	97.136895
2011.000000	97.135411
2010.000000	97.133425
2009.000000	97.130671
2008.000000	97.127315
2007.000000	97.123923
2006.000000	97.121319
2005.000000	97.120288
2004.000000	97.120865
2003.000000	97.121926
2002.000000	97.121810
2001.000000	97.120037
2000.000000	97.117830
1999.000000	97.116735
1998.000000	97.117257
1997.000000	97.118872
1996.000000	97.120797
1995.000000	97.122223
1994.000000	97.122269
1993.000000	97.120430
1992.000000	97.117209
1991.000000	97.113961
1990.000000	97.111785
1989.000000	97.110852
1988.000000	97.110746
1987.000000	97.110967
1986.000000	97.111122
1985.000000	97.111029
1984.000000	97.110774
1983.000000	97.110622
1982.000000	97.110747
1981.000000	97.111116
1980.000000	97.111478
1979.000000	97.111486
1978.000000	97.111031
1977.000000	97.110374
1976.000000	97.109880
1975.000000	97.109618
1974.000000	97.109376
1973.000000	97.108989
1972.000000	97.108486
1971.000000	97.107914
1970.000000	97.107255
1969.000000	97.106568
1968.000000	97.106020
1967.000000	97.105678
1966.000000	97.105391
1965.000000	97.104964
1964.000000	97.104352
1963.000000	97.103622
1962.000000	97.102873
1961.000000	97.102242
1960.000000	97.101857
1959.000000	97.101710
1958.000000	97.101589
1957.000000	97.101247
1956.000000	97.100608
1955.000000	97.099733
1954.000000	97.098710
1953.000000	97.097630
1952.000000	97.096625
1951.000000	97.095778
1950.000000	97.094984
1949.000000	97.094069
1948.000000	97.093032
1947.000000	97.092032
1946.000000	97.091134
1945.000000	97.090177
1944.000000	97.088942
1943.000000	97.087362
1942.000000	97.085589
1941.000000	97.083920
1940.000000	97.082581
1939.000000	97.081611
1938.000000	97.080797
1937.000000	97.079776
1936.000000	97.078379
1935.000000	97.076710
1934.000000	97.074950
1933.000000	97.073131
1932.000000	97.071248
1931.000000	97.069410
1930.000000	97.067682
1929.000000	97.065991
1928.000000	97.064231
1927.000000	97.062442
1926.000000	97.060662
1925.000000	97.058689
1924.000000	97.056382
1923.000000	97.053879
1922.000000	97.051482
1921.000000	97.049398
1920.000000	97.047820
1919.000000	97.046874
1918.000000	97.046087
1917.000000	97.044500
1916.000000	97.041832
1915.000000	97.038629
1914.000000	97.035287
1913.000000	97.031692
1912.000000	97.028130
1911.000000	97.025420
1910.000000	97.023498
1909.000000	97.021164
1908.000000	97.017813
1907.000000	97.014795
1906.000000	97.013392
1905.000000	97.012563
1904.000000	97.011016
1903.000000	97.009439
1902.000000	97.009135
1901.000000	97.009621
1900.000000	97.009234
1899.000000	97.007456
1898.000000	97.004504
1897.000000	96.999665
1896.000000	96.992874
1895.000000	96.986418
1894.000000	96.982772
1893.000000	96.981413
1892.000000	96.980071
1891.000000	96.978084
1890.000000	96.976553
1889.000000	96.975933
1888.000000	96.975574
1887.000000	96.975450
1886.000000	96.976237
1885.000000	96.977721
1884.000000	96.979014
1883.000000	96.979790
1882.000000	96.979859
1881.000000	96.978520
1880.000000	96.975318
1879.000000	96.971432
1878.000000	96.969044
1877.000000	96.968917
1876.000000	96.970367
1875.000000	96.972951
1874.000000	96.976167
1873.000000	96.978575
1872.000000	96.978966
1871.000000	96.977625
1870.000000	96.975172
1869.000000	96.971117
1868.000000	96.965695
1867.000000	96.961747
1866.000000	96.962023
1865.000000	96.966393
1864.000000	96.972961
1863.000000	96.980228
1862.000000	96.986990
1861.000000	96.991469
1860.000000	96.992849
1859.000000	96.993317
1858.000000	96.996367
1857.000000	97.002855
1856.000000	97.010609
1855.000000	97.017402
1854.000000	97.022036
1853.000000	97.024215
1852.000000	97.024511
1851.000000	97.024769
1850.000000	97.027518
1849.000000	97.032654
1848.000000	97.037192
1847.000000	97.038771
1846.000000	97.038442
1845.000000	97.038823
1844.000000	97.040269
1843.000000	97.041049
1842.000000	97.041205
1841.000000	97.043001
1840.000000	97.047729
1839.000000	97.053991
1838.000000	97.058717
1837.000000	97.060343
1836.000000	97.060683
1835.000000	97.061982
1834.000000	97.064068
1833.000000	97.065860
1832.000000	97.067572
1831.000000	97.070266
1830.000000	97.073371
1829.000000	97.074102
1828.000000	97.071756
1827.000000	97.069262
1826.000000	97.070016
1825.000000	97.073828
1824.000000	97.077214
1823.000000	97.078149
1822.000000	97.077840
1821.000000	97.077676
1820.000000	97.077109
1819.000000	97.075728
1818.000000	97.074499
1817.000000	97.074101
1816.000000	97.074107
1815.000000	97.073724
1814.000000	97.072907
1813.000000	97.071473
1812.000000	97.068721
1811.000000	97.065383
1810.000000	97.063490
1809.000000	97.064298
1808.000000	97.067126
1807.000000	97.070294
1806.000000	97.072302
1805.000000	97.072324
1804.000000	97.071035
1803.000000	97.070171
1802.000000	97.071291
1801.000000	97.073966
1800.000000	97.075611
1799.000000	97.075215
1798.000000	97.073995
1797.000000	97.073022
1796.000000	97.072155
1795.000000	97.071229
1794.000000	97.070916
1793.000000	97.071747
1792.000000	97.073499
1791.000000	97.076594
1790.000000	97.081134
1789.000000	97.085668
1788.000000	97.088598
1787.000000	97.090122
1786.000000	97.091849
1785.000000	97.094691
1784.000000	97.097917
1783.000000	97.100047
1782.000000	97.101048
1781.000000	97.101868
1780.000000	97.102682
1779.000000	97.104291
1778.000000	97.107871
1777.000000	97.113465
1776.000000	97.118722
1775.000000	97.121074
1774.000000	97.121071
1773.000000	97.121737
1772.000000	97.123811
1771.000000	97.125396
1770.000000	97.126163
1769.000000	97.127400
1768.000000	97.130121
1767.000000	97.133801
1766.000000	97.137172
1765.000000	97.139583
1764.000000	97.141004
1763.000000	97.141791
1762.000000	97.142783
1761.000000	97.144286
1760.000000	97.145395
1759.000000	97.145644
1758.000000	97.146110
1757.000000	97.148921
1756.000000	97.153877
1755.000000	97.158313
1754.000000	97.160835
1753.000000	97.162117
1752.000000	97.162494
1751.000000	97.161467
1750.000000	97.159352
1749.000000	97.157634
1748.000000	97.157252
1747.000000	97.157344
1746.000000	97.157912
1745.000000	97.159987
1744.000000	97.162854
1743.000000	97.163969
1742.000000	97.162194
1741.000000	97.160141
1740.000000	97.161035
1739.000000	97.163364
1738.000000	97.163023
1737.000000	97.159811
1736.000000	97.156886
1735.000000	97.157011
1734.000000	97.157645
1733.000000	97.154479
1732.000000	97.149418
1731.000000	97.145955
1730.000000	97.144700
1729.000000	97.144893
1728.000000	97.146095
1727.000000	97.147676
1726.000000	97.148736
1725.000000	97.147967
1724.000000	97.145290
1723.000000	97.142566
1722.000000	97.140437
1721.000000	97.138068
1720.000000	97.135427
1719.000000	97.134098
1718.000000	97.133743
1717.000000	97.130692
1716.000000	97.124034
1715.000000	97.117004
1714.000000	97.111238
1713.000000	97.105384
1712.000000	97.099145
1711.000000	97.094349
1710.000000	97.091975
1709.000000	97.090606
1708.000000	97.088212
1707.000000	97.084829
1706.000000	97.081228
1705.000000	97.075853
1704.000000	97.067398
1703.000000	97.057310
1702.000000	97.048659
1701.000000	97.043598
1700.000000	97.038698
1699.000000	97.030408
1698.000000	97.021667
1697.000000	97.015603
1696.000000	97.012379
1695.000000	97.009201
1694.000000	97.003919
1693.000000	96.997338
1692.000000	96.990856
1691.000000	96.984995
1690.000000	96.979312
1689.000000	96.973260
1688.000000	96.966583
1687.000000	96.959447
1686.000000	96.952628
1685.000000	96.946775
1684.000000	96.941161
1683.000000	96.934565
1682.000000	96.927591
1681.000000	96.921242
1680.000000	96.915773
1679.000000	96.910555
1678.000000	96.905074
1677.000000	96.899572
1676.000000	96.894509
1675.000000	96.889424
1674.000000	96.883489
1673.000000	96.876867
1672.000000	96.870376
1671.000000	96.864651
1670.000000	96.859387
1669.000000	96.853796
1668.000000	96.847880
1667.000000	96.842276
1666.000000	96.837211
1665.000000	96.832429
1664.000000	96.827688
1663.000000	96.822572
1662.000000	96.816574
1661.000000	96.810572
1660.000000	96.806011
1659.000000	96.803215
1658.000000	96.800910
1657.000000	96.796966
1656.000000	96.789188
1655.000000	96.777424
1654.000000	96.765400
1653.000000	96.757295
1652.000000	96.751021
1651.000000	96.746751
1650.000000	96.744206
1649.000000	96.744012
1648.000000	96.744505
1647.000000	96.743788
1646.000000	96.741463
1645.000000	96.738586
1644.000000	96.734938
1643.000000	96.730155
1642.000000	96.725078
1641.000000	96.721844
1640.000000	96.719829
1639.000000	96.716316
1638.000000	96.709955
1637.000000	96.703630
1636.000000	96.701752
1635.000000	96.703687
1634.000000	96.705108
1633.000000	96.703224
1632.000000	96.699559
1631.000000	96.696036
1630.000000	96.693580
1629.000000	96.692161
1628.000000	96.691077
1627.000000	96.688203
1626.000000	96.682309
1625.000000	96.676261
1624.000000	96.675398
1623.000000	96.681190
1622.000000	96.687696
1621.000000	96.690182
1620.000000	96.689595
1619.000000	96.689730
1618.000000	96.693530
1617.000000	96.699821
1616.000000	96.703460
1615.000000	96.703064
1614.000000	96.702387
1613.000000	96.705153
1612.000000	96.713080
1611.000000	96.723380
1610.000000	96.730813
1609.000000	96.734023
1608.000000	96.736476
1607.000000	96.740344
1606.000000	96.744656
1605.000000	96.749549
1604.000000	96.756081
1603.000000	96.765019
1602.000000	96.776009
1601.000000	96.787768
1600.000000	96.798265
1599.000000	96.805235
1598.000000	96.808696
1597.000000	96.812402
1596.000000	96.820985
1595.000000	96.834883
1594.000000	96.849199
1593.000000	96.859192
1592.000000	96.865276
1591.000000	96.871325
1590.000000	96.879877
1589.000000	96.890554
1588.000000	96.902119
1587.000000	96.914213
1586.000000	96.926207
1585.000000	96.938021
1584.000000	96.949794
1583.000000	96.960222
1582.000000	96.968447
1581.000000	96.974716
1580.000000	96.979078
1579.000000	96.980539
1578.000000	96.979469
1577.000000	96.977596
1576.000000	96.976370
1575.000000	96.974587
1574.000000	96.971377
1573.000000	96.967393
1572.000000	96.964166
1571.000000	96.964325
1570.000000	96.968858
1569.000000	96.975737
1568.000000	96.981541
1567.000000	96.983867
1566.000000	96.983596
1565.000000	96.984001
1564.000000	96.986180
1563.000000	96.987290
1562.000000	96.985258
1561.000000	96.982048
1560.000000	96.981858
1559.000000	96.979358
1558.000000	96.968499
1557.000000	96.958068
1556.000000	96.953956
1555.000000	96.957234
1554.000000	96.964355
1553.000000	96.970125
1552.000000	96.970738
1551.000000	96.967513
1550.000000	96.964027
1549.000000	96.962868
1548.000000	96.964499
1547.000000	96.967564
1546.000000	96.970443
1545.000000	96.971597
1544.000000	96.970521
1543.000000	96.968148
1542.000000	96.965731
1541.000000	96.963615
1540.000000	96.962644
1539.000000	96.963397
1538.000000	96.964514
1537.000000	96.964562
1536.000000	96.963844
1535.000000	96.963180
1534.000000	96.963168
1533.000000	96.963513
1532.000000	96.963628
1531.000000	96.963801
1530.000000	96.964536
1529.000000	96.965745
1528.000000	96.966848
1527.000000	96.967479
1526.000000	96.967861
1525.000000	96.968368
1524.000000	96.969059
1523.000000	96.969943
1522.000000	96.970971
1521.000000	96.971809
1520.000000	96.972183
1519.000000	96.972499
1518.000000	96.973521
1517.000000	96.975536
1516.000000	96.977865
1515.000000	96.979644
1514.000000	96.980964
1513.000000	96.982424
1512.000000	96.984204
1511.000000	96.986040
1510.000000	96.987682
1509.000000	96.989186
1508.000000	96.990839
1507.000000	96.993201
1506.000000	96.996216
1505.000000	96.998854
1504.000000	97.000829
1503.000000	97.002549
1502.000000	97.004371
1501.000000	97.006331
1500.000000	97.008047
1499.000000	97.009109
1498.000000	97.009882
1497.000000	97.011404
1496.000000	97.014426
1495.000000	97.018577
1494.000000	97.022882
1493.000000	97.026722
1492.000000	97.029788
1491.000000	97.031790
1490.000000	97.032565
1489.000000	97.032564
1488.000000	97.032695
1487.000000	97.033951
1486.000000	97.036430
1485.000000	97.039220
1484.000000	97.041269
1483.000000	97.042339
1482.000000	97.043275
1481.000000	97.044851
1480.000000	97.046988
1479.000000	97.049048
1478.000000	97.050669
1477.000000	97.051653
1476.000000	97.052295
1475.000000	97.053471
1474.000000	97.056124
1473.000000	97.059919
1472.000000	97.062389
1471.000000	97.062286
1470.000000	97.061281
1469.000000	97.061132
1468.000000	97.061886
1467.000000	97.062447
1466.000000	97.062068
1465.000000	97.061417
1464.000000	97.061218
1463.000000	97.061533
1462.000000	97.062309
1461.000000	97.063426
1460.000000	97.064123
1459.000000	97.063140
1458.000000	97.059837
1457.000000	97.055935
1456.000000	97.053341
1455.000000	97.051183
1454.000000	97.049418
1453.000000	97.049526
1452.000000	97.051557
1451.000000	97.054296
1450.000000	97.056753
1449.000000	97.058443
1448.000000	97.058795
1447.000000	97.057541
1446.000000	97.056009
1445.000000	97.055978
1444.000000	97.056625
1443.000000	97.056172
1442.000000	97.054404
1441.000000	97.052518
1440.000000	97.050794
1439.000000	97.048661
1438.000000	97.046469
1437.000000	97.045519
1436.000000	97.045907
1435.000000	97.045448
1434.000000	97.043746
1433.000000	97.042360
1432.000000	97.041960
1431.000000	97.041636
1430.000000	97.041114
1429.000000	97.041356
1428.000000	97.042767
1427.000000	97.044044
1426.000000	97.044521
1425.000000	97.045634
1424.000000	97.048283
1423.000000	97.051334
1422.000000	97.053411
1421.000000	97.054654
1420.000000	97.054880
1419.000000	97.052459
1418.000000	97.047759
1417.000000	97.044052
1416.000000	97.043369
1415.000000	97.044990
1414.000000	97.047147
1413.000000	97.048898
1412.000000	97.050328
1411.000000	97.051569
1410.000000	97.052623
1409.000000	97.053749
1408.000000	97.055443
1407.000000	97.057247
1406.000000	97.057826
1405.000000	97.057255
1404.000000	97.057204
1403.000000	97.058752
1402.000000	97.061336
1401.000000	97.063822
1400.000000	97.065181
1399.000000	97.065092
1398.000000	97.064672
1397.000000	97.065597
1396.000000	97.068767
1395.000000	97.073652
1394.000000	97.078936
1393.000000	97.084035
1392.000000	97.089047
1391.000000	97.093634
1390.000000	97.096953
1389.000000	97.098481
1388.000000	97.098848
1387.000000	97.099767
1386.000000	97.102281
1385.000000	97.105821
1384.000000	97.109134
1383.000000	97.111570
1382.000000	97.113412
1381.000000	97.115300
1380.000000	97.117523
1379.000000	97.120098
1378.000000	97.123394
1377.000000	97.127820
1376.000000	97.132823
1375.000000	97.136727
1374.000000	97.138582
1373.000000	97.139562
1372.000000	97.141501
1371.000000	97.144846
1370.000000	97.148807
1369.000000	97.152489
1368.000000	97.155365
1367.000000	97.157169
1366.000000	97.157991
1365.000000	97.158472
1364.000000	97.159450
1363.000000	97.161720
1362.000000	97.165896
1361.000000	97.171497
1360.000000	97.176662
1359.000000	97.179558
1358.000000	97.180046
1357.000000	97.179927
1356.000000	97.181084
1355.000000	97.183557
1354.000000	97.186516
1353.000000	97.190091
1352.000000	97.194800
1351.000000	97.199560
1350.000000	97.202027
1349.000000	97.201398
1348.000000	97.199333
1347.000000	97.197941
1346.000000	97.197713
1345.000000	97.198037
1344.000000	97.198379
1343.000000	97.198318
1342.000000	97.197172
1341.000000	97.194419
1340.000000	97.190718
1339.000000	97.188116
1338.000000	97.188580
1337.000000	97.192609
1336.000000	97.198866
1335.000000	97.204421
1334.000000	97.206518
1333.000000	97.204844
1332.000000	97.201692
1331.000000	97.199692
1330.000000	97.199498
1329.000000	97.199848
1328.000000	97.199335
1327.000000	97.197611
1326.000000	97.195351
1325.000000	97.193919
1324.000000	97.194794
1323.000000	97.198279
1322.000000	97.202606
1321.000000	97.204979
1320.000000	97.203929
1319.000000	97.200661
1318.000000	97.198065
1317.000000	97.198033
1316.000000	97.199836
1315.000000	97.201133
1314.000000	97.200337
1313.000000	97.197965
1312.000000	97.195753
1311.000000	97.194807
1310.000000	97.195150
1309.000000	97.196589
1308.000000	97.199036
1307.000000	97.201863
1306.000000	97.203613
1305.000000	97.203055
1304.000000	97.200372
1303.000000	97.197101
1302.000000	97.194881
1301.000000	97.194252
1300.000000	97.194673
1299.000000	97.195475
1298.000000	97.196506
1297.000000	97.197622
1296.000000	97.197957
1295.000000	97.196544
1294.000000	97.193753
1293.000000	97.191233
1292.000000	97.189822
1291.000000	97.188257
1290.000000	97.184808
1289.000000	97.179754
1288.000000	97.175196
1287.000000	97.172187
1286.000000	97.168946
1285.000000	97.162983
1284.000000	97.154817
1283.000000	97.148687
1282.000000	97.148724
1281.000000	97.154331
1280.000000	97.159789
1279.000000	97.159523
1278.000000	97.153587
1277.000000	97.146820
1276.000000	97.142666
1275.000000	97.139585
1274.000000	97.134316
1273.000000	97.126735
1272.000000	97.119862
1271.000000	97.116398
1270.000000	97.117046
1269.000000	97.121181
1268.000000	97.126828
1267.000000	97.130448
1266.000000	97.129366
1265.000000	97.124661
1264.000000	97.119639
1263.000000	97.115723
1262.000000	97.112090
1261.000000	97.108754
1260.000000	97.106778
1259.000000	97.105020
1258.000000	97.100228
1257.000000	97.091742
1256.000000	97.083207
1255.000000	97.078127
1254.000000	97.075941
1253.000000	97.073998
1252.000000	97.071256
1251.000000	97.068296
1250.000000	97.065524
1249.000000	97.063061
1248.000000	97.060732
1247.000000	97.056601
1246.000000	97.047631
1245.000000	97.033845
1244.000000	97.019959
1243.000000	97.010457
1242.000000	97.004463
1241.000000	96.998023
1240.000000	96.989759
1239.000000	96.981019
1238.000000	96.971341
1237.000000	96.957420
1236.000000	96.937399
1235.000000	96.913829
1234.000000	96.891428
1233.000000	96.873340
1232.000000	96.859908
1231.000000	96.849244
1230.000000	96.838248
1229.000000	96.824137
1228.000000	96.805655
1227.000000	96.782797
1226.000000	96.756191
1225.000000	96.727478
1224.000000	96.699038
1223.000000	96.671611
1222.000000	96.642832
1221.000000	96.609816
1220.000000	96.572496
1219.000000	96.532760
1218.000000	96.491216
1217.000000	96.446965
1216.000000	96.400090
1215.000000	96.351767
1214.000000	96.302021
1213.000000	96.250090
1212.000000	96.197025
1211.000000	96.145094
1210.000000	96.094357
1209.000000	96.042832
1208.000000	95.990351
1207.000000	95.939010
1206.000000	95.889074
1205.000000	95.837751
1204.000000	95.783236
1203.000000	95.727012
1202.000000	95.670956
1201.000000	95.614895
1200.000000	95.558309
1199.000000	95.501805
1198.000000	95.445476
1197.000000	95.388398
1196.000000	95.330907
1195.000000	95.274620
1194.000000	95.218986
1193.000000	95.161015
1192.000000	95.100165
1191.000000	95.040350
1190.000000	94.984694
1189.000000	94.930966
1188.000000	94.874969
1187.000000	94.816189
1186.000000	94.757048
1185.000000	94.698090
1184.000000	94.637103
1183.000000	94.572348
1182.000000	94.503569
1181.000000	94.429413
1180.000000	94.346597
1179.000000	94.253710
1178.000000	94.155255
1177.000000	94.059758
1176.000000	93.972281
1175.000000	93.889093
1174.000000	93.801458
1173.000000	93.705341
1172.000000	93.605356
1171.000000	93.508190
1170.000000	93.415404
1169.000000	93.325236
1168.000000	93.238223
1167.000000	93.156866
1166.000000	93.082447
1165.000000	93.017516
1164.000000	92.969913
1163.000000	92.948279
1162.000000	92.953469
1161.000000	92.978283
1160.000000	93.013869
1159.000000	93.051226
1158.000000	93.078841
1157.000000	93.086390
1156.000000	93.071257
1155.000000	93.036749
1154.000000	92.985221
1153.000000	92.918486
1152.000000	92.843793
1151.000000	92.771771
1150.000000	92.706545
1149.000000	92.643447
1148.000000	92.577632
1147.000000	92.509390
1146.000000	92.440228
1145.000000	92.369990
1144.000000	92.299682
1143.000000	92.231588
1142.000000	92.164755
1141.000000	92.095570
1140.000000	92.024354
1139.000000	91.956178
1138.000000	91.893484
1137.000000	91.832795
1136.000000	91.770047
1135.000000	91.704361
1134.000000	91.635689
1133.000000	91.564043
1132.000000	91.492260
1131.000000	91.424588
1130.000000	91.361333
1129.000000	91.299015
1128.000000	91.235484
1127.000000	91.170086
1126.000000	91.100356
1125.000000	91.025308
1124.000000	90.951095
1123.000000	90.885689
1122.000000	90.827634
1121.000000	90.767576
1120.000000	90.701612
1119.000000	90.635322
1118.000000	90.573303
1117.000000	90.512746
1116.000000	90.449347
1115.000000	90.381839
1114.000000	90.308583
1113.000000	90.228244
1112.000000	90.147540
1111.000000	90.079808
1110.000000	90.030486
1109.000000	89.990238
1108.000000	89.945864
1107.000000	89.891583
1106.000000	89.827120
1105.000000	89.753916
1104.000000	89.678261
1103.000000	89.610201
1102.000000	89.552868
1101.000000	89.498665
1100.000000	89.438887
1099.000000	89.371940
1098.000000	89.299639
1097.000000	89.223658
1096.000000	89.149662
1095.000000	89.086468
1094.000000	89.035634
1093.000000	88.987898
1092.000000	88.934168
1091.000000	88.874558
1090.000000	88.814194
1089.000000	88.757364
1088.000000	88.708847
1087.000000	88.673275
1086.000000	88.648543
1085.000000	88.625562
1084.000000	88.597981
1083.000000	88.567641
1082.000000	88.539504
1081.000000	88.516808
1080.000000	88.501271
1079.000000	88.491189
1078.000000	88.479236
1077.000000	88.459301
1076.000000	88.434648
1075.000000	88.411396
1074.000000	88.385448
1073.000000	88.345483
1072.000000	88.287602
1071.000000	88.216451
1070.000000	88.132533
1069.000000	88.030061
1068.000000	87.909137
1067.000000	87.779316
1066.000000	87.648306
1065.000000	87.516506
1064.000000	87.384668
1063.000000	87.256163
1062.000000	87.129079
1061.000000	86.996594
1060.000000	86.858183
1059.000000	86.721035
1058.000000	86.588715
1057.000000	86.458563
1056.000000	86.331490
1055.000000	86.213010
1054.000000	86.102629
1053.000000	85.993575
1052.000000	85.885034
1051.000000	85.782038
1050.000000	85.680860
1049.000000	85.569285
1048.000000	85.444759
1047.000000	85.317713
1046.000000	85.194988
1045.000000	85.074526
1044.000000	84.957062
1043.000000	84.847710
1042.000000	84.743826
1041.000000	84.635737
1040.000000	84.523075
1039.000000	84.417250
1038.000000	84.324656
1037.000000	84.240729
1036.000000	84.163107
1035.000000	84.096649
1034.000000	84.042032
1033.000000	83.992888
1032.000000	83.947484
1031.000000	83.910213
1030.000000	83.879435
1029.000000	83.847853
1028.000000	83.817216
1027.000000	83.798010
1026.000000	83.791867
1025.000000	83.788831
1024.000000	83.784687
1023.000000	83.785805
1022.000000	83.793444
1021.000000	83.798667
1020.000000	83.797195
1019.000000	83.794618
1018.000000	83.792189
1017.000000	83.781815
1016.000000	83.760368
1015.000000	83.735868
1014.000000	83.714499
1013.000000	83.693917
1012.000000	83.673692
1011.000000	83.659879
1010.000000	83.654718
1009.000000	83.653257
1008.000000	83.653579
1007.000000	83.659028
1006.000000	83.668040
1005.000000	83.674212
1004.000000	83.678964
1003.000000	83.691508
1002.000000	83.713985
1001.000000	83.739662
1000.000000	83.767863
999.000000	83.806307
998.000000	83.855308
997.000000	83.904127
996.000000	83.947452
995.000000	83.992061
994.000000	84.042392
993.000000	84.092972
992.000000	84.140578
991.000000	84.191254
990.000000	84.248895
989.000000	84.308149
988.000000	84.365117
987.000000	84.425873
986.000000	84.498561
985.000000	84.584548
984.000000	84.680619
983.000000	84.781936
982.000000	84.881326
981.000000	84.975003
980.000000	85.070712
979.000000	85.180706
978.000000	85.305345
977.000000	85.433192
976.000000	85.558203
975.000000	85.686377
974.000000	85.824065
973.000000	85.970572
972.000000	86.123943
971.000000	86.283188
970.000000	86.442678
969.000000	86.595009
968.000000	86.741927
967.000000	86.892596
966.000000	87.048824
965.000000	87.201392
964.000000	87.342994
963.000000	87.475764
962.000000	87.604783
961.000000	87.733583
960.000000	87.867043
959.000000	88.007912
958.000000	88.147860
957.000000	88.272200
956.000000	88.376770
955.000000	88.472054
954.000000	88.569049
953.000000	88.669737
952.000000	88.772478
951.000000	88.875182
950.000000	88.969721
949.000000	89.044917
948.000000	89.101188
947.000000	89.153986
946.000000	89.216978
945.000000	89.288613
944.000000	89.360114
943.000000	89.428444
942.000000	89.495177
941.000000	89.559353
940.000000	89.618418
939.000000	89.672432
938.000000	89.722347
937.000000	89.767190
936.000000	89.806585
935.000000	89.843358
934.000000	89.881468
933.000000	89.924121
932.000000	89.974259
931.000000	90.032574
930.000000	90.094950
929.000000	90.156657
928.000000	90.218276
927.000000	90.281546
926.000000	90.340881
925.000000	90.387424
924.000000	90.421757
923.000000	90.453954
922.000000	90.489593
921.000000	90.524443
920.000000	90.555114
919.000000	90.585604
918.000000	90.619158
917.000000	90.652273
916.000000	90.682381
915.000000	90.714798
914.000000	90.756297
913.000000	90.807283
912.000000	90.865996
911.000000	90.935755
910.000000	91.021623
909.000000	91.121939
908.000000	91.227622
907.000000	91.329614
906.000000	91.425982
905.000000	91.523089
904.000000	91.630062
903.000000	91.750208
902.000000	91.878006
901.000000	92.006523
900.000000	92.135377
899.000000	92.267154
898.000000	92.398506
897.000000	92.521277
896.000000	92.632700
895.000000	92.739179
894.000000	92.848509
893.000000	92.961156
892.000000	93.069808
891.000000	93.165805
890.000000	93.246930
889.000000	93.320494
888.000000	93.396792
887.000000	93.478200
886.000000	93.558450
885.000000	93.634412
884.000000	93.712517
883.000000	93.798926
882.000000	93.889401
881.000000	93.975930
880.000000	94.058337
879.000000	94.141314
878.000000	94.224323
877.000000	94.303647
876.000000	94.381714
875.000000	94.465322
874.000000	94.556352
873.000000	94.651917
872.000000	94.750618
871.000000	94.850241
870.000000	94.943089
869.000000	95.023557
868.000000	95.097973
867.000000	95.177402
866.000000	95.262462
865.000000	95.345064
864.000000	95.424140
863.000000	95.508641
862.000000	95.602810
861.000000	95.697569
860.000000	95.780097
859.000000	95.845757
858.000000	95.899259
857.000000	95.950293
856.000000	96.009055
855.000000	96.079008
854.000000	96.151204
853.000000	96.211142
852.000000	96.253428
851.000000	96.285880
850.000000	96.319412
849.000000	96.359165
848.000000	96.405614
847.000000	96.457007
846.000000	96.507888
845.000000	96.550498
844.000000	96.580265
843.000000	96.596950
842.000000	96.600861
841.000000	96.592811
840.000000	96.577923
839.000000	96.563786
838.000000	96.553113
837.000000	96.541982
836.000000	96.525717
835.000000	96.502999
834.000000	96.475811
833.000000	96.450584
832.000000	96.437501
831.000000	96.441085
830.000000	96.451976
829.000000	96.456763
828.000000	96.456227
827.000000	96.463528
826.000000	96.482126
825.000000	96.497461
824.000000	96.496184
823.000000	96.482208
822.000000	96.467065
821.000000	96.455093
820.000000	96.444663
819.000000	96.433474
818.000000	96.414977
817.000000	96.376877
816.000000	96.310049
815.000000	96.214979
814.000000	96.095360
813.000000	95.950063
812.000000	95.775822
811.000000	95.572423
810.000000	95.338887
809.000000	95.068171
808.000000	94.752455
807.000000	94.392982
806.000000	94.001520
805.000000	93.595153
804.000000	93.193630
803.000000	92.817520
802.000000	92.482256
801.000000	92.194793
800.000000	91.957561
799.000000	91.771339
798.000000	91.633890
797.000000	91.542858
796.000000	91.500814
795.000000	91.509340
794.000000	91.557501
793.000000	91.624550
792.000000	91.693299
791.000000	91.751463
790.000000	91.783399
789.000000	91.775799
788.000000	91.732775
787.000000	91.670560
786.000000	91.593255
785.000000	91.487557
784.000000	91.347415
783.000000	91.190800
782.000000	91.043871
781.000000	90.919852
780.000000	90.822145
779.000000	90.757212
778.000000	90.733220
777.000000	90.752223
776.000000	90.811423
775.000000	90.906127
774.000000	91.025954
773.000000	91.155896
772.000000	91.287449
771.000000	91.422581
770.000000	91.562078
769.000000	91.696422
768.000000	91.812734
767.000000	91.905573
766.000000	91.978585
765.000000	92.042176
764.000000	92.111553
763.000000	92.198248
762.000000	92.298780
761.000000	92.398065
760.000000	92.486809
759.000000	92.568296
758.000000	92.646497
757.000000	92.718104
756.000000	92.781537
755.000000	92.844513
754.000000	92.915611
753.000000	92.994305
752.000000	93.074127
751.000000	93.149726
750.000000	93.217763
749.000000	93.278456
748.000000	93.339520
747.000000	93.410240
746.000000	93.487975
745.000000	93.560165
744.000000	93.624821
743.000000	93.698295
742.000000	93.794829
741.000000	93.907166
740.000000	94.016058
739.000000	94.111821
738.000000	94.198201
737.000000	94.282095
736.000000	94.368545
735.000000	94.460272
734.000000	94.552706
733.000000	94.632592
732.000000	94.689675
731.000000	94.728394
730.000000	94.762525
729.000000	94.800448
728.000000	94.841070
727.000000	94.880555
726.000000	94.916303
725.000000	94.946927
724.000000	94.973969
723.000000	95.002034
722.000000	95.034299
721.000000	95.070977
720.000000	95.113561
719.000000	95.163921
718.000000	95.217028
717.000000	95.263266
716.000000	95.301266
715.000000	95.340617
714.000000	95.386919
713.000000	95.431539
712.000000	95.463295
711.000000	95.482029
710.000000	95.491299
709.000000	95.486705
708.000000	95.464659
707.000000	95.435886
706.000000	95.414324
705.000000	95.394185
704.000000	95.352392
703.000000	95.273933
702.000000	95.162299
701.000000	95.023320
700.000000	94.851444
699.000000	94.639037
698.000000	94.394000
697.000000	94.147022
696.000000	93.944787
695.000000	93.830328
694.000000	93.818698
693.000000	93.886621
692.000000	93.991320
691.000000	94.104820
690.000000	94.226441
689.000000	94.364572
688.000000	94.517759
687.000000	94.675005
686.000000	94.822260
685.000000	94.943812
684.000000	95.031937
683.000000	95.103274
682.000000	95.190846
681.000000	95.309048
680.000000	95.434426
679.000000	95.533842
678.000000	95.599795
677.000000	95.646505
676.000000	95.685432
675.000000	95.717169
674.000000	95.744850
673.000000	95.780906
672.000000	95.823958
671.000000	95.866884
670.000000	95.913693
669.000000	96.011541
668.000000	96.155473
667.000000	96.236186
666.000000	96.243681
665.000000	96.235768
664.000000	96.226343
663.000000	96.223042
662.000000	96.230560
661.000000	96.255265
660.000000	96.299864
659.000000	96.351883
658.000000	96.385979
657.000000	96.388898
656.000000	96.377358
655.000000	96.374134
654.000000	96.380820
653.000000	96.383923
652.000000	96.378006
651.000000	96.371576
650.000000	96.374484
