4000.000000	99.378184
3999.000000	99.379226
3998.000000	99.379979
3997.000000	99.380047
3996.000000	99.380327
3995.000000	99.382274
3994.000000	99.386210
3993.000000	99.390342
3992.000000	99.391853
3991.000000	99.389074
3990.000000	99.382600
3989.000000	99.374756
3988.000000	99.367827
3987.000000	99.362482
3986.000000	99.357835
3985.000000	99.352930
3984.000000	99.348348
3983.000000	99.346167
3982.000000	99.347958
3981.000000	99.352805
3980.000000	99.357401
3979.000000	99.358439
3978.000000	99.354999
3977.000000	99.348922
3976.000000	99.343327
3975.000000	99.340328
3974.000000	99.339650
3973.000000	99.339169
3972.000000	99.337058
3971.000000	99.333672
3970.000000	99.331227
3969.000000	99.331612
3968.000000	99.334732
3967.000000	99.338996
3966.000000	99.342857
3965.000000	99.345644
3964.000000	99.347393
3963.000000	99.348641
3962.000000	99.350486
3961.000000	99.354206
3960.000000	99.360258
3959.000000	99.367548
3958.000000	99.373792
3957.000000	99.376839
3956.000000	99.375954
3955.000000	99.372200
3954.000000	99.367702
3953.000000	99.364245
3952.000000	99.362269
3951.000000	99.361052
3950.000000	99.359772
3949.000000	99.358419
3948.000000	99.357698
3947.000000	99.358040
3946.000000	99.358916
3945.000000	99.359214
3944.000000	99.358249
3943.000000	99.356469
3942.000000	99.355120
3941.000000	99.355021
3940.000000	99.355737
3939.000000	99.356033
3938.000000	99.355007
3937.000000	99.352834
3936.000000	99.350680
3935.000000	99.349852
3934.000000	99.350597
3933.000000	99.351591
3932.000000	99.351007
3931.000000	99.348561
3930.000000	99.345932
3929.000000	99.344801
3928.000000	99.344862
3927.000000	99.344092
3926.000000	99.340986
3925.000000	99.336453
3924.000000	99.333163
3923.000000	99.332844
3922.000000	99.335017
3921.000000	99.337995
3920.000000	99.340541
3919.000000	99.342527
3918.000000	99.344230
3917.000000	99.345425
3916.000000	99.345444
3915.000000	99.343932
3914.000000	99.341239
3913.000000	99.338162
3912.000000	99.335488
3911.000000	99.333674
3910.000000	99.332719
3909.000000	99.332150
3908.000000	99.331329
3907.000000	99.330145
3906.000000	99.329418
3905.000000	99.330337
3904.000000	99.333213
3903.000000	99.337108
3902.000000	99.340909
3901.000000	99.344211
3900.000000	99.346790
3899.000000	99.347894
3898.000000	99.346838
3897.000000	99.344073
3896.000000	99.341082
3895.000000	99.339240
3894.000000	99.338908
3893.000000	99.339469
3892.000000	99.340082
3891.000000	99.340406
3890.000000	99.340501
3889.000000	99.340448
3888.000000	99.340435
3887.000000	99.340927
3886.000000	99.342279
3885.000000	99.344213
3884.000000	99.345868
3883.000000	99.346417
3882.000000	99.345591
3881.000000	99.343744
3880.000000	99.341781
3879.000000	99.340608
3878.000000	99.340448
3877.000000	99.341015
3876.000000	99.341842
3875.000000	99.342509
3874.000000	99.342858
3873.000000	99.343011
3872.000000	99.343179
3871.000000	99.343426
3870.000000	99.343616
3869.000000	99.343611
3868.000000	99.343456
3867.000000	99.343295
3866.000000	99.343211
3865.000000	99.343159
3864.000000	99.343061
3863.000000	99.342892
3862.000000	99.342674
3861.000000	99.342436
3860.000000	99.342205
3859.000000	99.341995
3858.000000	99.341808
3857.000000	99.341639
3856.000000	99.341482
3855.000000	99.341338
3854.000000	99.341210
3853.000000	99.341110
3852.000000	99.341042
3851.000000	99.340997
3850.000000	99.340961
3849.000000	99.340930
3848.000000	99.340912
3847.000000	99.340919
3846.000000	99.340959
3845.000000	99.341027
3844.000000	99.341114
3843.000000	99.341209
3842.000000	99.341311
3841.000000	99.341435
3840.000000	99.341595
3839.000000	99.341795
3838.000000	99.342018
3837.000000	99.342241
3836.000000	99.342458
3835.000000	99.342677
3834.000000	99.342911
3833.000000	99.343160
3832.000000	99.343415
3831.000000	99.343653
3830.000000	99.343854
3829.000000	99.344021
3828.000000	99.344186
3827.000000	99.344395
3826.000000	99.344636
3825.000000	99.344812
3824.000000	99.344809
3823.000000	99.344640
3822.000000	99.344557
3821.000000	99.344856
3820.000000	99.345601
3819.000000	99.346599
3818.000000	99.347566
3817.000000	99.348292
3816.000000	99.348676
3815.000000	99.348769
3814.000000	99.348764
3813.000000	99.348844
3812.000000	99.349063
3811.000000	99.349313
3810.000000	99.349439
3809.000000	99.349460
3808.000000	99.349634
3807.000000	99.350170
3806.000000	99.350962
3805.000000	99.351697
3804.000000	99.352114
3803.000000	99.352074
3802.000000	99.351529
3801.000000	99.350623
3800.000000	99.349728
3799.000000	99.349204
3798.000000	99.349222
3797.000000	99.349721
3796.000000	99.350403
3795.000000	99.350880
3794.000000	99.350908
3793.000000	99.350465
3792.000000	99.349714
3791.000000	99.348924
3790.000000	99.348332
3789.000000	99.347985
3788.000000	99.347721
3787.000000	99.347307
3786.000000	99.346626
3785.000000	99.345736
3784.000000	99.344800
3783.000000	99.343999
3782.000000	99.343488
3781.000000	99.343323
3780.000000	99.343318
3779.000000	99.343092
3778.000000	99.342423
3777.000000	99.341431
3776.000000	99.340365
3775.000000	99.339257
3774.000000	99.337789
3773.000000	99.335555
3772.000000	99.332630
3771.000000	99.329991
3770.000000	99.329050
3769.000000	99.330525
3768.000000	99.333778
3767.000000	99.337016
3766.000000	99.338344
3765.000000	99.336880
3764.000000	99.333284
3763.000000	99.329443
3762.000000	99.327371
3761.000000	99.328180
3760.000000	99.331452
3759.000000	99.335390
3758.000000	99.338122
3757.000000	99.338481
3756.000000	99.335770
3755.000000	99.329971
3754.000000	99.322388
3753.000000	99.315539
3752.000000	99.311362
3751.000000	99.309401
3750.000000	99.308186
3749.000000	99.307505
3748.000000	99.308168
3747.000000	99.311058
3746.000000	99.316498
3745.000000	99.323317
3744.000000	99.328460
3743.000000	99.329472
3742.000000	99.326566
3741.000000	99.321498
3740.000000	99.315601
3739.000000	99.309496
3738.000000	99.304653
3737.000000	99.303901
3736.000000	99.308397
3735.000000	99.314810
3734.000000	99.317594
3733.000000	99.314119
3732.000000	99.306412
3731.000000	99.298199
3730.000000	99.291172
3729.000000	99.284148
3728.000000	99.275034
3727.000000	99.263800
3726.000000	99.253581
3725.000000	99.247917
3724.000000	99.246842
3723.000000	99.246785
3722.000000	99.244388
3721.000000	99.239417
3720.000000	99.233852
3719.000000	99.228901
3718.000000	99.223862
3717.000000	99.217161
3716.000000	99.207710
3715.000000	99.196011
3714.000000	99.184234
3713.000000	99.174442
3712.000000	99.166043
3711.000000	99.156445
3710.000000	99.144811
3709.000000	99.132537
3708.000000	99.120378
3707.000000	99.107260
3706.000000	99.091659
3705.000000	99.073945
3704.000000	99.057340
3703.000000	99.046155
3702.000000	99.041815
3701.000000	99.040499
3700.000000	99.035915
3699.000000	99.024990
3698.000000	99.010743
3697.000000	98.999723
3696.000000	98.996129
3695.000000	98.998465
3694.000000	99.001592
3693.000000	99.000986
3692.000000	98.995058
3691.000000	98.984542
3690.000000	98.972046
3689.000000	98.962082
3688.000000	98.958201
3687.000000	98.959524
3686.000000	98.962343
3685.000000	98.964119
3684.000000	98.964482
3683.000000	98.963864
3682.000000	98.962257
3681.000000	98.959392
3680.000000	98.955413
3679.000000	98.950912
3678.000000	98.945760
3677.000000	98.937880
3676.000000	98.923771
3675.000000	98.903280
3674.000000	98.881389
3673.000000	98.862670
3672.000000	98.849374
3671.000000	98.842593
3670.000000	98.840733
3669.000000	98.839198
3668.000000	98.834130
3667.000000	98.825095
3666.000000	98.814570
3665.000000	98.805934
3664.000000	98.800975
3663.000000	98.798344
3662.000000	98.794386
3661.000000	98.785812
3660.000000	98.771765
3659.000000	98.754202
3658.000000	98.736770
3657.000000	98.722731
3656.000000	98.712597
3655.000000	98.703951
3654.000000	98.694221
3653.000000	98.683199
3652.000000	98.672808
3651.000000	98.664575
3650.000000	98.657588
3649.000000	98.650803
3648.000000	98.645463
3647.000000	98.642368
3646.000000	98.640123
3645.000000	98.637070
3644.000000	98.632836
3643.000000	98.627688
3642.000000	98.620982
3641.000000	98.610585
3640.000000	98.594338
3639.000000	98.572454
3638.000000	98.548057
3637.000000	98.525294
3636.000000	98.507022
3635.000000	98.494323
3634.000000	98.487299
3633.000000	98.485509
3632.000000	98.487737
3631.000000	98.491777
3630.000000	98.494826
3629.000000	98.495718
3628.000000	98.497721
3627.000000	98.502709
3626.000000	98.506476
3625.000000	98.504038
3624.000000	98.495373
3623.000000	98.485963
3622.000000	98.482604
3621.000000	98.487517
3620.000000	98.495386
3619.000000	98.497963
3618.000000	98.492763
3617.000000	98.483782
3616.000000	98.475725
3615.000000	98.471434
3614.000000	98.472728
3613.000000	98.480809
3612.000000	98.495514
3611.000000	98.514641
3610.000000	98.534288
3609.000000	98.549969
3608.000000	98.558827
3607.000000	98.562025
3606.000000	98.564323
3605.000000	98.570683
3604.000000	98.583126
3603.000000	98.599315
3602.000000	98.613647
3601.000000	98.621124
3600.000000	98.621317
3599.000000	98.618167
3598.000000	98.616117
3597.000000	98.617074
3596.000000	98.620673
3595.000000	98.626101
3594.000000	98.632503
3593.000000	98.638250
3592.000000	98.641665
3591.000000	98.643000
3590.000000	98.644969
3589.000000	98.649917
3588.000000	98.655989
3587.000000	98.658665
3586.000000	98.656512
3585.000000	98.652253
3584.000000	98.649120
3583.000000	98.648517
3582.000000	98.650163
3581.000000	98.652802
3580.000000	98.654421
3579.000000	98.653166
3578.000000	98.649270
3577.000000	98.645708
3576.000000	98.645731
3575.000000	98.649603
3574.000000	98.654491
3573.000000	98.657592
3572.000000	98.658583
3571.000000	98.658915
3570.000000	98.659706
3569.000000	98.660614
3568.000000	98.660422
3567.000000	98.658832
3566.000000	98.657382
3565.000000	98.657731
3564.000000	98.659822
3563.000000	98.662175
3562.000000	98.663323
3561.000000	98.663040
3560.000000	98.662309
3559.000000	98.662140
3558.000000	98.662592
3557.000000	98.663041
3556.000000	98.663023
3555.000000	98.662596
3554.000000	98.662116
3553.000000	98.661914
3552.000000	98.662112
3551.000000	98.662618
3550.000000	98.663220
3549.000000	98.663691
3548.000000	98.663887
3547.000000	98.663808
3546.000000	98.663544
3545.000000	98.663220
3544.000000	98.662895
3543.000000	98.662579
3542.000000	98.662320
3541.000000	98.662246
3540.000000	98.662495
3539.000000	98.663107
3538.000000	98.663965
3537.000000	98.664792
3536.000000	98.665263
3535.000000	98.665222
3534.000000	98.664857
3533.000000	98.664577
3532.000000	98.664642
3531.000000	98.664978
3530.000000	98.665370
3529.000000	98.665766
3528.000000	98.666268
3527.000000	98.666818
3526.000000	98.667083
3525.000000	98.666792
3524.000000	98.666128
3523.000000	98.665670
3522.000000	98.665917
3521.000000	98.666911
3520.000000	98.668261
3519.000000	98.669397
3518.000000	98.669785
3517.000000	98.669104
3516.000000	98.667436
3515.000000	98.665421
3514.000000	98.663955
3513.000000	98.663426
3512.000000	98.663242
3511.000000	98.662406
3510.000000	98.660809
3509.000000	98.659541
3508.000000	98.659468
3507.000000	98.659986
3506.000000	98.659923
3505.000000	98.659346
3504.000000	98.659633
3503.000000	98.661602
3502.000000	98.664584
3501.000000	98.667656
3500.000000	98.670949
3499.000000	98.674879
3498.000000	98.678587
3497.000000	98.680223
3496.000000	98.679024
3495.000000	98.676358
3494.000000	98.674432
3493.000000	98.674075
3492.000000	98.674453
3491.000000	98.674605
3490.000000	98.674520
3489.000000	98.674675
3488.000000	98.674987
3487.000000	98.674693
3486.000000	98.673369
3485.000000	98.671748
3484.000000	98.671177
3483.000000	98.672243
3482.000000	98.674158
3481.000000	98.675591
3480.000000	98.675906
3479.000000	98.675404
3478.000000	98.674672
3477.000000	98.674073
3476.000000	98.673716
3475.000000	98.673453
3474.000000	98.672868
3473.000000	98.671625
3472.000000	98.669910
3471.000000	98.668351
3470.000000	98.667424
3469.000000	98.667197
3468.000000	98.667612
3467.000000	98.668607
3466.000000	98.669822
3465.000000	98.670559
3464.000000	98.670388
3463.000000	98.669643
3462.000000	98.669049
3461.000000	98.668932
3460.000000	98.669052
3459.000000	98.669124
3458.000000	98.669070
3457.000000	98.668649
3456.000000	98.667273
3455.000000	98.664671
3454.000000	98.661733
3453.000000	98.660267
3452.000000	98.661552
3451.000000	98.665143
3450.000000	98.669004
3449.000000	98.671171
3448.000000	98.671231
3447.000000	98.670040
3446.000000	98.668277
3445.000000	98.665649
3444.000000	98.661711
3443.000000	98.656847
3442.000000	98.652059
3441.000000	98.648083
3440.000000	98.645201
3439.000000	98.643780
3438.000000	98.644371
3437.000000	98.646930
3436.000000	98.650252
3435.000000	98.652616
3434.000000	98.653132
3433.000000	98.652348
3432.000000	98.651574
3431.000000	98.651577
3430.000000	98.651893
3429.000000	98.651426
3428.000000	98.649705
3427.000000	98.647469
3426.000000	98.645951
3425.000000	98.645686
3424.000000	98.646160
3423.000000	98.646485
3422.000000	98.646144
3421.000000	98.645047
3420.000000	98.643288
3419.000000	98.641298
3418.000000	98.640049
3417.000000	98.640583
3416.000000	98.643098
3415.000000	98.646508
3414.000000	98.649108
3413.000000	98.649948
3412.000000	98.649421
3411.000000	98.648687
3410.000000	98.648536
3409.000000	98.648850
3408.000000	98.649153
3407.000000	98.649330
3406.000000	98.649593
3405.000000	98.649942
3404.000000	98.650025
3403.000000	98.649653
3402.000000	98.649192
3401.000000	98.649193
3400.000000	98.649703
3399.000000	98.650268
3398.000000	98.650606
3397.000000	98.650875
3396.000000	98.651141
3395.000000	98.650974
3394.000000	98.650024
3393.000000	98.648858
3392.000000	98.648689
3391.000000	98.650067
3390.000000	98.652185
3389.000000	98.653679
3388.000000	98.653965
3387.000000	98.653550
3386.000000	98.653361
3385.000000	98.653992
3384.000000	98.655468
3383.000000	98.657424
3382.000000	98.659374
3381.000000	98.660966
3380.000000	98.662141
3379.000000	98.663162
3378.000000	98.664521
3377.000000	98.666709
3376.000000	98.669813
3375.000000	98.673148
3374.000000	98.675411
3373.000000	98.675512
3372.000000	98.673321
3371.000000	98.669783
3370.000000	98.666567
3369.000000	98.665321
3368.000000	98.666830
3367.000000	98.670396
3366.000000	98.673944
3365.000000	98.675508
3364.000000	98.674834
3363.000000	98.673352
3362.000000	98.672546
3361.000000	98.672513
3360.000000	98.672264
3359.000000	98.671003
3358.000000	98.668944
3357.000000	98.667116
3356.000000	98.666517
3355.000000	98.667260
3354.000000	98.668430
3353.000000	98.668975
3352.000000	98.668894
3351.000000	98.669216
3350.000000	98.670541
3349.000000	98.671912
3348.000000	98.671653
3347.000000	98.669245
3346.000000	98.665879
3345.000000	98.663156
3344.000000	98.661599
3343.000000	98.660739
3342.000000	98.660117
3341.000000	98.659721
3340.000000	98.659718
3339.000000	98.660341
3338.000000	98.662015
3337.000000	98.665005
3336.000000	98.668718
3335.000000	98.671746
3334.000000	98.673027
3333.000000	98.672747
3332.000000	98.671917
3331.000000	98.671276
3330.000000	98.670931
3329.000000	98.670912
3328.000000	98.671410
3327.000000	98.672142
3326.000000	98.672044
3325.000000	98.670246
3324.000000	98.667317
3323.000000	98.665091
3322.000000	98.665096
3321.000000	98.667406
3320.000000	98.670823
3319.000000	98.673797
3318.000000	98.675380
3317.000000	98.675605
3316.000000	98.675224
3315.000000	98.675037
3314.000000	98.675200
3313.000000	98.675293
3312.000000	98.675012
3311.000000	98.674533
3310.000000	98.674127
3309.000000	98.673697
3308.000000	98.672925
3307.000000	98.671721
3306.000000	98.670384
3305.000000	98.669388
3304.000000	98.669089
3303.000000	98.669474
3302.000000	98.670043
3301.000000	98.670095
3300.000000	98.669332
3299.000000	98.668065
3298.000000	98.666854
3297.000000	98.665998
3296.000000	98.665467
3295.000000	98.665204
3294.000000	98.665251
3293.000000	98.665582
3292.000000	98.665976
3291.000000	98.666137
3290.000000	98.665880
3289.000000	98.665205
3288.000000	98.664309
3287.000000	98.663568
3286.000000	98.663360
3285.000000	98.663770
3284.000000	98.664475
3283.000000	98.664925
3282.000000	98.664779
3281.000000	98.664127
3280.000000	98.663347
3279.000000	98.662804
3278.000000	98.662589
3277.000000	98.662499
3276.000000	98.662252
3275.000000	98.661771
3274.000000	98.661251
3273.000000	98.660930
3272.000000	98.660889
3271.000000	98.661097
3270.000000	98.661545
3269.000000	98.662178
3268.000000	98.662739
3267.000000	98.662903
3266.000000	98.662689
3265.000000	98.662612
3264.000000	98.663294
3263.000000	98.664886
3262.000000	98.666903
3261.000000	98.668510
3260.000000	98.669043
3259.000000	98.668332
3258.000000	98.666729
3257.000000	98.664997
3256.000000	98.663959
3255.000000	98.664036
3254.000000	98.665089
3253.000000	98.666584
3252.000000	98.667933
3251.000000	98.668804
3250.000000	98.669244
3249.000000	98.669681
3248.000000	98.670694
3247.000000	98.672563
3246.000000	98.674939
3245.000000	98.677000
3244.000000	98.678111
3243.000000	98.678278
3242.000000	98.678066
3241.000000	98.678088
3240.000000	98.678549
3239.000000	98.679223
3238.000000	98.679723
3237.000000	98.679835
3236.000000	98.679693
3235.000000	98.679665
3234.000000	98.680014
3233.000000	98.680670
3232.000000	98.681374
3231.000000	98.681973
3230.000000	98.682533
3229.000000	98.683132
3228.000000	98.683691
3227.000000	98.684101
3226.000000	98.684476
3225.000000	98.685111
3224.000000	98.686145
3223.000000	98.687366
3222.000000	98.688384
3221.000000	98.689001
3220.000000	98.689345
3219.000000	98.689732
3218.000000	98.690426
3217.000000	98.691515
3216.000000	98.692895
3215.000000	98.694252
3214.000000	98.695209
3213.000000	98.695618
3212.000000	98.695659
3211.000000	98.695703
3210.000000	98.695986
3209.000000	98.696525
3208.000000	98.697258
3207.000000	98.698133
3206.000000	98.699050
3205.000000	98.699794
3204.000000	98.700180
3203.000000	98.700259
3202.000000	98.700325
3201.000000	98.700674
3200.000000	98.701384
3199.000000	98.702352
3198.000000	98.703473
3197.000000	98.704726
3196.000000	98.706129
3195.000000	98.707642
3194.000000	98.709125
3193.000000	98.710402
3192.000000	98.711376
3191.000000	98.712059
3190.000000	98.712496
3189.000000	98.712719
3188.000000	98.712832
3187.000000	98.713072
3186.000000	98.713678
3185.000000	98.714698
3184.000000	98.715992
3183.000000	98.717415
3182.000000	98.718893
3181.000000	98.720299
3180.000000	98.721390
3179.000000	98.721946
3178.000000	98.722010
3177.000000	98.721912
3176.000000	98.721977
3175.000000	98.722287
3174.000000	98.722769
3173.000000	98.723577
3172.000000	98.725185
3171.000000	98.727790
3170.000000	98.730637
3169.000000	98.732532
3168.000000	98.733200
3167.000000	98.733635
3166.000000	98.734809
3165.000000	98.736194
3164.000000	98.736462
3163.000000	98.735355
3162.000000	98.734245
3161.000000	98.734510
3160.000000	98.736021
3159.000000	98.737729
3158.000000	98.739161
3157.000000	98.740714
3156.000000	98.742724
3155.000000	98.745007
3154.000000	98.747233
3153.000000	98.749214
3152.000000	98.750783
3151.000000	98.751831
3150.000000	98.752522
3149.000000	98.753188
3148.000000	98.753929
3147.000000	98.754549
3146.000000	98.754929
3145.000000	98.755277
3144.000000	98.755986
3143.000000	98.757369
3142.000000	98.759488
3141.000000	98.762031
3140.000000	98.764381
3139.000000	98.766115
3138.000000	98.767509
3137.000000	98.769349
3136.000000	98.772125
3135.000000	98.775490
3134.000000	98.778522
3133.000000	98.780450
3132.000000	98.781112
3131.000000	98.780936
3130.000000	98.780615
3129.000000	98.780657
3128.000000	98.781101
3127.000000	98.781656
3126.000000	98.782125
3125.000000	98.782583
3124.000000	98.783104
3123.000000	98.783557
3122.000000	98.783920
3121.000000	98.784762
3120.000000	98.786971
3119.000000	98.790791
3118.000000	98.795156
3117.000000	98.798242
3116.000000	98.799048
3115.000000	98.798235
3114.000000	98.797619
3113.000000	98.798502
3112.000000	98.800708
3111.000000	98.803187
3110.000000	98.805330
3109.000000	98.807490
3108.000000	98.810289
3107.000000	98.813717
3106.000000	98.817040
3105.000000	98.819510
3104.000000	98.820961
3103.000000	98.821634
3102.000000	98.821617
3101.000000	98.820874
3100.000000	98.819960
3099.000000	98.820176
3098.000000	98.822420
3097.000000	98.825909
3096.000000	98.828533
3095.000000	98.828824
3094.000000	98.827178
3093.000000	98.825121
3092.000000	98.823790
3091.000000	98.823472
3090.000000	98.824192
3089.000000	98.826065
3088.000000	98.829128
3087.000000	98.833251
3086.000000	98.838190
3085.000000	98.843405
3084.000000	98.847948
3083.000000	98.851042
3082.000000	98.852943
3081.000000	98.854837
3080.000000	98.857555
3079.000000	98.860647
3078.000000	98.863102
3077.000000	98.864833
3076.000000	98.866859
3075.000000	98.869786
3074.000000	98.872559
3073.000000	98.873366
3072.000000	98.871694
3071.000000	98.869005
3070.000000	98.867515
3069.000000	98.868440
3068.000000	98.871586
3067.000000	98.875957
3066.000000	98.880273
3065.000000	98.883320
3064.000000	98.884515
3063.000000	98.884292
3062.000000	98.883701
3061.000000	98.883524
3060.000000	98.884007
3059.000000	98.885337
3058.000000	98.887733
3057.000000	98.890829
3056.000000	98.893420
3055.000000	98.894372
3054.000000	98.893590
3053.000000	98.891875
3052.000000	98.890120
3051.000000	98.888850
3050.000000	98.888379
3049.000000	98.889016
3048.000000	98.890942
3047.000000	98.894021
3046.000000	98.897744
3045.000000	98.901289
3044.000000	98.903853
3043.000000	98.905174
3042.000000	98.905740
3041.000000	98.906304
3040.000000	98.907104
3039.000000	98.907724
3038.000000	98.907759
3037.000000	98.907463
3036.000000	98.907637
3035.000000	98.908946
3034.000000	98.911358
3033.000000	98.914156
3032.000000	98.916463
3031.000000	98.917859
3030.000000	98.918547
3029.000000	98.919083
3028.000000	98.919969
3027.000000	98.921355
3026.000000	98.922870
3025.000000	98.923750
3024.000000	98.923515
3023.000000	98.922634
3022.000000	98.922263
3021.000000	98.923200
3020.000000	98.925291
3019.000000	98.927793
3018.000000	98.929733
3017.000000	98.929868
3016.000000	98.927263
3015.000000	98.922649
3014.000000	98.918681
3013.000000	98.918012
3012.000000	98.921279
3011.000000	98.927097
3010.000000	98.933339
3009.000000	98.938101
3008.000000	98.940310
3007.000000	98.940442
3006.000000	98.940293
3005.000000	98.941257
3004.000000	98.943115
3003.000000	98.944948
3002.000000	98.946447
3001.000000	98.947598
3000.000000	98.947977
2999.000000	98.947513
2998.000000	98.947322
2997.000000	98.948440
2996.000000	98.950167
2995.000000	98.950951
2994.000000	98.950795
2993.000000	98.951357
2992.000000	98.953623
2991.000000	98.956985
2990.000000	98.961156
2989.000000	98.967632
2988.000000	98.978034
2987.000000	98.991439
2986.000000	99.004421
2985.000000	99.014236
2984.000000	99.021445
2983.000000	99.028794
2982.000000	99.037642
2981.000000	99.046398
2980.000000	99.053188
2979.000000	99.058890
2978.000000	99.065774
2977.000000	99.073426
2976.000000	99.078310
2975.000000	99.078191
2974.000000	99.074898
2973.000000	99.071270
2972.000000	99.066992
2971.000000	99.059832
2970.000000	99.050131
2969.000000	99.041551
2968.000000	99.037174
2967.000000	99.036637
2966.000000	99.037278
2965.000000	99.036392
2964.000000	99.032128
2963.000000	99.024076
2962.000000	99.014075
2961.000000	99.005559
2960.000000	99.001120
2959.000000	99.000889
2958.000000	99.003264
2957.000000	99.006470
2956.000000	99.009227
2955.000000	99.010692
2954.000000	99.010366
2953.000000	99.008195
2952.000000	99.005082
2951.000000	99.003205
2950.000000	99.004636
2949.000000	99.008765
2948.000000	99.012060
2947.000000	99.011835
2946.000000	99.009710
2945.000000	99.009719
2944.000000	99.013645
2943.000000	99.020141
2942.000000	99.027782
2941.000000	99.036296
2940.000000	99.044253
2939.000000	99.048365
2938.000000	99.046868
2937.000000	99.041948
2936.000000	99.037343
2935.000000	99.034417
2934.000000	99.032200
2933.000000	99.030306
2932.000000	99.029812
2931.000000	99.031469
2930.000000	99.034618
2929.000000	99.038063
2928.000000	99.041100
2927.000000	99.043559
2926.000000	99.045601
2925.000000	99.047701
2924.000000	99.050099
2923.000000	99.052073
2922.000000	99.052543
2921.000000	99.051696
2920.000000	99.051209
2919.000000	99.052261
2918.000000	99.053982
2917.000000	99.054681
2916.000000	99.054182
2915.000000	99.054060
2914.000000	99.055560
2913.000000	99.058211
2912.000000	99.060680
2911.000000	99.062414
2910.000000	99.063844
2909.000000	99.065267
2908.000000	99.066306
2907.000000	99.066586
2906.000000	99.066433
2905.000000	99.066652
2904.000000	99.067789
2903.000000	99.069813
2902.000000	99.072351
2901.000000	99.074905
2900.000000	99.077088
2899.000000	99.078942
2898.000000	99.080880
2897.000000	99.082983
2896.000000	99.084535
2895.000000	99.084768
2894.000000	99.083999
2893.000000	99.083518
2892.000000	99.084306
2891.000000	99.086285
2890.000000	99.088855
2889.000000	99.091653
2888.000000	99.094409
2887.000000	99.096583
2886.000000	99.097678
2885.000000	99.097686
2884.000000	99.097061
2883.000000	99.096310
2882.000000	99.095745
2881.000000	99.095555
2880.000000	99.095877
2879.000000	99.096763
2878.000000	99.098156
2877.000000	99.099760
2876.000000	99.101005
2875.000000	99.101443
2874.000000	99.101273
2873.000000	99.101279
2872.000000	99.101993
2871.000000	99.103142
2870.000000	99.104087
2869.000000	99.104671
2868.000000	99.105327
2867.000000	99.106411
2866.000000	99.107760
2865.000000	99.108997
2864.000000	99.110033
2863.000000	99.111060
2862.000000	99.112211
2861.000000	99.113423
2860.000000	99.114596
2859.000000	99.115720
2858.000000	99.116816
2857.000000	99.117840
2856.000000	99.118722
2855.000000	99.119482
2854.000000	99.120232
2853.000000	99.121086
2852.000000	99.122073
2851.000000	99.123131
2850.000000	99.124162
2849.000000	99.125110
2848.000000	99.125999
2847.000000	99.126906
2846.000000	99.127931
2845.000000	99.129109
2844.000000	99.130405
2843.000000	99.131740
2842.000000	99.133048
2841.000000	99.134318
2840.000000	99.135557
2839.000000	99.136789
2838.000000	99.138043
2837.000000	99.139319
2836.000000	99.140567
2835.000000	99.141731
2834.000000	99.142812
2833.000000	99.143881
2832.000000	99.145010
2831.000000	99.146212
2830.000000	99.147451
2829.000000	99.148686
2828.000000	99.149898
2827.000000	99.151077
2826.000000	99.152226
2825.000000	99.153366
2824.000000	99.154520
2823.000000	99.155694
2822.000000	99.156866
2821.000000	99.158017
2820.000000	99.159151
2819.000000	99.160291
2818.000000	99.161449
2817.000000	99.162620
2816.000000	99.163792
2815.000000	99.164968
2814.000000	99.166151
2813.000000	99.167335
2812.000000	99.168508
2811.000000	99.169669
2810.000000	99.170835
2809.000000	99.172033
2808.000000	99.173281
2807.000000	99.174574
2806.000000	99.175853
2805.000000	99.177033
2804.000000	99.178080
2803.000000	99.179031
2802.000000	99.179960
2801.000000	99.180920
2800.000000	99.181925
2799.000000	99.182966
2798.000000	99.184022
2797.000000	99.185070
2796.000000	99.186102
2795.000000	99.187122
2794.000000	99.188143
2793.000000	99.189181
2792.000000	99.190239
2791.000000	99.191310
2790.000000	99.192378
2789.000000	99.193428
2788.000000	99.194458
2787.000000	99.195477
2786.000000	99.196501
2785.000000	99.197535
2784.000000	99.198575
2783.000000	99.199611
2782.000000	99.200629
2781.000000	99.201628
2780.000000	99.202619
2779.000000	99.203615
2778.000000	99.204611
2777.000000	99.205582
2776.000000	99.206514
2775.000000	99.207423
2774.000000	99.208336
2773.000000	99.209257
2772.000000	99.210146
2771.000000	99.210975
2770.000000	99.211807
2769.000000	99.212770
2768.000000	99.213948
2767.000000	99.215303
2766.000000	99.216663
2765.000000	99.217839
2764.000000	99.218754
2763.000000	99.219484
2762.000000	99.220205
2761.000000	99.221074
2760.000000	99.222148
2759.000000	99.223327
2758.000000	99.224363
2757.000000	99.225001
2756.000000	99.225233
2755.000000	99.225448
2754.000000	99.226226
2753.000000	99.227843
2752.000000	99.229947
2751.000000	99.231815
2750.000000	99.233047
2749.000000	99.233847
2748.000000	99.234594
2747.000000	99.235251
2746.000000	99.235405
2745.000000	99.234866
2744.000000	99.233984
2743.000000	99.233360
2742.000000	99.233399
2741.000000	99.234157
2740.000000	99.235523
2739.000000	99.237344
2738.000000	99.239450
2737.000000	99.241740
2736.000000	99.244264
2735.000000	99.247128
2734.000000	99.250164
2733.000000	99.252703
2732.000000	99.253851
2731.000000	99.253155
2730.000000	99.251114
2729.000000	99.249058
2728.000000	99.248273
2727.000000	99.249108
2726.000000	99.250865
2725.000000	99.252433
2724.000000	99.253235
2723.000000	99.253588
2722.000000	99.254198
2721.000000	99.255408
2720.000000	99.257011
2719.000000	99.258681
2718.000000	99.260322
2717.000000	99.261854
2716.000000	99.262853
2715.000000	99.262819
2714.000000	99.261823
2713.000000	99.260550
2712.000000	99.259773
2711.000000	99.259833
2710.000000	99.260631
2709.000000	99.261865
2708.000000	99.263071
2707.000000	99.263700
2706.000000	99.263444
2705.000000	99.262530
2704.000000	99.261594
2703.000000	99.261231
2702.000000	99.261649
2701.000000	99.262626
2700.000000	99.263632
2699.000000	99.264072
2698.000000	99.263663
2697.000000	99.262725
2696.000000	99.262073
2695.000000	99.262380
2694.000000	99.263622
2693.000000	99.265156
2692.000000	99.266367
2691.000000	99.267224
2690.000000	99.268131
2689.000000	99.269369
2688.000000	99.270773
2687.000000	99.271913
2686.000000	99.272527
2685.000000	99.272706
2684.000000	99.272743
2683.000000	99.272862
2682.000000	99.273114
2681.000000	99.273491
2680.000000	99.274001
2679.000000	99.274607
2678.000000	99.275161
2677.000000	99.275480
2676.000000	99.275538
2675.000000	99.275500
2674.000000	99.275597
2673.000000	99.275917
2672.000000	99.276382
2671.000000	99.276834
2670.000000	99.277149
2669.000000	99.277319
2668.000000	99.277432
2667.000000	99.277631
2666.000000	99.277982
2665.000000	99.278450
2664.000000	99.278928
2663.000000	99.279341
2662.000000	99.279694
2661.000000	99.280035
2660.000000	99.280385
2659.000000	99.280709
2658.000000	99.280950
2657.000000	99.281093
2656.000000	99.281190
2655.000000	99.281325
2654.000000	99.281543
2653.000000	99.281832
2652.000000	99.282155
2651.000000	99.282476
2650.000000	99.282754
2649.000000	99.282922
2648.000000	99.282947
2647.000000	99.282935
2646.000000	99.283124
2645.000000	99.283684
2644.000000	99.284554
2643.000000	99.285454
2642.000000	99.286134
2641.000000	99.286507
2640.000000	99.286608
2639.000000	99.286528
2638.000000	99.286409
2637.000000	99.286314
2636.000000	99.286086
2635.000000	99.285509
2634.000000	99.284736
2633.000000	99.284297
2632.000000	99.284404
2631.000000	99.284521
2630.000000	99.284049
2629.000000	99.283320
2628.000000	99.283344
2627.000000	99.284597
2626.000000	99.286415
2625.000000	99.287867
2624.000000	99.288693
2623.000000	99.289097
2622.000000	99.289277
2621.000000	99.289378
2620.000000	99.289614
2619.000000	99.290077
2618.000000	99.290561
2617.000000	99.290810
2616.000000	99.290886
2615.000000	99.291120
2614.000000	99.291710
2613.000000	99.292498
2612.000000	99.293164
2611.000000	99.293549
2610.000000	99.293719
2609.000000	99.293798
2608.000000	99.293793
2607.000000	99.293634
2606.000000	99.293383
2605.000000	99.293298
2604.000000	99.293603
2603.000000	99.294211
2602.000000	99.294766
2601.000000	99.295015
2600.000000	99.295039
2599.000000	99.295074
2598.000000	99.295218
2597.000000	99.295391
2596.000000	99.295516
2595.000000	99.295640
2594.000000	99.295881
2593.000000	99.296304
2592.000000	99.296837
2591.000000	99.297301
2590.000000	99.297551
2589.000000	99.297629
2588.000000	99.297773
2587.000000	99.298188
2586.000000	99.298765
2585.000000	99.299094
2584.000000	99.298863
2583.000000	99.298272
2582.000000	99.297937
2581.000000	99.298232
2580.000000	99.298912
2579.000000	99.299439
2578.000000	99.299569
2577.000000	99.299391
2576.000000	99.299036
2575.000000	99.298694
2574.000000	99.298776
2573.000000	99.299547
2572.000000	99.300555
2571.000000	99.300879
2570.000000	99.300241
2569.000000	99.299470
2568.000000	99.299561
2567.000000	99.300596
2566.000000	99.301973
2565.000000	99.303406
2564.000000	99.305098
2563.000000	99.306969
2562.000000	99.308359
2561.000000	99.308746
2560.000000	99.308401
2559.000000	99.308095
2558.000000	99.308376
2557.000000	99.309324
2556.000000	99.310790
2555.000000	99.312493
2554.000000	99.313979
2553.000000	99.314860
2552.000000	99.315229
2551.000000	99.315627
2550.000000	99.316347
2549.000000	99.316844
2548.000000	99.316141
2547.000000	99.313951
2546.000000	99.311290
2545.000000	99.309766
2544.000000	99.310041
2543.000000	99.311317
2542.000000	99.312286
2541.000000	99.312536
2540.000000	99.312639
2539.000000	99.312996
2538.000000	99.313262
2537.000000	99.313094
2536.000000	99.312943
2535.000000	99.313573
2534.000000	99.315072
2533.000000	99.316802
2532.000000	99.318182
2531.000000	99.319160
2530.000000	99.319866
2529.000000	99.320224
2528.000000	99.320087
2527.000000	99.319601
2526.000000	99.319218
2525.000000	99.319377
2524.000000	99.320192
2523.000000	99.321397
2522.000000	99.322506
2521.000000	99.323155
2520.000000	99.323313
2519.000000	99.323135
2518.000000	99.322764
2517.000000	99.322357
2516.000000	99.322165
2515.000000	99.322369
2514.000000	99.322865
2513.000000	99.323357
2512.000000	99.323702
2511.000000	99.324014
2510.000000	99.324408
2509.000000	99.324841
2508.000000	99.325227
2507.000000	99.325566
2506.000000	99.325925
2505.000000	99.326346
2504.000000	99.326811
2503.000000	99.327270
2502.000000	99.327696
2501.000000	99.328095
2500.000000	99.328487
2499.000000	99.328887
2498.000000	99.329296
2497.000000	99.329706
2496.000000	99.330108
2495.000000	99.330504
2494.000000	99.330899
2493.000000	99.331287
2492.000000	99.331657
2491.000000	99.332017
2490.000000	99.332396
2489.000000	99.332817
2488.000000	99.333276
2487.000000	99.333741
2486.000000	99.334187
2485.000000	99.334600
2484.000000	99.334969
2483.000000	99.335289
2482.000000	99.335608
2481.000000	99.335997
2480.000000	99.336454
2479.000000	99.336883
2478.000000	99.337212
2477.000000	99.337492
2476.000000	99.337859
2475.000000	99.338382
2474.000000	99.339027
2473.000000	99.339721
2472.000000	99.340406
2471.000000	99.341025
2470.000000	99.341557
2469.000000	99.342071
2468.000000	99.342682
2467.000000	99.343399
2466.000000	99.344083
2465.000000	99.344590
2464.000000	99.344908
2463.000000	99.345117
2462.000000	99.345297
2461.000000	99.345539
2460.000000	99.345961
2459.000000	99.346628
2458.000000	99.347457
2457.000000	99.348257
2456.000000	99.348911
2455.000000	99.349447
2454.000000	99.349934
2453.000000	99.350377
2452.000000	99.350754
2451.000000	99.351089
2450.000000	99.351432
2449.000000	99.351780
2448.000000	99.352103
2447.000000	99.352456
2446.000000	99.352977
2445.000000	99.353725
2444.000000	99.354616
2443.000000	99.355482
2442.000000	99.356206
2441.000000	99.356772
2440.000000	99.357226
2439.000000	99.357643
2438.000000	99.358109
2437.000000	99.358696
2436.000000	99.359411
2435.000000	99.360159
2434.000000	99.360793
2433.000000	99.361234
2432.000000	99.361544
2431.000000	99.361890
2430.000000	99.362393
2429.000000	99.363020
2428.000000	99.363624
2427.000000	99.364097
2426.000000	99.364441
2425.000000	99.364706
2424.000000	99.364945
2423.000000	99.365246
2422.000000	99.365705
2421.000000	99.366274
2420.000000	99.366706
2419.000000	99.366769
2418.000000	99.366487
2417.000000	99.366131
2416.000000	99.366010
2415.000000	99.366310
2414.000000	99.367086
2413.000000	99.368133
2412.000000	99.368971
2411.000000	99.369232
2410.000000	99.369020
2409.000000	99.368803
2408.000000	99.368950
2407.000000	99.369568
2406.000000	99.370693
2405.000000	99.372247
2404.000000	99.373652
2403.000000	99.374086
2402.000000	99.373319
2401.000000	99.371855
2400.000000	99.370199
2399.000000	99.368426
2398.000000	99.366612
2397.000000	99.365176
2396.000000	99.364543
2395.000000	99.364648
2394.000000	99.365168
2393.000000	99.365806
2392.000000	99.366280
2391.000000	99.366318
2390.000000	99.365816
2389.000000	99.364868
2388.000000	99.363614
2387.000000	99.362261
2386.000000	99.361213
2385.000000	99.360808
2384.000000	99.360870
2383.000000	99.360852
2382.000000	99.360548
2381.000000	99.360332
2380.000000	99.360518
2379.000000	99.360908
2378.000000	99.361208
2377.000000	99.361519
2376.000000	99.361970
2375.000000	99.362250
2374.000000	99.362051
2373.000000	99.361551
2372.000000	99.360825
2371.000000	99.359292
2370.000000	99.356609
2369.000000	99.353658
2368.000000	99.351664
2367.000000	99.350596
2366.000000	99.349674
2365.000000	99.349143
2364.000000	99.349891
2363.000000	99.351595
2362.000000	99.352872
2361.000000	99.353131
2360.000000	99.352877
2359.000000	99.352600
2358.000000	99.352442
2357.000000	99.352589
2356.000000	99.353097
2355.000000	99.353458
2354.000000	99.353167
2353.000000	99.352400
2352.000000	99.351707
2351.000000	99.351342
2350.000000	99.351129
2349.000000	99.350907
2348.000000	99.350686
2347.000000	99.350540
2346.000000	99.350473
2345.000000	99.350420
2344.000000	99.350339
2343.000000	99.350235
2342.000000	99.350121
2341.000000	99.350008
2340.000000	99.349910
2339.000000	99.349838
2338.000000	99.349790
2337.000000	99.349746
2336.000000	99.349682
2335.000000	99.349590
2334.000000	99.349484
2333.000000	99.349386
2332.000000	99.349314
2331.000000	99.349276
2330.000000	99.349265
2329.000000	99.349270
2328.000000	99.349277
2327.000000	99.349283
2326.000000	99.349291
2325.000000	99.349303
2324.000000	99.349319
2323.000000	99.349332
2322.000000	99.349338
2321.000000	99.349347
2320.000000	99.349375
2319.000000	99.349440
2318.000000	99.349538
2317.000000	99.349646
2316.000000	99.349734
2315.000000	99.349787
2314.000000	99.349808
2313.000000	99.349819
2312.000000	99.349846
2311.000000	99.349904
2310.000000	99.349991
2309.000000	99.350090
2308.000000	99.350189
2307.000000	99.350279
2306.000000	99.350360
2305.000000	99.350434
2304.000000	99.350504
2303.000000	99.350577
2302.000000	99.350660
2301.000000	99.350761
2300.000000	99.350881
2299.000000	99.351011
2298.000000	99.351133
2297.000000	99.351229
2296.000000	99.351291
2295.000000	99.351326
2294.000000	99.351352
2293.000000	99.351392
2292.000000	99.351463
2291.000000	99.351550
2290.000000	99.351613
2289.000000	99.351609
2288.000000	99.351546
2287.000000	99.351473
2286.000000	99.351425
2285.000000	99.351413
2284.000000	99.351429
2283.000000	99.351433
2282.000000	99.351364
2281.000000	99.351210
2280.000000	99.351039
2279.000000	99.350889
2278.000000	99.350667
2277.000000	99.350232
2276.000000	99.349584
2275.000000	99.348953
2274.000000	99.348570
2273.000000	99.348428
2272.000000	99.348249
2271.000000	99.347793
2270.000000	99.347090
2269.000000	99.346370
2268.000000	99.345801
2267.000000	99.345306
2266.000000	99.344726
2265.000000	99.344097
2264.000000	99.343670
2263.000000	99.343609
2262.000000	99.343765
2261.000000	99.343763
2260.000000	99.343329
2259.000000	99.342459
2258.000000	99.341326
2257.000000	99.340099
2256.000000	99.338850
2255.000000	99.337663
2254.000000	99.336814
2253.000000	99.336654
2252.000000	99.337222
2251.000000	99.338025
2250.000000	99.338368
2249.000000	99.338046
2248.000000	99.337399
2247.000000	99.336774
2246.000000	99.336156
2245.000000	99.335447
2244.000000	99.334821
2243.000000	99.334503
2242.000000	99.334386
2241.000000	99.334176
2240.000000	99.333826
2239.000000	99.333520
2238.000000	99.333237
2237.000000	99.332626
2236.000000	99.331433
2235.000000	99.329948
2234.000000	99.328893
2233.000000	99.328812
2232.000000	99.329688
2231.000000	99.330982
2230.000000	99.332040
2229.000000	99.332572
2228.000000	99.332686
2227.000000	99.332628
2226.000000	99.332584
2225.000000	99.332754
2224.000000	99.333354
2223.000000	99.334309
2222.000000	99.335042
2221.000000	99.334946
2220.000000	99.334079
2219.000000	99.333201
2218.000000	99.332993
2217.000000	99.333390
2216.000000	99.333779
2215.000000	99.333706
2214.000000	99.333272
2213.000000	99.332894
2212.000000	99.332784
2211.000000	99.332729
2210.000000	99.332444
2209.000000	99.332071
2208.000000	99.332134
2207.000000	99.332877
2206.000000	99.333821
2205.000000	99.334272
2204.000000	99.334137
2203.000000	99.333912
2202.000000	99.333892
2201.000000	99.333752
2200.000000	99.333051
2199.000000	99.331895
2198.000000	99.330888
2197.000000	99.330538
2196.000000	99.330898
2195.000000	99.331692
2194.000000	99.332611
2193.000000	99.333507
2192.000000	99.334364
2191.000000	99.335116
2190.000000	99.335537
2189.000000	99.335489
2188.000000	99.335259
2187.000000	99.335432
2186.000000	99.336295
2185.000000	99.337525
2184.000000	99.338568
2183.000000	99.339145
2182.000000	99.339243
2181.000000	99.338933
2180.000000	99.338422
2179.000000	99.338115
2178.000000	99.338250
2177.000000	99.338555
2176.000000	99.338570
2175.000000	99.338294
2174.000000	99.338203
2173.000000	99.338603
2172.000000	99.339297
2171.000000	99.339931
2170.000000	99.340442
2169.000000	99.341016
2168.000000	99.341787
2167.000000	99.342686
2166.000000	99.343483
2165.000000	99.343884
2164.000000	99.343725
2163.000000	99.343132
2162.000000	99.342445
2161.000000	99.341920
2160.000000	99.341592
2159.000000	99.341499
2158.000000	99.341865
2157.000000	99.342867
2156.000000	99.344291
2155.000000	99.345575
2154.000000	99.346278
2153.000000	99.346400
2152.000000	99.346276
2151.000000	99.346262
2150.000000	99.346533
2149.000000	99.347054
2148.000000	99.347602
2147.000000	99.347856
2146.000000	99.347651
2145.000000	99.347185
2144.000000	99.346882
2143.000000	99.346982
2142.000000	99.347305
2141.000000	99.347451
2140.000000	99.347166
2139.000000	99.346519
2138.000000	99.345836
2137.000000	99.345543
2136.000000	99.345889
2135.000000	99.346775
2134.000000	99.347783
2133.000000	99.348501
2132.000000	99.348819
2131.000000	99.348851
2130.000000	99.348715
2129.000000	99.348485
2128.000000	99.348330
2127.000000	99.348489
2126.000000	99.349014
2125.000000	99.349688
2124.000000	99.350228
2123.000000	99.350579
2122.000000	99.350897
2121.000000	99.351321
2120.000000	99.351834
2119.000000	99.352323
2118.000000	99.352718
2117.000000	99.353062
2116.000000	99.353485
2115.000000	99.354113
2114.000000	99.354961
2113.000000	99.355913
2112.000000	99.356821
2111.000000	99.357595
2110.000000	99.358212
2109.000000	99.358722
2108.000000	99.359265
2107.000000	99.359986
2106.000000	99.360882
2105.000000	99.361784
2104.000000	99.362550
2103.000000	99.363167
2102.000000	99.363632
2101.000000	99.363906
2100.000000	99.364168
2099.000000	99.364908
2098.000000	99.366492
2097.000000	99.368648
2096.000000	99.370573
2095.000000	99.371672
2094.000000	99.371863
2093.000000	99.371300
2092.000000	99.370224
2091.000000	99.369173
2090.000000	99.368969
2089.000000	99.370124
2088.000000	99.372423
2087.000000	99.375135
2086.000000	99.377529
2085.000000	99.379104
2084.000000	99.379695
2083.000000	99.379709
2082.000000	99.379962
2081.000000	99.380869
2080.000000	99.381950
2079.000000	99.382461
2078.000000	99.382272
2077.000000	99.381863
2076.000000	99.381650
2075.000000	99.381669
2074.000000	99.381784
2073.000000	99.381830
2072.000000	99.381633
2071.000000	99.381183
2070.000000	99.380715
2069.000000	99.380447
2068.000000	99.380371
2067.000000	99.380478
2066.000000	99.380890
2065.000000	99.381495
2064.000000	99.381767
2063.000000	99.381332
2062.000000	99.380457
2061.000000	99.379647
2060.000000	99.379005
2059.000000	99.378332
2058.000000	99.377572
2057.000000	99.376766
2056.000000	99.375884
2055.000000	99.375182
2054.000000	99.375293
2053.000000	99.376280
2052.000000	99.376921
2051.000000	99.375874
2050.000000	99.373329
2049.000000	99.370817
2048.000000	99.369433
2047.000000	99.368901
2046.000000	99.368464
2045.000000	99.367775
2044.000000	99.366640
2043.000000	99.364679
2042.000000	99.361773
2041.000000	99.358465
2040.000000	99.355589
2039.000000	99.353691
2038.000000	99.352870
2037.000000	99.352799
2036.000000	99.352807
2035.000000	99.352347
2034.000000	99.351486
2033.000000	99.350620
2032.000000	99.349719
2031.000000	99.348272
2030.000000	99.346116
2029.000000	99.343875
2028.000000	99.342318
2027.000000	99.341615
2026.000000	99.341488
2025.000000	99.341680
2024.000000	99.341934
2023.000000	99.341844
2022.000000	99.341180
2021.000000	99.340181
2020.000000	99.339129
2019.000000	99.337807
2018.000000	99.335833
2017.000000	99.333440
2016.000000	99.331363
2015.000000	99.329858
2014.000000	99.328342
2013.000000	99.326198
2012.000000	99.323647
2011.000000	99.321657
2010.000000	99.321046
2009.000000	99.321832
2008.000000	99.323220
2007.000000	99.324134
2006.000000	99.323984
2005.000000	99.322931
2004.000000	99.321488
2003.000000	99.319992
2002.000000	99.318514
2001.000000	99.317216
2000.000000	99.316484
1999.000000	99.316609
1998.000000	99.317526
1997.000000	99.318785
1996.000000	99.319657
1995.000000	99.319401
1994.000000	99.317742
1993.000000	99.315177
1992.000000	99.312578
1991.000000	99.310303
1990.000000	99.308123
1989.000000	99.306145
1988.000000	99.305249
1987.000000	99.306230
1986.000000	99.308828
1985.000000	99.311950
1984.000000	99.314706
1983.000000	99.316795
1982.000000	99.317859
1981.000000	99.317204
1980.000000	99.314629
1979.000000	99.311282
1978.000000	99.308982
1977.000000	99.308313
1976.000000	99.307914
1975.000000	99.306111
1974.000000	99.302986
1973.000000	99.300150
1972.000000	99.298605
1971.000000	99.297748
1970.000000	99.296728
1969.000000	99.295892
1968.000000	99.296225
1967.000000	99.297908
1966.000000	99.300360
1965.000000	99.303454
1964.000000	99.307542
1963.000000	99.312178
1962.000000	99.315850
1961.000000	99.317347
1960.000000	99.316833
1959.000000	99.315467
1958.000000	99.314344
1957.000000	99.313964
1956.000000	99.314221
1955.000000	99.314415
1954.000000	99.313591
1953.000000	99.311378
1952.000000	99.308605
1951.000000	99.306732
1950.000000	99.306439
1949.000000	99.307000
1948.000000	99.307122
1947.000000	99.306295
1946.000000	99.305114
1945.000000	99.304385
1944.000000	99.304359
1943.000000	99.305022
1942.000000	99.306626
1941.000000	99.309225
1940.000000	99.311845
1939.000000	99.312894
1938.000000	99.311673
1937.000000	99.309138
1936.000000	99.306930
1935.000000	99.305776
1934.000000	99.305280
1933.000000	99.304825
1932.000000	99.304080
1931.000000	99.302942
1930.000000	99.301683
1929.000000	99.301259
1928.000000	99.302599
1927.000000	99.305342
1926.000000	99.307656
1925.000000	99.307560
1924.000000	99.304363
1923.000000	99.299090
1922.000000	99.294007
1921.000000	99.291142
1920.000000	99.290849
1919.000000	99.291621
1918.000000	99.291324
1917.000000	99.289256
1916.000000	99.286579
1915.000000	99.284400
1914.000000	99.282626
1913.000000	99.280760
1912.000000	99.278698
1911.000000	99.276463
1910.000000	99.273915
1909.000000	99.271292
1908.000000	99.269097
1907.000000	99.267104
1906.000000	99.264270
1905.000000	99.260097
1904.000000	99.255332
1903.000000	99.250565
1902.000000	99.245319
1901.000000	99.239620
1900.000000	99.235170
1899.000000	99.233435
1898.000000	99.233175
1897.000000	99.231491
1896.000000	99.227556
1895.000000	99.223690
1894.000000	99.222001
1893.000000	99.221456
1892.000000	99.219318
1891.000000	99.214586
1890.000000	99.209483
1889.000000	99.207469
1888.000000	99.209671
1887.000000	99.213932
1886.000000	99.217159
1885.000000	99.218082
1884.000000	99.217651
1883.000000	99.216869
1882.000000	99.215053
1881.000000	99.211250
1880.000000	99.206421
1879.000000	99.202756
1878.000000	99.201108
1877.000000	99.200483
1876.000000	99.200306
1875.000000	99.201520
1874.000000	99.204508
1873.000000	99.207417
1872.000000	99.207781
1871.000000	99.205059
1870.000000	99.201037
1869.000000	99.198194
1868.000000	99.197932
1867.000000	99.200348
1866.000000	99.204803
1865.000000	99.210000
1864.000000	99.214314
1863.000000	99.216805
1862.000000	99.217959
1861.000000	99.219393
1860.000000	99.222631
1859.000000	99.227849
1858.000000	99.233704
1857.000000	99.238758
1856.000000	99.243166
1855.000000	99.248405
1854.000000	99.255043
1853.000000	99.261630
1852.000000	99.266131
1851.000000	99.267951
1850.000000	99.268317
1849.000000	99.269210
1848.000000	99.272421
1847.000000	99.278594
1846.000000	99.286236
1845.000000	99.291607
1844.000000	99.291587
1843.000000	99.287545
1842.000000	99.283825
1841.000000	99.282681
1840.000000	99.283623
1839.000000	99.286003
1838.000000	99.289809
1837.000000	99.294298
1836.000000	99.297533
1835.000000	99.298263
1834.000000	99.297414
1833.000000	99.296950
1832.000000	99.297729
1831.000000	99.299318
1830.000000	99.301309
1829.000000	99.303643
1828.000000	99.305909
1827.000000	99.307137
1826.000000	99.306589
1825.000000	99.304656
1824.000000	99.302722
1823.000000	99.301911
1822.000000	99.302306
1821.000000	99.303444
1820.000000	99.304967
1819.000000	99.306843
1818.000000	99.309029
1817.000000	99.311018
1816.000000	99.311976
1815.000000	99.311168
1814.000000	99.308314
1813.000000	99.303815
1812.000000	99.299076
1811.000000	99.296183
1810.000000	99.296231
1809.000000	99.298282
1808.000000	99.300252
1807.000000	99.300714
1806.000000	99.299698
1805.000000	99.298141
1804.000000	99.296940
1803.000000	99.296365
1802.000000	99.296341
1801.000000	99.296922
1800.000000	99.298274
1799.000000	99.300447
1798.000000	99.303088
1797.000000	99.305612
1796.000000	99.307602
1795.000000	99.308835
1794.000000	99.309176
1793.000000	99.308899
1792.000000	99.309196
1791.000000	99.311395
1790.000000	99.315229
1789.000000	99.318746
1788.000000	99.319965
1787.000000	99.318413
1786.000000	99.315625
1785.000000	99.314026
1784.000000	99.314730
1783.000000	99.316897
1782.000000	99.319384
1781.000000	99.321808
1780.000000	99.323871
1779.000000	99.325255
1778.000000	99.326358
1777.000000	99.328426
1776.000000	99.332184
1775.000000	99.336683
1774.000000	99.340144
1773.000000	99.341816
1772.000000	99.342461
1771.000000	99.343118
1770.000000	99.344088
1769.000000	99.345106
1768.000000	99.346121
1767.000000	99.347376
1766.000000	99.349025
1765.000000	99.351061
1764.000000	99.353462
1763.000000	99.356209
1762.000000	99.359051
1761.000000	99.361408
1760.000000	99.363184
1759.000000	99.364997
1758.000000	99.367026
1757.000000	99.368600
1756.000000	99.368953
1755.000000	99.368774
1754.000000	99.369893
1753.000000	99.373317
1752.000000	99.377911
1751.000000	99.380799
1750.000000	99.380146
1749.000000	99.377149
1748.000000	99.374081
1747.000000	99.371532
1746.000000	99.368883
1745.000000	99.365830
1744.000000	99.362916
1743.000000	99.360892
1742.000000	99.359538
1741.000000	99.357817
1740.000000	99.355477
1739.000000	99.353647
1738.000000	99.353097
1737.000000	99.352840
1736.000000	99.351006
1735.000000	99.347406
1734.000000	99.345296
1733.000000	99.346721
1732.000000	99.348888
1731.000000	99.348552
1730.000000	99.345142
1729.000000	99.340369
1728.000000	99.336145
1727.000000	99.332508
1726.000000	99.328337
1725.000000	99.323245
1724.000000	99.318277
1723.000000	99.314835
1722.000000	99.313239
1721.000000	99.313007
1720.000000	99.313578
1719.000000	99.314157
1718.000000	99.312653
1717.000000	99.306897
1716.000000	99.298164
1715.000000	99.289986
1714.000000	99.283964
1713.000000	99.279427
1712.000000	99.275132
1711.000000	99.270430
1710.000000	99.265492
1709.000000	99.260809
1708.000000	99.256356
1707.000000	99.251417
1706.000000	99.245603
1705.000000	99.239927
1704.000000	99.235971
1703.000000	99.233638
1702.000000	99.230856
1701.000000	99.225044
1700.000000	99.216302
1699.000000	99.208033
1698.000000	99.201610
1697.000000	99.195290
1696.000000	99.188053
1695.000000	99.180915
1694.000000	99.174888
1693.000000	99.169594
1692.000000	99.164386
1691.000000	99.159161
1690.000000	99.154061
1689.000000	99.149104
1688.000000	99.144180
1687.000000	99.139113
1686.000000	99.133423
1685.000000	99.126324
1684.000000	99.117815
1683.000000	99.109196
1682.000000	99.101498
1681.000000	99.094717
1680.000000	99.088842
1679.000000	99.084087
1678.000000	99.080096
1677.000000	99.075804
1676.000000	99.070249
1675.000000	99.063628
1674.000000	99.056881
1673.000000	99.050099
1672.000000	99.042486
1671.000000	99.033889
1670.000000	99.025548
1669.000000	99.018808
1668.000000	99.013515
1667.000000	99.008936
1666.000000	99.004734
1665.000000	99.000445
1664.000000	98.995644
1663.000000	98.990669
1662.000000	98.986184
1661.000000	98.981980
1660.000000	98.977120
1659.000000	98.971556
1658.000000	98.966453
1657.000000	98.963059
1656.000000	98.960841
1655.000000	98.957441
1654.000000	98.949996
1653.000000	98.939087
1652.000000	98.930140
1651.000000	98.926716
1650.000000	98.927970
1649.000000	98.930968
1648.000000	98.931334
1647.000000	98.925569
1646.000000	98.916937
1645.000000	98.911216
1644.000000	98.908218
1643.000000	98.903968
1642.000000	98.896973
1641.000000	98.889955
1640.000000	98.886936
1639.000000	98.889111
1638.000000	98.894230
1637.000000	98.899091
1636.000000	98.901487
1635.000000	98.900635
1634.000000	98.897687
1633.000000	98.894389
1632.000000	98.891769
1631.000000	98.890312
1630.000000	98.890196
1629.000000	98.891285
1628.000000	98.893084
1627.000000	98.894872
1626.000000	98.896174
1625.000000	98.896896
1624.000000	98.897376
1623.000000	98.898502
1622.000000	98.901298
1621.000000	98.906495
1620.000000	98.914003
1619.000000	98.922523
1618.000000	98.929245
1617.000000	98.930972
1616.000000	98.927988
1615.000000	98.924804
1614.000000	98.924604
1613.000000	98.926514
1612.000000	98.928391
1611.000000	98.929639
1610.000000	98.931938
1609.000000	98.936984
1608.000000	98.944102
1607.000000	98.951077
1606.000000	98.956793
1605.000000	98.961664
1604.000000	98.966109
1603.000000	98.970715
1602.000000	98.977056
1601.000000	98.986099
1600.000000	98.996088
1599.000000	99.003940
1598.000000	99.008852
1597.000000	99.012997
1596.000000	99.018513
1595.000000	99.025192
1594.000000	99.031623
1593.000000	99.037260
1592.000000	99.042380
1591.000000	99.047218
1590.000000	99.052100
1589.000000	99.057450
1588.000000	99.062899
1587.000000	99.067481
1586.000000	99.071365
1585.000000	99.076420
1584.000000	99.083835
1583.000000	99.092013
1582.000000	99.098228
1581.000000	99.101645
1580.000000	99.103373
1579.000000	99.104503
1578.000000	99.105584
1577.000000	99.107794
1576.000000	99.112249
1575.000000	99.117400
1574.000000	99.121208
1573.000000	99.123892
1572.000000	99.126457
1571.000000	99.129654
1570.000000	99.133844
1569.000000	99.138762
1568.000000	99.143485
1567.000000	99.147106
1566.000000	99.149390
1565.000000	99.151106
1564.000000	99.153504
1563.000000	99.156894
1562.000000	99.160289
1561.000000	99.162342
1560.000000	99.162907
1559.000000	99.164489
1558.000000	99.168041
1557.000000	99.171471
1556.000000	99.174009
1555.000000	99.176126
1554.000000	99.178545
1553.000000	99.181622
1552.000000	99.185184
1551.000000	99.188824
1550.000000	99.192033
1549.000000	99.194450
1548.000000	99.196247
1547.000000	99.197845
1546.000000	99.199411
1545.000000	99.200878
1544.000000	99.202309
1543.000000	99.204081
1542.000000	99.206498
1541.000000	99.209247
1540.000000	99.211422
1539.000000	99.212750
1538.000000	99.214105
1537.000000	99.216132
1536.000000	99.218738
1535.000000	99.221544
1534.000000	99.223945
1533.000000	99.225407
1532.000000	99.226036
1531.000000	99.226581
1530.000000	99.227660
1529.000000	99.229480
1528.000000	99.231850
1527.000000	99.234245
1526.000000	99.236270
1525.000000	99.238017
1524.000000	99.239783
1523.000000	99.241665
1522.000000	99.243621
1521.000000	99.245740
1520.000000	99.248302
1519.000000	99.251478
1518.000000	99.254974
1517.000000	99.257919
1516.000000	99.259665
1515.000000	99.260798
1514.000000	99.262392
1513.000000	99.264672
1512.000000	99.267119
1511.000000	99.269455
1510.000000	99.272219
1509.000000	99.276117
1508.000000	99.281254
1507.000000	99.286259
1506.000000	99.289132
1505.000000	99.290110
1504.000000	99.290670
1503.000000	99.291425
1502.000000	99.292734
1501.000000	99.295016
1500.000000	99.298352
1499.000000	99.302174
1498.000000	99.305941
1497.000000	99.309563
1496.000000	99.312703
1495.000000	99.314768
1494.000000	99.315917
1493.000000	99.316973
1492.000000	99.318405
1491.000000	99.320144
1490.000000	99.322207
1489.000000	99.324875
1488.000000	99.328008
1487.000000	99.331034
1486.000000	99.333707
1485.000000	99.336357
1484.000000	99.338893
1483.000000	99.340378
1482.000000	99.340381
1481.000000	99.340141
1480.000000	99.341309
1479.000000	99.343542
1478.000000	99.344734
1477.000000	99.343337
1476.000000	99.340023
1475.000000	99.336839
1474.000000	99.335322
1473.000000	99.336327
1472.000000	99.339705
1471.000000	99.343832
1470.000000	99.347078
1469.000000	99.348982
1468.000000	99.349818
1467.000000	99.350055
1466.000000	99.350106
1465.000000	99.350386
1464.000000	99.350916
1463.000000	99.351242
1462.000000	99.351025
1461.000000	99.350278
1460.000000	99.348956
1459.000000	99.346544
1458.000000	99.342564
1457.000000	99.338418
1456.000000	99.336531
1455.000000	99.336774
1454.000000	99.337315
1453.000000	99.336984
1452.000000	99.335680
1451.000000	99.333983
1450.000000	99.332574
1449.000000	99.331872
1448.000000	99.331970
1447.000000	99.332362
1446.000000	99.332195
1445.000000	99.331069
1444.000000	99.329136
1443.000000	99.326697
1442.000000	99.323921
1441.000000	99.321101
1440.000000	99.318863
1439.000000	99.317802
1438.000000	99.317954
1437.000000	99.318626
1436.000000	99.318767
1435.000000	99.317774
1434.000000	99.315526
1433.000000	99.311907
1432.000000	99.307402
1431.000000	99.303748
1430.000000	99.302692
1429.000000	99.304017
1428.000000	99.305803
1427.000000	99.306510
1426.000000	99.305918
1425.000000	99.304550
1424.000000	99.302963
1423.000000	99.301487
1422.000000	99.299998
1421.000000	99.297935
1420.000000	99.295112
1419.000000	99.292803
1418.000000	99.292283
1417.000000	99.292607
1416.000000	99.292039
1415.000000	99.290306
1414.000000	99.288722
1413.000000	99.288575
1412.000000	99.289396
1411.000000	99.289328
1410.000000	99.287438
1409.000000	99.284890
1408.000000	99.283545
1407.000000	99.283935
1406.000000	99.285027
1405.000000	99.286007
1404.000000	99.287494
1403.000000	99.290500
1402.000000	99.294909
1401.000000	99.299713
1400.000000	99.303932
1399.000000	99.306888
1398.000000	99.308087
1397.000000	99.307268
1396.000000	99.304929
1395.000000	99.302871
1394.000000	99.303245
1393.000000	99.306445
1392.000000	99.311078
1391.000000	99.315797
1390.000000	99.320210
1389.000000	99.324460
1388.000000	99.328320
1387.000000	99.330800
1386.000000	99.331116
1385.000000	99.329770
1384.000000	99.328248
1383.000000	99.328041
1382.000000	99.329683
1381.000000	99.332312
1380.000000	99.334499
1379.000000	99.335659
1378.000000	99.336404
1377.000000	99.337402
1376.000000	99.338426
1375.000000	99.339005
1374.000000	99.339754
1373.000000	99.341980
1372.000000	99.345878
1371.000000	99.350169
1370.000000	99.353375
1369.000000	99.354898
1368.000000	99.355005
1367.000000	99.354351
1366.000000	99.353639
1365.000000	99.353432
1364.000000	99.353953
1363.000000	99.355145
1362.000000	99.357216
1361.000000	99.360813
1360.000000	99.365902
1359.000000	99.370824
1358.000000	99.373538
1357.000000	99.373782
1356.000000	99.373338
1355.000000	99.373738
1354.000000	99.374699
1353.000000	99.375392
1352.000000	99.375859
1351.000000	99.376303
1350.000000	99.376336
1349.000000	99.376207
1348.000000	99.377565
1347.000000	99.381493
1346.000000	99.386268
1345.000000	99.388707
1344.000000	99.387483
1343.000000	99.383991
1342.000000	99.380337
1341.000000	99.377581
1340.000000	99.375940
1339.000000	99.375320
1338.000000	99.375145
1337.000000	99.374676
1336.000000	99.373929
1335.000000	99.373743
1334.000000	99.374826
1333.000000	99.377033
1332.000000	99.379459
1331.000000	99.381004
1330.000000	99.381157
1329.000000	99.380548
1328.000000	99.380281
1327.000000	99.380437
1326.000000	99.380088
1325.000000	99.379392
1324.000000	99.380410
1323.000000	99.384465
1322.000000	99.389518
1321.000000	99.392039
1320.000000	99.390998
1319.000000	99.388110
1318.000000	99.384411
1317.000000	99.379244
1316.000000	99.373389
1315.000000	99.370254
1314.000000	99.372117
1313.000000	99.376978
1312.000000	99.381184
1311.000000	99.383894
1310.000000	99.386444
1309.000000	99.388311
1308.000000	99.386775
1307.000000	99.380964
1306.000000	99.374019
1305.000000	99.370165
1304.000000	99.370799
1303.000000	99.374252
1302.000000	99.377897
1301.000000	99.379547
1300.000000	99.377778
1299.000000	99.372427
1298.000000	99.365150
1297.000000	99.358788
1296.000000	99.355478
1295.000000	99.355099
1294.000000	99.355340
1293.000000	99.353437
1292.000000	99.348386
1291.000000	99.341746
1290.000000	99.336181
1289.000000	99.333067
1288.000000	99.331652
1287.000000	99.330139
1286.000000	99.327014
1285.000000	99.321679
1284.000000	99.314812
1283.000000	99.308285
1282.000000	99.303683
1281.000000	99.300589
1280.000000	99.297390
1279.000000	99.294151
1278.000000	99.293166
1277.000000	99.295314
1276.000000	99.297134
1275.000000	99.293727
1274.000000	99.284415
1273.000000	99.273557
1272.000000	99.265389
1271.000000	99.259986
1270.000000	99.255562
1269.000000	99.252844
1268.000000	99.254598
1267.000000	99.260951
1266.000000	99.267197
1265.000000	99.267282
1264.000000	99.259001
1263.000000	99.245781
1262.000000	99.234181
1261.000000	99.229160
1260.000000	99.230126
1259.000000	99.230869
1258.000000	99.224533
1257.000000	99.209664
1256.000000	99.191269
1255.000000	99.175936
1254.000000	99.166348
1253.000000	99.160605
1252.000000	99.155394
1251.000000	99.148199
1250.000000	99.137401
1249.000000	99.122630
1248.000000	99.105583
1247.000000	99.089060
1246.000000	99.074596
1245.000000	99.061952
1244.000000	99.051016
1243.000000	99.042691
1242.000000	99.037333
1241.000000	99.033647
1240.000000	99.029639
1239.000000	99.023369
1238.000000	99.012547
1237.000000	98.995488
1236.000000	98.973771
1235.000000	98.952338
1234.000000	98.934979
1233.000000	98.920482
1232.000000	98.904848
1231.000000	98.886184
1230.000000	98.865291
1229.000000	98.842145
1228.000000	98.814633
1227.000000	98.781671
1226.000000	98.745705
1225.000000	98.710587
1224.000000	98.677384
1223.000000	98.643360
1222.000000	98.605276
1221.000000	98.563182
1220.000000	98.520387
1219.000000	98.479496
1218.000000	98.439121
1217.000000	98.395426
1216.000000	98.346421
1215.000000	98.293348
1214.000000	98.238226
1213.000000	98.181750
1212.000000	98.123670
1211.000000	98.063077
1210.000000	97.997900
1209.000000	97.926869
1208.000000	97.853238
1207.000000	97.783886
1206.000000	97.722564
1205.000000	97.665902
1204.000000	97.607802
1203.000000	97.545657
1202.000000	97.480877
1201.000000	97.415803
1200.000000	97.352137
1199.000000	97.290652
1198.000000	97.230470
1197.000000	97.169855
1196.000000	97.108778
1195.000000	97.048909
1194.000000	96.990199
1193.000000	96.929964
1192.000000	96.866698
1191.000000	96.802153
1190.000000	96.737738
1189.000000	96.671335
1188.000000	96.600212
1187.000000	96.525223
1186.000000	96.449525
1185.000000	96.374331
1184.000000	96.298335
1183.000000	96.220583
1182.000000	96.141961
1181.000000	96.064045
1180.000000	95.987222
1179.000000	95.909282
1178.000000	95.825833
1177.000000	95.733723
1176.000000	95.634256
1175.000000	95.531479
1174.000000	95.427643
1173.000000	95.322734
1172.000000	95.217920
1171.000000	95.115643
1170.000000	95.015930
1169.000000	94.916650
1168.000000	94.818497
1167.000000	94.726201
1166.000000	94.644536
1165.000000	94.577872
1164.000000	94.534154
1163.000000	94.522887
1162.000000	94.545652
1161.000000	94.591604
1160.000000	94.643636
1159.000000	94.685997
1158.000000	94.706538
1157.000000	94.698053
1156.000000	94.660929
1155.000000	94.601916
1154.000000	94.528375
1153.000000	94.445636
1152.000000	94.359569
1151.000000	94.276210
1150.000000	94.196298
1149.000000	94.114820
1148.000000	94.029070
1147.000000	93.943366
1146.000000	93.862968
1145.000000	93.787009
1144.000000	93.710503
1143.000000	93.630269
1142.000000	93.546215
1141.000000	93.459693
1140.000000	93.373241
1139.000000	93.289596
1138.000000	93.208798
1137.000000	93.128306
1136.000000	93.046799
1135.000000	92.965042
1134.000000	92.882509
1133.000000	92.797054
1132.000000	92.709171
1131.000000	92.622871
1130.000000	92.540703
1129.000000	92.460683
1128.000000	92.378983
1127.000000	92.293134
1126.000000	92.202998
1125.000000	92.111629
1124.000000	92.024023
1123.000000	91.941179
1122.000000	91.857104
1121.000000	91.766613
1120.000000	91.674223
1119.000000	91.589357
1118.000000	91.514702
1117.000000	91.445923
1116.000000	91.380123
1115.000000	91.316118
1114.000000	91.248253
1113.000000	91.170182
1112.000000	91.085286
1111.000000	91.004170
1110.000000	90.931009
1109.000000	90.860460
1108.000000	90.787812
1107.000000	90.713319
1106.000000	90.637175
1105.000000	90.560919
1104.000000	90.493684
1103.000000	90.444768
1102.000000	90.407625
1101.000000	90.362392
1100.000000	90.297939
1099.000000	90.222322
1098.000000	90.150138
1097.000000	90.090055
1096.000000	90.045605
1095.000000	90.014919
1094.000000	89.985315
1093.000000	89.939932
1092.000000	89.875259
1091.000000	89.803793
1090.000000	89.737115
1089.000000	89.676193
1088.000000	89.620387
1087.000000	89.573220
1086.000000	89.533851
1085.000000	89.493593
1084.000000	89.446919
1083.000000	89.397841
1082.000000	89.351678
1081.000000	89.308898
1080.000000	89.270051
1079.000000	89.237645
1078.000000	89.209933
1077.000000	89.181316
1076.000000	89.150653
1075.000000	89.119716
1074.000000	89.082152
1073.000000	89.024680
1072.000000	88.941390
1071.000000	88.837307
1070.000000	88.716985
1069.000000	88.580427
1068.000000	88.432176
1067.000000	88.282282
1066.000000	88.133856
1065.000000	87.979970
1064.000000	87.816692
1063.000000	87.649395
1062.000000	87.483992
1061.000000	87.322824
1060.000000	87.171347
1059.000000	87.036677
1058.000000	86.916492
1057.000000	86.800839
1056.000000	86.686277
1055.000000	86.575315
1054.000000	86.461116
1053.000000	86.329203
1052.000000	86.179066
1051.000000	86.027416
1050.000000	85.882367
1049.000000	85.731577
1048.000000	85.564891
1047.000000	85.391068
1046.000000	85.222838
1045.000000	85.061008
1044.000000	84.901315
1043.000000	84.743526
1042.000000	84.586521
1041.000000	84.425538
1040.000000	84.260771
1039.000000	84.099774
1038.000000	83.947765
1037.000000	83.805235
1036.000000	83.676454
1035.000000	83.568153
1034.000000	83.478071
1033.000000	83.397372
1032.000000	83.325236
1031.000000	83.267355
1030.000000	83.220117
1029.000000	83.172494
1028.000000	83.125150
1027.000000	83.090951
1026.000000	83.073943
1025.000000	83.063927
1024.000000	83.053642
1023.000000	83.044137
1022.000000	83.030698
1021.000000	83.002135
1020.000000	82.959256
1019.000000	82.917056
1018.000000	82.882921
1017.000000	82.848431
1016.000000	82.807861
1015.000000	82.768710
1014.000000	82.737537
1013.000000	82.710239
1012.000000	82.682912
1011.000000	82.659174
1010.000000	82.641049
1009.000000	82.624688
1008.000000	82.609502
1007.000000	82.599882
1006.000000	82.595392
1005.000000	82.592156
1004.000000	82.595518
1003.000000	82.616749
1002.000000	82.654768
1001.000000	82.695646
1000.000000	82.732848
999.000000	82.773275
998.000000	82.820870
997.000000	82.870405
996.000000	82.921258
995.000000	82.981334
994.000000	83.051999
993.000000	83.123608
992.000000	83.191364
991.000000	83.262351
990.000000	83.341931
989.000000	83.426418
988.000000	83.514059
987.000000	83.610110
986.000000	83.715269
985.000000	83.821053
984.000000	83.922860
983.000000	84.027897
982.000000	84.145188
981.000000	84.276493
980.000000	84.419950
979.000000	84.573412
978.000000	84.731717
977.000000	84.889771
976.000000	85.050820
975.000000	85.223864
974.000000	85.412105
973.000000	85.611064
972.000000	85.815864
971.000000	86.021263
970.000000	86.218042
969.000000	86.401658
968.000000	86.582861
967.000000	86.777414
966.000000	86.985410
965.000000	87.191705
964.000000	87.385652
963.000000	87.568565
962.000000	87.743319
961.000000	87.910136
960.000000	88.073539
959.000000	88.240642
958.000000	88.409923
957.000000	88.572142
956.000000	88.723533
955.000000	88.867590
954.000000	89.003776
953.000000	89.126579
952.000000	89.237691
951.000000	89.347580
950.000000	89.461400
949.000000	89.572974
948.000000	89.675655
947.000000	89.769849
946.000000	89.857256
945.000000	89.936743
944.000000	90.009321
943.000000	90.079774
942.000000	90.150489
941.000000	90.219354
940.000000	90.284371
939.000000	90.344279
938.000000	90.396021
937.000000	90.439427
936.000000	90.483011
935.000000	90.536289
934.000000	90.597688
933.000000	90.659585
932.000000	90.722925
931.000000	90.794606
930.000000	90.871177
929.000000	90.938936
928.000000	90.992600
927.000000	91.041760
926.000000	91.095642
925.000000	91.152336
924.000000	91.206209
923.000000	91.254800
922.000000	91.294522
921.000000	91.320296
920.000000	91.334475
919.000000	91.347182
918.000000	91.363574
917.000000	91.379669
916.000000	91.394721
915.000000	91.417986
914.000000	91.457765
913.000000	91.512404
912.000000	91.577892
911.000000	91.656952
910.000000	91.754676
909.000000	91.870891
908.000000	92.001264
907.000000	92.140815
906.000000	92.283781
905.000000	92.426174
904.000000	92.571076
903.000000	92.725647
902.000000	92.890779
901.000000	93.059029
900.000000	93.223826
899.000000	93.384426
898.000000	93.540775
897.000000	93.690505
896.000000	93.833242
895.000000	93.971976
894.000000	94.107789
893.000000	94.237947
892.000000	94.360849
891.000000	94.478394
890.000000	94.592049
889.000000	94.700546
888.000000	94.802564
887.000000	94.898499
886.000000	94.990175
885.000000	95.082559
884.000000	95.183762
883.000000	95.296909
882.000000	95.412141
881.000000	95.513262
880.000000	95.593605
879.000000	95.661181
878.000000	95.729117
877.000000	95.806273
876.000000	95.896265
875.000000	95.997632
874.000000	96.102385
873.000000	96.200126
872.000000	96.286378
871.000000	96.364774
870.000000	96.441928
869.000000	96.523143
868.000000	96.611225
867.000000	96.704805
866.000000	96.798726
865.000000	96.889419
864.000000	96.977655
863.000000	97.063061
862.000000	97.140861
861.000000	97.210102
860.000000	97.280556
859.000000	97.362701
858.000000	97.452503
857.000000	97.534914
856.000000	97.601896
855.000000	97.658967
854.000000	97.714269
853.000000	97.769588
852.000000	97.823697
851.000000	97.876047
850.000000	97.923379
849.000000	97.959162
848.000000	97.980889
847.000000	97.994543
846.000000	98.009338
845.000000	98.030384
844.000000	98.056643
843.000000	98.081791
842.000000	98.096445
841.000000	98.094262
840.000000	98.077763
839.000000	98.055665
838.000000	98.034238
837.000000	98.013721
836.000000	97.991756
835.000000	97.966284
834.000000	97.936717
833.000000	97.907609
832.000000	97.889526
831.000000	97.889138
830.000000	97.898575
829.000000	97.902578
828.000000	97.897749
827.000000	97.896812
826.000000	97.911208
825.000000	97.937549
824.000000	97.964810
823.000000	97.985756
822.000000	97.996183
821.000000	97.991387
820.000000	97.969575
819.000000	97.933683
818.000000	97.885683
817.000000	97.822524
816.000000	97.739916
815.000000	97.636673
814.000000	97.513080
813.000000	97.367199
812.000000	97.193487
811.000000	96.982279
810.000000	96.721210
809.000000	96.401857
808.000000	96.026121
807.000000	95.603351
806.000000	95.143589
805.000000	94.660888
804.000000	94.182024
803.000000	93.739763
802.000000	93.352438
801.000000	93.019337
800.000000	92.739929
799.000000	92.526212
798.000000	92.390310
797.000000	92.330467
796.000000	92.334662
795.000000	92.387930
794.000000	92.472049
793.000000	92.569334
792.000000	92.671919
791.000000	92.777840
790.000000	92.874610
789.000000	92.937745
788.000000	92.950665
787.000000	92.916318
786.000000	92.844264
785.000000	92.736406
784.000000	92.592539
783.000000	92.421725
782.000000	92.240479
781.000000	92.066120
780.000000	91.918024
779.000000	91.817628
778.000000	91.778849
777.000000	91.802307
776.000000	91.881861
775.000000	92.008885
774.000000	92.166911
773.000000	92.332908
772.000000	92.491813
771.000000	92.644264
770.000000	92.795523
769.000000	92.943593
768.000000	93.083000
767.000000	93.212703
766.000000	93.333528
765.000000	93.442955
764.000000	93.538601
763.000000	93.623315
762.000000	93.702568
761.000000	93.780908
760.000000	93.863930
759.000000	93.956923
758.000000	94.055959
757.000000	94.146307
756.000000	94.217125
755.000000	94.274989
754.000000	94.337241
753.000000	94.414234
752.000000	94.502720
751.000000	94.593037
750.000000	94.676863
749.000000	94.750624
748.000000	94.818029
747.000000	94.888877
746.000000	94.969907
745.000000	95.056702
744.000000	95.139864
743.000000	95.219627
742.000000	95.307970
741.000000	95.412753
740.000000	95.524630
739.000000	95.625671
738.000000	95.709365
737.000000	95.785976
736.000000	95.866987
735.000000	95.950504
734.000000	96.026416
733.000000	96.090194
732.000000	96.143822
731.000000	96.186483
730.000000	96.215445
729.000000	96.238295
728.000000	96.273317
727.000000	96.329893
726.000000	96.394081
725.000000	96.441156
724.000000	96.460603
723.000000	96.464729
722.000000	96.477018
721.000000	96.516235
720.000000	96.584219
719.000000	96.661909
718.000000	96.723772
717.000000	96.761881
716.000000	96.792585
715.000000	96.837282
714.000000	96.898235
713.000000	96.956268
712.000000	96.989277
711.000000	96.987674
710.000000	96.956966
709.000000	96.915037
708.000000	96.884640
707.000000	96.877696
706.000000	96.882815
705.000000	96.872866
704.000000	96.825880
703.000000	96.735296
702.000000	96.602909
701.000000	96.430062
700.000000	96.217335
699.000000	95.968263
698.000000	95.694731
697.000000	95.424214
696.000000	95.198452
695.000000	95.055818
694.000000	95.013022
693.000000	95.065523
692.000000	95.199085
691.000000	95.392655
690.000000	95.613978
689.000000	95.825154
688.000000	96.000157
687.000000	96.135355
686.000000	96.242477
685.000000	96.336163
684.000000	96.426063
683.000000	96.511571
682.000000	96.583139
681.000000	96.634564
680.000000	96.673642
679.000000	96.716261
678.000000	96.773544
677.000000	96.849744
676.000000	96.944906
675.000000	97.051286
674.000000	97.151414
673.000000	97.230365
672.000000	97.289228
671.000000	97.336228
670.000000	97.368973
669.000000	97.377694
668.000000	97.397663
667.000000	97.478983
666.000000	97.579814
665.000000	97.657397
664.000000	97.706852
663.000000	97.735371
662.000000	97.757047
661.000000	97.780081
660.000000	97.804190
659.000000	97.827355
658.000000	97.847422
657.000000	97.859540
656.000000	97.860096
655.000000	97.853558
654.000000	97.851176
653.000000	97.862585
652.000000	97.888728
651.000000	97.919341
650.000000	97.940297
