4000.000000	100.548362
3999.000000	100.547643
3998.000000	100.546997
3997.000000	100.545923
3996.000000	100.544646
3995.000000	100.543805
3994.000000	100.544039
3993.000000	100.545830
3992.000000	100.549322
3991.000000	100.553777
3990.000000	100.557264
3989.000000	100.557686
3988.000000	100.554597
3987.000000	100.550001
3986.000000	100.547045
3985.000000	100.547355
3984.000000	100.549768
3983.000000	100.551761
3982.000000	100.551692
3981.000000	100.549661
3980.000000	100.546960
3979.000000	100.545116
3978.000000	100.545085
3977.000000	100.546661
3976.000000	100.548478
3975.000000	100.549012
3974.000000	100.547730
3973.000000	100.545208
3972.000000	100.542271
3971.000000	100.539113
3970.000000	100.535356
3969.000000	100.530902
3968.000000	100.526383
3967.000000	100.522641
3966.000000	100.520046
3965.000000	100.518499
3964.000000	100.517981
3963.000000	100.518828
3962.000000	100.521206
3961.000000	100.524468
3960.000000	100.527272
3959.000000	100.528347
3958.000000	100.527146
3957.000000	100.524010
3956.000000	100.520053
3955.000000	100.516729
3954.000000	100.515168
3953.000000	100.515675
3952.000000	100.517747
3951.000000	100.520446
3950.000000	100.522751
3949.000000	100.523713
3948.000000	100.522632
3947.000000	100.519381
3946.000000	100.514596
3945.000000	100.509648
3944.000000	100.506134
3943.000000	100.505064
3942.000000	100.506487
3941.000000	100.509638
3940.000000	100.513378
3939.000000	100.516695
3938.000000	100.519042
3937.000000	100.520424
3936.000000	100.521183
3935.000000	100.521439
3934.000000	100.520706
3933.000000	100.518412
3932.000000	100.514999
3931.000000	100.512275
3930.000000	100.511968
3929.000000	100.514162
3928.000000	100.517265
3927.000000	100.519369
3926.000000	100.519608
3925.000000	100.518340
3924.000000	100.516711
3923.000000	100.516041
3922.000000	100.517127
3921.000000	100.519754
3920.000000	100.522849
3919.000000	100.525364
3918.000000	100.527032
3917.000000	100.528246
3916.000000	100.529426
3915.000000	100.530745
3914.000000	100.532138
3913.000000	100.533346
3912.000000	100.534028
3911.000000	100.534073
3910.000000	100.533807
3909.000000	100.533797
3908.000000	100.534604
3907.000000	100.536723
3906.000000	100.540540
3905.000000	100.545765
3904.000000	100.550809
3903.000000	100.553565
3902.000000	100.553061
3901.000000	100.549971
3900.000000	100.545963
3899.000000	100.542690
3898.000000	100.541046
3897.000000	100.541076
3896.000000	100.542155
3895.000000	100.543469
3894.000000	100.544677
3893.000000	100.546145
3892.000000	100.548102
3891.000000	100.549782
3890.000000	100.550203
3889.000000	100.549395
3888.000000	100.548524
3887.000000	100.548781
3886.000000	100.549814
3885.000000	100.549983
3884.000000	100.548530
3883.000000	100.546445
3882.000000	100.545253
3881.000000	100.545263
3880.000000	100.545257
3879.000000	100.544042
3878.000000	100.541787
3877.000000	100.539796
3876.000000	100.539462
3875.000000	100.541096
3874.000000	100.543394
3873.000000	100.544560
3872.000000	100.544173
3871.000000	100.543206
3870.000000	100.542162
3869.000000	100.540408
3868.000000	100.537774
3867.000000	100.535378
3866.000000	100.534260
3865.000000	100.533869
3864.000000	100.532815
3863.000000	100.531179
3862.000000	100.530523
3861.000000	100.531965
3860.000000	100.535350
3859.000000	100.539545
3858.000000	100.543078
3857.000000	100.544436
3856.000000	100.542891
3855.000000	100.540063
3854.000000	100.537988
3853.000000	100.536060
3852.000000	100.533378
3851.000000	100.530436
3850.000000	100.527537
3849.000000	100.524093
3848.000000	100.519717
3847.000000	100.515553
3846.000000	100.513619
3845.000000	100.515065
3844.000000	100.519191
3843.000000	100.524077
3842.000000	100.528276
3841.000000	100.531571
3840.000000	100.533812
3839.000000	100.533955
3838.000000	100.531299
3837.000000	100.526748
3836.000000	100.522037
3835.000000	100.518280
3834.000000	100.515987
3833.000000	100.515570
3832.000000	100.516879
3831.000000	100.519025
3830.000000	100.520953
3829.000000	100.522154
3828.000000	100.522934
3827.000000	100.523901
3826.000000	100.525343
3825.000000	100.527398
3824.000000	100.530415
3823.000000	100.534752
3822.000000	100.539171
3821.000000	100.540212
3820.000000	100.536161
3819.000000	100.528981
3818.000000	100.522598
3817.000000	100.519858
3816.000000	100.520107
3815.000000	100.520555
3814.000000	100.520281
3813.000000	100.520916
3812.000000	100.523838
3811.000000	100.528443
3810.000000	100.532825
3809.000000	100.535852
3808.000000	100.537732
3807.000000	100.538413
3806.000000	100.537072
3805.000000	100.533523
3804.000000	100.529189
3803.000000	100.526807
3802.000000	100.527439
3801.000000	100.528398
3800.000000	100.526792
3799.000000	100.522822
3798.000000	100.518859
3797.000000	100.516871
3796.000000	100.516910
3795.000000	100.517873
3794.000000	100.518942
3793.000000	100.519904
3792.000000	100.520778
3791.000000	100.521831
3790.000000	100.523477
3789.000000	100.525525
3788.000000	100.526725
3787.000000	100.525663
3786.000000	100.522247
3785.000000	100.517966
3784.000000	100.514438
3783.000000	100.512334
3782.000000	100.511534
3781.000000	100.511511
3780.000000	100.510888
3779.000000	100.507678
3778.000000	100.501596
3777.000000	100.495576
3776.000000	100.493572
3775.000000	100.496956
3774.000000	100.503001
3773.000000	100.507239
3772.000000	100.507759
3771.000000	100.506138
3770.000000	100.504750
3769.000000	100.504455
3768.000000	100.504786
3767.000000	100.505570
3766.000000	100.507390
3765.000000	100.510291
3764.000000	100.513261
3763.000000	100.515602
3762.000000	100.517634
3761.000000	100.519591
3760.000000	100.520867
3759.000000	100.521239
3758.000000	100.521231
3757.000000	100.520919
3756.000000	100.520563
3755.000000	100.521803
3754.000000	100.526593
3753.000000	100.534170
3752.000000	100.540945
3751.000000	100.545385
3750.000000	100.550061
3749.000000	100.556154
3748.000000	100.560334
3747.000000	100.559397
3746.000000	100.555530
3745.000000	100.550576
3744.000000	100.540489
3743.000000	100.525570
3742.000000	100.513345
3741.000000	100.508976
3740.000000	100.510605
3739.000000	100.512905
3738.000000	100.513943
3737.000000	100.515578
3736.000000	100.517481
3735.000000	100.516621
3734.000000	100.513731
3733.000000	100.513193
3732.000000	100.515724
3731.000000	100.516739
3730.000000	100.511941
3729.000000	100.501687
3728.000000	100.490057
3727.000000	100.480243
3726.000000	100.472321
3725.000000	100.466036
3724.000000	100.462387
3723.000000	100.461362
3722.000000	100.460160
3721.000000	100.455450
3720.000000	100.447156
3719.000000	100.439349
3718.000000	100.436511
3717.000000	100.439427
3716.000000	100.445512
3715.000000	100.451897
3714.000000	100.457169
3713.000000	100.460913
3712.000000	100.462539
3711.000000	100.461212
3710.000000	100.456670
3709.000000	100.449302
3708.000000	100.439903
3707.000000	100.429334
3706.000000	100.418363
3705.000000	100.407619
3704.000000	100.397696
3703.000000	100.389437
3702.000000	100.383906
3701.000000	100.381753
3700.000000	100.382493
3699.000000	100.384797
3698.000000	100.386910
3697.000000	100.386512
3696.000000	100.382062
3695.000000	100.375290
3694.000000	100.370572
3693.000000	100.371110
3692.000000	100.376171
3691.000000	100.382324
3690.000000	100.386836
3689.000000	100.388833
3688.000000	100.387932
3687.000000	100.383414
3686.000000	100.375631
3685.000000	100.366556
3684.000000	100.358186
3683.000000	100.351270
3682.000000	100.346598
3681.000000	100.345769
3680.000000	100.348855
3679.000000	100.353077
3678.000000	100.356051
3677.000000	100.359267
3676.000000	100.362437
3675.000000	100.359988
3674.000000	100.349432
3673.000000	100.334802
3672.000000	100.322832
3671.000000	100.317681
3670.000000	100.315838
3669.000000	100.310245
3668.000000	100.298838
3667.000000	100.284610
3666.000000	100.271370
3665.000000	100.261421
3664.000000	100.255337
3663.000000	100.252285
3662.000000	100.250267
3661.000000	100.246778
3660.000000	100.240641
3659.000000	100.233434
3658.000000	100.228817
3657.000000	100.228601
3656.000000	100.229711
3655.000000	100.228275
3654.000000	100.224480
3653.000000	100.221176
3652.000000	100.219996
3651.000000	100.219355
3650.000000	100.216041
3649.000000	100.209842
3648.000000	100.203495
3647.000000	100.197920
3646.000000	100.191794
3645.000000	100.184554
3644.000000	100.177123
3643.000000	100.170318
3642.000000	100.163879
3641.000000	100.157620
3640.000000	100.153029
3639.000000	100.151862
3638.000000	100.153537
3637.000000	100.155682
3636.000000	100.157381
3635.000000	100.159949
3634.000000	100.163746
3633.000000	100.166638
3632.000000	100.166294
3631.000000	100.163916
3630.000000	100.163096
3629.000000	100.161923
3628.000000	100.155521
3627.000000	100.145368
3626.000000	100.136461
3625.000000	100.130695
3624.000000	100.126338
3623.000000	100.121667
3622.000000	100.117968
3621.000000	100.117878
3620.000000	100.121232
3619.000000	100.124369
3618.000000	100.124411
3617.000000	100.122107
3616.000000	100.120461
3615.000000	100.122332
3614.000000	100.128048
3613.000000	100.134757
3612.000000	100.139373
3611.000000	100.142211
3610.000000	100.146696
3609.000000	100.154911
3608.000000	100.164302
3607.000000	100.170336
3606.000000	100.171481
3605.000000	100.169758
3604.000000	100.168132
3603.000000	100.168797
3602.000000	100.173067
3601.000000	100.180887
3600.000000	100.190433
3599.000000	100.199255
3598.000000	100.205785
3597.000000	100.209775
3596.000000	100.211727
3595.000000	100.211857
3594.000000	100.209894
3593.000000	100.206286
3592.000000	100.202570
3591.000000	100.200499
3590.000000	100.201306
3589.000000	100.205244
3588.000000	100.211070
3587.000000	100.216890
3586.000000	100.221819
3585.000000	100.225337
3584.000000	100.225987
3583.000000	100.222279
3582.000000	100.214771
3581.000000	100.206829
3580.000000	100.202565
3579.000000	100.203607
3578.000000	100.208152
3577.000000	100.212641
3576.000000	100.214638
3575.000000	100.214307
3574.000000	100.213376
3573.000000	100.213101
3572.000000	100.213214
3571.000000	100.212614
3570.000000	100.210963
3569.000000	100.209556
3568.000000	100.210219
3567.000000	100.213282
3566.000000	100.217325
3565.000000	100.220812
3564.000000	100.223202
3563.000000	100.224587
3562.000000	100.225047
3561.000000	100.224561
3560.000000	100.223267
3559.000000	100.221611
3558.000000	100.220181
3557.000000	100.219412
3556.000000	100.219481
3555.000000	100.220406
3554.000000	100.222067
3553.000000	100.224108
3552.000000	100.225974
3551.000000	100.227225
3550.000000	100.227796
3549.000000	100.227968
3548.000000	100.228162
3547.000000	100.228686
3546.000000	100.229553
3545.000000	100.230538
3544.000000	100.231452
3543.000000	100.232317
3542.000000	100.233260
3541.000000	100.234321
3540.000000	100.235382
3539.000000	100.236277
3538.000000	100.236966
3537.000000	100.237626
3536.000000	100.238529
3535.000000	100.239783
3534.000000	100.241284
3533.000000	100.242766
3532.000000	100.243937
3531.000000	100.244738
3530.000000	100.245349
3529.000000	100.246039
3528.000000	100.246890
3527.000000	100.247780
3526.000000	100.248583
3525.000000	100.249302
3524.000000	100.250032
3523.000000	100.250841
3522.000000	100.251732
3521.000000	100.252663
3520.000000	100.253603
3519.000000	100.254540
3518.000000	100.255460
3517.000000	100.256340
3516.000000	100.257168
3515.000000	100.257951
3514.000000	100.258710
3513.000000	100.259448
3512.000000	100.260157
3511.000000	100.260836
3510.000000	100.261490
3509.000000	100.262125
3508.000000	100.262743
3507.000000	100.263345
3506.000000	100.263930
3505.000000	100.264497
3504.000000	100.265050
3503.000000	100.265589
3502.000000	100.266116
3501.000000	100.266623
3500.000000	100.267100
3499.000000	100.267542
3498.000000	100.267956
3497.000000	100.268364
3496.000000	100.268787
3495.000000	100.269235
3494.000000	100.269701
3493.000000	100.270172
3492.000000	100.270642
3491.000000	100.271114
3490.000000	100.271595
3489.000000	100.272087
3488.000000	100.272584
3487.000000	100.273070
3486.000000	100.273536
3485.000000	100.273984
3484.000000	100.274424
3483.000000	100.274864
3482.000000	100.275302
3481.000000	100.275732
3480.000000	100.276144
3479.000000	100.276538
3478.000000	100.276922
3477.000000	100.277307
3476.000000	100.277701
3475.000000	100.278104
3474.000000	100.278509
3473.000000	100.278905
3472.000000	100.279284
3471.000000	100.279651
3470.000000	100.280017
3469.000000	100.280398
3468.000000	100.280804
3467.000000	100.281236
3466.000000	100.281691
3465.000000	100.282167
3464.000000	100.282661
3463.000000	100.283173
3462.000000	100.283698
3461.000000	100.284225
3460.000000	100.284746
3459.000000	100.285257
3458.000000	100.285764
3457.000000	100.286280
3456.000000	100.286819
3455.000000	100.287379
3454.000000	100.287944
3453.000000	100.288490
3452.000000	100.289001
3451.000000	100.289474
3450.000000	100.289921
3449.000000	100.290358
3448.000000	100.290799
3447.000000	100.291243
3446.000000	100.291686
3445.000000	100.292120
3444.000000	100.292547
3443.000000	100.292971
3442.000000	100.293399
3441.000000	100.293834
3440.000000	100.294280
3439.000000	100.294749
3438.000000	100.295253
3437.000000	100.295791
3436.000000	100.296321
3435.000000	100.296767
3434.000000	100.297073
3433.000000	100.297267
3432.000000	100.297431
3431.000000	100.297600
3430.000000	100.297765
3429.000000	100.298014
3428.000000	100.298547
3427.000000	100.299453
3426.000000	100.300543
3425.000000	100.301522
3424.000000	100.302291
3423.000000	100.302888
3422.000000	100.303242
3421.000000	100.303212
3420.000000	100.302948
3419.000000	100.303004
3418.000000	100.303853
3417.000000	100.305359
3416.000000	100.306843
3415.000000	100.307750
3414.000000	100.308116
3413.000000	100.308324
3412.000000	100.308572
3411.000000	100.308756
3410.000000	100.308818
3409.000000	100.308897
3408.000000	100.308995
3407.000000	100.308665
3406.000000	100.307398
3405.000000	100.305411
3404.000000	100.303850
3403.000000	100.303889
3402.000000	100.305764
3401.000000	100.308630
3400.000000	100.311297
3399.000000	100.313231
3398.000000	100.314719
3397.000000	100.316122
3396.000000	100.317017
3395.000000	100.316360
3394.000000	100.313651
3393.000000	100.309800
3392.000000	100.306701
3391.000000	100.305495
3390.000000	100.305743
3389.000000	100.306343
3388.000000	100.306999
3387.000000	100.308360
3386.000000	100.310752
3385.000000	100.313348
3384.000000	100.314845
3383.000000	100.314763
3382.000000	100.313817
3381.000000	100.313230
3380.000000	100.313715
3379.000000	100.315003
3378.000000	100.316101
3377.000000	100.316122
3376.000000	100.315089
3375.000000	100.313968
3374.000000	100.313740
3373.000000	100.314472
3372.000000	100.315368
3371.000000	100.315677
3370.000000	100.315403
3369.000000	100.315103
3368.000000	100.315166
3367.000000	100.315417
3366.000000	100.315403
3365.000000	100.314911
3364.000000	100.314142
3363.000000	100.313387
3362.000000	100.312653
3361.000000	100.311709
3360.000000	100.310538
3359.000000	100.309588
3358.000000	100.309361
3357.000000	100.309837
3356.000000	100.310475
3355.000000	100.310824
3354.000000	100.310898
3353.000000	100.310920
3352.000000	100.311027
3351.000000	100.311409
3350.000000	100.312490
3349.000000	100.314563
3348.000000	100.317227
3347.000000	100.319492
3346.000000	100.320519
3345.000000	100.319998
3344.000000	100.317985
3343.000000	100.314798
3342.000000	100.311190
3341.000000	100.308258
3340.000000	100.306786
3339.000000	100.306769
3338.000000	100.307746
3337.000000	100.309243
3336.000000	100.310710
3335.000000	100.311371
3334.000000	100.310678
3333.000000	100.308950
3332.000000	100.307261
3331.000000	100.306498
3330.000000	100.306710
3329.000000	100.307476
3328.000000	100.308556
3327.000000	100.309972
3326.000000	100.311587
3325.000000	100.312880
3324.000000	100.313181
3323.000000	100.312119
3322.000000	100.309936
3321.000000	100.307525
3320.000000	100.305944
3319.000000	100.305638
3318.000000	100.306245
3317.000000	100.307093
3316.000000	100.307860
3315.000000	100.308618
3314.000000	100.309333
3313.000000	100.309668
3312.000000	100.309343
3311.000000	100.308492
3310.000000	100.307547
3309.000000	100.306852
3308.000000	100.306447
3307.000000	100.306103
3306.000000	100.305505
3305.000000	100.304516
3304.000000	100.303340
3303.000000	100.302423
3302.000000	100.302110
3301.000000	100.302403
3300.000000	100.302994
3299.000000	100.303448
3298.000000	100.303462
3297.000000	100.303002
3296.000000	100.302287
3295.000000	100.301622
3294.000000	100.301156
3293.000000	100.300781
3292.000000	100.300302
3291.000000	100.299686
3290.000000	100.299117
3289.000000	100.298788
3288.000000	100.298728
3287.000000	100.298803
3286.000000	100.298857
3285.000000	100.298812
3284.000000	100.298663
3283.000000	100.298448
3282.000000	100.298221
3281.000000	100.298037
3280.000000	100.297919
3279.000000	100.297838
3278.000000	100.297730
3277.000000	100.297565
3276.000000	100.297372
3275.000000	100.297210
3274.000000	100.297119
3273.000000	100.297095
3272.000000	100.297102
3271.000000	100.297107
3270.000000	100.297097
3269.000000	100.297077
3268.000000	100.297055
3267.000000	100.297036
3266.000000	100.297022
3265.000000	100.297015
3264.000000	100.297020
3263.000000	100.297042
3262.000000	100.297075
3261.000000	100.297111
3260.000000	100.297135
3259.000000	100.297142
3258.000000	100.297135
3257.000000	100.297127
3256.000000	100.297129
3255.000000	100.297145
3254.000000	100.297169
3253.000000	100.297189
3252.000000	100.297197
3251.000000	100.297191
3250.000000	100.297183
3249.000000	100.297185
3248.000000	100.297201
3247.000000	100.297220
3246.000000	100.297227
3245.000000	100.297210
3244.000000	100.297165
3243.000000	100.297096
3242.000000	100.297010
3241.000000	100.296912
3240.000000	100.296806
3239.000000	100.296692
3238.000000	100.296569
3237.000000	100.296442
3236.000000	100.296320
3235.000000	100.296213
3234.000000	100.296125
3233.000000	100.296048
3232.000000	100.295959
3231.000000	100.295835
3230.000000	100.295663
3229.000000	100.295459
3228.000000	100.295253
3227.000000	100.295061
3226.000000	100.294855
3225.000000	100.294615
3224.000000	100.294386
3223.000000	100.294240
3222.000000	100.294206
3221.000000	100.294279
3220.000000	100.294406
3219.000000	100.294427
3218.000000	100.294155
3217.000000	100.293579
3216.000000	100.292926
3215.000000	100.292445
3214.000000	100.292182
3213.000000	100.292016
3212.000000	100.291834
3211.000000	100.291654
3210.000000	100.291598
3209.000000	100.291778
3208.000000	100.292121
3207.000000	100.292318
3206.000000	100.292059
3205.000000	100.291408
3204.000000	100.290862
3203.000000	100.290906
3202.000000	100.291589
3201.000000	100.292525
3200.000000	100.293240
3199.000000	100.293521
3198.000000	100.293474
3197.000000	100.293376
3196.000000	100.293449
3195.000000	100.293711
3194.000000	100.294010
3193.000000	100.294163
3192.000000	100.294030
3191.000000	100.293528
3190.000000	100.292684
3189.000000	100.291712
3188.000000	100.290949
3187.000000	100.290615
3186.000000	100.290732
3185.000000	100.291282
3184.000000	100.292313
3183.000000	100.293761
3182.000000	100.295252
3181.000000	100.296235
3180.000000	100.296412
3179.000000	100.295919
3178.000000	100.295234
3177.000000	100.294860
3176.000000	100.294978
3175.000000	100.295402
3174.000000	100.295750
3173.000000	100.295786
3172.000000	100.295643
3171.000000	100.295670
3170.000000	100.296037
3169.000000	100.296523
3168.000000	100.296730
3167.000000	100.296517
3166.000000	100.296129
3165.000000	100.295929
3164.000000	100.295991
3163.000000	100.295996
3162.000000	100.295544
3161.000000	100.294642
3160.000000	100.293810
3159.000000	100.293545
3158.000000	100.293839
3157.000000	100.294352
3156.000000	100.294868
3155.000000	100.295306
3154.000000	100.295533
3153.000000	100.295557
3152.000000	100.295805
3151.000000	100.296722
3150.000000	100.298041
3149.000000	100.298916
3148.000000	100.299021
3147.000000	100.299027
3146.000000	100.299664
3145.000000	100.300639
3144.000000	100.301029
3143.000000	100.300451
3142.000000	100.299328
3141.000000	100.298296
3140.000000	100.297817
3139.000000	100.298171
3138.000000	100.299278
3137.000000	100.300463
3136.000000	100.300965
3135.000000	100.300721
3134.000000	100.300219
3133.000000	100.299715
3132.000000	100.299097
3131.000000	100.298552
3130.000000	100.298699
3129.000000	100.299773
3128.000000	100.301156
3127.000000	100.301965
3126.000000	100.301825
3125.000000	100.300839
3124.000000	100.299226
3123.000000	100.297433
3122.000000	100.296436
3121.000000	100.297359
3120.000000	100.300664
3119.000000	100.305755
3118.000000	100.311160
3117.000000	100.315239
3116.000000	100.317173
3115.000000	100.317335
3114.000000	100.316842
3113.000000	100.316638
3112.000000	100.316930
3111.000000	100.317483
3110.000000	100.318099
3109.000000	100.318703
3108.000000	100.319236
3107.000000	100.319685
3106.000000	100.320094
3105.000000	100.320465
3104.000000	100.320798
3103.000000	100.321326
3102.000000	100.322455
3101.000000	100.324270
3100.000000	100.326188
3099.000000	100.327367
3098.000000	100.327530
3097.000000	100.327108
3096.000000	100.326806
3095.000000	100.327008
3094.000000	100.327668
3093.000000	100.328598
3092.000000	100.329638
3091.000000	100.330681
3090.000000	100.331668
3089.000000	100.332601
3088.000000	100.333499
3087.000000	100.334339
3086.000000	100.335085
3085.000000	100.335750
3084.000000	100.336393
3083.000000	100.337049
3082.000000	100.337705
3081.000000	100.338330
3080.000000	100.338914
3079.000000	100.339447
3078.000000	100.339923
3077.000000	100.340350
3076.000000	100.340750
3075.000000	100.341148
3074.000000	100.341558
3073.000000	100.341984
3072.000000	100.342417
3071.000000	100.342851
3070.000000	100.343283
3069.000000	100.343714
3068.000000	100.344145
3067.000000	100.344577
3066.000000	100.345012
3065.000000	100.345446
3064.000000	100.345878
3063.000000	100.346304
3062.000000	100.346721
3061.000000	100.347127
3060.000000	100.347519
3059.000000	100.347897
3058.000000	100.348267
3057.000000	100.348636
3056.000000	100.349014
3055.000000	100.349407
3054.000000	100.349819
3053.000000	100.350257
3052.000000	100.350723
3051.000000	100.351206
3050.000000	100.351699
3049.000000	100.352204
3048.000000	100.352711
3047.000000	100.353195
3046.000000	100.353630
3045.000000	100.354011
3044.000000	100.354363
3043.000000	100.354715
3042.000000	100.355077
3041.000000	100.355419
3040.000000	100.355735
3039.000000	100.356143
3038.000000	100.356855
3037.000000	100.357962
3036.000000	100.359206
3035.000000	100.360131
3034.000000	100.360625
3033.000000	100.361099
3032.000000	100.362038
3031.000000	100.363382
3030.000000	100.364532
3029.000000	100.364970
3028.000000	100.364720
3027.000000	100.364301
3026.000000	100.364348
3025.000000	100.365216
3024.000000	100.366775
3023.000000	100.368402
3022.000000	100.369372
3021.000000	100.369490
3020.000000	100.369444
3019.000000	100.370306
3018.000000	100.372475
3017.000000	100.375266
3016.000000	100.377636
3015.000000	100.379018
3014.000000	100.379376
3013.000000	100.378984
3012.000000	100.378525
3011.000000	100.379009
3010.000000	100.381122
3009.000000	100.384660
3008.000000	100.388702
3007.000000	100.392129
3006.000000	100.393923
3005.000000	100.393507
3004.000000	100.391369
3003.000000	100.389137
3002.000000	100.388314
3001.000000	100.388812
3000.000000	100.389226
2999.000000	100.388894
2998.000000	100.389409
2997.000000	100.393481
2996.000000	100.402062
2995.000000	100.412596
2994.000000	100.420507
2993.000000	100.422864
2992.000000	100.420574
2991.000000	100.417138
2990.000000	100.415515
2989.000000	100.416501
2988.000000	100.419738
2987.000000	100.425057
2986.000000	100.432266
2985.000000	100.440513
2984.000000	100.448864
2983.000000	100.457191
2982.000000	100.465648
2981.000000	100.473542
2980.000000	100.479637
2979.000000	100.483405
2978.000000	100.484889
2977.000000	100.483412
2976.000000	100.478055
2975.000000	100.470155
2974.000000	100.463796
2973.000000	100.462245
2972.000000	100.464386
2971.000000	100.465934
2970.000000	100.463859
2969.000000	100.458415
2968.000000	100.451280
2967.000000	100.443477
2966.000000	100.435946
2965.000000	100.430758
2964.000000	100.429939
2963.000000	100.432874
2962.000000	100.435821
2961.000000	100.434728
2960.000000	100.428612
2959.000000	100.420243
2958.000000	100.413769
2957.000000	100.411515
2956.000000	100.412724
2955.000000	100.414894
2954.000000	100.416170
2953.000000	100.416433
2952.000000	100.416303
2951.000000	100.415776
2950.000000	100.414264
2949.000000	100.411653
2948.000000	100.408618
2947.000000	100.405863
2946.000000	100.403771
2945.000000	100.403088
2944.000000	100.405181
2943.000000	100.410743
2942.000000	100.418296
2941.000000	100.424677
2940.000000	100.427397
2939.000000	100.426470
2938.000000	100.424018
2937.000000	100.422434
2936.000000	100.422711
2935.000000	100.424054
2934.000000	100.424799
2933.000000	100.423861
2932.000000	100.421631
2931.000000	100.419569
2930.000000	100.418893
2929.000000	100.419646
2928.000000	100.420995
2927.000000	100.422120
2926.000000	100.422765
2925.000000	100.423238
2924.000000	100.424126
2923.000000	100.425900
2922.000000	100.428578
2921.000000	100.431703
2920.000000	100.434655
2919.000000	100.436940
2918.000000	100.438290
2917.000000	100.438773
2916.000000	100.438855
2915.000000	100.439122
2914.000000	100.439905
2913.000000	100.441249
2912.000000	100.443159
2911.000000	100.445514
2910.000000	100.447728
2909.000000	100.448984
2908.000000	100.449075
2907.000000	100.448812
2906.000000	100.449341
2905.000000	100.451189
2904.000000	100.454164
2903.000000	100.457732
2902.000000	100.461058
2901.000000	100.463024
2900.000000	100.462954
2899.000000	100.461567
2898.000000	100.460782
2897.000000	100.461955
2896.000000	100.464669
2895.000000	100.467421
2894.000000	100.469139
2893.000000	100.469794
2892.000000	100.469928
2891.000000	100.469947
2890.000000	100.469775
2889.000000	100.468906
2888.000000	100.467002
2887.000000	100.464661
2886.000000	100.463243
2885.000000	100.463557
2884.000000	100.465070
2883.000000	100.466641
2882.000000	100.467785
2881.000000	100.468821
2880.000000	100.470043
2879.000000	100.471281
2878.000000	100.472167
2877.000000	100.472412
2876.000000	100.471909
2875.000000	100.470921
2874.000000	100.469958
2873.000000	100.469085
2872.000000	100.467624
2871.000000	100.465070
2870.000000	100.462115
2869.000000	100.460148
2868.000000	100.459720
2867.000000	100.460143
2866.000000	100.460596
2865.000000	100.461001
2864.000000	100.461516
2863.000000	100.461757
2862.000000	100.461107
2861.000000	100.459646
2860.000000	100.458285
2859.000000	100.457881
2858.000000	100.458340
2857.000000	100.458728
2856.000000	100.458377
2855.000000	100.457787
2854.000000	100.458055
2853.000000	100.459381
2852.000000	100.460644
2851.000000	100.460631
2850.000000	100.459409
2849.000000	100.458195
2848.000000	100.458095
2847.000000	100.459324
2846.000000	100.461429
2845.000000	100.463695
2844.000000	100.465409
2843.000000	100.466245
2842.000000	100.466538
2841.000000	100.466856
2840.000000	100.467145
2839.000000	100.466707
2838.000000	100.465177
2837.000000	100.463174
2836.000000	100.461834
2835.000000	100.461895
2834.000000	100.463433
2833.000000	100.466031
2832.000000	100.468845
2831.000000	100.470936
2830.000000	100.471976
2829.000000	100.472464
2828.000000	100.472978
2827.000000	100.473333
2826.000000	100.472962
2825.000000	100.472027
2824.000000	100.471541
2823.000000	100.472234
2822.000000	100.473800
2821.000000	100.475361
2820.000000	100.476395
2819.000000	100.476960
2818.000000	100.477252
2817.000000	100.477240
2816.000000	100.476748
2815.000000	100.475772
2814.000000	100.474625
2813.000000	100.473815
2812.000000	100.473683
2811.000000	100.474118
2810.000000	100.474670
2809.000000	100.475017
2808.000000	100.475268
2807.000000	100.475727
2806.000000	100.476467
2805.000000	100.477242
2804.000000	100.477733
2803.000000	100.477824
2802.000000	100.477644
2801.000000	100.477458
2800.000000	100.477501
2799.000000	100.477871
2798.000000	100.478521
2797.000000	100.479318
2796.000000	100.480105
2795.000000	100.480743
2794.000000	100.481157
2793.000000	100.481357
2792.000000	100.481412
2791.000000	100.481425
2790.000000	100.481495
2789.000000	100.481693
2788.000000	100.482016
2787.000000	100.482364
2786.000000	100.482606
2785.000000	100.482705
2784.000000	100.482769
2783.000000	100.482969
2782.000000	100.483353
2781.000000	100.483774
2780.000000	100.484013
2779.000000	100.484020
2778.000000	100.483993
2777.000000	100.484219
2776.000000	100.484806
2775.000000	100.485657
2774.000000	100.486552
2773.000000	100.487299
2772.000000	100.487826
2771.000000	100.488192
2770.000000	100.488543
2769.000000	100.488971
2768.000000	100.489437
2767.000000	100.489856
2766.000000	100.490240
2765.000000	100.490703
2764.000000	100.491294
2763.000000	100.491895
2762.000000	100.492356
2761.000000	100.492670
2760.000000	100.492947
2759.000000	100.493248
2758.000000	100.493515
2757.000000	100.493633
2756.000000	100.493483
2755.000000	100.493008
2754.000000	100.492380
2753.000000	100.492063
2752.000000	100.492511
2751.000000	100.493754
2750.000000	100.495337
2749.000000	100.496735
2748.000000	100.497821
2747.000000	100.498836
2746.000000	100.499984
2745.000000	100.501112
2744.000000	100.501809
2743.000000	100.501751
2742.000000	100.500937
2741.000000	100.499678
2740.000000	100.498493
2739.000000	100.498005
2738.000000	100.498718
2737.000000	100.500703
2736.000000	100.503291
2735.000000	100.505362
2734.000000	100.506188
2733.000000	100.505985
2732.000000	100.505728
2731.000000	100.506238
2730.000000	100.507511
2729.000000	100.508924
2728.000000	100.509930
2727.000000	100.510402
2726.000000	100.510412
2725.000000	100.510043
2724.000000	100.509442
2723.000000	100.508881
2722.000000	100.508564
2721.000000	100.508427
2720.000000	100.508314
2719.000000	100.508321
2718.000000	100.508718
2717.000000	100.509535
2716.000000	100.510433
2715.000000	100.511072
2714.000000	100.511436
2713.000000	100.511652
2712.000000	100.511631
2711.000000	100.511124
2710.000000	100.510092
2709.000000	100.508934
2708.000000	100.508276
2707.000000	100.508519
2706.000000	100.509559
2705.000000	100.510840
2704.000000	100.511775
2703.000000	100.512233
2702.000000	100.512487
2701.000000	100.512769
2700.000000	100.513046
2699.000000	100.513277
2698.000000	100.513621
2697.000000	100.514201
2696.000000	100.514819
2695.000000	100.515129
2694.000000	100.515050
2693.000000	100.514815
2692.000000	100.514623
2691.000000	100.514445
2690.000000	100.514212
2689.000000	100.513963
2688.000000	100.513774
2687.000000	100.513660
2686.000000	100.513578
2685.000000	100.513489
2684.000000	100.513394
2683.000000	100.513294
2682.000000	100.513193
2681.000000	100.513101
2680.000000	100.513025
2679.000000	100.512961
2678.000000	100.512891
2677.000000	100.512804
2676.000000	100.512699
2675.000000	100.512586
2674.000000	100.512477
2673.000000	100.512381
2672.000000	100.512301
2671.000000	100.512235
2670.000000	100.512179
2669.000000	100.512131
2668.000000	100.512091
2667.000000	100.512052
2666.000000	100.512007
2665.000000	100.511947
2664.000000	100.511875
2663.000000	100.511801
2662.000000	100.511733
2661.000000	100.511668
2660.000000	100.511592
2659.000000	100.511492
2658.000000	100.511364
2657.000000	100.511221
2656.000000	100.511081
2655.000000	100.510959
2654.000000	100.510860
2653.000000	100.510779
2652.000000	100.510708
2651.000000	100.510644
2650.000000	100.510591
2649.000000	100.510561
2648.000000	100.510562
2647.000000	100.510592
2646.000000	100.510639
2645.000000	100.510688
2644.000000	100.510727
2643.000000	100.510751
2642.000000	100.510766
2641.000000	100.510776
2640.000000	100.510781
2639.000000	100.510771
2638.000000	100.510735
2637.000000	100.510676
2636.000000	100.510608
2635.000000	100.510548
2634.000000	100.510508
2633.000000	100.510484
2632.000000	100.510466
2631.000000	100.510443
2630.000000	100.510408
2629.000000	100.510361
2628.000000	100.510305
2627.000000	100.510241
2626.000000	100.510173
2625.000000	100.510104
2624.000000	100.510048
2623.000000	100.510027
2622.000000	100.510056
2621.000000	100.510124
2620.000000	100.510179
2619.000000	100.510154
2618.000000	100.510009
2617.000000	100.509811
2616.000000	100.509718
2615.000000	100.509834
2614.000000	100.510119
2613.000000	100.510425
2612.000000	100.510622
2611.000000	100.510670
2610.000000	100.510650
2609.000000	100.510719
2608.000000	100.510974
2607.000000	100.511321
2606.000000	100.511561
2605.000000	100.511580
2604.000000	100.511429
2603.000000	100.511231
2602.000000	100.511103
2601.000000	100.511127
2600.000000	100.511302
2599.000000	100.511533
2598.000000	100.511781
2597.000000	100.512183
2596.000000	100.512918
2595.000000	100.513957
2594.000000	100.515025
2593.000000	100.515846
2592.000000	100.516297
2591.000000	100.516379
2590.000000	100.516223
2589.000000	100.516095
2588.000000	100.516252
2587.000000	100.516772
2586.000000	100.517540
2585.000000	100.518374
2584.000000	100.519079
2583.000000	100.519462
2582.000000	100.519462
2581.000000	100.519265
2580.000000	100.519179
2579.000000	100.519330
2578.000000	100.519610
2577.000000	100.519879
2576.000000	100.520078
2575.000000	100.520192
2574.000000	100.520242
2573.000000	100.520346
2572.000000	100.520637
2571.000000	100.521090
2570.000000	100.521537
2569.000000	100.521872
2568.000000	100.522128
2567.000000	100.522346
2566.000000	100.522467
2565.000000	100.522421
2564.000000	100.522269
2563.000000	100.522168
2562.000000	100.522197
2561.000000	100.522319
2560.000000	100.522448
2559.000000	100.522535
2558.000000	100.522588
2557.000000	100.522639
2556.000000	100.522708
2555.000000	100.522788
2554.000000	100.522861
2553.000000	100.522902
2552.000000	100.522898
2551.000000	100.522855
2550.000000	100.522792
2549.000000	100.522741
2548.000000	100.522716
2547.000000	100.522717
2546.000000	100.522717
2545.000000	100.522688
2544.000000	100.522621
2543.000000	100.522532
2542.000000	100.522442
2541.000000	100.522362
2540.000000	100.522299
2539.000000	100.522253
2538.000000	100.522216
2537.000000	100.522180
2536.000000	100.522145
2535.000000	100.522115
2534.000000	100.522087
2533.000000	100.522043
2532.000000	100.521977
2531.000000	100.521895
2530.000000	100.521792
2529.000000	100.521639
2528.000000	100.521412
2527.000000	100.521163
2526.000000	100.521036
2525.000000	100.521143
2524.000000	100.521463
2523.000000	100.521832
2522.000000	100.522069
2521.000000	100.522133
2520.000000	100.522131
2519.000000	100.522228
2518.000000	100.522455
2517.000000	100.522691
2516.000000	100.522808
2515.000000	100.522795
2514.000000	100.522714
2513.000000	100.522626
2512.000000	100.522585
2511.000000	100.522641
2510.000000	100.522782
2509.000000	100.522932
2508.000000	100.523069
2507.000000	100.523289
2506.000000	100.523692
2505.000000	100.524204
2504.000000	100.524607
2503.000000	100.524764
2502.000000	100.524748
2501.000000	100.524746
2500.000000	100.524825
2499.000000	100.524868
2498.000000	100.524756
2497.000000	100.524558
2496.000000	100.524474
2495.000000	100.524595
2494.000000	100.524830
2493.000000	100.525078
2492.000000	100.525385
2491.000000	100.525865
2490.000000	100.526537
2489.000000	100.527317
2488.000000	100.528098
2487.000000	100.528767
2486.000000	100.529209
2485.000000	100.529406
2484.000000	100.529486
2483.000000	100.529579
2482.000000	100.529674
2481.000000	100.529723
2480.000000	100.529810
2479.000000	100.530051
2478.000000	100.530346
2477.000000	100.530477
2476.000000	100.530485
2475.000000	100.530718
2474.000000	100.531367
2473.000000	100.532200
2472.000000	100.532748
2471.000000	100.532810
2470.000000	100.532618
2469.000000	100.532655
2468.000000	100.533146
2467.000000	100.533887
2466.000000	100.534500
2465.000000	100.534836
2464.000000	100.535044
2463.000000	100.535317
2462.000000	100.535651
2461.000000	100.535898
2460.000000	100.535981
2459.000000	100.536004
2458.000000	100.536176
2457.000000	100.536687
2456.000000	100.537627
2455.000000	100.538933
2454.000000	100.540378
2453.000000	100.541691
2452.000000	100.542709
2451.000000	100.543387
2450.000000	100.543675
2449.000000	100.543526
2448.000000	100.543028
2447.000000	100.542358
2446.000000	100.541510
2445.000000	100.540291
2444.000000	100.538765
2443.000000	100.537573
2442.000000	100.537509
2441.000000	100.538763
2440.000000	100.540687
2439.000000	100.542340
2438.000000	100.543199
2437.000000	100.543260
2436.000000	100.542811
2435.000000	100.542395
2434.000000	100.542781
2433.000000	100.544521
2432.000000	100.547306
2431.000000	100.549915
2430.000000	100.551109
2429.000000	100.550534
2428.000000	100.548809
2427.000000	100.546843
2426.000000	100.545073
2425.000000	100.543499
2424.000000	100.542198
2423.000000	100.541629
2422.000000	100.542298
2421.000000	100.544076
2420.000000	100.545958
2419.000000	100.546744
2418.000000	100.546051
2417.000000	100.544587
2416.000000	100.543435
2415.000000	100.543112
2414.000000	100.543332
2413.000000	100.543470
2412.000000	100.543139
2411.000000	100.542479
2410.000000	100.542134
2409.000000	100.542801
2408.000000	100.544473
2407.000000	100.546301
2406.000000	100.547313
2405.000000	100.547299
2404.000000	100.546858
2403.000000	100.546610
2402.000000	100.546673
2401.000000	100.547091
2400.000000	100.548355
2399.000000	100.551054
2398.000000	100.555152
2397.000000	100.559781
2396.000000	100.563713
2395.000000	100.566211
2394.000000	100.567444
2393.000000	100.568086
2392.000000	100.568479
2391.000000	100.568307
2390.000000	100.567211
2389.000000	100.565516
2388.000000	100.564144
2387.000000	100.563910
2386.000000	100.565178
2385.000000	100.567993
2384.000000	100.571972
2383.000000	100.576056
2382.000000	100.578950
2381.000000	100.580287
2380.000000	100.581142
2379.000000	100.582873
2378.000000	100.585502
2377.000000	100.587722
2376.000000	100.588452
2375.000000	100.587831
2374.000000	100.586898
2373.000000	100.586904
2372.000000	100.588846
2371.000000	100.592574
2370.000000	100.596173
2369.000000	100.597562
2368.000000	100.597388
2367.000000	100.598949
2366.000000	100.604065
2365.000000	100.610161
2364.000000	100.613329
2363.000000	100.612396
2362.000000	100.608266
2361.000000	100.601655
2360.000000	100.592871
2359.000000	100.583872
2358.000000	100.577977
2357.000000	100.576699
2356.000000	100.579044
2355.000000	100.582391
2354.000000	100.584761
2353.000000	100.585931
2352.000000	100.587210
2351.000000	100.590129
2350.000000	100.594423
2349.000000	100.598997
2348.000000	100.602774
2347.000000	100.604668
2346.000000	100.604101
2345.000000	100.600954
2344.000000	100.596874
2343.000000	100.594049
2342.000000	100.593984
2341.000000	100.595844
2340.000000	100.596772
2339.000000	100.595163
2338.000000	100.591942
2337.000000	100.589105
2336.000000	100.586865
2335.000000	100.584236
2334.000000	100.580674
2333.000000	100.577357
2332.000000	100.575541
2331.000000	100.575948
2330.000000	100.577504
2329.000000	100.578653
2328.000000	100.578112
2327.000000	100.576084
2326.000000	100.573998
2325.000000	100.573149
2324.000000	100.573666
2323.000000	100.574387
2322.000000	100.574175
2321.000000	100.572897
2320.000000	100.571136
2319.000000	100.569670
2318.000000	100.568910
2317.000000	100.568930
2316.000000	100.569280
2315.000000	100.569418
2314.000000	100.569002
2313.000000	100.568235
2312.000000	100.567426
2311.000000	100.566743
2310.000000	100.566058
2309.000000	100.565280
2308.000000	100.564439
2307.000000	100.563674
2306.000000	100.563047
2305.000000	100.562574
2304.000000	100.562215
2303.000000	100.561887
2302.000000	100.561427
2301.000000	100.560744
2300.000000	100.559901
2299.000000	100.559122
2298.000000	100.558512
2297.000000	100.557988
2296.000000	100.557388
2295.000000	100.556650
2294.000000	100.555790
2293.000000	100.554881
2292.000000	100.554042
2291.000000	100.553401
2290.000000	100.552931
2289.000000	100.552340
2288.000000	100.551301
2287.000000	100.549791
2286.000000	100.548195
2285.000000	100.546980
2284.000000	100.546215
2283.000000	100.545576
2282.000000	100.544807
2281.000000	100.543979
2280.000000	100.543281
2279.000000	100.542718
2278.000000	100.542102
2277.000000	100.541311
2276.000000	100.540364
2275.000000	100.539345
2274.000000	100.538357
2273.000000	100.537514
2272.000000	100.536869
2271.000000	100.536319
2270.000000	100.535654
2269.000000	100.534744
2268.000000	100.533618
2267.000000	100.532410
2266.000000	100.531242
2265.000000	100.530151
2264.000000	100.529085
2263.000000	100.527986
2262.000000	100.526905
2261.000000	100.526005
2260.000000	100.525398
2259.000000	100.525032
2258.000000	100.524725
2257.000000	100.524280
2256.000000	100.523588
2255.000000	100.522653
2254.000000	100.521591
2253.000000	100.520582
2252.000000	100.519758
2251.000000	100.519153
2250.000000	100.518691
2249.000000	100.518193
2248.000000	100.517428
2247.000000	100.516288
2246.000000	100.514986
2245.000000	100.513993
2244.000000	100.513543
2243.000000	100.513408
2242.000000	100.513277
2241.000000	100.513200
2240.000000	100.513380
2239.000000	100.513657
2238.000000	100.513561
2237.000000	100.512940
2236.000000	100.512194
2235.000000	100.511748
2234.000000	100.511546
2233.000000	100.511336
2232.000000	100.511158
2231.000000	100.511198
2230.000000	100.511308
2229.000000	100.511029
2228.000000	100.510101
2227.000000	100.508756
2226.000000	100.507519
2225.000000	100.506873
2224.000000	100.507061
2223.000000	100.508052
2222.000000	100.509572
2221.000000	100.511216
2220.000000	100.512503
2219.000000	100.512915
2218.000000	100.512131
2217.000000	100.510442
2216.000000	100.508795
2215.000000	100.508041
2214.000000	100.508243
2213.000000	100.508874
2212.000000	100.509560
2211.000000	100.510410
2210.000000	100.511651
2209.000000	100.513273
2208.000000	100.515038
2207.000000	100.516587
2206.000000	100.517526
2205.000000	100.517713
2204.000000	100.517543
2203.000000	100.517740
2202.000000	100.518754
2201.000000	100.520427
2200.000000	100.522192
2199.000000	100.523459
2198.000000	100.523888
2197.000000	100.523528
2196.000000	100.522844
2195.000000	100.522477
2194.000000	100.522756
2193.000000	100.523388
2192.000000	100.523680
2191.000000	100.523185
2190.000000	100.522182
2189.000000	100.521510
2188.000000	100.521772
2187.000000	100.522764
2186.000000	100.523765
2185.000000	100.524374
2184.000000	100.524886
2183.000000	100.525737
2182.000000	100.526904
2181.000000	100.527977
2180.000000	100.528637
2179.000000	100.528840
2178.000000	100.528662
2177.000000	100.528255
2176.000000	100.527918
2175.000000	100.527954
2174.000000	100.528359
2173.000000	100.528809
2172.000000	100.528986
2171.000000	100.528830
2170.000000	100.528458
2169.000000	100.528032
2168.000000	100.527750
2167.000000	100.527828
2166.000000	100.528362
2165.000000	100.529150
2164.000000	100.529723
2163.000000	100.529666
2162.000000	100.528909
2161.000000	100.527794
2160.000000	100.526881
2159.000000	100.526553
2158.000000	100.526748
2157.000000	100.527024
2156.000000	100.526917
2155.000000	100.526358
2154.000000	100.525770
2153.000000	100.525699
2152.000000	100.526268
2151.000000	100.526969
2150.000000	100.527162
2149.000000	100.526771
2148.000000	100.526331
2147.000000	100.526299
2146.000000	100.526586
2145.000000	100.526880
2144.000000	100.527122
2143.000000	100.527441
2142.000000	100.527830
2141.000000	100.528242
2140.000000	100.528868
2139.000000	100.529887
2138.000000	100.531007
2137.000000	100.531656
2136.000000	100.531675
2135.000000	100.531454
2134.000000	100.531294
2133.000000	100.531033
2132.000000	100.530551
2131.000000	100.530251
2130.000000	100.530619
2129.000000	100.531610
2128.000000	100.532818
2127.000000	100.534049
2126.000000	100.535399
2125.000000	100.536809
2124.000000	100.537982
2123.000000	100.538794
2122.000000	100.539467
2121.000000	100.540185
2120.000000	100.540763
2119.000000	100.540942
2118.000000	100.540859
2117.000000	100.541012
2116.000000	100.541696
2115.000000	100.542634
2114.000000	100.543245
2113.000000	100.543213
2112.000000	100.542726
2111.000000	100.542240
2110.000000	100.542128
2109.000000	100.542501
2108.000000	100.543241
2107.000000	100.544057
2106.000000	100.544596
2105.000000	100.544665
2104.000000	100.544350
2103.000000	100.543963
2102.000000	100.543817
2101.000000	100.544052
2100.000000	100.544651
2099.000000	100.545541
2098.000000	100.546578
2097.000000	100.547534
2096.000000	100.548211
2095.000000	100.548593
2094.000000	100.548795
2093.000000	100.548846
2092.000000	100.548633
2091.000000	100.548144
2090.000000	100.547685
2089.000000	100.547684
2088.000000	100.548254
2087.000000	100.549063
2086.000000	100.549595
2085.000000	100.549647
2084.000000	100.549438
2083.000000	100.549329
2082.000000	100.549429
2081.000000	100.549528
2080.000000	100.549338
2079.000000	100.548744
2078.000000	100.547921
2077.000000	100.547300
2076.000000	100.547351
2075.000000	100.548239
2074.000000	100.549583
2073.000000	100.550663
2072.000000	100.551023
2071.000000	100.550756
2070.000000	100.550253
2069.000000	100.549751
2068.000000	100.549196
2067.000000	100.548476
2066.000000	100.547702
2065.000000	100.547225
2064.000000	100.547278
2063.000000	100.547567
2062.000000	100.547396
2061.000000	100.546399
2060.000000	100.545042
2059.000000	100.544093
2058.000000	100.543570
2057.000000	100.542595
2056.000000	100.540489
2055.000000	100.537728
2054.000000	100.535568
2053.000000	100.534703
2052.000000	100.534629
2051.000000	100.534295
2050.000000	100.533219
2049.000000	100.531863
2048.000000	100.531078
2047.000000	100.531284
2046.000000	100.532109
2045.000000	100.532685
2044.000000	100.532358
2043.000000	100.531114
2042.000000	100.529402
2041.000000	100.527501
2040.000000	100.525113
2039.000000	100.521762
2038.000000	100.517584
2037.000000	100.513617
2036.000000	100.511081
2035.000000	100.510327
2034.000000	100.510542
2033.000000	100.510494
2032.000000	100.509643
2031.000000	100.508425
2030.000000	100.507552
2029.000000	100.507232
2028.000000	100.507073
2027.000000	100.506583
2026.000000	100.505616
2025.000000	100.504318
2024.000000	100.502831
2023.000000	100.501197
2022.000000	100.499530
2021.000000	100.498067
2020.000000	100.496917
2019.000000	100.495884
2018.000000	100.494649
2017.000000	100.493132
2016.000000	100.491581
2015.000000	100.490289
2014.000000	100.489287
2013.000000	100.488333
2012.000000	100.487127
2011.000000	100.485542
2010.000000	100.483740
2009.000000	100.482117
2008.000000	100.481014
2007.000000	100.480435
2006.000000	100.480040
2005.000000	100.479439
2004.000000	100.478511
2003.000000	100.477394
2002.000000	100.476281
2001.000000	100.475294
2000.000000	100.474448
1999.000000	100.473689
1998.000000	100.472967
1997.000000	100.472327
1996.000000	100.471909
1995.000000	100.471767
1994.000000	100.471680
1993.000000	100.471242
1992.000000	100.470221
1991.000000	100.468822
1990.000000	100.467581
1989.000000	100.466888
1988.000000	100.466728
1987.000000	100.466798
1986.000000	100.466783
1985.000000	100.466558
1984.000000	100.466184
1983.000000	100.465823
1982.000000	100.465560
1981.000000	100.465239
1980.000000	100.464514
1979.000000	100.463225
1978.000000	100.461718
1977.000000	100.460676
1976.000000	100.460520
1975.000000	100.461120
1974.000000	100.461989
1973.000000	100.462724
1972.000000	100.463236
1971.000000	100.463653
1970.000000	100.464108
1969.000000	100.464545
1968.000000	100.464727
1967.000000	100.464514
1966.000000	100.464081
1965.000000	100.463743
1964.000000	100.463629
1963.000000	100.463699
1962.000000	100.464032
1961.000000	100.464793
1960.000000	100.465811
1959.000000	100.466454
1958.000000	100.466211
1957.000000	100.465207
1956.000000	100.464048
1955.000000	100.463205
1954.000000	100.462800
1953.000000	100.462860
1952.000000	100.463411
1951.000000	100.464173
1950.000000	100.464514
1949.000000	100.463975
1948.000000	100.462703
1947.000000	100.461267
1946.000000	100.460190
1945.000000	100.459639
1944.000000	100.459425
1943.000000	100.459175
1942.000000	100.458707
1941.000000	100.458336
1940.000000	100.458590
1939.000000	100.459578
1938.000000	100.460722
1937.000000	100.461141
1936.000000	100.460332
1935.000000	100.458436
1934.000000	100.456040
1933.000000	100.453834
1932.000000	100.452328
1931.000000	100.451595
1930.000000	100.451289
1929.000000	100.450994
1928.000000	100.450497
1927.000000	100.450005
1926.000000	100.449978
1925.000000	100.450744
1924.000000	100.451734
1923.000000	100.451384
1922.000000	100.448768
1921.000000	100.445165
1920.000000	100.443062
1919.000000	100.443413
1918.000000	100.444309
1917.000000	100.443211
1916.000000	100.440006
1915.000000	100.436470
1914.000000	100.433716
1913.000000	100.431385
1912.000000	100.428975
1911.000000	100.426869
1910.000000	100.425792
1909.000000	100.425656
1908.000000	100.425289
1907.000000	100.423592
1906.000000	100.420353
1905.000000	100.416302
1904.000000	100.412167
1903.000000	100.407801
1902.000000	100.402899
1901.000000	100.398262
1900.000000	100.395316
1899.000000	100.394506
1898.000000	100.394758
1897.000000	100.394865
1896.000000	100.394598
1895.000000	100.394105
1894.000000	100.393231
1893.000000	100.391957
1892.000000	100.390628
1891.000000	100.389248
1890.000000	100.387247
1889.000000	100.384587
1888.000000	100.382303
1887.000000	100.381139
1886.000000	100.380797
1885.000000	100.380876
1884.000000	100.381515
1883.000000	100.382516
1882.000000	100.382850
1881.000000	100.381806
1880.000000	100.379958
1879.000000	100.378447
1878.000000	100.377698
1877.000000	100.377528
1876.000000	100.377983
1875.000000	100.379173
1874.000000	100.380867
1873.000000	100.383102
1872.000000	100.386553
1871.000000	100.391204
1870.000000	100.394871
1869.000000	100.394744
1868.000000	100.391219
1867.000000	100.387851
1866.000000	100.386843
1865.000000	100.387562
1864.000000	100.388838
1863.000000	100.390476
1862.000000	100.392497
1861.000000	100.394261
1860.000000	100.395223
1859.000000	100.396020
1858.000000	100.397957
1857.000000	100.401607
1856.000000	100.406334
1855.000000	100.410889
1854.000000	100.414063
1853.000000	100.415216
1852.000000	100.414409
1851.000000	100.412636
1850.000000	100.411375
1849.000000	100.411658
1848.000000	100.413558
1847.000000	100.416467
1846.000000	100.419758
1845.000000	100.422975
1844.000000	100.425716
1843.000000	100.427855
1842.000000	100.429633
1841.000000	100.431347
1840.000000	100.433143
1839.000000	100.434776
1838.000000	100.435458
1837.000000	100.434777
1836.000000	100.433554
1835.000000	100.433268
1834.000000	100.434609
1833.000000	100.436879
1832.000000	100.438590
1831.000000	100.438639
1830.000000	100.436870
1829.000000	100.434243
1828.000000	100.432177
1827.000000	100.431430
1826.000000	100.431989
1825.000000	100.433352
1824.000000	100.435026
1823.000000	100.436785
1822.000000	100.438245
1821.000000	100.438728
1820.000000	100.437928
1819.000000	100.436520
1818.000000	100.435519
1817.000000	100.435250
1816.000000	100.435236
1815.000000	100.434963
1814.000000	100.434569
1813.000000	100.434602
1812.000000	100.435564
1811.000000	100.437438
1810.000000	100.439499
1809.000000	100.440829
1808.000000	100.440926
1807.000000	100.439813
1806.000000	100.437953
1805.000000	100.436225
1804.000000	100.435622
1803.000000	100.436509
1802.000000	100.438261
1801.000000	100.439445
1800.000000	100.439247
1799.000000	100.438315
1798.000000	100.437866
1797.000000	100.438371
1796.000000	100.439276
1795.000000	100.439672
1794.000000	100.439220
1793.000000	100.438389
1792.000000	100.438128
1791.000000	100.438924
1790.000000	100.440385
1789.000000	100.442074
1788.000000	100.444128
1787.000000	100.446774
1786.000000	100.449672
1785.000000	100.452010
1784.000000	100.453346
1783.000000	100.453979
1782.000000	100.454736
1781.000000	100.455884
1780.000000	100.457034
1779.000000	100.457888
1778.000000	100.458741
1777.000000	100.460131
1776.000000	100.462099
1775.000000	100.464192
1774.000000	100.465963
1773.000000	100.467105
1772.000000	100.467655
1771.000000	100.468413
1770.000000	100.469937
1769.000000	100.471940
1768.000000	100.473795
1767.000000	100.474924
1766.000000	100.475265
1765.000000	100.475209
1764.000000	100.475386
1763.000000	100.476287
1762.000000	100.477799
1761.000000	100.479114
1760.000000	100.479760
1759.000000	100.479962
1758.000000	100.480272
1757.000000	100.480963
1756.000000	100.481749
1755.000000	100.482328
1754.000000	100.482740
1753.000000	100.483247
1752.000000	100.484045
1751.000000	100.485091
1750.000000	100.485985
1749.000000	100.486283
1748.000000	100.485873
1747.000000	100.485040
1746.000000	100.484357
1745.000000	100.484226
1744.000000	100.484705
1743.000000	100.485485
1742.000000	100.486060
1741.000000	100.486200
1740.000000	100.486155
1739.000000	100.486234
1738.000000	100.486373
1737.000000	100.486240
1736.000000	100.485656
1735.000000	100.484660
1734.000000	100.483463
1733.000000	100.482618
1732.000000	100.482303
1731.000000	100.482019
1730.000000	100.481314
1729.000000	100.480197
1728.000000	100.479088
1727.000000	100.478385
1726.000000	100.478039
1725.000000	100.477559
1724.000000	100.476672
1723.000000	100.475657
1722.000000	100.474872
1721.000000	100.474263
1720.000000	100.473562
1719.000000	100.472736
1718.000000	100.471791
1717.000000	100.470463
1716.000000	100.468618
1715.000000	100.466522
1714.000000	100.464728
1713.000000	100.463780
1712.000000	100.463714
1711.000000	100.463881
1710.000000	100.463490
1709.000000	100.462445
1708.000000	100.461562
1707.000000	100.461915
1706.000000	100.463345
1705.000000	100.464063
1704.000000	100.462823
1703.000000	100.459984
1702.000000	100.456494
1701.000000	100.452833
1700.000000	100.449287
1699.000000	100.447030
1698.000000	100.446393
1697.000000	100.446768
1696.000000	100.447223
1695.000000	100.446471
1694.000000	100.444404
1693.000000	100.441391
1692.000000	100.437627
1691.000000	100.433723
1690.000000	100.430770
1689.000000	100.429567
1688.000000	100.429331
1687.000000	100.428687
1686.000000	100.427367
1685.000000	100.426519
1684.000000	100.426574
1683.000000	100.425878
1682.000000	100.423323
1681.000000	100.419944
1680.000000	100.417778
1679.000000	100.417760
1678.000000	100.418952
1677.000000	100.419787
1676.000000	100.419721
1675.000000	100.419387
1674.000000	100.419614
1673.000000	100.419961
1672.000000	100.419712
1671.000000	100.419019
1670.000000	100.418467
1669.000000	100.418001
1668.000000	100.416921
1667.000000	100.414959
1666.000000	100.412431
1665.000000	100.409733
1664.000000	100.407350
1663.000000	100.405642
1662.000000	100.404707
1661.000000	100.404170
1660.000000	100.403441
1659.000000	100.402317
1658.000000	100.400874
1657.000000	100.399067
1656.000000	100.396829
1655.000000	100.394785
1654.000000	100.393836
1653.000000	100.393230
1652.000000	100.392270
1651.000000	100.391371
1650.000000	100.389849
1649.000000	100.386814
1648.000000	100.382239
1647.000000	100.378075
1646.000000	100.376967
1645.000000	100.378787
1644.000000	100.381268
1643.000000	100.382939
1642.000000	100.383939
1641.000000	100.384611
1640.000000	100.384595
1639.000000	100.383456
1638.000000	100.381460
1637.000000	100.379671
1636.000000	100.378934
1635.000000	100.379033
1634.000000	100.379295
1633.000000	100.379422
1632.000000	100.379310
1631.000000	100.378848
1630.000000	100.378153
1629.000000	100.377709
1628.000000	100.377902
1627.000000	100.378468
1626.000000	100.378886
1625.000000	100.379038
1624.000000	100.379219
1623.000000	100.379597
1622.000000	100.380002
1621.000000	100.380241
1620.000000	100.380321
1619.000000	100.380433
1618.000000	100.380807
1617.000000	100.381475
1616.000000	100.382197
1615.000000	100.382841
1614.000000	100.383509
1613.000000	100.384341
1612.000000	100.385351
1611.000000	100.386370
1610.000000	100.387290
1609.000000	100.388267
1608.000000	100.389508
1607.000000	100.390942
1606.000000	100.392274
1605.000000	100.393334
1604.000000	100.394184
1603.000000	100.394958
1602.000000	100.395814
1601.000000	100.396839
1600.000000	100.398064
1599.000000	100.399388
1598.000000	100.400662
1597.000000	100.401860
1596.000000	100.403112
1595.000000	100.404505
1594.000000	100.405916
1593.000000	100.407156
1592.000000	100.408246
1591.000000	100.409417
1590.000000	100.410844
1589.000000	100.412461
1588.000000	100.414080
1587.000000	100.415604
1586.000000	100.417024
1585.000000	100.418352
1584.000000	100.419552
1583.000000	100.420638
1582.000000	100.421706
1581.000000	100.422825
1580.000000	100.423935
1579.000000	100.425015
1578.000000	100.426272
1577.000000	100.428044
1576.000000	100.430390
1575.000000	100.432908
1574.000000	100.435146
1573.000000	100.436878
1572.000000	100.438192
1571.000000	100.439366
1570.000000	100.440357
1569.000000	100.440801
1568.000000	100.440699
1567.000000	100.440744
1566.000000	100.441613
1565.000000	100.443289
1564.000000	100.444845
1563.000000	100.445459
1562.000000	100.445315
1561.000000	100.445555
1560.000000	100.447277
1559.000000	100.449683
1558.000000	100.450412
1557.000000	100.449885
1556.000000	100.449427
1555.000000	100.449465
1554.000000	100.450150
1553.000000	100.451009
1552.000000	100.451456
1551.000000	100.451335
1550.000000	100.450760
1549.000000	100.450050
1548.000000	100.449599
1547.000000	100.449631
1546.000000	100.450047
1545.000000	100.450468
1544.000000	100.450591
1543.000000	100.450874
1542.000000	100.452061
1541.000000	100.454424
1540.000000	100.456587
1539.000000	100.456575
1538.000000	100.454698
1537.000000	100.452062
1536.000000	100.449210
1535.000000	100.446786
1534.000000	100.445510
1533.000000	100.445195
1532.000000	100.445059
1531.000000	100.444922
1530.000000	100.445060
1529.000000	100.445580
1528.000000	100.446160
1527.000000	100.446206
1526.000000	100.445399
1525.000000	100.443903
1524.000000	100.442123
1523.000000	100.440603
1522.000000	100.439912
1521.000000	100.440107
1520.000000	100.440677
1519.000000	100.441311
1518.000000	100.442322
1517.000000	100.444080
1516.000000	100.446167
1515.000000	100.447734
1514.000000	100.448556
1513.000000	100.449004
1512.000000	100.449540
1511.000000	100.450326
1510.000000	100.451149
1509.000000	100.451701
1508.000000	100.451887
1507.000000	100.452027
1506.000000	100.452620
1505.000000	100.453614
1504.000000	100.454625
1503.000000	100.455436
1502.000000	100.456063
1501.000000	100.456593
1500.000000	100.457148
1499.000000	100.457815
1498.000000	100.458587
1497.000000	100.459420
1496.000000	100.460277
1495.000000	100.461143
1494.000000	100.462010
1493.000000	100.462874
1492.000000	100.463739
1491.000000	100.464630
1490.000000	100.465571
1489.000000	100.466546
1488.000000	100.467507
1487.000000	100.468438
1486.000000	100.469365
1485.000000	100.470333
1484.000000	100.471365
1483.000000	100.472444
1482.000000	100.473511
1481.000000	100.474491
1480.000000	100.475367
1479.000000	100.476207
1478.000000	100.477100
1477.000000	100.478044
1476.000000	100.478923
1475.000000	100.479635
1474.000000	100.480309
1473.000000	100.481220
1472.000000	100.482395
1471.000000	100.483582
1470.000000	100.484666
1469.000000	100.485709
1468.000000	100.486686
1467.000000	100.487338
1466.000000	100.487326
1465.000000	100.486682
1464.000000	100.486042
1463.000000	100.486135
1462.000000	100.487039
1461.000000	100.488254
1460.000000	100.489312
1459.000000	100.490417
1458.000000	100.492810
1457.000000	100.497218
1456.000000	100.501547
1455.000000	100.503452
1454.000000	100.502983
1453.000000	100.501356
1452.000000	100.499922
1451.000000	100.499264
1450.000000	100.498966
1449.000000	100.498392
1448.000000	100.497656
1447.000000	100.497478
1446.000000	100.498337
1445.000000	100.499962
1444.000000	100.501730
1443.000000	100.503236
1442.000000	100.504266
1441.000000	100.504743
1440.000000	100.504860
1439.000000	100.505191
1438.000000	100.506063
1437.000000	100.506677
1436.000000	100.505920
1435.000000	100.504464
1434.000000	100.503937
1433.000000	100.504913
1432.000000	100.506861
1431.000000	100.508809
1430.000000	100.510119
1429.000000	100.510561
1428.000000	100.509982
1427.000000	100.508348
1426.000000	100.506353
1425.000000	100.505084
1424.000000	100.504853
1423.000000	100.505038
1422.000000	100.505162
1421.000000	100.505573
1420.000000	100.506422
1419.000000	100.506924
1418.000000	100.506829
1417.000000	100.507561
1416.000000	100.510436
1415.000000	100.515139
1414.000000	100.519960
1413.000000	100.523222
1412.000000	100.524508
1411.000000	100.524685
1410.000000	100.524847
1409.000000	100.525346
1408.000000	100.525995
1407.000000	100.526485
1406.000000	100.526806
1405.000000	100.527105
1404.000000	100.527161
1403.000000	100.526690
1402.000000	100.525962
1401.000000	100.525936
1400.000000	100.527526
1399.000000	100.530490
1398.000000	100.533366
1397.000000	100.535144
1396.000000	100.536312
1395.000000	100.538051
1394.000000	100.540961
1393.000000	100.544336
1392.000000	100.546866
1391.000000	100.547804
1390.000000	100.547410
1389.000000	100.546732
1388.000000	100.546768
1387.000000	100.547605
1386.000000	100.548534
1385.000000	100.549007
1384.000000	100.549033
1383.000000	100.549007
1382.000000	100.549371
1381.000000	100.550232
1380.000000	100.551087
1379.000000	100.551150
1378.000000	100.550221
1377.000000	100.548953
1376.000000	100.548226
1375.000000	100.548384
1374.000000	100.549135
1373.000000	100.549880
1372.000000	100.550149
1371.000000	100.549785
1370.000000	100.548998
1369.000000	100.548369
1368.000000	100.548411
1367.000000	100.549092
1366.000000	100.549897
1365.000000	100.550363
1364.000000	100.550429
1363.000000	100.550283
1362.000000	100.550098
1361.000000	100.549958
1360.000000	100.549896
1359.000000	100.549845
1358.000000	100.549715
1357.000000	100.549608
1356.000000	100.549782
1355.000000	100.550237
1354.000000	100.550572
1353.000000	100.550479
1352.000000	100.550148
1351.000000	100.549799
1350.000000	100.549327
1349.000000	100.548765
1348.000000	100.548718
1347.000000	100.549716
1346.000000	100.551223
1345.000000	100.551955
1344.000000	100.551260
1343.000000	100.549694
1342.000000	100.548235
1341.000000	100.547228
1340.000000	100.546205
1339.000000	100.544556
1338.000000	100.542435
1337.000000	100.540971
1336.000000	100.541293
1335.000000	100.543272
1334.000000	100.545374
1333.000000	100.546289
1332.000000	100.546515
1331.000000	100.547622
1330.000000	100.550066
1329.000000	100.552467
1328.000000	100.553285
1327.000000	100.552420
1326.000000	100.551024
1325.000000	100.550327
1324.000000	100.550711
1323.000000	100.551491
1322.000000	100.551538
1321.000000	100.550538
1320.000000	100.549490
1319.000000	100.549531
1318.000000	100.550452
1317.000000	100.551173
1316.000000	100.551291
1315.000000	100.551085
1314.000000	100.550393
1313.000000	100.548854
1312.000000	100.547232
1311.000000	100.547024
1310.000000	100.548334
1309.000000	100.549290
1308.000000	100.548207
1307.000000	100.545565
1306.000000	100.543449
1305.000000	100.543491
1304.000000	100.545878
1303.000000	100.549590
1302.000000	100.552851
1301.000000	100.554092
1300.000000	100.553142
1299.000000	100.551308
1298.000000	100.549902
1297.000000	100.548928
1296.000000	100.547812
1295.000000	100.546786
1294.000000	100.546576
1293.000000	100.547039
1292.000000	100.547177
1291.000000	100.546406
1290.000000	100.544931
1289.000000	100.542962
1288.000000	100.540404
1287.000000	100.537502
1286.000000	100.535016
1285.000000	100.533416
1284.000000	100.532369
1283.000000	100.531259
1282.000000	100.530020
1281.000000	100.529295
1280.000000	100.529800
1279.000000	100.531429
1278.000000	100.532926
1277.000000	100.532657
1276.000000	100.529869
1275.000000	100.525072
1274.000000	100.519384
1273.000000	100.514095
1272.000000	100.510905
1271.000000	100.511389
1270.000000	100.515124
1269.000000	100.519064
1268.000000	100.520022
1267.000000	100.517589
1266.000000	100.513844
1265.000000	100.510503
1264.000000	100.507382
1263.000000	100.503671
1262.000000	100.499660
1261.000000	100.496765
1260.000000	100.496207
1259.000000	100.497955
1258.000000	100.500713
1257.000000	100.502532
1256.000000	100.501015
1255.000000	100.493438
1254.000000	100.478454
1253.000000	100.459043
1252.000000	100.442666
1251.000000	100.435898
1250.000000	100.438092
1249.000000	100.441912
1248.000000	100.440889
1247.000000	100.435148
1246.000000	100.429304
1245.000000	100.426565
1244.000000	100.426062
1243.000000	100.424587
1242.000000	100.419310
1241.000000	100.409481
1240.000000	100.396758
1239.000000	100.383922
1238.000000	100.372912
1237.000000	100.364217
1236.000000	100.357791
1235.000000	100.353310
1234.000000	100.349510
1233.000000	100.344897
1232.000000	100.339453
1231.000000	100.334057
1230.000000	100.327788
1229.000000	100.317437
1228.000000	100.300594
1227.000000	100.278133
1226.000000	100.253224
1225.000000	100.229172
1224.000000	100.208368
1223.000000	100.191040
1222.000000	100.173885
1221.000000	100.151996
1220.000000	100.123783
1219.000000	100.092804
1218.000000	100.063518
1217.000000	100.036402
1216.000000	100.008536
1215.000000	99.977520
1214.000000	99.943196
1213.000000	99.906566
1212.000000	99.868669
1211.000000	99.830204
1210.000000	99.791346
1209.000000	99.752142
1208.000000	99.713194
1207.000000	99.675318
1206.000000	99.638769
1205.000000	99.603537
1204.000000	99.569147
1203.000000	99.532707
1202.000000	99.489579
1201.000000	99.439719
1200.000000	99.391825
1199.000000	99.356212
1198.000000	99.333257
1197.000000	99.313251
1196.000000	99.287810
1195.000000	99.256457
1194.000000	99.221698
1193.000000	99.184151
1192.000000	99.145221
1191.000000	99.108712
1190.000000	99.075114
1189.000000	99.038168
1188.000000	98.991827
1187.000000	98.938345
1186.000000	98.885922
1185.000000	98.840132
1184.000000	98.800719
1183.000000	98.764399
1182.000000	98.727087
1181.000000	98.684886
1180.000000	98.635976
1179.000000	98.581096
1178.000000	98.521155
1177.000000	98.456370
1176.000000	98.388909
1175.000000	98.323136
1174.000000	98.260930
1173.000000	98.199783
1172.000000	98.137976
1171.000000	98.078433
1170.000000	98.024422
1169.000000	97.974521
1168.000000	97.925358
1167.000000	97.877263
1166.000000	97.834529
1165.000000	97.802172
1164.000000	97.784853
1163.000000	97.786266
1162.000000	97.805885
1161.000000	97.836636
1160.000000	97.867352
1159.000000	97.887655
1158.000000	97.891862
1157.000000	97.880935
1156.000000	97.860798
1155.000000	97.836159
1154.000000	97.805753
1153.000000	97.766163
1152.000000	97.719325
1151.000000	97.672099
1150.000000	97.628486
1149.000000	97.586984
1148.000000	97.546110
1147.000000	97.507314
1146.000000	97.471087
1145.000000	97.435002
1144.000000	97.397158
1143.000000	97.357413
1142.000000	97.314760
1141.000000	97.268683
1140.000000	97.223713
1139.000000	97.186354
1138.000000	97.155898
1137.000000	97.124461
1136.000000	97.087739
1135.000000	97.049049
1134.000000	97.011036
1133.000000	96.971473
1132.000000	96.930880
1131.000000	96.895911
1130.000000	96.869262
1129.000000	96.842832
1128.000000	96.807621
1127.000000	96.766072
1126.000000	96.728353
1125.000000	96.699737
1124.000000	96.676975
1123.000000	96.654013
1122.000000	96.626711
1121.000000	96.594339
1120.000000	96.560089
1119.000000	96.527838
1118.000000	96.496393
1117.000000	96.461064
1116.000000	96.423094
1115.000000	96.391462
1114.000000	96.371019
1113.000000	96.354792
1112.000000	96.333011
1111.000000	96.304867
1110.000000	96.276010
1109.000000	96.249129
1108.000000	96.223183
1107.000000	96.198523
1106.000000	96.177264
1105.000000	96.161117
1104.000000	96.152187
1103.000000	96.151631
1102.000000	96.154011
1101.000000	96.148446
1100.000000	96.130332
1099.000000	96.107238
1098.000000	96.088563
1097.000000	96.074210
1096.000000	96.058630
1095.000000	96.040892
1094.000000	96.024092
1093.000000	96.008560
1092.000000	95.992442
1091.000000	95.976790
1090.000000	95.964178
1089.000000	95.953824
1088.000000	95.942967
1087.000000	95.931971
1086.000000	95.924258
1085.000000	95.921795
1084.000000	95.922482
1083.000000	95.920582
1082.000000	95.909777
1081.000000	95.889469
1080.000000	95.868154
1079.000000	95.855641
1078.000000	95.851111
1077.000000	95.845072
1076.000000	95.833824
1075.000000	95.822968
1074.000000	95.813306
1073.000000	95.792987
1072.000000	95.750832
1071.000000	95.690676
1070.000000	95.625288
1069.000000	95.560042
1068.000000	95.490261
1067.000000	95.412172
1066.000000	95.328827
1065.000000	95.245593
1064.000000	95.164810
1063.000000	95.085097
1062.000000	95.003445
1061.000000	94.919288
1060.000000	94.837775
1059.000000	94.765923
1058.000000	94.704391
1057.000000	94.647502
1056.000000	94.592517
1055.000000	94.542815
1054.000000	94.499113
1053.000000	94.453405
1052.000000	94.396022
1051.000000	94.324564
1050.000000	94.242552
1049.000000	94.154710
1048.000000	94.067811
1047.000000	93.990201
1046.000000	93.924616
1045.000000	93.864302
1044.000000	93.798873
1043.000000	93.721933
1042.000000	93.634188
1041.000000	93.544147
1040.000000	93.464768
1039.000000	93.402416
1038.000000	93.348452
1037.000000	93.288679
1036.000000	93.221665
1035.000000	93.159502
1034.000000	93.110596
1033.000000	93.072242
1032.000000	93.041413
1031.000000	93.020886
1030.000000	93.009872
1029.000000	92.999145
1028.000000	92.982146
1027.000000	92.963539
1026.000000	92.951213
1025.000000	92.946739
1024.000000	92.948034
1023.000000	92.953536
1022.000000	92.958512
1021.000000	92.954473
1020.000000	92.938389
1019.000000	92.917638
1018.000000	92.901468
1017.000000	92.892396
1016.000000	92.888714
1015.000000	92.888761
1014.000000	92.888814
1013.000000	92.883187
1012.000000	92.871179
1011.000000	92.859339
1010.000000	92.853463
1009.000000	92.852670
1008.000000	92.853470
1007.000000	92.854781
1006.000000	92.857323
1005.000000	92.863164
1004.000000	92.876468
1003.000000	92.898366
1002.000000	92.920860
1001.000000	92.933560
1000.000000	92.937455
999.000000	92.944127
998.000000	92.960663
997.000000	92.984261
996.000000	93.012718
995.000000	93.049413
994.000000	93.093762
993.000000	93.136459
992.000000	93.170168
991.000000	93.197763
990.000000	93.224941
989.000000	93.251930
988.000000	93.277849
987.000000	93.306713
986.000000	93.342827
985.000000	93.384715
984.000000	93.428516
983.000000	93.473867
982.000000	93.523022
981.000000	93.577828
980.000000	93.639872
979.000000	93.709291
978.000000	93.781661
977.000000	93.850973
976.000000	93.917453
975.000000	93.987411
974.000000	94.063977
973.000000	94.143572
972.000000	94.222921
971.000000	94.303430
970.000000	94.386257
969.000000	94.468532
968.000000	94.547091
967.000000	94.622001
966.000000	94.695625
965.000000	94.772658
964.000000	94.860108
963.000000	94.959933
962.000000	95.060976
961.000000	95.146355
960.000000	95.211380
959.000000	95.268027
958.000000	95.330463
957.000000	95.402492
956.000000	95.480448
955.000000	95.559370
954.000000	95.632201
953.000000	95.691140
952.000000	95.735577
951.000000	95.773671
950.000000	95.812175
949.000000	95.850079
948.000000	95.885869
947.000000	95.923481
946.000000	95.965039
945.000000	96.003955
944.000000	96.032554
943.000000	96.053118
942.000000	96.075588
941.000000	96.106587
940.000000	96.145297
939.000000	96.187226
938.000000	96.227205
937.000000	96.261073
936.000000	96.288773
935.000000	96.314576
934.000000	96.342158
933.000000	96.371661
932.000000	96.402640
931.000000	96.435758
930.000000	96.469753
929.000000	96.501342
928.000000	96.530253
927.000000	96.559712
926.000000	96.590291
925.000000	96.618908
924.000000	96.645795
923.000000	96.675441
922.000000	96.707516
921.000000	96.734509
920.000000	96.753284
919.000000	96.771838
918.000000	96.798338
917.000000	96.829544
916.000000	96.856860
915.000000	96.878622
914.000000	96.899520
913.000000	96.922793
912.000000	96.950539
911.000000	96.987236
910.000000	97.034558
909.000000	97.085666
908.000000	97.132617
907.000000	97.177428
906.000000	97.227619
905.000000	97.282421
904.000000	97.331941
903.000000	97.370933
902.000000	97.407199
901.000000	97.454443
900.000000	97.520580
899.000000	97.602509
898.000000	97.687782
897.000000	97.763035
896.000000	97.825346
895.000000	97.884216
894.000000	97.948780
893.000000	98.015329
892.000000	98.073183
891.000000	98.121167
890.000000	98.170595
889.000000	98.230553
888.000000	98.296695
887.000000	98.357808
886.000000	98.408369
885.000000	98.450792
884.000000	98.489123
883.000000	98.525129
882.000000	98.559629
881.000000	98.594224
880.000000	98.630797
879.000000	98.670108
878.000000	98.711330
877.000000	98.753380
876.000000	98.796673
875.000000	98.842408
874.000000	98.890227
873.000000	98.938937
872.000000	98.989599
871.000000	99.043843
870.000000	99.097823
869.000000	99.143383
868.000000	99.178829
867.000000	99.213544
866.000000	99.256293
865.000000	99.302544
864.000000	99.340575
863.000000	99.368181
862.000000	99.395998
861.000000	99.434371
860.000000	99.483272
859.000000	99.535457
858.000000	99.582950
857.000000	99.619759
856.000000	99.645029
855.000000	99.665834
854.000000	99.691553
853.000000	99.723493
852.000000	99.755001
851.000000	99.782181
850.000000	99.807223
849.000000	99.829640
848.000000	99.843569
847.000000	99.849225
846.000000	99.859396
845.000000	99.886516
844.000000	99.927104
843.000000	99.965900
842.000000	99.992613
841.000000	100.007897
840.000000	100.015042
839.000000	100.014100
838.000000	100.005914
837.000000	99.995860
836.000000	99.989863
835.000000	99.988596
834.000000	99.987598
833.000000	99.982497
832.000000	99.973266
831.000000	99.963683
830.000000	99.957083
829.000000	99.953297
828.000000	99.950625
827.000000	99.949432
826.000000	99.950930
825.000000	99.953254
824.000000	99.953649
823.000000	99.955730
822.000000	99.968700
821.000000	99.995526
820.000000	100.025564
819.000000	100.042008
818.000000	100.034525
817.000000	100.003395
816.000000	99.954310
815.000000	99.892311
814.000000	99.819432
813.000000	99.734170
812.000000	99.631526
811.000000	99.504460
810.000000	99.346580
809.000000	99.155079
808.000000	98.933248
807.000000	98.690625
806.000000	98.438689
805.000000	98.185388
804.000000	97.935008
803.000000	97.693134
802.000000	97.470282
801.000000	97.280687
800.000000	97.136970
799.000000	97.042763
798.000000	96.989202
797.000000	96.962100
796.000000	96.954059
795.000000	96.966085
794.000000	96.997622
793.000000	97.041135
792.000000	97.087450
791.000000	97.128866
790.000000	97.154100
789.000000	97.149056
788.000000	97.110267
787.000000	97.052624
786.000000	96.995118
785.000000	96.940491
784.000000	96.876348
783.000000	96.795314
782.000000	96.706455
781.000000	96.625724
780.000000	96.561814
779.000000	96.514222
778.000000	96.481222
777.000000	96.467436
776.000000	96.484265
775.000000	96.541218
774.000000	96.633862
773.000000	96.741507
772.000000	96.841438
771.000000	96.926681
770.000000	97.007363
769.000000	97.094087
768.000000	97.182216
767.000000	97.254529
766.000000	97.299885
765.000000	97.327800
764.000000	97.361445
763.000000	97.414417
762.000000	97.477004
761.000000	97.529537
760.000000	97.567530
759.000000	97.606212
758.000000	97.658892
757.000000	97.719120
756.000000	97.769805
755.000000	97.804509
754.000000	97.832927
753.000000	97.868359
752.000000	97.916320
751.000000	97.973664
750.000000	98.031985
749.000000	98.081800
748.000000	98.119399
747.000000	98.151559
746.000000	98.190384
745.000000	98.241934
744.000000	98.301060
743.000000	98.356657
742.000000	98.400702
741.000000	98.434732
740.000000	98.470117
739.000000	98.519107
738.000000	98.581724
737.000000	98.644330
736.000000	98.696035
735.000000	98.742999
734.000000	98.798904
733.000000	98.862112
732.000000	98.911649
731.000000	98.929877
730.000000	98.923003
729.000000	98.915497
728.000000	98.927478
727.000000	98.959995
726.000000	98.998540
725.000000	99.027856
724.000000	99.047040
723.000000	99.072468
722.000000	99.121987
721.000000	99.192771
720.000000	99.258847
719.000000	99.297729
718.000000	99.313747
717.000000	99.326739
716.000000	99.346168
715.000000	99.365571
714.000000	99.377871
713.000000	99.387137
712.000000	99.403814
711.000000	99.433515
710.000000	99.471980
709.000000	99.507288
708.000000	99.526146
707.000000	99.521850
706.000000	99.498591
705.000000	99.467706
704.000000	99.439225
703.000000	99.415751
702.000000	99.390066
701.000000	99.345038
700.000000	99.260107
699.000000	99.126543
698.000000	98.960005
697.000000	98.795433
696.000000	98.666338
695.000000	98.588918
694.000000	98.563600
693.000000	98.584137
692.000000	98.640822
691.000000	98.718907
690.000000	98.801375
689.000000	98.878356
688.000000	98.953365
687.000000	99.035676
686.000000	99.124178
685.000000	99.202735
684.000000	99.257306
683.000000	99.294778
682.000000	99.335268
681.000000	99.385421
680.000000	99.431005
679.000000	99.462475
678.000000	99.494493
677.000000	99.546734
676.000000	99.613576
675.000000	99.669713
674.000000	99.705996
673.000000	99.738097
672.000000	99.778348
671.000000	99.822416
670.000000	99.868865
669.000000	99.925278
668.000000	99.966763
667.000000	99.979539
666.000000	100.000267
665.000000	100.035119
664.000000	100.066213
663.000000	100.079484
662.000000	100.075639
661.000000	100.078852
660.000000	100.111923
659.000000	100.164765
658.000000	100.203121
657.000000	100.209792
656.000000	100.199390
655.000000	100.189547
654.000000	100.179136
653.000000	100.161315
652.000000	100.139846
651.000000	100.124909
650.000000	100.121983
