4000.000000	102.406103
3999.000000	102.398572
3998.000000	102.391150
3997.000000	102.385207
3996.000000	102.381047
3995.000000	102.377955
3994.000000	102.374357
3993.000000	102.369636
3992.000000	102.364410
3991.000000	102.359813
3990.000000	102.356397
3989.000000	102.353422
3988.000000	102.349420
3987.000000	102.343689
3986.000000	102.336813
3985.000000	102.330268
3984.000000	102.324971
3983.000000	102.320676
3982.000000	102.316516
3981.000000	102.311926
3980.000000	102.306958
3979.000000	102.301785
3978.000000	102.296231
3977.000000	102.289953
3976.000000	102.283094
3975.000000	102.276644
3974.000000	102.271804
3973.000000	102.268878
3972.000000	102.267005
3971.000000	102.264942
3970.000000	102.262059
3969.000000	102.258568
3968.000000	102.254966
3967.000000	102.251387
3966.000000	102.247469
3965.000000	102.242783
3964.000000	102.237346
3963.000000	102.231753
3962.000000	102.226776
3961.000000	102.222842
3960.000000	102.219801
3959.000000	102.217062
3958.000000	102.213958
3957.000000	102.210089
3956.000000	102.205489
3955.000000	102.200534
3954.000000	102.195671
3953.000000	102.191167
3952.000000	102.187061
3951.000000	102.183282
3950.000000	102.179696
3949.000000	102.176067
3948.000000	102.172043
3947.000000	102.167354
3946.000000	102.162056
3945.000000	102.156537
3944.000000	102.151324
3943.000000	102.146689
3942.000000	102.142520
3941.000000	102.138487
3940.000000	102.134383
3939.000000	102.130257
3938.000000	102.126202
3937.000000	102.122128
3936.000000	102.117772
3935.000000	102.112938
3934.000000	102.107671
3933.000000	102.102216
3932.000000	102.096827
3931.000000	102.091593
3930.000000	102.086472
3929.000000	102.081353
3928.000000	102.076151
3927.000000	102.070900
3926.000000	102.065780
3925.000000	102.060957
3924.000000	102.056400
3923.000000	102.051804
3922.000000	102.046843
3921.000000	102.041389
3920.000000	102.035585
3919.000000	102.029870
3918.000000	102.024702
3917.000000	102.020238
3916.000000	102.016190
3915.000000	102.012041
3914.000000	102.007512
3913.000000	102.002675
3912.000000	101.997766
3911.000000	101.992929
3910.000000	101.988136
3909.000000	101.983317
3908.000000	101.978556
3907.000000	101.974120
3906.000000	101.970237
3905.000000	101.966789
3904.000000	101.963210
3903.000000	101.958974
3902.000000	101.954269
3901.000000	101.949840
3900.000000	101.945970
3899.000000	101.941947
3898.000000	101.936825
3897.000000	101.930453
3896.000000	101.923505
3895.000000	101.916717
3894.000000	101.910584
3893.000000	101.905751
3892.000000	101.903267
3891.000000	101.903483
3890.000000	101.905183
3889.000000	101.906553
3888.000000	101.906724
3887.000000	101.906001
3886.000000	101.904471
3885.000000	101.901058
3884.000000	101.894926
3883.000000	101.887364
3882.000000	101.881605
3881.000000	101.880341
3880.000000	101.882941
3879.000000	101.885591
3878.000000	101.884879
3877.000000	101.880334
3876.000000	101.874085
3875.000000	101.868787
3874.000000	101.864660
3873.000000	101.858900
3872.000000	101.849081
3871.000000	101.837197
3870.000000	101.829047
3869.000000	101.828312
3868.000000	101.833704
3867.000000	101.841841
3866.000000	101.850195
3865.000000	101.856735
3864.000000	101.859181
3863.000000	101.856384
3862.000000	101.849808
3861.000000	101.842144
3860.000000	101.835338
3859.000000	101.829639
3858.000000	101.824193
3857.000000	101.818378
3856.000000	101.813019
3855.000000	101.810090
3854.000000	101.809661
3853.000000	101.807558
3852.000000	101.800819
3851.000000	101.791184
3850.000000	101.781821
3849.000000	101.774545
3848.000000	101.769600
3847.000000	101.766472
3846.000000	101.764883
3845.000000	101.764911
3844.000000	101.766043
3843.000000	101.766530
3842.000000	101.764315
3841.000000	101.758679
3840.000000	101.750869
3839.000000	101.742842
3838.000000	101.735687
3837.000000	101.729369
3836.000000	101.723605
3835.000000	101.718462
3834.000000	101.714239
3833.000000	101.711021
3832.000000	101.708374
3831.000000	101.705461
3830.000000	101.701707
3829.000000	101.697307
3828.000000	101.693012
3827.000000	101.689320
3826.000000	101.686020
3825.000000	101.682569
3824.000000	101.678677
3823.000000	101.674506
3822.000000	101.670381
3821.000000	101.666459
3820.000000	101.662648
3819.000000	101.658858
3818.000000	101.655096
3817.000000	101.651404
3816.000000	101.647799
3815.000000	101.644242
3814.000000	101.640697
3813.000000	101.637163
3812.000000	101.633672
3811.000000	101.630263
3810.000000	101.626946
3809.000000	101.623696
3808.000000	101.620471
3807.000000	101.617231
3806.000000	101.613949
3805.000000	101.610623
3804.000000	101.607278
3803.000000	101.603963
3802.000000	101.600727
3801.000000	101.597580
3800.000000	101.594491
3799.000000	101.591421
3798.000000	101.588351
3797.000000	101.585264
3796.000000	101.582155
3795.000000	101.579011
3794.000000	101.575805
3793.000000	101.572523
3792.000000	101.569181
3791.000000	101.565829
3790.000000	101.562526
3789.000000	101.559322
3788.000000	101.556244
3787.000000	101.553287
3786.000000	101.550398
3785.000000	101.547496
3784.000000	101.544497
3783.000000	101.541346
3782.000000	101.537996
3781.000000	101.534395
3780.000000	101.530598
3779.000000	101.526869
3778.000000	101.523553
3777.000000	101.520777
3776.000000	101.518321
3775.000000	101.515718
3774.000000	101.512566
3773.000000	101.508768
3772.000000	101.504716
3771.000000	101.501106
3770.000000	101.498236
3769.000000	101.495517
3768.000000	101.491959
3767.000000	101.487245
3766.000000	101.482282
3765.000000	101.478474
3764.000000	101.476369
3763.000000	101.475315
3762.000000	101.474304
3761.000000	101.472875
3760.000000	101.471081
3759.000000	101.468763
3758.000000	101.465347
3757.000000	101.460383
3756.000000	101.454139
3755.000000	101.447837
3754.000000	101.442904
3753.000000	101.439551
3752.000000	101.435912
3751.000000	101.430116
3750.000000	101.423654
3749.000000	101.419670
3748.000000	101.418685
3747.000000	101.418672
3746.000000	101.417670
3745.000000	101.415314
3744.000000	101.412058
3743.000000	101.408477
3742.000000	101.405227
3741.000000	101.402413
3740.000000	101.398799
3739.000000	101.391993
3738.000000	101.380680
3737.000000	101.367376
3736.000000	101.357310
3735.000000	101.352623
3734.000000	101.349712
3733.000000	101.344168
3732.000000	101.335891
3731.000000	101.327679
3730.000000	101.321321
3729.000000	101.316522
3728.000000	101.312092
3727.000000	101.306868
3726.000000	101.300008
3725.000000	101.291651
3724.000000	101.283242
3723.000000	101.276266
3722.000000	101.270788
3721.000000	101.265488
3720.000000	101.259309
3719.000000	101.252438
3718.000000	101.245401
3717.000000	101.237398
3716.000000	101.226464
3715.000000	101.211932
3714.000000	101.196615
3713.000000	101.185589
3712.000000	101.181400
3711.000000	101.180195
3710.000000	101.175192
3709.000000	101.164055
3708.000000	101.150127
3707.000000	101.138352
3706.000000	101.131198
3705.000000	101.127898
3704.000000	101.125561
3703.000000	101.121158
3702.000000	101.113361
3701.000000	101.103310
3700.000000	101.093282
3699.000000	101.085042
3698.000000	101.079333
3697.000000	101.076132
3696.000000	101.074612
3695.000000	101.073354
3694.000000	101.071108
3693.000000	101.066825
3692.000000	101.060076
3691.000000	101.052277
3690.000000	101.047649
3689.000000	101.049788
3688.000000	101.056739
3687.000000	101.061999
3686.000000	101.060735
3685.000000	101.053295
3684.000000	101.043509
3683.000000	101.035032
3682.000000	101.028666
3681.000000	101.023042
3680.000000	101.016082
3679.000000	101.006467
3678.000000	100.995537
3677.000000	100.988780
3676.000000	100.991823
3675.000000	101.001730
3674.000000	101.008653
3673.000000	101.006612
3672.000000	100.997163
3671.000000	100.985585
3670.000000	100.974479
3669.000000	100.961231
3668.000000	100.943745
3667.000000	100.924395
3666.000000	100.907544
3665.000000	100.895613
3664.000000	100.887810
3663.000000	100.882044
3662.000000	100.877717
3661.000000	100.875901
3660.000000	100.876746
3659.000000	100.878912
3658.000000	100.881615
3657.000000	100.886063
3656.000000	100.892731
3655.000000	100.898778
3654.000000	100.900549
3653.000000	100.897659
3652.000000	100.893231
3651.000000	100.888880
3650.000000	100.880186
3649.000000	100.863190
3648.000000	100.845095
3647.000000	100.837391
3646.000000	100.841530
3645.000000	100.849556
3644.000000	100.853853
3643.000000	100.853028
3642.000000	100.850687
3641.000000	100.850302
3640.000000	100.851922
3639.000000	100.852866
3638.000000	100.849317
3637.000000	100.837736
3636.000000	100.817006
3635.000000	100.790637
3634.000000	100.764940
3633.000000	100.743477
3632.000000	100.724594
3631.000000	100.705867
3630.000000	100.690182
3629.000000	100.684324
3628.000000	100.689591
3627.000000	100.698295
3626.000000	100.701565
3625.000000	100.696952
3624.000000	100.688970
3623.000000	100.685175
3622.000000	100.691210
3621.000000	100.707243
3620.000000	100.727185
3619.000000	100.742532
3618.000000	100.748949
3617.000000	100.747620
3616.000000	100.741650
3615.000000	100.733791
3614.000000	100.725559
3613.000000	100.716546
3612.000000	100.706038
3611.000000	100.696607
3610.000000	100.694648
3609.000000	100.704843
3608.000000	100.724006
3607.000000	100.743035
3606.000000	100.755965
3605.000000	100.764147
3604.000000	100.771240
3603.000000	100.777445
3602.000000	100.779060
3601.000000	100.773555
3600.000000	100.763995
3599.000000	100.757292
3598.000000	100.757827
3597.000000	100.764006
3596.000000	100.770758
3595.000000	100.774861
3594.000000	100.777504
3593.000000	100.781849
3592.000000	100.789784
3591.000000	100.801201
3590.000000	100.814546
3589.000000	100.826672
3588.000000	100.834102
3587.000000	100.836789
3586.000000	100.839123
3585.000000	100.845238
3584.000000	100.854685
3583.000000	100.863839
3582.000000	100.869990
3581.000000	100.873759
3580.000000	100.877400
3579.000000	100.881674
3578.000000	100.885319
3577.000000	100.887381
3576.000000	100.889073
3575.000000	100.892617
3574.000000	100.898871
3573.000000	100.906798
3572.000000	100.914863
3571.000000	100.922282
3570.000000	100.929013
3569.000000	100.935123
3568.000000	100.940534
3567.000000	100.945203
3566.000000	100.949293
3565.000000	100.953022
3564.000000	100.956582
3563.000000	100.960354
3562.000000	100.964882
3561.000000	100.970439
3560.000000	100.976746
3559.000000	100.983180
3558.000000	100.989386
3557.000000	100.995497
3556.000000	101.001708
3555.000000	101.007894
3554.000000	101.013747
3553.000000	101.019186
3552.000000	101.024495
3551.000000	101.030113
3550.000000	101.036228
3549.000000	101.042696
3548.000000	101.049190
3547.000000	101.055438
3546.000000	101.061408
3545.000000	101.067278
3544.000000	101.073317
3543.000000	101.079691
3542.000000	101.086379
3541.000000	101.093171
3540.000000	101.099821
3539.000000	101.106264
3538.000000	101.112685
3537.000000	101.119367
3536.000000	101.126385
3535.000000	101.133468
3534.000000	101.140217
3533.000000	101.146523
3532.000000	101.152779
3531.000000	101.159588
3530.000000	101.167217
3529.000000	101.175437
3528.000000	101.183784
3527.000000	101.191920
3526.000000	101.199650
3525.000000	101.206760
3524.000000	101.213089
3523.000000	101.218887
3522.000000	101.224978
3521.000000	101.232269
3520.000000	101.241130
3519.000000	101.251205
3518.000000	101.261644
3517.000000	101.271601
3516.000000	101.280667
3515.000000	101.289011
3514.000000	101.297118
3513.000000	101.305148
3512.000000	101.312555
3511.000000	101.318608
3510.000000	101.323463
3509.000000	101.328647
3508.000000	101.336032
3507.000000	101.346392
3506.000000	101.358893
3505.000000	101.371540
3504.000000	101.382479
3503.000000	101.391082
3502.000000	101.397924
3501.000000	101.403948
3500.000000	101.409801
3499.000000	101.415973
3498.000000	101.423133
3497.000000	101.431833
3496.000000	101.441844
3495.000000	101.452055
3494.000000	101.461189
3493.000000	101.468618
3492.000000	101.474482
3491.000000	101.479369
3490.000000	101.484027
3489.000000	101.489079
3488.000000	101.494769
3487.000000	101.500972
3486.000000	101.507678
3485.000000	101.515490
3484.000000	101.525280
3483.000000	101.537096
3482.000000	101.549447
3481.000000	101.560084
3480.000000	101.567847
3479.000000	101.573483
3478.000000	101.578873
3477.000000	101.585293
3476.000000	101.592410
3475.000000	101.599027
3474.000000	101.604686
3473.000000	101.610372
3472.000000	101.617555
3471.000000	101.626724
3470.000000	101.637015
3469.000000	101.647031
3468.000000	101.655944
3467.000000	101.663996
3466.000000	101.672196
3465.000000	101.681505
3464.000000	101.691960
3463.000000	101.702445
3462.000000	101.711589
3461.000000	101.719132
3460.000000	101.726457
3459.000000	101.735426
3458.000000	101.746576
3457.000000	101.758498
3456.000000	101.768983
3455.000000	101.777106
3454.000000	101.783869
3453.000000	101.791108
3452.000000	101.799741
3451.000000	101.809312
3450.000000	101.819087
3449.000000	101.829229
3448.000000	101.840570
3447.000000	101.853269
3446.000000	101.866117
3445.000000	101.877461
3444.000000	101.886682
3443.000000	101.894618
3442.000000	101.902784
3441.000000	101.912076
3440.000000	101.922177
3439.000000	101.932143
3438.000000	101.941458
3437.000000	101.950550
3436.000000	101.960262
3435.000000	101.970873
3434.000000	101.981695
3433.000000	101.991640
3432.000000	102.000263
3431.000000	102.008294
3430.000000	102.017108
3429.000000	102.027405
3428.000000	102.038249
3427.000000	102.047660
3426.000000	102.054479
3425.000000	102.059614
3424.000000	102.065214
3423.000000	102.072300
3422.000000	102.079613
3421.000000	102.085171
3420.000000	102.088978
3419.000000	102.093778
3418.000000	102.102455
3417.000000	102.115424
3416.000000	102.130364
3415.000000	102.143984
3414.000000	102.154641
3413.000000	102.162758
3412.000000	102.169662
3411.000000	102.176341
3410.000000	102.182960
3409.000000	102.189130
3408.000000	102.194422
3407.000000	102.199002
3406.000000	102.204010
3405.000000	102.210850
3404.000000	102.219670
3403.000000	102.228797
3402.000000	102.236279
3401.000000	102.242039
3400.000000	102.247869
3399.000000	102.255156
3398.000000	102.263205
3397.000000	102.270252
3396.000000	102.275751
3395.000000	102.280965
3394.000000	102.287314
3393.000000	102.294657
3392.000000	102.301360
3391.000000	102.305773
3390.000000	102.307475
3389.000000	102.307495
3388.000000	102.307755
3387.000000	102.310136
3386.000000	102.315495
3385.000000	102.323071
3384.000000	102.330746
3383.000000	102.336544
3382.000000	102.340539
3381.000000	102.345140
3380.000000	102.352888
3379.000000	102.363460
3378.000000	102.373144
3377.000000	102.378199
3376.000000	102.378219
3375.000000	102.376068
3374.000000	102.375053
3373.000000	102.376162
3372.000000	102.378524
3371.000000	102.381294
3370.000000	102.384280
3369.000000	102.387467
3368.000000	102.390889
3367.000000	102.394843
3366.000000	102.399393
3365.000000	102.403554
3364.000000	102.405809
3363.000000	102.405716
3362.000000	102.404331
3361.000000	102.402738
3360.000000	102.400929
3359.000000	102.398884
3358.000000	102.397960
3357.000000	102.399797
3356.000000	102.403778
3355.000000	102.406667
3354.000000	102.405624
3353.000000	102.401021
3352.000000	102.395931
3351.000000	102.393156
3350.000000	102.393249
3349.000000	102.395207
3348.000000	102.398052
3347.000000	102.401272
3346.000000	102.404477
3345.000000	102.407498
3344.000000	102.410433
3343.000000	102.412707
3342.000000	102.412195
3341.000000	102.406368
3340.000000	102.395097
3339.000000	102.382216
3338.000000	102.373453
3337.000000	102.372443
3336.000000	102.378928
3335.000000	102.389992
3334.000000	102.402122
3333.000000	102.412188
3332.000000	102.417568
3331.000000	102.416801
3330.000000	102.410793
3329.000000	102.402766
3328.000000	102.396179
3327.000000	102.392552
3326.000000	102.391328
3325.000000	102.391093
3324.000000	102.390304
3323.000000	102.387245
3322.000000	102.380536
3321.000000	102.370502
3320.000000	102.359689
3319.000000	102.351190
3318.000000	102.346335
3317.000000	102.344406
3316.000000	102.344451
3315.000000	102.346619
3314.000000	102.351157
3313.000000	102.356615
3312.000000	102.360087
3311.000000	102.359407
3310.000000	102.354367
3309.000000	102.345308
3308.000000	102.331574
3307.000000	102.312780
3306.000000	102.291671
3305.000000	102.274191
3304.000000	102.265036
3303.000000	102.263527
3302.000000	102.264376
3301.000000	102.262655
3300.000000	102.257579
3299.000000	102.251013
3298.000000	102.244067
3297.000000	102.236663
3296.000000	102.229587
3295.000000	102.224692
3294.000000	102.222313
3293.000000	102.219936
3292.000000	102.214579
3291.000000	102.205756
3290.000000	102.195275
3289.000000	102.184880
3288.000000	102.175057
3287.000000	102.165718
3286.000000	102.156883
3285.000000	102.148571
3284.000000	102.140726
3283.000000	102.133422
3282.000000	102.126685
3281.000000	102.119930
3280.000000	102.111969
3279.000000	102.101933
3278.000000	102.090108
3277.000000	102.077901
3276.000000	102.067036
3275.000000	102.058660
3274.000000	102.052882
3273.000000	102.048676
3272.000000	102.044333
3271.000000	102.038378
3270.000000	102.030303
3269.000000	102.020537
3268.000000	102.010021
3267.000000	101.999663
3266.000000	101.989774
3265.000000	101.979916
3264.000000	101.969494
3263.000000	101.958686
3262.000000	101.948536
3261.000000	101.939838
3260.000000	101.932243
3259.000000	101.924853
3258.000000	101.917077
3257.000000	101.908521
3256.000000	101.898550
3255.000000	101.886789
3254.000000	101.874183
3253.000000	101.862826
3252.000000	101.854068
3251.000000	101.847051
3250.000000	101.839364
3249.000000	101.829137
3248.000000	101.816310
3247.000000	101.802425
3246.000000	101.789643
3245.000000	101.779453
3244.000000	101.771726
3243.000000	101.764756
3242.000000	101.756633
3241.000000	101.746709
3240.000000	101.735401
3239.000000	101.722779
3238.000000	101.708006
3237.000000	101.690698
3236.000000	101.672513
3235.000000	101.656429
3234.000000	101.643894
3233.000000	101.633175
3232.000000	101.621047
3231.000000	101.606354
3230.000000	101.591255
3229.000000	101.578571
3228.000000	101.568492
3227.000000	101.558479
3226.000000	101.546131
3225.000000	101.531543
3224.000000	101.516883
3223.000000	101.504408
3222.000000	101.494857
3221.000000	101.486794
3220.000000	101.476929
3219.000000	101.462054
3218.000000	101.441681
3217.000000	101.419125
3216.000000	101.399057
3215.000000	101.383349
3214.000000	101.370110
3213.000000	101.356893
3212.000000	101.344394
3211.000000	101.335832
3210.000000	101.332801
3209.000000	101.332586
3208.000000	101.330174
3207.000000	101.322708
3206.000000	101.310680
3205.000000	101.295354
3204.000000	101.276550
3203.000000	101.253983
3202.000000	101.230029
3201.000000	101.209229
3200.000000	101.194228
3199.000000	101.183314
3198.000000	101.172281
3197.000000	101.158286
3196.000000	101.141514
3195.000000	101.123893
3194.000000	101.107495
3193.000000	101.093949
3192.000000	101.083951
3191.000000	101.076473
3190.000000	101.069207
3189.000000	101.060681
3188.000000	101.051558
3187.000000	101.043183
3186.000000	101.035051
3185.000000	101.024573
3184.000000	101.009589
3183.000000	100.990465
3182.000000	100.969543
3181.000000	100.949150
3180.000000	100.930851
3179.000000	100.916097
3178.000000	100.906078
3177.000000	100.900174
3176.000000	100.895125
3175.000000	100.887124
3174.000000	100.875188
3173.000000	100.861678
3172.000000	100.849450
3171.000000	100.838927
3170.000000	100.828373
3169.000000	100.816630
3168.000000	100.804850
3167.000000	100.795440
3166.000000	100.789760
3165.000000	100.786771
3164.000000	100.783194
3163.000000	100.775257
3162.000000	100.760995
3161.000000	100.741510
3160.000000	100.720479
3159.000000	100.701572
3158.000000	100.686109
3157.000000	100.673462
3156.000000	100.662970
3155.000000	100.654817
3154.000000	100.648819
3153.000000	100.643125
3152.000000	100.635184
3151.000000	100.624133
3150.000000	100.611581
3149.000000	100.599616
3148.000000	100.588362
3147.000000	100.576414
3146.000000	100.563650
3145.000000	100.552344
3144.000000	100.544603
3143.000000	100.539298
3142.000000	100.532612
3141.000000	100.521757
3140.000000	100.507205
3139.000000	100.491326
3138.000000	100.475849
3137.000000	100.461190
3136.000000	100.447389
3135.000000	100.434534
3134.000000	100.422616
3133.000000	100.412137
3132.000000	100.404672
3131.000000	100.401428
3130.000000	100.400765
3129.000000	100.398141
3128.000000	100.389821
3127.000000	100.376424
3126.000000	100.362394
3125.000000	100.351919
3124.000000	100.345874
3123.000000	100.342648
3122.000000	100.340702
3121.000000	100.339382
3120.000000	100.337659
3119.000000	100.333726
3118.000000	100.326545
3117.000000	100.316888
3116.000000	100.306138
3115.000000	100.294493
3114.000000	100.281231
3113.000000	100.266620
3112.000000	100.252517
3111.000000	100.240783
3110.000000	100.232046
3109.000000	100.226482
3108.000000	100.224642
3107.000000	100.226303
3106.000000	100.228788
3105.000000	100.227907
3104.000000	100.221452
3103.000000	100.211258
3102.000000	100.201731
3101.000000	100.196129
3100.000000	100.194342
3099.000000	100.193734
3098.000000	100.191312
3097.000000	100.185273
3096.000000	100.175437
3095.000000	100.163269
3094.000000	100.151328
3093.000000	100.141697
3092.000000	100.134437
3091.000000	100.127852
3090.000000	100.120787
3089.000000	100.114568
3088.000000	100.111856
3087.000000	100.113580
3086.000000	100.117499
3085.000000	100.119916
3084.000000	100.118627
3083.000000	100.113495
3082.000000	100.104927
3081.000000	100.093180
3080.000000	100.079521
3079.000000	100.066866
3078.000000	100.057907
3077.000000	100.052944
3076.000000	100.050192
3075.000000	100.048037
3074.000000	100.046312
3073.000000	100.045149
3072.000000	100.043588
3071.000000	100.040234
3070.000000	100.034845
3069.000000	100.028510
3068.000000	100.022378
3067.000000	100.016947
3066.000000	100.012732
3065.000000	100.010656
3064.000000	100.011018
3063.000000	100.012464
3062.000000	100.012792
3061.000000	100.010897
3060.000000	100.007342
3059.000000	100.002804
3058.000000	99.996632
3057.000000	99.987767
3056.000000	99.977078
3055.000000	99.967982
3054.000000	99.964167
3053.000000	99.967036
3052.000000	99.975373
3051.000000	99.986565
3050.000000	99.997114
3049.000000	100.002290
3048.000000	99.997491
3047.000000	99.981984
3046.000000	99.960980
3045.000000	99.941926
3044.000000	99.928563
3043.000000	99.920827
3042.000000	99.920463
3041.000000	99.932634
3040.000000	99.958619
3039.000000	99.988962
3038.000000	100.008931
3037.000000	100.012113
3036.000000	100.004840
3035.000000	99.995570
3034.000000	99.983661
3033.000000	99.963112
3032.000000	99.936054
3031.000000	99.916612
3030.000000	99.918506
3029.000000	99.941663
3028.000000	99.973113
3027.000000	99.999007
3026.000000	100.013566
3025.000000	100.017681
3024.000000	100.013378
3023.000000	100.002470
3022.000000	99.989052
3021.000000	99.979972
3020.000000	99.981051
3019.000000	99.993056
3018.000000	100.011642
3017.000000	100.030808
3016.000000	100.046318
3015.000000	100.056605
3014.000000	100.061719
3013.000000	100.062223
3012.000000	100.059035
3011.000000	100.054004
3010.000000	100.050486
3009.000000	100.053124
3008.000000	100.066494
3007.000000	100.093087
3006.000000	100.131709
3005.000000	100.177303
3004.000000	100.222674
3003.000000	100.261411
3002.000000	100.290075
3001.000000	100.308500
3000.000000	100.319230
2999.000000	100.327769
2998.000000	100.342898
2997.000000	100.374048
2996.000000	100.425485
2995.000000	100.492141
2994.000000	100.562714
2993.000000	100.628921
2992.000000	100.692299
2991.000000	100.761618
2990.000000	100.844012
2989.000000	100.939244
2988.000000	101.042304
2987.000000	101.150023
2986.000000	101.263914
2985.000000	101.387058
2984.000000	101.520214
2983.000000	101.661832
2982.000000	101.809750
2981.000000	101.959649
2980.000000	102.101806
2979.000000	102.223341
2978.000000	102.317118
2977.000000	102.387256
2976.000000	102.442755
2975.000000	102.485610
2974.000000	102.508147
2973.000000	102.501762
2972.000000	102.463842
2971.000000	102.394471
2970.000000	102.291760
2969.000000	102.156844
2968.000000	102.002626
2967.000000	101.851426
2966.000000	101.720220
2965.000000	101.610122
2964.000000	101.511694
2963.000000	101.417908
2962.000000	101.329308
2961.000000	101.248613
2960.000000	101.175293
2959.000000	101.107191
2958.000000	101.044501
2957.000000	100.988843
2956.000000	100.939270
2955.000000	100.892800
2954.000000	100.850602
2953.000000	100.821348
2952.000000	100.815080
2951.000000	100.832910
2950.000000	100.863999
2949.000000	100.893394
2948.000000	100.912235
2947.000000	100.920531
2946.000000	100.922772
2945.000000	100.923857
2944.000000	100.928488
2943.000000	100.940549
2942.000000	100.960329
2941.000000	100.983153
2940.000000	101.003042
2939.000000	101.018546
2938.000000	101.033790
2937.000000	101.053072
2936.000000	101.075336
2935.000000	101.095451
2934.000000	101.110860
2933.000000	101.124855
2932.000000	101.141935
2931.000000	101.161458
2930.000000	101.178606
2929.000000	101.191447
2928.000000	101.203859
2927.000000	101.219606
2926.000000	101.235883
2925.000000	101.245168
2924.000000	101.241840
2923.000000	101.224354
2922.000000	101.193134
2921.000000	101.151503
2920.000000	101.109421
2919.000000	101.080880
2918.000000	101.073471
2917.000000	101.082756
2916.000000	101.099472
2915.000000	101.120089
2914.000000	101.146612
2913.000000	101.177524
2912.000000	101.204789
2911.000000	101.221882
2910.000000	101.230767
2909.000000	101.237627
2908.000000	101.244448
2907.000000	101.249531
2906.000000	101.255599
2905.000000	101.271527
2904.000000	101.302198
2903.000000	101.339105
2902.000000	101.365987
2901.000000	101.375110
2900.000000	101.374235
2899.000000	101.375836
2898.000000	101.382374
2897.000000	101.386252
2896.000000	101.383204
2895.000000	101.380001
2894.000000	101.386449
2893.000000	101.403283
2892.000000	101.422223
2891.000000	101.436309
2890.000000	101.445205
2889.000000	101.449998
2888.000000	101.447809
2887.000000	101.435163
2886.000000	101.414811
2885.000000	101.395790
2884.000000	101.386283
2883.000000	101.387869
2882.000000	101.395924
2881.000000	101.402895
2880.000000	101.401270
2879.000000	101.387373
2878.000000	101.365373
2877.000000	101.346368
2876.000000	101.339748
2875.000000	101.343521
2874.000000	101.344291
2873.000000	101.328368
2872.000000	101.293140
2871.000000	101.248370
2870.000000	101.207329
2869.000000	101.176947
2868.000000	101.155732
2867.000000	101.138394
2866.000000	101.120288
2865.000000	101.098338
2864.000000	101.071155
2863.000000	101.040299
2862.000000	101.009812
2861.000000	100.981903
2860.000000	100.953380
2859.000000	100.918730
2858.000000	100.877111
2857.000000	100.834393
2856.000000	100.798177
2855.000000	100.772900
2854.000000	100.759902
2853.000000	100.758150
2852.000000	100.761611
2851.000000	100.758227
2850.000000	100.736798
2849.000000	100.697024
2848.000000	100.651107
2847.000000	100.613749
2846.000000	100.590737
2845.000000	100.577390
2844.000000	100.565323
2843.000000	100.549409
2842.000000	100.529647
2841.000000	100.509006
2840.000000	100.490826
2839.000000	100.477203
2838.000000	100.468165
2837.000000	100.461721
2836.000000	100.455228
2835.000000	100.447432
2834.000000	100.439184
2833.000000	100.431754
2832.000000	100.424534
2831.000000	100.415319
2830.000000	100.403163
2829.000000	100.389980
2828.000000	100.378356
2827.000000	100.368360
2826.000000	100.357878
2825.000000	100.346001
2824.000000	100.334403
2823.000000	100.324787
2822.000000	100.316404
2821.000000	100.307311
2820.000000	100.297356
2819.000000	100.288471
2818.000000	100.282241
2817.000000	100.278386
2816.000000	100.275691
2815.000000	100.273339
2814.000000	100.270893
2813.000000	100.267514
2812.000000	100.261711
2811.000000	100.251780
2810.000000	100.236536
2809.000000	100.216381
2808.000000	100.194556
2807.000000	100.176612
2806.000000	100.167117
2805.000000	100.166249
2804.000000	100.169240
2803.000000	100.169535
2802.000000	100.163642
2801.000000	100.152907
2800.000000	100.141165
2799.000000	100.131289
2798.000000	100.123990
2797.000000	100.119050
2796.000000	100.116376
2795.000000	100.115408
2794.000000	100.114442
2793.000000	100.111554
2792.000000	100.106192
2791.000000	100.099530
2790.000000	100.093423
2789.000000	100.089150
2788.000000	100.086808
2787.000000	100.085359
2786.000000	100.083324
2785.000000	100.080035
2784.000000	100.076414
2783.000000	100.074082
2782.000000	100.073520
2781.000000	100.073413
2780.000000	100.071932
2779.000000	100.068566
2778.000000	100.064356
2777.000000	100.060793
2776.000000	100.058522
2775.000000	100.057185
2774.000000	100.056155
2773.000000	100.055133
2772.000000	100.054057
2771.000000	100.052734
2770.000000	100.050879
2769.000000	100.048515
2768.000000	100.046075
2767.000000	100.044133
2766.000000	100.042922
2765.000000	100.042265
2764.000000	100.041816
2763.000000	100.041272
2762.000000	100.040543
2761.000000	100.039713
2760.000000	100.038996
2759.000000	100.038589
2758.000000	100.038484
2757.000000	100.038420
2756.000000	100.038075
2755.000000	100.037298
2754.000000	100.036206
2753.000000	100.035118
2752.000000	100.034290
2751.000000	100.033743
2750.000000	100.033344
2749.000000	100.032987
2748.000000	100.032577
2747.000000	100.031859
2746.000000	100.030537
2745.000000	100.028773
2744.000000	100.027423
2743.000000	100.027411
2742.000000	100.028740
2741.000000	100.030419
2740.000000	100.031691
2739.000000	100.032974
2738.000000	100.035041
2737.000000	100.037375
2736.000000	100.038250
2735.000000	100.036738
2734.000000	100.033589
2733.000000	100.029959
2732.000000	100.026098
2731.000000	100.022054
2730.000000	100.018979
2729.000000	100.018527
2728.000000	100.021120
2727.000000	100.025716
2726.000000	100.031222
2725.000000	100.037196
2724.000000	100.042941
2723.000000	100.047046
2722.000000	100.048458
2721.000000	100.046904
2720.000000	100.041937
2719.000000	100.033220
2718.000000	100.022230
2717.000000	100.012517
2716.000000	100.007220
2715.000000	100.006031
2714.000000	100.005398
2713.000000	100.002046
2712.000000	99.996319
2711.000000	99.991706
2710.000000	99.991045
2709.000000	99.993593
2708.000000	99.996057
2707.000000	99.996293
2706.000000	99.995174
2705.000000	99.994561
2704.000000	99.994458
2703.000000	99.993229
2702.000000	99.990220
2701.000000	99.986817
2700.000000	99.984572
2699.000000	99.983169
2698.000000	99.980950
2697.000000	99.977026
2696.000000	99.972236
2695.000000	99.968178
2694.000000	99.965727
2693.000000	99.964643
2692.000000	99.964102
2691.000000	99.963406
2690.000000	99.962371
2689.000000	99.961149
2688.000000	99.959804
2687.000000	99.958037
2686.000000	99.955443
2685.000000	99.952091
2684.000000	99.948616
2683.000000	99.945675
2682.000000	99.943312
2681.000000	99.941137
2680.000000	99.938859
2679.000000	99.936478
2678.000000	99.934093
2677.000000	99.931776
2676.000000	99.929546
2675.000000	99.927367
2674.000000	99.925170
2673.000000	99.922949
2672.000000	99.920789
2671.000000	99.918759
2670.000000	99.916842
2669.000000	99.914950
2668.000000	99.912989
2667.000000	99.910926
2666.000000	99.908789
2665.000000	99.906662
2664.000000	99.904608
2663.000000	99.902621
2662.000000	99.900625
2661.000000	99.898551
2660.000000	99.896414
2659.000000	99.894356
2658.000000	99.892537
2657.000000	99.890991
2656.000000	99.889597
2655.000000	99.888206
2654.000000	99.886767
2653.000000	99.885320
2652.000000	99.883930
2651.000000	99.882681
2650.000000	99.881635
2649.000000	99.880781
2648.000000	99.880007
2647.000000	99.879172
2646.000000	99.878236
2645.000000	99.877284
2644.000000	99.876442
2643.000000	99.875733
2642.000000	99.875077
2641.000000	99.874407
2640.000000	99.873763
2639.000000	99.873232
2638.000000	99.872826
2637.000000	99.872512
2636.000000	99.872349
2635.000000	99.872444
2634.000000	99.872807
2633.000000	99.873297
2632.000000	99.873706
2631.000000	99.873888
2630.000000	99.873824
2629.000000	99.873597
2628.000000	99.873400
2627.000000	99.873435
2626.000000	99.873787
2625.000000	99.874382
2624.000000	99.874980
2623.000000	99.875400
2622.000000	99.875660
2621.000000	99.875929
2620.000000	99.876333
2619.000000	99.876794
2618.000000	99.877132
2617.000000	99.877340
2616.000000	99.877695
2615.000000	99.878491
2614.000000	99.879620
2613.000000	99.880570
2612.000000	99.881003
2611.000000	99.880997
2610.000000	99.880756
2609.000000	99.880505
2608.000000	99.880620
2607.000000	99.881417
2606.000000	99.882593
2605.000000	99.883314
2604.000000	99.883198
2603.000000	99.882996
2602.000000	99.883812
2601.000000	99.885644
2600.000000	99.887125
2599.000000	99.886951
2598.000000	99.885323
2597.000000	99.883675
2596.000000	99.882938
2595.000000	99.882565
2594.000000	99.881594
2593.000000	99.880252
2592.000000	99.879792
2591.000000	99.880730
2590.000000	99.882012
2589.000000	99.882209
2588.000000	99.881025
2587.000000	99.879259
2586.000000	99.877806
2585.000000	99.877275
2584.000000	99.878092
2583.000000	99.879968
2582.000000	99.881415
2581.000000	99.880838
2580.000000	99.878425
2579.000000	99.876165
2578.000000	99.875370
2577.000000	99.874969
2576.000000	99.873278
2575.000000	99.871254
2574.000000	99.872286
2573.000000	99.878116
2572.000000	99.886157
2571.000000	99.891505
2570.000000	99.892210
2569.000000	99.891107
2568.000000	99.892384
2567.000000	99.896937
2566.000000	99.901865
2565.000000	99.904142
2564.000000	99.903734
2563.000000	99.902706
2562.000000	99.902712
2561.000000	99.904171
2560.000000	99.907167
2559.000000	99.911704
2558.000000	99.916893
2557.000000	99.920985
2556.000000	99.922811
2555.000000	99.922665
2554.000000	99.921648
2553.000000	99.920707
2552.000000	99.920639
2551.000000	99.922374
2550.000000	99.926330
2549.000000	99.931463
2548.000000	99.935598
2547.000000	99.937253
2546.000000	99.936759
2545.000000	99.935590
2544.000000	99.934786
2543.000000	99.934258
2542.000000	99.933518
2541.000000	99.932512
2540.000000	99.931637
2539.000000	99.931264
2538.000000	99.931526
2537.000000	99.932471
2536.000000	99.934100
2535.000000	99.936097
2534.000000	99.937723
2533.000000	99.938286
2532.000000	99.937714
2531.000000	99.936505
2530.000000	99.935288
2529.000000	99.934454
2528.000000	99.934210
2527.000000	99.934666
2526.000000	99.935667
2525.000000	99.936688
2524.000000	99.937091
2523.000000	99.936671
2522.000000	99.935755
2521.000000	99.934933
2520.000000	99.934579
2519.000000	99.934713
2518.000000	99.935149
2517.000000	99.935612
2516.000000	99.935830
2515.000000	99.935678
2514.000000	99.935268
2513.000000	99.934891
2512.000000	99.934770
2511.000000	99.934874
2510.000000	99.934982
2509.000000	99.934919
2508.000000	99.934705
2507.000000	99.934465
2506.000000	99.934259
2505.000000	99.934094
2504.000000	99.934036
2503.000000	99.934202
2502.000000	99.934670
2501.000000	99.935369
2500.000000	99.936060
2499.000000	99.936575
2498.000000	99.937023
2497.000000	99.937604
2496.000000	99.938187
2495.000000	99.938429
2494.000000	99.938292
2493.000000	99.938146
2492.000000	99.938248
2491.000000	99.938299
2490.000000	99.937710
2489.000000	99.936258
2488.000000	99.934425
2487.000000	99.933085
2486.000000	99.932881
2485.000000	99.933826
2484.000000	99.935334
2483.000000	99.936620
2482.000000	99.937225
2481.000000	99.937278
2480.000000	99.937351
2479.000000	99.937971
2478.000000	99.939137
2477.000000	99.940248
2476.000000	99.940678
2475.000000	99.940454
2474.000000	99.940114
2473.000000	99.939826
2472.000000	99.939085
2471.000000	99.937651
2470.000000	99.936389
2469.000000	99.936510
2468.000000	99.937958
2467.000000	99.939215
2466.000000	99.938987
2465.000000	99.937693
2464.000000	99.937011
2463.000000	99.938257
2462.000000	99.941475
2461.000000	99.945508
2460.000000	99.948455
2459.000000	99.948645
2458.000000	99.945713
2457.000000	99.941111
2456.000000	99.937293
2455.000000	99.935531
2454.000000	99.935148
2453.000000	99.934776
2452.000000	99.933953
2451.000000	99.933298
2450.000000	99.933388
2449.000000	99.934070
2448.000000	99.934910
2447.000000	99.935843
2446.000000	99.937133
2445.000000	99.938866
2444.000000	99.940890
2443.000000	99.943073
2442.000000	99.945045
2441.000000	99.945877
2440.000000	99.944674
2439.000000	99.941845
2438.000000	99.939497
2437.000000	99.939655
2436.000000	99.942239
2435.000000	99.945260
2434.000000	99.947178
2433.000000	99.948498
2432.000000	99.950516
2431.000000	99.953210
2430.000000	99.955123
2429.000000	99.955269
2428.000000	99.954554
2427.000000	99.955022
2426.000000	99.957846
2425.000000	99.962272
2424.000000	99.966367
2423.000000	99.968915
2422.000000	99.970435
2421.000000	99.972305
2420.000000	99.974955
2419.000000	99.977247
2418.000000	99.977662
2417.000000	99.975744
2416.000000	99.972504
2415.000000	99.969982
2414.000000	99.970139
2413.000000	99.973489
2412.000000	99.978383
2411.000000	99.982181
2410.000000	99.983927
2409.000000	99.985204
2408.000000	99.987578
2407.000000	99.989621
2406.000000	99.988154
2405.000000	99.982761
2404.000000	99.977154
2403.000000	99.975310
2402.000000	99.977661
2401.000000	99.981329
2400.000000	99.982988
2399.000000	99.981212
2398.000000	99.976511
2397.000000	99.969964
2396.000000	99.962586
2395.000000	99.955691
2394.000000	99.950608
2393.000000	99.947761
2392.000000	99.946328
2391.000000	99.945258
2390.000000	99.944333
2389.000000	99.943956
2388.000000	99.944105
2387.000000	99.944291
2386.000000	99.944398
2385.000000	99.944500
2384.000000	99.943495
2383.000000	99.938853
2382.000000	99.929088
2381.000000	99.916401
2380.000000	99.906076
2379.000000	99.902108
2378.000000	99.903223
2377.000000	99.903961
2376.000000	99.899519
2375.000000	99.889312
2374.000000	99.876231
2373.000000	99.863766
2372.000000	99.854172
2371.000000	99.848203
2370.000000	99.845154
2369.000000	99.843525
2368.000000	99.842496
2367.000000	99.842475
2366.000000	99.843434
2365.000000	99.843281
2364.000000	99.838630
2363.000000	99.826774
2362.000000	99.809073
2361.000000	99.791694
2360.000000	99.779969
2359.000000	99.775034
2358.000000	99.774686
2357.000000	99.778041
2356.000000	99.786117
2355.000000	99.795850
2354.000000	99.801279
2353.000000	99.799934
2352.000000	99.796700
2351.000000	99.797139
2350.000000	99.799641
2349.000000	99.799652
2348.000000	99.795101
2347.000000	99.789658
2346.000000	99.789032
2345.000000	99.794914
2344.000000	99.804748
2343.000000	99.813972
2342.000000	99.820486
2341.000000	99.823286
2340.000000	99.822101
2339.000000	99.818764
2338.000000	99.816850
2337.000000	99.818931
2336.000000	99.824323
2335.000000	99.829917
2334.000000	99.833440
2333.000000	99.835335
2332.000000	99.837870
2331.000000	99.842426
2330.000000	99.847469
2329.000000	99.851148
2328.000000	99.852782
2327.000000	99.854009
2326.000000	99.856940
2325.000000	99.862476
2324.000000	99.870522
2323.000000	99.879553
2322.000000	99.888216
2321.000000	99.895116
2320.000000	99.899599
2319.000000	99.901784
2318.000000	99.902417
2317.000000	99.902469
2316.000000	99.902636
2315.000000	99.903614
2314.000000	99.905898
2313.000000	99.909680
2312.000000	99.914209
2311.000000	99.918275
2310.000000	99.921327
2309.000000	99.924169
2308.000000	99.927924
2307.000000	99.932672
2306.000000	99.937298
2305.000000	99.940553
2304.000000	99.942247
2303.000000	99.942994
2302.000000	99.943801
2301.000000	99.945517
2300.000000	99.948313
2299.000000	99.951550
2298.000000	99.954121
2297.000000	99.955578
2296.000000	99.956531
2295.000000	99.957966
2294.000000	99.960176
2293.000000	99.962679
2292.000000	99.965194
2291.000000	99.968001
2290.000000	99.971276
2289.000000	99.974369
2288.000000	99.976330
2287.000000	99.976957
2286.000000	99.977324
2285.000000	99.978904
2284.000000	99.982167
2283.000000	99.986152
2282.000000	99.989226
2281.000000	99.990485
2280.000000	99.990345
2279.000000	99.990007
2278.000000	99.990666
2277.000000	99.992978
2276.000000	99.996859
2275.000000	100.001330
2274.000000	100.004873
2273.000000	100.006824
2272.000000	100.008286
2271.000000	100.010984
2270.000000	100.014938
2269.000000	100.018048
2268.000000	100.018415
2267.000000	100.016505
2266.000000	100.014841
2265.000000	100.015726
2264.000000	100.019689
2263.000000	100.025926
2262.000000	100.033113
2261.000000	100.039660
2260.000000	100.044064
2259.000000	100.045578
2258.000000	100.044803
2257.000000	100.042965
2256.000000	100.040788
2255.000000	100.038604
2254.000000	100.037400
2253.000000	100.038658
2252.000000	100.042211
2251.000000	100.044939
2250.000000	100.042930
2249.000000	100.035506
2248.000000	100.026379
2247.000000	100.020100
2246.000000	100.017608
2245.000000	100.016549
2244.000000	100.015587
2243.000000	100.016621
2242.000000	100.021774
2241.000000	100.029518
2240.000000	100.035455
2239.000000	100.036781
2238.000000	100.034613
2237.000000	100.032074
2236.000000	100.031296
2235.000000	100.032740
2234.000000	100.036097
2233.000000	100.040407
2232.000000	100.043608
2231.000000	100.043415
2230.000000	100.039324
2229.000000	100.033250
2228.000000	100.027601
2227.000000	100.023008
2226.000000	100.018787
2225.000000	100.015573
2224.000000	100.016215
2223.000000	100.023020
2222.000000	100.034401
2221.000000	100.045114
2220.000000	100.050829
2219.000000	100.051793
2218.000000	100.051275
2217.000000	100.051402
2216.000000	100.051418
2215.000000	100.049936
2214.000000	100.047490
2213.000000	100.045969
2212.000000	100.046251
2211.000000	100.047483
2210.000000	100.048301
2209.000000	100.047770
2208.000000	100.045268
2207.000000	100.040710
2206.000000	100.035558
2205.000000	100.032603
2204.000000	100.033632
2203.000000	100.037619
2202.000000	100.041760
2201.000000	100.044485
2200.000000	100.046735
2199.000000	100.049997
2198.000000	100.053939
2197.000000	100.056557
2196.000000	100.056556
2195.000000	100.054781
2194.000000	100.053248
2193.000000	100.053093
2192.000000	100.053808
2191.000000	100.054241
2190.000000	100.053882
2189.000000	100.053198
2188.000000	100.053080
2187.000000	100.054076
2186.000000	100.056047
2185.000000	100.058333
2184.000000	100.060226
2183.000000	100.061527
2182.000000	100.062661
2181.000000	100.064203
2180.000000	100.066237
2179.000000	100.068244
2178.000000	100.069658
2177.000000	100.070506
2176.000000	100.071313
2175.000000	100.072563
2174.000000	100.074256
2173.000000	100.076042
2172.000000	100.077565
2171.000000	100.078778
2170.000000	100.079903
2169.000000	100.081182
2168.000000	100.082632
2167.000000	100.084125
2166.000000	100.085615
2165.000000	100.087188
2164.000000	100.088898
2163.000000	100.090658
2162.000000	100.092353
2161.000000	100.093931
2160.000000	100.095367
2159.000000	100.096594
2158.000000	100.097569
2157.000000	100.098483
2156.000000	100.099732
2155.000000	100.101540
2154.000000	100.103683
2153.000000	100.105780
2152.000000	100.107844
2151.000000	100.110189
2150.000000	100.112713
2149.000000	100.114657
2148.000000	100.115365
2147.000000	100.115137
2146.000000	100.114959
2145.000000	100.115279
2144.000000	100.115507
2143.000000	100.114903
2142.000000	100.113622
2141.000000	100.112612
2140.000000	100.112633
2139.000000	100.113857
2138.000000	100.116329
2137.000000	100.119959
2136.000000	100.123683
2135.000000	100.125436
2134.000000	100.124073
2133.000000	100.121121
2132.000000	100.119767
2131.000000	100.121545
2130.000000	100.124521
2129.000000	100.125274
2128.000000	100.122622
2127.000000	100.118741
2126.000000	100.116744
2125.000000	100.117619
2124.000000	100.119837
2123.000000	100.121074
2122.000000	100.119989
2121.000000	100.116904
2120.000000	100.113609
2119.000000	100.112321
2118.000000	100.114107
2117.000000	100.118119
2116.000000	100.122693
2115.000000	100.127350
2114.000000	100.132892
2113.000000	100.139277
2112.000000	100.144355
2111.000000	100.145698
2110.000000	100.143436
2109.000000	100.140519
2108.000000	100.139808
2107.000000	100.141348
2106.000000	100.143044
2105.000000	100.143544
2104.000000	100.143786
2103.000000	100.145640
2102.000000	100.149521
2101.000000	100.153675
2100.000000	100.155674
2099.000000	100.154419
2098.000000	100.150873
2097.000000	100.147426
2096.000000	100.146512
2095.000000	100.149381
2094.000000	100.155523
2093.000000	100.162770
2092.000000	100.168561
2091.000000	100.171794
2090.000000	100.173291
2089.000000	100.174031
2088.000000	100.173315
2087.000000	100.169644
2086.000000	100.163164
2085.000000	100.156418
2084.000000	100.152006
2083.000000	100.150345
2082.000000	100.150434
2081.000000	100.151718
2080.000000	100.154150
2079.000000	100.156753
2078.000000	100.157657
2077.000000	100.156180
2076.000000	100.154014
2075.000000	100.153603
2074.000000	100.155543
2073.000000	100.158134
2072.000000	100.159404
2071.000000	100.159087
2070.000000	100.158536
2069.000000	100.159211
2068.000000	100.161433
2067.000000	100.164299
2066.000000	100.166359
2065.000000	100.166489
2064.000000	100.164485
2063.000000	100.161157
2062.000000	100.157931
2061.000000	100.155995
2060.000000	100.155624
2059.000000	100.156287
2058.000000	100.157297
2057.000000	100.158300
2056.000000	100.159094
2055.000000	100.159255
2054.000000	100.158337
2053.000000	100.156496
2052.000000	100.154568
2051.000000	100.153314
2050.000000	100.152720
2049.000000	100.152232
2048.000000	100.151492
2047.000000	100.150717
2046.000000	100.150414
2045.000000	100.150810
2044.000000	100.151497
2043.000000	100.151677
2042.000000	100.150920
2041.000000	100.149505
2040.000000	100.147976
2039.000000	100.146445
2038.000000	100.144678
2037.000000	100.142765
2036.000000	100.141375
2035.000000	100.141079
2034.000000	100.141657
2033.000000	100.142162
2032.000000	100.141752
2031.000000	100.140316
2030.000000	100.138445
2029.000000	100.137044
2028.000000	100.136728
2027.000000	100.137508
2026.000000	100.138790
2025.000000	100.139720
2024.000000	100.139773
2023.000000	100.138999
2022.000000	100.137836
2021.000000	100.136705
2020.000000	100.135766
2019.000000	100.135047
2018.000000	100.134623
2017.000000	100.134476
2016.000000	100.134248
2015.000000	100.133438
2014.000000	100.132059
2013.000000	100.130983
2012.000000	100.131318
2011.000000	100.133391
2010.000000	100.136306
2009.000000	100.138573
2008.000000	100.139427
2007.000000	100.139373
2006.000000	100.139488
2005.000000	100.140108
2004.000000	100.140460
2003.000000	100.139528
2002.000000	100.137105
2001.000000	100.133907
2000.000000	100.130988
1999.000000	100.129247
1998.000000	100.129202
1997.000000	100.130835
1996.000000	100.133405
1995.000000	100.135671
1994.000000	100.136728
1993.000000	100.136622
1992.000000	100.136135
1991.000000	100.135836
1990.000000	100.135597
1989.000000	100.135344
1988.000000	100.135702
1987.000000	100.137309
1986.000000	100.139670
1985.000000	100.141217
1984.000000	100.140819
1983.000000	100.138827
1982.000000	100.136631
1981.000000	100.135325
1980.000000	100.135067
1979.000000	100.135728
1978.000000	100.137441
1977.000000	100.140240
1976.000000	100.143339
1975.000000	100.145400
1974.000000	100.145694
1973.000000	100.144621
1972.000000	100.143029
1971.000000	100.141402
1970.000000	100.140146
1969.000000	100.140383
1968.000000	100.143265
1967.000000	100.148096
1966.000000	100.152100
1965.000000	100.153483
1964.000000	100.154232
1963.000000	100.158062
1962.000000	100.165537
1961.000000	100.172642
1960.000000	100.175302
1959.000000	100.174273
1958.000000	100.173634
1957.000000	100.175185
1956.000000	100.176493
1955.000000	100.174806
1954.000000	100.170981
1953.000000	100.168490
1952.000000	100.169571
1951.000000	100.173553
1950.000000	100.178600
1949.000000	100.183847
1948.000000	100.189709
1947.000000	100.197039
1946.000000	100.206501
1945.000000	100.218062
1944.000000	100.229960
1943.000000	100.238561
1942.000000	100.241229
1941.000000	100.239920
1940.000000	100.239856
1939.000000	100.243321
1938.000000	100.246083
1937.000000	100.241649
1936.000000	100.229262
1935.000000	100.216275
1934.000000	100.211287
1933.000000	100.216112
1932.000000	100.225808
1931.000000	100.235470
1930.000000	100.245620
1929.000000	100.259492
1928.000000	100.277038
1927.000000	100.293233
1926.000000	100.302073
1925.000000	100.301317
1924.000000	100.292999
1923.000000	100.282085
1922.000000	100.274386
1921.000000	100.272879
1920.000000	100.274974
1919.000000	100.273275
1918.000000	100.261557
1917.000000	100.241810
1916.000000	100.222346
1915.000000	100.208520
1914.000000	100.199120
1913.000000	100.191396
1912.000000	100.186573
1911.000000	100.188714
1910.000000	100.198541
1909.000000	100.209841
1908.000000	100.214378
1907.000000	100.209536
1906.000000	100.199121
1905.000000	100.188663
1904.000000	100.180519
1903.000000	100.173641
1902.000000	100.166820
1901.000000	100.160608
1900.000000	100.156663
1899.000000	100.156020
1898.000000	100.158078
1897.000000	100.160737
1896.000000	100.160968
1895.000000	100.156153
1894.000000	100.145931
1893.000000	100.133079
1892.000000	100.122020
1891.000000	100.116122
1890.000000	100.115817
1889.000000	100.118432
1888.000000	100.120757
1887.000000	100.122119
1886.000000	100.123545
1885.000000	100.124679
1884.000000	100.123280
1883.000000	100.118070
1882.000000	100.111146
1881.000000	100.106504
1880.000000	100.106331
1879.000000	100.109313
1878.000000	100.112144
1877.000000	100.112619
1876.000000	100.110798
1875.000000	100.107708
1874.000000	100.104266
1873.000000	100.101336
1872.000000	100.099540
1871.000000	100.098462
1870.000000	100.096799
1869.000000	100.094389
1868.000000	100.093323
1867.000000	100.095641
1866.000000	100.101246
1865.000000	100.108506
1864.000000	100.115863
1863.000000	100.122807
1862.000000	100.129333
1861.000000	100.134642
1860.000000	100.137096
1859.000000	100.135740
1858.000000	100.131591
1857.000000	100.127426
1856.000000	100.126107
1855.000000	100.128762
1854.000000	100.134580
1853.000000	100.141379
1852.000000	100.146777
1851.000000	100.149780
1850.000000	100.151036
1849.000000	100.152146
1848.000000	100.154442
1847.000000	100.158038
1846.000000	100.161938
1845.000000	100.164926
1844.000000	100.166739
1843.000000	100.168193
1842.000000	100.170220
1841.000000	100.173256
1840.000000	100.177226
1839.000000	100.181514
1838.000000	100.185049
1837.000000	100.186863
1836.000000	100.186738
1835.000000	100.185449
1834.000000	100.184398
1833.000000	100.184638
1832.000000	100.186370
1831.000000	100.189258
1830.000000	100.192784
1829.000000	100.196264
1828.000000	100.198919
1827.000000	100.200269
1826.000000	100.200326
1825.000000	100.199868
1824.000000	100.200209
1823.000000	100.201981
1822.000000	100.204818
1821.000000	100.207923
1820.000000	100.210762
1819.000000	100.213144
1818.000000	100.214918
1817.000000	100.216132
1816.000000	100.217184
1815.000000	100.218385
1814.000000	100.219303
1813.000000	100.219100
1812.000000	100.217759
1811.000000	100.216501
1810.000000	100.216621
1809.000000	100.218289
1808.000000	100.220854
1807.000000	100.223852
1806.000000	100.227190
1805.000000	100.230589
1804.000000	100.233346
1803.000000	100.234887
1802.000000	100.235342
1801.000000	100.235680
1800.000000	100.237097
1799.000000	100.239924
1798.000000	100.243544
1797.000000	100.247169
1796.000000	100.250540
1795.000000	100.253938
1794.000000	100.257580
1793.000000	100.261070
1792.000000	100.263702
1791.000000	100.265059
1790.000000	100.265390
1789.000000	100.265791
1788.000000	100.267702
1787.000000	100.271829
1786.000000	100.277292
1785.000000	100.282049
1784.000000	100.284923
1783.000000	100.287211
1782.000000	100.291056
1781.000000	100.296657
1780.000000	100.302063
1779.000000	100.305453
1778.000000	100.307311
1777.000000	100.309653
1776.000000	100.314234
1775.000000	100.321488
1774.000000	100.330113
1773.000000	100.337232
1772.000000	100.341263
1771.000000	100.343885
1770.000000	100.347374
1769.000000	100.351894
1768.000000	100.356049
1767.000000	100.359067
1766.000000	100.361705
1765.000000	100.364902
1764.000000	100.368427
1763.000000	100.371257
1762.000000	100.373268
1761.000000	100.375788
1760.000000	100.380184
1759.000000	100.387073
1758.000000	100.396665
1757.000000	100.407983
1756.000000	100.418640
1755.000000	100.426759
1754.000000	100.432400
1753.000000	100.436307
1752.000000	100.438754
1751.000000	100.440161
1750.000000	100.441489
1749.000000	100.443470
1748.000000	100.446010
1747.000000	100.449149
1746.000000	100.453324
1745.000000	100.458628
1744.000000	100.464263
1743.000000	100.468650
1742.000000	100.470590
1741.000000	100.470156
1740.000000	100.468751
1739.000000	100.468626
1738.000000	100.471629
1737.000000	100.478309
1736.000000	100.487965
1735.000000	100.497132
1734.000000	100.500686
1733.000000	100.497875
1732.000000	100.493344
1731.000000	100.491225
1730.000000	100.492103
1729.000000	100.494695
1728.000000	100.497075
1727.000000	100.497971
1726.000000	100.497165
1725.000000	100.495364
1724.000000	100.493714
1723.000000	100.492815
1722.000000	100.492637
1721.000000	100.493063
1720.000000	100.493978
1719.000000	100.494967
1718.000000	100.495833
1717.000000	100.496984
1716.000000	100.498662
1715.000000	100.500692
1714.000000	100.502608
1713.000000	100.504003
1712.000000	100.504794
1711.000000	100.505068
1710.000000	100.505058
1709.000000	100.505264
1708.000000	100.506527
1707.000000	100.509459
1706.000000	100.513542
1705.000000	100.517220
1704.000000	100.519391
1703.000000	100.520270
1702.000000	100.519862
1701.000000	100.517166
1700.000000	100.514196
1699.000000	100.514726
1698.000000	100.518764
1697.000000	100.524484
1696.000000	100.530646
1695.000000	100.536916
1694.000000	100.543080
1693.000000	100.548421
1692.000000	100.552118
1691.000000	100.553852
1690.000000	100.554547
1689.000000	100.554985
1688.000000	100.554570
1687.000000	100.552764
1686.000000	100.550341
1685.000000	100.550862
1684.000000	100.559423
1683.000000	100.573904
1682.000000	100.586166
1681.000000	100.593370
1680.000000	100.596073
1679.000000	100.596185
1678.000000	100.596486
1677.000000	100.598319
1676.000000	100.601009
1675.000000	100.603936
1674.000000	100.607788
1673.000000	100.612935
1672.000000	100.618877
1671.000000	100.624624
1670.000000	100.630388
1669.000000	100.636552
1668.000000	100.640819
1667.000000	100.641047
1666.000000	100.638203
1665.000000	100.634614
1664.000000	100.631579
1663.000000	100.629760
1662.000000	100.630527
1661.000000	100.634453
1660.000000	100.640446
1659.000000	100.646198
1658.000000	100.649321
1657.000000	100.649734
1656.000000	100.649127
1655.000000	100.647665
1654.000000	100.640780
1653.000000	100.630324
1652.000000	100.624416
1651.000000	100.623818
1650.000000	100.626058
1649.000000	100.626688
1648.000000	100.621879
1647.000000	100.614868
1646.000000	100.613051
1645.000000	100.616031
1644.000000	100.617707
1643.000000	100.615356
1642.000000	100.610501
1641.000000	100.606006
1640.000000	100.603484
1639.000000	100.601290
1638.000000	100.595847
1637.000000	100.584107
1636.000000	100.568175
1635.000000	100.555560
1634.000000	100.549463
1633.000000	100.548756
1632.000000	100.552905
1631.000000	100.561228
1630.000000	100.571056
1629.000000	100.577887
1628.000000	100.578423
1627.000000	100.573347
1626.000000	100.565887
1625.000000	100.558335
1624.000000	100.551648
1623.000000	100.547191
1622.000000	100.545930
1621.000000	100.546854
1620.000000	100.548780
1619.000000	100.551717
1618.000000	100.555963
1617.000000	100.560189
1616.000000	100.561430
1615.000000	100.559319
1614.000000	100.556986
1613.000000	100.556829
1612.000000	100.558060
1611.000000	100.558055
1610.000000	100.555773
1609.000000	100.553867
1608.000000	100.555864
1607.000000	100.561982
1606.000000	100.569066
1605.000000	100.574049
1604.000000	100.576903
1603.000000	100.579494
1602.000000	100.582749
1601.000000	100.585730
1600.000000	100.587246
1599.000000	100.587578
1598.000000	100.588245
1597.000000	100.590646
1596.000000	100.595046
1595.000000	100.600636
1594.000000	100.606286
1593.000000	100.611262
1592.000000	100.615418
1591.000000	100.618985
1590.000000	100.622285
1589.000000	100.625337
1588.000000	100.627704
1587.000000	100.629074
1586.000000	100.630252
1585.000000	100.633076
1584.000000	100.638858
1583.000000	100.647232
1582.000000	100.656042
1581.000000	100.663124
1580.000000	100.668164
1579.000000	100.671928
1578.000000	100.674042
1577.000000	100.672599
1576.000000	100.667833
1575.000000	100.664455
1574.000000	100.665786
1573.000000	100.670793
1572.000000	100.676923
1571.000000	100.682180
1570.000000	100.686586
1569.000000	100.691478
1568.000000	100.696326
1567.000000	100.699003
1566.000000	100.698486
1565.000000	100.695850
1564.000000	100.693721
1563.000000	100.694031
1562.000000	100.697218
1561.000000	100.703391
1560.000000	100.713565
1559.000000	100.728366
1558.000000	100.738675
1557.000000	100.737090
1556.000000	100.728595
1555.000000	100.718604
1554.000000	100.710864
1553.000000	100.707133
1552.000000	100.706809
1551.000000	100.707423
1550.000000	100.706850
1549.000000	100.705850
1548.000000	100.706966
1547.000000	100.711917
1546.000000	100.719555
1545.000000	100.726469
1544.000000	100.730841
1543.000000	100.734230
1542.000000	100.738723
1541.000000	100.743077
1540.000000	100.741083
1539.000000	100.728014
1538.000000	100.709172
1537.000000	100.694524
1536.000000	100.687781
1535.000000	100.686227
1534.000000	100.682153
1533.000000	100.669009
1532.000000	100.649313
1531.000000	100.631485
1530.000000	100.622521
1529.000000	100.626421
1528.000000	100.642730
1527.000000	100.663774
1526.000000	100.677107
1525.000000	100.676253
1524.000000	100.666542
1523.000000	100.657134
1522.000000	100.651647
1521.000000	100.646787
1520.000000	100.639402
1519.000000	100.633459
1518.000000	100.635382
1517.000000	100.646906
1516.000000	100.662039
1515.000000	100.672146
1514.000000	100.675048
1513.000000	100.673743
1512.000000	100.671612
1511.000000	100.670888
1510.000000	100.670570
1509.000000	100.666897
1508.000000	100.657784
1507.000000	100.657187
1506.000000	100.678578
1505.000000	100.707365
1504.000000	100.728687
1503.000000	100.741922
1502.000000	100.749352
1501.000000	100.754880
1500.000000	100.764330
1499.000000	100.782688
1498.000000	100.808513
1497.000000	100.833819
1496.000000	100.850270
1495.000000	100.857986
1494.000000	100.864115
1493.000000	100.874112
1492.000000	100.888811
1491.000000	100.905826
1490.000000	100.921774
1489.000000	100.934043
1488.000000	100.942195
1487.000000	100.947912
1486.000000	100.953646
1485.000000	100.961475
1484.000000	100.973085
1483.000000	100.989801
1482.000000	101.010847
1481.000000	101.032751
1480.000000	101.051540
1479.000000	101.065931
1478.000000	101.077249
1477.000000	101.088480
1476.000000	101.103060
1475.000000	101.121397
1474.000000	101.138110
1473.000000	101.145723
1472.000000	101.145844
1471.000000	101.149099
1470.000000	101.161447
1469.000000	101.181280
1468.000000	101.205633
1467.000000	101.233351
1466.000000	101.263480
1465.000000	101.290846
1464.000000	101.308965
1463.000000	101.318791
1462.000000	101.328477
1461.000000	101.346329
1460.000000	101.377969
1459.000000	101.425140
1458.000000	101.477517
1457.000000	101.507322
1456.000000	101.500539
1455.000000	101.477579
1454.000000	101.461955
1453.000000	101.457345
1452.000000	101.459410
1451.000000	101.464733
1450.000000	101.473002
1449.000000	101.484226
1448.000000	101.497191
1447.000000	101.509618
1446.000000	101.518470
1445.000000	101.520639
1444.000000	101.516534
1443.000000	101.511627
1442.000000	101.512861
1441.000000	101.522952
1440.000000	101.540492
1439.000000	101.563825
1438.000000	101.590962
1437.000000	101.614980
1436.000000	101.626205
1435.000000	101.624664
1434.000000	101.619632
1433.000000	101.617708
1432.000000	101.620124
1431.000000	101.626533
1430.000000	101.636512
1429.000000	101.649112
1428.000000	101.663947
1427.000000	101.683175
1426.000000	101.708835
1425.000000	101.736990
1424.000000	101.758019
1423.000000	101.766585
1422.000000	101.767910
1421.000000	101.770835
1420.000000	101.779113
1419.000000	101.792424
1418.000000	101.810829
1417.000000	101.833315
1416.000000	101.855210
1415.000000	101.871002
1414.000000	101.878116
1413.000000	101.877008
1412.000000	101.867890
1411.000000	101.851738
1410.000000	101.835483
1409.000000	101.829360
1408.000000	101.838407
1407.000000	101.860111
1406.000000	101.888523
1405.000000	101.916559
1404.000000	101.938794
1403.000000	101.956326
1402.000000	101.974352
1401.000000	101.989812
1400.000000	101.987174
1399.000000	101.959982
1398.000000	101.932148
1397.000000	101.935902
1396.000000	101.975828
1395.000000	102.026053
1394.000000	102.058732
1393.000000	102.071678
1392.000000	102.080529
1391.000000	102.096520
1390.000000	102.121845
1389.000000	102.153769
1388.000000	102.186087
1387.000000	102.213353
1386.000000	102.239036
1385.000000	102.271809
1384.000000	102.312824
1383.000000	102.354355
1382.000000	102.391503
1381.000000	102.426379
1380.000000	102.455206
1379.000000	102.463019
1378.000000	102.442108
1377.000000	102.407436
1376.000000	102.381188
1375.000000	102.364934
1374.000000	102.335737
1373.000000	102.274581
1372.000000	102.190106
1371.000000	102.107264
1370.000000	102.043334
1369.000000	101.997610
1368.000000	101.958143
1367.000000	101.916494
1366.000000	101.875497
1365.000000	101.843154
1364.000000	101.823856
1363.000000	101.816709
1362.000000	101.817168
1361.000000	101.819588
1360.000000	101.821919
1359.000000	101.828118
1358.000000	101.843676
1357.000000	101.867377
1356.000000	101.888142
1355.000000	101.893656
1354.000000	101.882965
1353.000000	101.867286
1352.000000	101.857659
1351.000000	101.856046
1350.000000	101.859055
1349.000000	101.865986
1348.000000	101.881940
1347.000000	101.911911
1346.000000	101.952678
1345.000000	101.991398
1344.000000	102.014813
1343.000000	102.021210
1342.000000	102.022195
1341.000000	102.032829
1340.000000	102.060139
1339.000000	102.098608
1338.000000	102.134747
1337.000000	102.156064
1336.000000	102.157828
1335.000000	102.146342
1334.000000	102.135645
1333.000000	102.135847
1332.000000	102.144288
1331.000000	102.151040
1330.000000	102.151486
1329.000000	102.148981
1328.000000	102.146679
1327.000000	102.143724
1326.000000	102.139662
1325.000000	102.135383
1324.000000	102.128430
1323.000000	102.113635
1322.000000	102.091455
1321.000000	102.070890
1320.000000	102.060276
1319.000000	102.057585
1318.000000	102.054121
1317.000000	102.046317
1316.000000	102.038328
1315.000000	102.033021
1314.000000	102.025456
1313.000000	102.008393
1312.000000	101.983129
1311.000000	101.960994
1310.000000	101.951323
1309.000000	101.949553
1308.000000	101.940036
1307.000000	101.911692
1306.000000	101.869730
1305.000000	101.830552
1304.000000	101.806591
1303.000000	101.798072
1302.000000	101.796699
1301.000000	101.793280
1300.000000	101.782279
1299.000000	101.763796
1298.000000	101.744144
1297.000000	101.731856
1296.000000	101.729389
1295.000000	101.729053
1294.000000	101.719886
1293.000000	101.699568
1292.000000	101.677550
1291.000000	101.665185
1290.000000	101.663922
1289.000000	101.664810
1288.000000	101.658641
1287.000000	101.644080
1286.000000	101.625228
1285.000000	101.604799
1284.000000	101.583942
1283.000000	101.568013
1282.000000	101.567124
1281.000000	101.587641
1280.000000	101.624111
1279.000000	101.661148
1278.000000	101.684073
1277.000000	101.686597
1276.000000	101.669500
1275.000000	101.638056
1274.000000	101.602264
1273.000000	101.574082
1272.000000	101.559385
1271.000000	101.552181
1270.000000	101.540165
1269.000000	101.518275
1268.000000	101.494882
1267.000000	101.482249
1266.000000	101.481037
1265.000000	101.477327
1264.000000	101.457098
1263.000000	101.421578
1262.000000	101.386126
1261.000000	101.364176
1260.000000	101.354392
1259.000000	101.344803
1258.000000	101.326516
1257.000000	101.300655
1256.000000	101.273769
1255.000000	101.250228
1254.000000	101.228841
1253.000000	101.203780
1252.000000	101.168511
1251.000000	101.122343
1250.000000	101.074841
1249.000000	101.040488
1248.000000	101.025226
1247.000000	101.018870
1246.000000	101.004205
1245.000000	100.975127
1244.000000	100.942312
1243.000000	100.919013
1242.000000	100.904504
1241.000000	100.886376
1240.000000	100.857817
1239.000000	100.825451
1238.000000	100.796790
1237.000000	100.765485
1236.000000	100.717099
1235.000000	100.649578
1234.000000	100.581780
1233.000000	100.537392
1232.000000	100.522792
1231.000000	100.522666
1230.000000	100.514121
1229.000000	100.484139
1228.000000	100.435834
1227.000000	100.384204
1226.000000	100.346116
1225.000000	100.327599
1224.000000	100.316640
1223.000000	100.291394
1222.000000	100.240009
1221.000000	100.171828
1220.000000	100.107522
1219.000000	100.058135
1218.000000	100.016940
1217.000000	99.971327
1216.000000	99.916620
1215.000000	99.855032
1214.000000	99.785617
1213.000000	99.702613
1212.000000	99.606367
1211.000000	99.511756
1210.000000	99.439845
1209.000000	99.399369
1208.000000	99.377913
1207.000000	99.351837
1206.000000	99.305705
1205.000000	99.241539
1204.000000	99.169695
1203.000000	99.094194
1202.000000	99.010490
1201.000000	98.915895
1200.000000	98.817032
1199.000000	98.724957
1198.000000	98.645946
1197.000000	98.579586
1196.000000	98.522039
1195.000000	98.467010
1194.000000	98.406983
1193.000000	98.339863
1192.000000	98.273479
1191.000000	98.216768
1190.000000	98.164924
1189.000000	98.099488
1188.000000	98.006983
1187.000000	97.894334
1186.000000	97.783280
1185.000000	97.690826
1184.000000	97.616976
1183.000000	97.548279
1182.000000	97.469626
1181.000000	97.374481
1180.000000	97.267517
1179.000000	97.159909
1178.000000	97.062880
1177.000000	96.984559
1176.000000	96.927467
1175.000000	96.883027
1174.000000	96.830502
1173.000000	96.749375
1172.000000	96.636324
1171.000000	96.507621
1170.000000	96.384174
1169.000000	96.276485
1168.000000	96.183366
1167.000000	96.099775
1166.000000	96.024240
1165.000000	95.963002
1164.000000	95.928590
1163.000000	95.930980
1162.000000	95.968933
1161.000000	96.030770
1160.000000	96.099581
1159.000000	96.153580
1158.000000	96.168537
1157.000000	96.132210
1156.000000	96.058977
1155.000000	95.983389
1154.000000	95.933057
1153.000000	95.909289
1152.000000	95.893059
1151.000000	95.861770
1150.000000	95.799498
1149.000000	95.701865
1148.000000	95.579562
1147.000000	95.453606
1146.000000	95.339304
1145.000000	95.233951
1144.000000	95.123835
1143.000000	95.004107
1142.000000	94.891101
1141.000000	94.813944
1140.000000	94.789795
1139.000000	94.802843
1138.000000	94.810757
1137.000000	94.779161
1136.000000	94.706597
1135.000000	94.610796
1134.000000	94.500576
1133.000000	94.376453
1132.000000	94.254346
1131.000000	94.164709
1130.000000	94.118286
1129.000000	94.088976
1128.000000	94.043226
1127.000000	93.975648
1126.000000	93.902700
1125.000000	93.831363
1124.000000	93.751615
1123.000000	93.657022
1122.000000	93.556786
1121.000000	93.463862
1120.000000	93.381650
1119.000000	93.309760
1118.000000	93.259016
1117.000000	93.250603
1116.000000	93.293006
1115.000000	93.360473
1114.000000	93.404884
1113.000000	93.399256
1112.000000	93.362721
1111.000000	93.332352
1110.000000	93.319315
1109.000000	93.309473
1108.000000	93.301084
1107.000000	93.314652
1106.000000	93.357564
1105.000000	93.403658
1104.000000	93.426761
1103.000000	93.441345
1102.000000	93.490031
1101.000000	93.596062
1100.000000	93.744913
1099.000000	93.910674
1098.000000	94.083263
1097.000000	94.261860
1096.000000	94.432613
1095.000000	94.570263
1094.000000	94.665888
1093.000000	94.739735
1092.000000	94.812631
1091.000000	94.870233
1090.000000	94.873352
1089.000000	94.806956
1088.000000	94.702174
1087.000000	94.599456
1086.000000	94.503799
1085.000000	94.395063
1084.000000	94.270301
1083.000000	94.145318
1082.000000	94.015215
1081.000000	93.849119
1080.000000	93.643166
1079.000000	93.455378
1078.000000	93.358662
1077.000000	93.364313
1076.000000	93.411349
1075.000000	93.426950
1074.000000	93.379936
1073.000000	93.274544
1072.000000	93.116757
1071.000000	92.907853
1070.000000	92.664364
1069.000000	92.423076
1068.000000	92.216749
1067.000000	92.051702
1066.000000	91.917642
1065.000000	91.816863
1064.000000	91.770165
1063.000000	91.787580
1062.000000	91.848142
1061.000000	91.924913
1060.000000	92.018786
1059.000000	92.144440
1058.000000	92.289271
1057.000000	92.416370
1056.000000	92.515163
1055.000000	92.621922
1054.000000	92.770791
1053.000000	92.938845
1052.000000	93.063102
1051.000000	93.108710
1050.000000	93.095350
1049.000000	93.050454
1048.000000	92.963971
1047.000000	92.809117
1046.000000	92.588083
1045.000000	92.330096
1044.000000	92.047826
1043.000000	91.718587
1042.000000	91.318869
1041.000000	90.865722
1040.000000	90.407362
1039.000000	89.973775
1038.000000	89.554824
1037.000000	89.134570
1036.000000	88.726241
1035.000000	88.352344
1034.000000	88.005926
1033.000000	87.664942
1032.000000	87.343643
1031.000000	87.093987
1030.000000	86.944389
1029.000000	86.864624
1028.000000	86.806016
1027.000000	86.753986
1026.000000	86.720486
1025.000000	86.701119
1024.000000	86.665938
1023.000000	86.591145
1022.000000	86.481972
1021.000000	86.358673
1020.000000	86.229779
1019.000000	86.088304
1018.000000	85.934974
1017.000000	85.797169
1016.000000	85.709896
1015.000000	85.671594
1014.000000	85.632869
1013.000000	85.547235
1012.000000	85.428392
1011.000000	85.338859
1010.000000	85.324977
1009.000000	85.380460
1008.000000	85.466415
1007.000000	85.540352
1006.000000	85.563262
1005.000000	85.508485
1004.000000	85.385405
1003.000000	85.244575
1002.000000	85.143712
1001.000000	85.110203
1000.000000	85.138286
999.000000	85.207984
998.000000	85.297025
997.000000	85.384104
996.000000	85.453985
995.000000	85.503359
994.000000	85.540759
993.000000	85.579318
992.000000	85.625309
991.000000	85.671171
990.000000	85.706815
989.000000	85.744449
988.000000	85.822371
987.000000	85.969315
986.000000	86.168133
985.000000	86.366730
984.000000	86.520993
983.000000	86.615036
982.000000	86.650550
981.000000	86.644693
980.000000	86.643590
979.000000	86.712696
978.000000	86.894712
977.000000	87.179931
976.000000	87.517750
975.000000	87.849085
974.000000	88.131038
973.000000	88.347993
972.000000	88.511117
971.000000	88.642916
970.000000	88.756366
969.000000	88.852292
968.000000	88.938119
967.000000	89.039805
966.000000	89.186932
965.000000	89.387475
964.000000	89.619856
963.000000	89.849001
962.000000	90.054025
961.000000	90.244172
960.000000	90.442554
959.000000	90.649581
958.000000	90.831389
957.000000	90.956801
956.000000	91.040666
955.000000	91.134704
954.000000	91.271441
953.000000	91.429433
952.000000	91.559585
951.000000	91.634547
950.000000	91.665817
949.000000	91.682850
948.000000	91.706129
947.000000	91.738100
946.000000	91.772959
945.000000	91.814878
944.000000	91.886088
943.000000	92.009399
942.000000	92.177837
941.000000	92.347336
940.000000	92.469037
939.000000	92.531757
938.000000	92.570490
937.000000	92.629815
936.000000	92.717026
935.000000	92.793661
934.000000	92.817639
933.000000	92.792407
932.000000	92.765705
931.000000	92.776908
930.000000	92.817865
929.000000	92.856592
928.000000	92.886786
927.000000	92.932112
926.000000	93.005459
925.000000	93.089767
924.000000	93.167274
923.000000	93.247772
922.000000	93.352628
921.000000	93.480624
920.000000	93.602649
919.000000	93.684882
918.000000	93.707946
917.000000	93.671687
916.000000	93.598484
915.000000	93.534276
914.000000	93.530930
913.000000	93.614293
912.000000	93.766929
911.000000	93.943684
910.000000	94.109268
909.000000	94.261172
908.000000	94.410434
907.000000	94.545783
906.000000	94.635976
905.000000	94.677903
904.000000	94.725161
903.000000	94.845075
902.000000	95.051749
901.000000	95.300899
900.000000	95.547964
899.000000	95.786935
898.000000	96.024790
897.000000	96.246850
896.000000	96.433208
895.000000	96.595412
894.000000	96.768864
893.000000	96.971511
892.000000	97.195398
891.000000	97.443006
890.000000	97.744542
889.000000	98.116900
888.000000	98.516291
887.000000	98.860646
886.000000	99.110962
885.000000	99.310055
884.000000	99.518888
883.000000	99.723724
882.000000	99.837937
881.000000	99.806279
880.000000	99.682372
879.000000	99.581387
878.000000	99.560861
877.000000	99.570804
876.000000	99.524000
875.000000	99.391895
874.000000	99.221464
873.000000	99.077657
872.000000	98.989400
871.000000	98.941661
870.000000	98.896442
869.000000	98.823095
868.000000	98.728094
867.000000	98.660421
866.000000	98.671685
865.000000	98.759349
864.000000	98.858519
863.000000	98.905101
862.000000	98.907010
861.000000	98.934144
860.000000	99.030251
859.000000	99.150579
858.000000	99.207075
857.000000	99.176606
856.000000	99.136449
855.000000	99.176043
854.000000	99.292178
853.000000	99.393954
852.000000	99.410170
851.000000	99.366128
850.000000	99.339208
849.000000	99.364128
848.000000	99.411860
847.000000	99.450421
846.000000	99.491115
845.000000	99.560384
844.000000	99.648329
843.000000	99.708702
842.000000	99.706188
841.000000	99.647846
840.000000	99.568276
839.000000	99.500358
838.000000	99.466514
837.000000	99.482612
836.000000	99.550710
835.000000	99.645275
834.000000	99.721379
833.000000	99.748499
832.000000	99.732183
831.000000	99.697777
830.000000	99.664450
829.000000	99.651315
828.000000	99.701283
827.000000	99.863540
826.000000	100.129108
825.000000	100.402780
824.000000	100.573095
823.000000	100.607225
822.000000	100.548381
821.000000	100.427106
820.000000	100.223745
819.000000	99.938001
818.000000	99.653134
817.000000	99.484743
816.000000	99.465481
815.000000	99.509840
814.000000	99.509181
813.000000	99.446579
812.000000	99.388139
811.000000	99.362395
810.000000	99.283965
809.000000	99.027021
808.000000	98.565625
807.000000	98.009868
806.000000	97.493130
805.000000	97.047298
804.000000	96.607453
803.000000	96.116580
802.000000	95.598711
801.000000	95.134188
800.000000	94.790098
799.000000	94.580616
798.000000	94.472158
797.000000	94.417493
796.000000	94.396821
795.000000	94.429059
794.000000	94.532868
793.000000	94.675473
792.000000	94.776304
791.000000	94.779585
790.000000	94.721105
789.000000	94.701305
788.000000	94.780893
787.000000	94.909805
786.000000	94.967369
785.000000	94.878447
784.000000	94.678909
783.000000	94.458200
782.000000	94.260885
781.000000	94.069076
780.000000	93.874003
779.000000	93.733959
778.000000	93.735556
777.000000	93.905862
776.000000	94.181121
775.000000	94.456016
774.000000	94.655721
773.000000	94.765767
772.000000	94.812179
771.000000	94.832086
770.000000	94.857125
769.000000	94.903706
768.000000	94.973461
767.000000	95.073838
766.000000	95.237752
765.000000	95.502004
764.000000	95.851572
763.000000	96.193466
762.000000	96.411543
761.000000	96.461926
760.000000	96.401436
759.000000	96.323662
758.000000	96.282653
757.000000	96.281918
756.000000	96.316556
755.000000	96.398983
754.000000	96.541454
753.000000	96.731119
752.000000	96.926961
751.000000	97.078665
750.000000	97.155584
749.000000	97.169502
748.000000	97.172354
747.000000	97.220244
746.000000	97.330116
745.000000	97.471989
744.000000	97.604213
743.000000	97.713221
742.000000	97.813380
741.000000	97.912234
740.000000	97.988911
739.000000	98.016802
738.000000	98.003352
737.000000	97.994561
736.000000	98.034479
735.000000	98.127815
734.000000	98.242759
733.000000	98.341312
732.000000	98.408874
731.000000	98.456045
730.000000	98.498250
729.000000	98.538076
728.000000	98.566575
727.000000	98.576250
726.000000	98.570878
725.000000	98.566573
724.000000	98.583949
723.000000	98.635261
722.000000	98.715273
721.000000	98.801353
720.000000	98.867709
719.000000	98.904024
718.000000	98.916605
717.000000	98.915281
716.000000	98.905482
715.000000	98.897731
714.000000	98.914932
713.000000	98.976247
712.000000	99.076359
711.000000	99.180635
710.000000	99.252472
709.000000	99.283631
708.000000	99.292551
707.000000	99.296633
706.000000	99.293026
705.000000	99.270909
704.000000	99.234440
703.000000	99.202468
702.000000	99.188413
701.000000	99.194176
700.000000	99.222725
699.000000	99.281399
698.000000	99.364246
697.000000	99.440171
696.000000	99.473173
695.000000	99.456284
694.000000	99.417256
693.000000	99.388117
692.000000	99.379649
691.000000	99.389728
690.000000	99.421830
689.000000	99.482834
688.000000	99.564260
687.000000	99.641324
686.000000	99.697930
685.000000	99.740709
684.000000	99.781156
683.000000	99.815922
682.000000	99.837420
681.000000	99.855653
680.000000	99.888298
679.000000	99.928002
678.000000	99.944429
677.000000	99.934747
676.000000	99.954334
675.000000	100.062423
674.000000	100.239812
673.000000	100.382734
672.000000	100.405098
671.000000	100.310435
670.000000	100.146007
669.000000	99.933343
668.000000	99.704839
667.000000	99.570470
666.000000	99.581448
665.000000	99.710821
664.000000	99.935524
663.000000	100.211835
662.000000	100.463690
661.000000	100.648695
660.000000	100.783248
659.000000	100.878647
658.000000	100.904348
657.000000	100.827828
656.000000	100.660573
655.000000	100.454467
654.000000	100.279193
653.000000	100.205779
652.000000	100.292339
651.000000	100.540499
650.000000	100.849679
