4000.000000	100.461312
3999.000000	100.468753
3998.000000	100.480725
3997.000000	100.490631
3996.000000	100.494137
3995.000000	100.490785
3994.000000	100.483039
3993.000000	100.473315
3992.000000	100.462222
3991.000000	100.449701
3990.000000	100.437168
3989.000000	100.428030
3988.000000	100.425505
3987.000000	100.430048
3986.000000	100.438362
3985.000000	100.444922
3984.000000	100.445697
3983.000000	100.440559
3982.000000	100.432662
3981.000000	100.425965
3980.000000	100.423020
3979.000000	100.424698
3978.000000	100.430916
3977.000000	100.440676
3976.000000	100.451617
3975.000000	100.460560
3974.000000	100.465181
3973.000000	100.465260
3972.000000	100.462480
3971.000000	100.459200
3970.000000	100.457510
3969.000000	100.458816
3968.000000	100.463483
3967.000000	100.470501
3966.000000	100.477676
3965.000000	100.482627
3964.000000	100.483814
3963.000000	100.480932
3962.000000	100.474905
3961.000000	100.467621
3960.000000	100.461226
3959.000000	100.456973
3958.000000	100.454401
3957.000000	100.451719
3956.000000	100.447430
3955.000000	100.442079
3954.000000	100.438200
3953.000000	100.438094
3952.000000	100.441500
3951.000000	100.445545
3950.000000	100.447162
3949.000000	100.445910
3948.000000	100.444270
3947.000000	100.444988
3946.000000	100.448417
3945.000000	100.452469
3944.000000	100.454853
3943.000000	100.455392
3942.000000	100.455828
3941.000000	100.457450
3940.000000	100.459525
3939.000000	100.460234
3938.000000	100.458681
3937.000000	100.455779
3936.000000	100.453439
3935.000000	100.453263
3934.000000	100.455674
3933.000000	100.459773
3932.000000	100.463631
3931.000000	100.465183
3930.000000	100.463632
3929.000000	100.459843
3928.000000	100.455485
3927.000000	100.451673
3926.000000	100.448645
3925.000000	100.446661
3924.000000	100.446406
3923.000000	100.448251
3922.000000	100.451664
3921.000000	100.455307
3920.000000	100.457553
3919.000000	100.456959
3918.000000	100.452855
3917.000000	100.446130
3916.000000	100.439472
3915.000000	100.435899
3914.000000	100.436895
3913.000000	100.441564
3912.000000	100.447096
3911.000000	100.450807
3910.000000	100.452124
3909.000000	100.452822
3908.000000	100.455183
3907.000000	100.459787
3906.000000	100.464719
3905.000000	100.467437
3904.000000	100.467827
3903.000000	100.468421
3902.000000	100.470701
3901.000000	100.472558
3900.000000	100.470937
3899.000000	100.465855
3898.000000	100.460442
3897.000000	100.457657
3896.000000	100.458542
3895.000000	100.462273
3894.000000	100.466242
3893.000000	100.466376
3892.000000	100.460168
3891.000000	100.449941
3890.000000	100.441240
3889.000000	100.438069
3888.000000	100.440354
3887.000000	100.444379
3886.000000	100.446717
3885.000000	100.447581
3884.000000	100.448468
3883.000000	100.448677
3882.000000	100.445696
3881.000000	100.439130
3880.000000	100.433116
3879.000000	100.432337
3878.000000	100.437498
3877.000000	100.445787
3876.000000	100.453221
3875.000000	100.457591
3874.000000	100.460143
3873.000000	100.462853
3872.000000	100.464484
3871.000000	100.461677
3870.000000	100.454924
3869.000000	100.449550
3868.000000	100.449714
3867.000000	100.455301
3866.000000	100.463703
3865.000000	100.471689
3864.000000	100.476072
3863.000000	100.474422
3862.000000	100.466567
3861.000000	100.454835
3860.000000	100.442314
3859.000000	100.431247
3858.000000	100.423511
3857.000000	100.421365
3856.000000	100.425357
3855.000000	100.429791
3854.000000	100.427215
3853.000000	100.419095
3852.000000	100.412536
3851.000000	100.410286
3850.000000	100.410976
3849.000000	100.412880
3848.000000	100.414886
3847.000000	100.416123
3846.000000	100.416016
3845.000000	100.414478
3844.000000	100.411903
3843.000000	100.409014
3842.000000	100.406560
3841.000000	100.405234
3840.000000	100.405633
3839.000000	100.407626
3838.000000	100.409737
3837.000000	100.410010
3836.000000	100.407815
3835.000000	100.404450
3834.000000	100.402188
3833.000000	100.402558
3832.000000	100.405478
3831.000000	100.409584
3830.000000	100.413256
3829.000000	100.415418
3828.000000	100.415637
3827.000000	100.414178
3826.000000	100.412071
3825.000000	100.410627
3824.000000	100.410554
3823.000000	100.411476
3822.000000	100.412517
3821.000000	100.413380
3820.000000	100.414255
3819.000000	100.415186
3818.000000	100.415899
3817.000000	100.415972
3816.000000	100.415493
3815.000000	100.415284
3814.000000	100.415894
3813.000000	100.417050
3812.000000	100.418213
3811.000000	100.419252
3810.000000	100.420418
3809.000000	100.421780
3808.000000	100.422978
3807.000000	100.423717
3806.000000	100.424112
3805.000000	100.424517
3804.000000	100.425249
3803.000000	100.426267
3802.000000	100.427428
3801.000000	100.428899
3800.000000	100.430684
3799.000000	100.432290
3798.000000	100.433170
3797.000000	100.433147
3796.000000	100.432525
3795.000000	100.431799
3794.000000	100.431267
3793.000000	100.431046
3792.000000	100.431186
3791.000000	100.431714
3790.000000	100.432615
3789.000000	100.433737
3788.000000	100.434759
3787.000000	100.435183
3786.000000	100.434505
3785.000000	100.432755
3784.000000	100.430748
3783.000000	100.429451
3782.000000	100.429046
3781.000000	100.428576
3780.000000	100.426943
3779.000000	100.424453
3778.000000	100.422723
3777.000000	100.422917
3776.000000	100.424729
3775.000000	100.426818
3774.000000	100.427967
3773.000000	100.427598
3772.000000	100.425381
3771.000000	100.421475
3770.000000	100.417540
3769.000000	100.416086
3768.000000	100.418291
3767.000000	100.422920
3766.000000	100.427244
3765.000000	100.429134
3764.000000	100.428283
3763.000000	100.425682
3762.000000	100.422560
3761.000000	100.420169
3760.000000	100.419862
3759.000000	100.421937
3758.000000	100.424393
3757.000000	100.424131
3756.000000	100.419755
3755.000000	100.412648
3754.000000	100.405435
3753.000000	100.399427
3752.000000	100.393587
3751.000000	100.387282
3750.000000	100.381767
3749.000000	100.377973
3748.000000	100.376639
3747.000000	100.379158
3746.000000	100.382778
3745.000000	100.383749
3744.000000	100.387349
3743.000000	100.398282
3742.000000	100.410615
3741.000000	100.416913
3740.000000	100.417003
3739.000000	100.415808
3738.000000	100.416172
3737.000000	100.415428
3736.000000	100.410602
3735.000000	100.403429
3734.000000	100.397747
3733.000000	100.395414
3732.000000	100.395738
3731.000000	100.396587
3730.000000	100.396025
3729.000000	100.393548
3728.000000	100.390366
3727.000000	100.389269
3726.000000	100.392860
3725.000000	100.400355
3724.000000	100.407542
3723.000000	100.410650
3722.000000	100.409190
3721.000000	100.404950
3720.000000	100.399159
3719.000000	100.391316
3718.000000	100.381103
3717.000000	100.370066
3716.000000	100.361196
3715.000000	100.357305
3714.000000	100.359252
3713.000000	100.364938
3712.000000	100.370238
3711.000000	100.371939
3710.000000	100.369219
3709.000000	100.363128
3708.000000	100.355468
3707.000000	100.347947
3706.000000	100.341712
3705.000000	100.337207
3704.000000	100.334033
3703.000000	100.331293
3702.000000	100.328655
3701.000000	100.326804
3700.000000	100.326352
3699.000000	100.326672
3698.000000	100.326212
3697.000000	100.323849
3696.000000	100.319712
3695.000000	100.314501
3694.000000	100.308648
3693.000000	100.302297
3692.000000	100.295747
3691.000000	100.289714
3690.000000	100.285153
3689.000000	100.282715
3688.000000	100.281962
3687.000000	100.281328
3686.000000	100.279418
3685.000000	100.276132
3684.000000	100.272428
3683.000000	100.269248
3682.000000	100.266508
3681.000000	100.263366
3680.000000	100.259574
3679.000000	100.255976
3678.000000	100.253319
3677.000000	100.250870
3676.000000	100.247423
3675.000000	100.243323
3674.000000	100.239920
3673.000000	100.237834
3672.000000	100.236753
3671.000000	100.235719
3670.000000	100.234027
3669.000000	100.231870
3668.000000	100.229658
3667.000000	100.227553
3666.000000	100.225539
3665.000000	100.223602
3664.000000	100.221753
3663.000000	100.219944
3662.000000	100.218059
3661.000000	100.216034
3660.000000	100.213962
3659.000000	100.212013
3658.000000	100.210226
3657.000000	100.208504
3656.000000	100.206826
3655.000000	100.205260
3654.000000	100.203827
3653.000000	100.202417
3652.000000	100.200730
3651.000000	100.198435
3650.000000	100.195606
3649.000000	100.192989
3648.000000	100.191179
3647.000000	100.190076
3646.000000	100.189108
3645.000000	100.187774
3644.000000	100.185908
3643.000000	100.183607
3642.000000	100.181123
3641.000000	100.178725
3640.000000	100.176616
3639.000000	100.175045
3638.000000	100.174341
3637.000000	100.174536
3636.000000	100.174802
3635.000000	100.173682
3634.000000	100.170251
3633.000000	100.165010
3632.000000	100.159721
3631.000000	100.155635
3630.000000	100.152529
3629.000000	100.151052
3628.000000	100.152679
3627.000000	100.156271
3626.000000	100.159091
3625.000000	100.160070
3624.000000	100.160032
3623.000000	100.160313
3622.000000	100.161300
3621.000000	100.161881
3620.000000	100.160556
3619.000000	100.157227
3618.000000	100.153293
3617.000000	100.150103
3616.000000	100.148042
3615.000000	100.146755
3614.000000	100.145935
3613.000000	100.145956
3612.000000	100.147361
3611.000000	100.149748
3610.000000	100.151590
3609.000000	100.151722
3608.000000	100.150829
3607.000000	100.150684
3606.000000	100.152058
3605.000000	100.154393
3604.000000	100.156841
3603.000000	100.158919
3602.000000	100.160255
3601.000000	100.160471
3600.000000	100.159448
3599.000000	100.157493
3598.000000	100.155271
3597.000000	100.153501
3596.000000	100.152681
3595.000000	100.153006
3594.000000	100.154416
3593.000000	100.156681
3592.000000	100.159475
3591.000000	100.162246
3590.000000	100.164116
3589.000000	100.164406
3588.000000	100.163496
3587.000000	100.162647
3586.000000	100.162686
3585.000000	100.163439
3584.000000	100.164342
3583.000000	100.164892
3582.000000	100.164921
3581.000000	100.164558
3580.000000	100.164036
3579.000000	100.163542
3578.000000	100.163185
3577.000000	100.162989
3576.000000	100.162893
3575.000000	100.162796
3574.000000	100.162659
3573.000000	100.162559
3572.000000	100.162604
3571.000000	100.162817
3570.000000	100.163028
3569.000000	100.162902
3568.000000	100.162255
3567.000000	100.161272
3566.000000	100.160314
3565.000000	100.159448
3564.000000	100.158534
3563.000000	100.157538
3562.000000	100.156586
3561.000000	100.155799
3560.000000	100.155159
3559.000000	100.154556
3558.000000	100.153931
3557.000000	100.153321
3556.000000	100.152754
3555.000000	100.152169
3554.000000	100.151456
3553.000000	100.150572
3552.000000	100.149579
3551.000000	100.148599
3550.000000	100.147723
3549.000000	100.146972
3548.000000	100.146276
3547.000000	100.145488
3546.000000	100.144479
3545.000000	100.143216
3544.000000	100.141787
3543.000000	100.140395
3542.000000	100.139241
3541.000000	100.138402
3540.000000	100.137832
3539.000000	100.137400
3538.000000	100.136975
3537.000000	100.136445
3536.000000	100.135715
3535.000000	100.134742
3534.000000	100.133592
3533.000000	100.132462
3532.000000	100.131604
3531.000000	100.131169
3530.000000	100.131124
3529.000000	100.131171
3528.000000	100.130926
3527.000000	100.130201
3526.000000	100.129047
3525.000000	100.127614
3524.000000	100.126047
3523.000000	100.124533
3522.000000	100.123345
3521.000000	100.122690
3520.000000	100.122546
3519.000000	100.122652
3518.000000	100.122657
3517.000000	100.122309
3516.000000	100.121540
3515.000000	100.120500
3514.000000	100.119489
3513.000000	100.118713
3512.000000	100.118095
3511.000000	100.117366
3510.000000	100.116418
3509.000000	100.115485
3508.000000	100.114900
3507.000000	100.114715
3506.000000	100.114697
3505.000000	100.114694
3504.000000	100.114785
3503.000000	100.114970
3502.000000	100.114855
3501.000000	100.113941
3500.000000	100.112150
3499.000000	100.109935
3498.000000	100.107914
3497.000000	100.106469
3496.000000	100.105692
3495.000000	100.105466
3494.000000	100.105500
3493.000000	100.105437
3492.000000	100.105060
3491.000000	100.104401
3490.000000	100.103577
3489.000000	100.102569
3488.000000	100.101312
3487.000000	100.099975
3486.000000	100.098982
3485.000000	100.098682
3484.000000	100.099016
3483.000000	100.099415
3482.000000	100.099084
3481.000000	100.097562
3480.000000	100.094971
3479.000000	100.091936
3478.000000	100.089281
3477.000000	100.087628
3476.000000	100.087209
3475.000000	100.087768
3474.000000	100.088566
3473.000000	100.088819
3472.000000	100.088182
3471.000000	100.086781
3470.000000	100.084984
3469.000000	100.083081
3468.000000	100.081231
3467.000000	100.079641
3466.000000	100.078601
3465.000000	100.078244
3464.000000	100.078280
3463.000000	100.078081
3462.000000	100.077141
3461.000000	100.075458
3460.000000	100.073554
3459.000000	100.072039
3458.000000	100.071104
3457.000000	100.070522
3456.000000	100.070172
3455.000000	100.070329
3454.000000	100.071155
3453.000000	100.072109
3452.000000	100.072358
3451.000000	100.071823
3450.000000	100.071389
3449.000000	100.071835
3448.000000	100.072883
3447.000000	100.073597
3446.000000	100.073459
3445.000000	100.072653
3444.000000	100.071568
3443.000000	100.070584
3442.000000	100.070132
3441.000000	100.070255
3440.000000	100.070136
3439.000000	100.068664
3438.000000	100.065682
3437.000000	100.062284
3436.000000	100.059645
3435.000000	100.058090
3434.000000	100.057424
3433.000000	100.057538
3432.000000	100.058343
3431.000000	100.059290
3430.000000	100.059424
3429.000000	100.058143
3428.000000	100.055864
3427.000000	100.053828
3426.000000	100.053163
3425.000000	100.054137
3424.000000	100.056000
3423.000000	100.057525
3422.000000	100.057907
3421.000000	100.057241
3420.000000	100.056263
3419.000000	100.055755
3418.000000	100.056108
3417.000000	100.057253
3416.000000	100.058713
3415.000000	100.059808
3414.000000	100.060019
3413.000000	100.059362
3412.000000	100.058340
3411.000000	100.057410
3410.000000	100.056712
3409.000000	100.056255
3408.000000	100.056071
3407.000000	100.056112
3406.000000	100.056118
3405.000000	100.055787
3404.000000	100.055063
3403.000000	100.054169
3402.000000	100.053440
3401.000000	100.053091
3400.000000	100.053123
3399.000000	100.053385
3398.000000	100.053671
3397.000000	100.053833
3396.000000	100.053829
3395.000000	100.053694
3394.000000	100.053488
3393.000000	100.053285
3392.000000	100.053170
3391.000000	100.053224
3390.000000	100.053472
3389.000000	100.053853
3388.000000	100.054260
3387.000000	100.054599
3386.000000	100.054837
3385.000000	100.054995
3384.000000	100.055108
3383.000000	100.055223
3382.000000	100.055375
3381.000000	100.055582
3380.000000	100.055842
3379.000000	100.056145
3378.000000	100.056478
3377.000000	100.056816
3376.000000	100.057134
3375.000000	100.057415
3374.000000	100.057663
3373.000000	100.057909
3372.000000	100.058195
3371.000000	100.058558
3370.000000	100.059002
3369.000000	100.059494
3368.000000	100.059984
3367.000000	100.060432
3366.000000	100.060832
3365.000000	100.061208
3364.000000	100.061592
3363.000000	100.062014
3362.000000	100.062482
3361.000000	100.062991
3360.000000	100.063531
3359.000000	100.064093
3358.000000	100.064666
3357.000000	100.065242
3356.000000	100.065812
3355.000000	100.066379
3354.000000	100.066953
3353.000000	100.067542
3352.000000	100.068145
3351.000000	100.068752
3350.000000	100.069351
3349.000000	100.069938
3348.000000	100.070514
3347.000000	100.071077
3346.000000	100.071628
3345.000000	100.072172
3344.000000	100.072723
3343.000000	100.073314
3342.000000	100.073976
3341.000000	100.074700
3340.000000	100.075433
3339.000000	100.076114
3338.000000	100.076714
3337.000000	100.077251
3336.000000	100.077790
3335.000000	100.078398
3334.000000	100.079101
3333.000000	100.079865
3332.000000	100.080618
3331.000000	100.081299
3330.000000	100.081883
3329.000000	100.082329
3328.000000	100.082573
3327.000000	100.082627
3326.000000	100.082618
3325.000000	100.082750
3324.000000	100.083175
3323.000000	100.083873
3322.000000	100.084691
3321.000000	100.085414
3320.000000	100.085938
3319.000000	100.086302
3318.000000	100.086622
3317.000000	100.086967
3316.000000	100.087296
3315.000000	100.087541
3314.000000	100.087708
3313.000000	100.087881
3312.000000	100.088150
3311.000000	100.088533
3310.000000	100.088974
3309.000000	100.089374
3308.000000	100.089685
3307.000000	100.089932
3306.000000	100.090183
3305.000000	100.090478
3304.000000	100.090801
3303.000000	100.091126
3302.000000	100.091452
3301.000000	100.091802
3300.000000	100.092183
3299.000000	100.092584
3298.000000	100.092977
3297.000000	100.093351
3296.000000	100.093710
3295.000000	100.094068
3294.000000	100.094444
3293.000000	100.094860
3292.000000	100.095320
3291.000000	100.095803
3290.000000	100.096275
3289.000000	100.096718
3288.000000	100.097138
3287.000000	100.097557
3286.000000	100.098008
3285.000000	100.098514
3284.000000	100.099068
3283.000000	100.099646
3282.000000	100.100257
3281.000000	100.100931
3280.000000	100.101661
3279.000000	100.102413
3278.000000	100.103168
3277.000000	100.103925
3276.000000	100.104701
3275.000000	100.105501
3274.000000	100.106315
3273.000000	100.107129
3272.000000	100.107932
3271.000000	100.108722
3270.000000	100.109494
3269.000000	100.110241
3268.000000	100.110969
3267.000000	100.111693
3266.000000	100.112431
3265.000000	100.113188
3264.000000	100.113956
3263.000000	100.114727
3262.000000	100.115493
3261.000000	100.116250
3260.000000	100.116998
3259.000000	100.117734
3258.000000	100.118463
3257.000000	100.119197
3256.000000	100.119947
3255.000000	100.120720
3254.000000	100.121510
3253.000000	100.122300
3252.000000	100.123072
3251.000000	100.123817
3250.000000	100.124541
3249.000000	100.125257
3248.000000	100.125982
3247.000000	100.126728
3246.000000	100.127500
3245.000000	100.128293
3244.000000	100.129094
3243.000000	100.129886
3242.000000	100.130662
3241.000000	100.131423
3240.000000	100.132178
3239.000000	100.132929
3238.000000	100.133667
3237.000000	100.134378
3236.000000	100.135045
3235.000000	100.135663
3234.000000	100.136240
3233.000000	100.136798
3232.000000	100.137368
3231.000000	100.137977
3230.000000	100.138642
3229.000000	100.139366
3228.000000	100.140137
3227.000000	100.140935
3226.000000	100.141738
3225.000000	100.142535
3224.000000	100.143325
3223.000000	100.144123
3222.000000	100.144946
3221.000000	100.145804
3220.000000	100.146699
3219.000000	100.147611
3218.000000	100.148517
3217.000000	100.149409
3216.000000	100.150298
3215.000000	100.151189
3214.000000	100.152074
3213.000000	100.152942
3212.000000	100.153800
3211.000000	100.154663
3210.000000	100.155532
3209.000000	100.156385
3208.000000	100.157187
3207.000000	100.157918
3206.000000	100.158592
3205.000000	100.159270
3204.000000	100.160038
3203.000000	100.160963
3202.000000	100.162055
3201.000000	100.163234
3200.000000	100.164348
3199.000000	100.165256
3198.000000	100.165913
3197.000000	100.166380
3196.000000	100.166790
3195.000000	100.167312
3194.000000	100.168108
3193.000000	100.169274
3192.000000	100.170772
3191.000000	100.172423
3190.000000	100.173974
3189.000000	100.175222
3188.000000	100.176107
3187.000000	100.176712
3186.000000	100.177221
3185.000000	100.177827
3184.000000	100.178635
3183.000000	100.179656
3182.000000	100.180824
3181.000000	100.182028
3180.000000	100.183161
3179.000000	100.184126
3178.000000	100.184868
3177.000000	100.185419
3176.000000	100.185892
3175.000000	100.186426
3174.000000	100.187116
3173.000000	100.187965
3172.000000	100.188907
3171.000000	100.189848
3170.000000	100.190733
3169.000000	100.191566
3168.000000	100.192372
3167.000000	100.193149
3166.000000	100.193864
3165.000000	100.194505
3164.000000	100.195108
3163.000000	100.195743
3162.000000	100.196454
3161.000000	100.197230
3160.000000	100.198027
3159.000000	100.198801
3158.000000	100.199554
3157.000000	100.200312
3156.000000	100.201095
3155.000000	100.201900
3154.000000	100.202708
3153.000000	100.203502
3152.000000	100.204267
3151.000000	100.204985
3150.000000	100.205647
3149.000000	100.206261
3148.000000	100.206848
3147.000000	100.207436
3146.000000	100.208047
3145.000000	100.208689
3144.000000	100.209357
3143.000000	100.210031
3142.000000	100.210684
3141.000000	100.211330
3140.000000	100.212006
3139.000000	100.212718
3138.000000	100.213457
3137.000000	100.214266
3136.000000	100.215232
3135.000000	100.216368
3134.000000	100.217541
3133.000000	100.218550
3132.000000	100.219302
3131.000000	100.219874
3130.000000	100.220423
3129.000000	100.221042
3128.000000	100.221756
3127.000000	100.222573
3126.000000	100.223469
3125.000000	100.224384
3124.000000	100.225306
3123.000000	100.226349
3122.000000	100.227649
3121.000000	100.229179
3120.000000	100.230725
3119.000000	100.232034
3118.000000	100.232978
3117.000000	100.233619
3116.000000	100.234233
3115.000000	100.235239
3114.000000	100.236868
3113.000000	100.238798
3112.000000	100.240206
3111.000000	100.240366
3110.000000	100.239196
3109.000000	100.237416
3108.000000	100.236181
3107.000000	100.236435
3106.000000	100.238514
3105.000000	100.242097
3104.000000	100.246367
3103.000000	100.250317
3102.000000	100.253168
3101.000000	100.254654
3100.000000	100.255059
3099.000000	100.254926
3098.000000	100.254654
3097.000000	100.254461
3096.000000	100.254581
3095.000000	100.255306
3094.000000	100.256725
3093.000000	100.258526
3092.000000	100.260142
3091.000000	100.261140
3090.000000	100.261471
3089.000000	100.261419
3088.000000	100.261406
3087.000000	100.261791
3086.000000	100.262713
3085.000000	100.264090
3084.000000	100.265705
3083.000000	100.267291
3082.000000	100.268545
3081.000000	100.269215
3080.000000	100.269309
3079.000000	100.269208
3078.000000	100.269382
3077.000000	100.269957
3076.000000	100.270700
3075.000000	100.271423
3074.000000	100.272239
3073.000000	100.273291
3072.000000	100.274386
3071.000000	100.275137
3070.000000	100.275475
3069.000000	100.275853
3068.000000	100.276802
3067.000000	100.278355
3066.000000	100.280086
3065.000000	100.281491
3064.000000	100.282367
3063.000000	100.282806
3062.000000	100.283048
3061.000000	100.283349
3060.000000	100.283812
3059.000000	100.284349
3058.000000	100.284807
3057.000000	100.285140
3056.000000	100.285431
3055.000000	100.285782
3054.000000	100.286192
3053.000000	100.286585
3052.000000	100.286940
3051.000000	100.287336
3050.000000	100.287844
3049.000000	100.288444
3048.000000	100.289045
3047.000000	100.289551
3046.000000	100.289922
3045.000000	100.290171
3044.000000	100.290352
3043.000000	100.290544
3042.000000	100.290800
3041.000000	100.291131
3040.000000	100.291508
3039.000000	100.291887
3038.000000	100.292217
3037.000000	100.292473
3036.000000	100.292666
3035.000000	100.292833
3034.000000	100.293016
3033.000000	100.293232
3032.000000	100.293480
3031.000000	100.293746
3030.000000	100.294013
3029.000000	100.294260
3028.000000	100.294471
3027.000000	100.294650
3026.000000	100.294822
3025.000000	100.295003
3024.000000	100.295178
3023.000000	100.295317
3022.000000	100.295408
3021.000000	100.295475
3020.000000	100.295551
3019.000000	100.295658
3018.000000	100.295805
3017.000000	100.295988
3016.000000	100.296185
3015.000000	100.296370
3014.000000	100.296537
3013.000000	100.296720
3012.000000	100.296929
3011.000000	100.297050
3010.000000	100.296892
3009.000000	100.296423
3008.000000	100.295945
3007.000000	100.295925
3006.000000	100.296620
3005.000000	100.297910
3004.000000	100.299381
3003.000000	100.300488
3002.000000	100.300697
3001.000000	100.299737
3000.000000	100.297978
2999.000000	100.296392
2998.000000	100.295787
2997.000000	100.296233
2996.000000	100.297358
2995.000000	100.298923
2994.000000	100.300765
2993.000000	100.302299
2992.000000	100.302738
2991.000000	100.301910
2990.000000	100.300446
2989.000000	100.299031
2988.000000	100.297911
2987.000000	100.297278
2986.000000	100.297448
2985.000000	100.298193
2984.000000	100.298456
2983.000000	100.297503
2982.000000	100.296050
2981.000000	100.295455
2980.000000	100.295838
2979.000000	100.295894
2978.000000	100.294788
2977.000000	100.293576
2976.000000	100.293984
2975.000000	100.296260
2974.000000	100.298991
2973.000000	100.300986
2972.000000	100.302684
2971.000000	100.305202
2970.000000	100.308570
2969.000000	100.311440
2968.000000	100.312539
2967.000000	100.311937
2966.000000	100.310812
2965.000000	100.310201
2964.000000	100.310293
2963.000000	100.310943
2962.000000	100.312296
2961.000000	100.314544
2960.000000	100.317316
2959.000000	100.319729
2958.000000	100.321141
2957.000000	100.321640
2956.000000	100.321797
2955.000000	100.322177
2954.000000	100.323170
2953.000000	100.325021
2952.000000	100.327665
2951.000000	100.330503
2950.000000	100.332642
2949.000000	100.333583
2948.000000	100.333527
2947.000000	100.332941
2946.000000	100.332029
2945.000000	100.331017
2944.000000	100.330849
2943.000000	100.332831
2942.000000	100.337307
2941.000000	100.342857
2940.000000	100.347177
2939.000000	100.349235
2938.000000	100.349847
2937.000000	100.350415
2936.000000	100.351272
2935.000000	100.351741
2934.000000	100.351555
2933.000000	100.351446
2932.000000	100.352270
2931.000000	100.354004
2930.000000	100.355899
2929.000000	100.357397
2928.000000	100.358539
2927.000000	100.359510
2926.000000	100.360125
2925.000000	100.359958
2924.000000	100.358798
2923.000000	100.356813
2922.000000	100.354443
2921.000000	100.352370
2920.000000	100.351465
2919.000000	100.352368
2918.000000	100.354876
2917.000000	100.357842
2916.000000	100.359793
2915.000000	100.359888
2914.000000	100.358234
2913.000000	100.355623
2912.000000	100.353083
2911.000000	100.351370
2910.000000	100.350639
2909.000000	100.350542
2908.000000	100.350739
2907.000000	100.351214
2906.000000	100.351934
2905.000000	100.352424
2904.000000	100.352049
2903.000000	100.350810
2902.000000	100.349472
2901.000000	100.348699
2900.000000	100.348339
2899.000000	100.347790
2898.000000	100.346958
2897.000000	100.346504
2896.000000	100.346994
2895.000000	100.348233
2894.000000	100.349622
2893.000000	100.350819
2892.000000	100.351857
2891.000000	100.352724
2890.000000	100.353150
2889.000000	100.352875
2888.000000	100.351937
2887.000000	100.350623
2886.000000	100.349321
2885.000000	100.348463
2884.000000	100.348374
2883.000000	100.349039
2882.000000	100.350091
2881.000000	100.351226
2880.000000	100.352482
2879.000000	100.353847
2878.000000	100.354837
2877.000000	100.354886
2876.000000	100.354069
2875.000000	100.353290
2874.000000	100.353427
2873.000000	100.354461
2872.000000	100.355716
2871.000000	100.356746
2870.000000	100.357730
2869.000000	100.358834
2868.000000	100.359774
2867.000000	100.360285
2866.000000	100.360681
2865.000000	100.361559
2864.000000	100.363033
2863.000000	100.364531
2862.000000	100.365479
2861.000000	100.365990
2860.000000	100.366706
2859.000000	100.368006
2858.000000	100.369544
2857.000000	100.370629
2856.000000	100.370967
2855.000000	100.370836
2854.000000	100.370678
2853.000000	100.370635
2852.000000	100.370595
2851.000000	100.370544
2850.000000	100.370659
2849.000000	100.371096
2848.000000	100.371842
2847.000000	100.372813
2846.000000	100.373934
2845.000000	100.375037
2844.000000	100.375823
2843.000000	100.376103
2842.000000	100.376036
2841.000000	100.376062
2840.000000	100.376522
2839.000000	100.377414
2838.000000	100.378465
2837.000000	100.379418
2836.000000	100.380218
2835.000000	100.380850
2834.000000	100.381174
2833.000000	100.381126
2832.000000	100.380876
2831.000000	100.380652
2830.000000	100.380523
2829.000000	100.380447
2828.000000	100.380527
2827.000000	100.380974
2826.000000	100.381786
2825.000000	100.382635
2824.000000	100.383154
2823.000000	100.383277
2822.000000	100.383143
2821.000000	100.382884
2820.000000	100.382627
2819.000000	100.382645
2818.000000	100.383196
2817.000000	100.384179
2816.000000	100.385113
2815.000000	100.385628
2814.000000	100.385838
2813.000000	100.386066
2812.000000	100.386322
2811.000000	100.386316
2810.000000	100.385980
2809.000000	100.385707
2808.000000	100.385970
2807.000000	100.386788
2806.000000	100.387658
2805.000000	100.388056
2804.000000	100.387913
2803.000000	100.387527
2802.000000	100.387140
2801.000000	100.386790
2800.000000	100.386575
2799.000000	100.386786
2798.000000	100.387590
2797.000000	100.388755
2796.000000	100.389891
2795.000000	100.390909
2794.000000	100.391964
2793.000000	100.393025
2792.000000	100.393822
2791.000000	100.394195
2790.000000	100.394337
2789.000000	100.394629
2788.000000	100.395276
2787.000000	100.396167
2786.000000	100.397035
2785.000000	100.397721
2784.000000	100.398274
2783.000000	100.398834
2782.000000	100.399467
2781.000000	100.400129
2780.000000	100.400731
2779.000000	100.401230
2778.000000	100.401645
2777.000000	100.402005
2776.000000	100.402333
2775.000000	100.402663
2774.000000	100.403056
2773.000000	100.403558
2772.000000	100.404152
2771.000000	100.404779
2770.000000	100.405367
2769.000000	100.405872
2768.000000	100.406301
2767.000000	100.406682
2766.000000	100.407048
2765.000000	100.407422
2764.000000	100.407814
2763.000000	100.408231
2762.000000	100.408671
2761.000000	100.409123
2760.000000	100.409572
2759.000000	100.410002
2758.000000	100.410402
2757.000000	100.410761
2756.000000	100.411077
2755.000000	100.411358
2754.000000	100.411615
2753.000000	100.411854
2752.000000	100.412079
2751.000000	100.412290
2750.000000	100.412491
2749.000000	100.412691
2748.000000	100.412892
2747.000000	100.413090
2746.000000	100.413283
2745.000000	100.413471
2744.000000	100.413658
2743.000000	100.413836
2742.000000	100.413991
2741.000000	100.414109
2740.000000	100.414194
2739.000000	100.414263
2738.000000	100.414337
2737.000000	100.414431
2736.000000	100.414546
2735.000000	100.414676
2734.000000	100.414814
2733.000000	100.414951
2732.000000	100.415079
2731.000000	100.415191
2730.000000	100.415290
2729.000000	100.415390
2728.000000	100.415491
2727.000000	100.415592
2726.000000	100.415708
2725.000000	100.415879
2724.000000	100.416127
2723.000000	100.416427
2722.000000	100.416726
2721.000000	100.416972
2720.000000	100.417157
2719.000000	100.417296
2718.000000	100.417401
2717.000000	100.417470
2716.000000	100.417521
2715.000000	100.417612
2714.000000	100.417770
2713.000000	100.417977
2712.000000	100.418248
2711.000000	100.418617
2710.000000	100.419074
2709.000000	100.419508
2708.000000	100.419763
2707.000000	100.419788
2706.000000	100.419652
2705.000000	100.419495
2704.000000	100.419421
2703.000000	100.419492
2702.000000	100.419724
2701.000000	100.420060
2700.000000	100.420435
2699.000000	100.420825
2698.000000	100.421202
2697.000000	100.421518
2696.000000	100.421756
2695.000000	100.421938
2694.000000	100.422101
2693.000000	100.422262
2692.000000	100.422429
2691.000000	100.422609
2690.000000	100.422806
2689.000000	100.423008
2688.000000	100.423189
2687.000000	100.423334
2686.000000	100.423448
2685.000000	100.423549
2684.000000	100.423645
2683.000000	100.423732
2682.000000	100.423811
2681.000000	100.423894
2680.000000	100.423995
2679.000000	100.424120
2678.000000	100.424259
2677.000000	100.424397
2676.000000	100.424521
2675.000000	100.424617
2674.000000	100.424672
2673.000000	100.424676
2672.000000	100.424634
2671.000000	100.424573
2670.000000	100.424523
2669.000000	100.424502
2668.000000	100.424508
2667.000000	100.424535
2666.000000	100.424577
2665.000000	100.424629
2664.000000	100.424675
2663.000000	100.424697
2662.000000	100.424692
2661.000000	100.424675
2660.000000	100.424661
2659.000000	100.424656
2658.000000	100.424652
2657.000000	100.424641
2656.000000	100.424620
2655.000000	100.424596
2654.000000	100.424577
2653.000000	100.424574
2652.000000	100.424595
2651.000000	100.424645
2650.000000	100.424715
2649.000000	100.424792
2648.000000	100.424865
2647.000000	100.424940
2646.000000	100.425037
2645.000000	100.425175
2644.000000	100.425349
2643.000000	100.425544
2642.000000	100.425750
2641.000000	100.425974
2640.000000	100.426214
2639.000000	100.426410
2638.000000	100.426487
2637.000000	100.426422
2636.000000	100.426283
2635.000000	100.426170
2634.000000	100.426146
2633.000000	100.426235
2632.000000	100.426424
2631.000000	100.426652
2630.000000	100.426811
2629.000000	100.426800
2628.000000	100.426625
2627.000000	100.426459
2626.000000	100.426520
2625.000000	100.426895
2624.000000	100.427499
2623.000000	100.428123
2622.000000	100.428581
2621.000000	100.428764
2620.000000	100.428634
2619.000000	100.428241
2618.000000	100.427772
2617.000000	100.427549
2616.000000	100.427806
2615.000000	100.428425
2614.000000	100.428946
2613.000000	100.428971
2612.000000	100.428610
2611.000000	100.428437
2610.000000	100.428955
2609.000000	100.430165
2608.000000	100.431702
2607.000000	100.433280
2606.000000	100.434702
2605.000000	100.435467
2604.000000	100.434876
2603.000000	100.432818
2602.000000	100.430350
2601.000000	100.429039
2600.000000	100.429477
2599.000000	100.430808
2598.000000	100.431643
2597.000000	100.431340
2596.000000	100.430171
2595.000000	100.428647
2594.000000	100.427124
2593.000000	100.426015
2592.000000	100.425846
2591.000000	100.426621
2590.000000	100.427439
2589.000000	100.427184
2588.000000	100.425623
2587.000000	100.423657
2586.000000	100.422336
2585.000000	100.421793
2584.000000	100.421483
2583.000000	100.421211
2582.000000	100.421466
2581.000000	100.422627
2580.000000	100.424210
2579.000000	100.425277
2578.000000	100.425599
2577.000000	100.426011
2576.000000	100.427420
2575.000000	100.429739
2574.000000	100.431902
2573.000000	100.432833
2572.000000	100.432249
2571.000000	100.430577
2570.000000	100.428508
2569.000000	100.426719
2568.000000	100.425777
2567.000000	100.426017
2566.000000	100.427301
2565.000000	100.428896
2564.000000	100.429815
2563.000000	100.429501
2562.000000	100.428157
2561.000000	100.426479
2560.000000	100.425131
2559.000000	100.424480
2558.000000	100.424750
2557.000000	100.426024
2556.000000	100.427922
2555.000000	100.429493
2554.000000	100.429811
2553.000000	100.428684
2552.000000	100.426666
2551.000000	100.424580
2550.000000	100.423077
2549.000000	100.422619
2548.000000	100.423456
2547.000000	100.425324
2546.000000	100.427304
2545.000000	100.428425
2544.000000	100.428433
2543.000000	100.427811
2542.000000	100.427208
2541.000000	100.426911
2540.000000	100.426883
2539.000000	100.427121
2538.000000	100.427754
2537.000000	100.428789
2536.000000	100.429963
2535.000000	100.430967
2534.000000	100.431788
2533.000000	100.432683
2532.000000	100.433784
2531.000000	100.434792
2530.000000	100.435207
2529.000000	100.434966
2528.000000	100.434771
2527.000000	100.435561
2526.000000	100.437557
2525.000000	100.439888
2524.000000	100.441363
2523.000000	100.441641
2522.000000	100.441342
2521.000000	100.441145
2520.000000	100.441060
2519.000000	100.440709
2518.000000	100.439968
2517.000000	100.439139
2516.000000	100.438664
2515.000000	100.438864
2514.000000	100.439856
2513.000000	100.441489
2512.000000	100.443367
2511.000000	100.445059
2510.000000	100.446301
2509.000000	100.446901
2508.000000	100.446607
2507.000000	100.445391
2506.000000	100.443834
2505.000000	100.442944
2504.000000	100.443336
2503.000000	100.444838
2502.000000	100.446821
2501.000000	100.448768
2500.000000	100.450436
2499.000000	100.451560
2498.000000	100.451858
2497.000000	100.451396
2496.000000	100.450699
2495.000000	100.450381
2494.000000	100.450681
2493.000000	100.451468
2492.000000	100.452569
2491.000000	100.453956
2490.000000	100.455549
2489.000000	100.456980
2488.000000	100.457741
2487.000000	100.457595
2486.000000	100.456754
2485.000000	100.455735
2484.000000	100.455059
2483.000000	100.455029
2482.000000	100.455653
2481.000000	100.456691
2480.000000	100.457804
2479.000000	100.458823
2478.000000	100.459805
2477.000000	100.460819
2476.000000	100.461742
2475.000000	100.462351
2474.000000	100.462575
2473.000000	100.462534
2472.000000	100.462371
2471.000000	100.462212
2470.000000	100.462284
2469.000000	100.462845
2468.000000	100.463912
2467.000000	100.465149
2466.000000	100.466130
2465.000000	100.466706
2464.000000	100.466987
2463.000000	100.467116
2462.000000	100.467163
2461.000000	100.467263
2460.000000	100.467641
2459.000000	100.468433
2458.000000	100.469547
2457.000000	100.470687
2456.000000	100.471557
2455.000000	100.472007
2454.000000	100.472056
2453.000000	100.471871
2452.000000	100.471701
2451.000000	100.471735
2450.000000	100.472006
2449.000000	100.472417
2448.000000	100.472824
2447.000000	100.473120
2446.000000	100.473277
2445.000000	100.473330
2444.000000	100.473338
2443.000000	100.473332
2442.000000	100.473295
2441.000000	100.473214
2440.000000	100.473122
2439.000000	100.473072
2438.000000	100.473095
2437.000000	100.473158
2436.000000	100.473177
2435.000000	100.473093
2434.000000	100.472956
2433.000000	100.472926
2432.000000	100.473110
2431.000000	100.473396
2430.000000	100.473500
2429.000000	100.473283
2428.000000	100.472949
2427.000000	100.472851
2426.000000	100.473069
2425.000000	100.473325
2424.000000	100.473350
2423.000000	100.473161
2422.000000	100.472882
2421.000000	100.472458
2420.000000	100.471775
2419.000000	100.471013
2418.000000	100.470605
2417.000000	100.470776
2416.000000	100.471240
2415.000000	100.471521
2414.000000	100.471558
2413.000000	100.471727
2412.000000	100.472235
2411.000000	100.472661
2410.000000	100.472346
2409.000000	100.471237
2408.000000	100.470171
2407.000000	100.470113
2406.000000	100.471224
2405.000000	100.472801
2404.000000	100.473903
2403.000000	100.474030
2402.000000	100.473309
2401.000000	100.472364
2400.000000	100.471997
2399.000000	100.472606
2398.000000	100.473861
2397.000000	100.474966
2396.000000	100.475664
2395.000000	100.476748
2394.000000	100.478692
2393.000000	100.480967
2392.000000	100.482910
2391.000000	100.484344
2390.000000	100.485570
2389.000000	100.486831
2388.000000	100.488133
2387.000000	100.489405
2386.000000	100.490631
2385.000000	100.491833
2384.000000	100.493026
2383.000000	100.494216
2382.000000	100.495416
2381.000000	100.496646
2380.000000	100.497920
2379.000000	100.499238
2378.000000	100.500585
2377.000000	100.501941
2376.000000	100.503285
2375.000000	100.504608
2374.000000	100.505906
2373.000000	100.507176
2372.000000	100.508415
2371.000000	100.509631
2370.000000	100.510832
2369.000000	100.512019
2368.000000	100.513171
2367.000000	100.514272
2366.000000	100.515318
2365.000000	100.516316
2364.000000	100.517271
2363.000000	100.518188
2362.000000	100.519085
2361.000000	100.519977
2360.000000	100.520861
2359.000000	100.521709
2358.000000	100.522491
2357.000000	100.523189
2356.000000	100.523787
2355.000000	100.524276
2354.000000	100.524666
2353.000000	100.524991
2352.000000	100.525273
2351.000000	100.525499
2350.000000	100.525628
2349.000000	100.525637
2348.000000	100.525536
2347.000000	100.525356
2346.000000	100.525123
2345.000000	100.524852
2344.000000	100.524555
2343.000000	100.524258
2342.000000	100.523977
2341.000000	100.523705
2340.000000	100.523415
2339.000000	100.523072
2338.000000	100.522653
2337.000000	100.522125
2336.000000	100.521471
2335.000000	100.520705
2334.000000	100.519868
2333.000000	100.518994
2332.000000	100.518104
2331.000000	100.517199
2330.000000	100.516284
2329.000000	100.515351
2328.000000	100.514384
2327.000000	100.513356
2326.000000	100.512269
2325.000000	100.511158
2324.000000	100.510043
2323.000000	100.508907
2322.000000	100.507711
2321.000000	100.506466
2320.000000	100.505225
2319.000000	100.503987
2318.000000	100.502705
2317.000000	100.501320
2316.000000	100.499925
2315.000000	100.498595
2314.000000	100.497358
2313.000000	100.496037
2312.000000	100.494548
2311.000000	100.492892
2310.000000	100.491235
2309.000000	100.489558
2308.000000	100.487922
2307.000000	100.486489
2306.000000	100.485514
2305.000000	100.484765
2304.000000	100.483931
2303.000000	100.482784
2302.000000	100.481433
2301.000000	100.479935
2300.000000	100.478324
2299.000000	100.476563
2298.000000	100.474930
2297.000000	100.473641
2296.000000	100.472690
2295.000000	100.471717
2294.000000	100.470464
2293.000000	100.468959
2292.000000	100.467414
2291.000000	100.465861
2290.000000	100.464082
2289.000000	100.462104
2288.000000	100.460403
2287.000000	100.459469
2286.000000	100.459141
2285.000000	100.458850
2284.000000	100.458206
2283.000000	100.457218
2282.000000	100.455838
2281.000000	100.453857
2280.000000	100.451338
2279.000000	100.448899
2278.000000	100.447237
2277.000000	100.446519
2276.000000	100.446521
2275.000000	100.447034
2274.000000	100.447900
2273.000000	100.448596
2272.000000	100.448343
2271.000000	100.446717
2270.000000	100.444071
2269.000000	100.441205
2268.000000	100.438661
2267.000000	100.436335
2266.000000	100.433839
2265.000000	100.431144
2264.000000	100.428853
2263.000000	100.427693
2262.000000	100.427774
2261.000000	100.428578
2260.000000	100.429434
2259.000000	100.429984
2258.000000	100.430139
2257.000000	100.429982
2256.000000	100.429802
2255.000000	100.429884
2254.000000	100.430112
2253.000000	100.429971
2252.000000	100.429249
2251.000000	100.428389
2250.000000	100.427923
2249.000000	100.427595
2248.000000	100.426573
2247.000000	100.424516
2246.000000	100.422139
2245.000000	100.420623
2244.000000	100.420421
2243.000000	100.421038
2242.000000	100.421639
2241.000000	100.421832
2240.000000	100.421699
2239.000000	100.421337
2238.000000	100.420705
2237.000000	100.419893
2236.000000	100.419249
2235.000000	100.419076
2234.000000	100.419328
2233.000000	100.419735
2232.000000	100.420122
2231.000000	100.420467
2230.000000	100.420703
2229.000000	100.420707
2228.000000	100.420497
2227.000000	100.420294
2226.000000	100.420323
2225.000000	100.420593
2224.000000	100.420939
2223.000000	100.421205
2222.000000	100.421366
2221.000000	100.421468
2220.000000	100.421550
2219.000000	100.421652
2218.000000	100.421844
2217.000000	100.422183
2216.000000	100.422617
2215.000000	100.422993
2214.000000	100.423205
2213.000000	100.423284
2212.000000	100.423336
2211.000000	100.423438
2210.000000	100.423635
2209.000000	100.424003
2208.000000	100.424560
2207.000000	100.425138
2206.000000	100.425516
2205.000000	100.425766
2204.000000	100.426274
2203.000000	100.427266
2202.000000	100.428504
2201.000000	100.429513
2200.000000	100.430130
2199.000000	100.430554
2198.000000	100.430953
2197.000000	100.431280
2196.000000	100.431542
2195.000000	100.431934
2194.000000	100.432512
2193.000000	100.433024
2192.000000	100.433333
2191.000000	100.433766
2190.000000	100.434698
2189.000000	100.435938
2188.000000	100.436863
2187.000000	100.437220
2186.000000	100.437387
2185.000000	100.437772
2184.000000	100.438206
2183.000000	100.438299
2182.000000	100.438098
2181.000000	100.438010
2180.000000	100.438251
2179.000000	100.438681
2178.000000	100.439111
2177.000000	100.439483
2176.000000	100.439738
2175.000000	100.439729
2174.000000	100.439423
2173.000000	100.439078
2172.000000	100.439064
2171.000000	100.439459
2170.000000	100.439986
2169.000000	100.440349
2168.000000	100.440549
2167.000000	100.440786
2166.000000	100.441166
2165.000000	100.441619
2164.000000	100.442040
2163.000000	100.442407
2162.000000	100.442740
2161.000000	100.443018
2160.000000	100.443190
2159.000000	100.443259
2158.000000	100.443284
2157.000000	100.443341
2156.000000	100.443492
2155.000000	100.443776
2154.000000	100.444192
2153.000000	100.444657
2152.000000	100.445019
2151.000000	100.445176
2150.000000	100.445142
2149.000000	100.445046
2148.000000	100.445068
2147.000000	100.445287
2146.000000	100.445658
2145.000000	100.446069
2144.000000	100.446464
2143.000000	100.446871
2142.000000	100.447318
2141.000000	100.447766
2140.000000	100.448135
2139.000000	100.448392
2138.000000	100.448577
2137.000000	100.448764
2136.000000	100.448993
2135.000000	100.449283
2134.000000	100.449684
2133.000000	100.450270
2132.000000	100.451027
2131.000000	100.451797
2130.000000	100.452387
2129.000000	100.452709
2128.000000	100.452821
2127.000000	100.452857
2126.000000	100.452970
2125.000000	100.453305
2124.000000	100.453930
2123.000000	100.454734
2122.000000	100.455484
2121.000000	100.456113
2120.000000	100.456859
2119.000000	100.457990
2118.000000	100.459381
2117.000000	100.460508
2116.000000	100.460908
2115.000000	100.460568
2114.000000	100.459910
2113.000000	100.459598
2112.000000	100.460219
2111.000000	100.461819
2110.000000	100.463604
2109.000000	100.464426
2108.000000	100.463849
2107.000000	100.462584
2106.000000	100.461731
2105.000000	100.461758
2104.000000	100.462414
2103.000000	100.463203
2102.000000	100.463635
2101.000000	100.463272
2100.000000	100.462010
2099.000000	100.460348
2098.000000	100.458962
2097.000000	100.457990
2096.000000	100.457121
2095.000000	100.456481
2094.000000	100.456907
2093.000000	100.458975
2092.000000	100.462114
2091.000000	100.464954
2090.000000	100.466665
2089.000000	100.467529
2088.000000	100.468158
2087.000000	100.468576
2086.000000	100.468360
2085.000000	100.467451
2084.000000	100.466364
2083.000000	100.465577
2082.000000	100.465122
2081.000000	100.464875
2080.000000	100.464857
2079.000000	100.465063
2078.000000	100.465289
2077.000000	100.465421
2076.000000	100.465625
2075.000000	100.465954
2074.000000	100.466030
2073.000000	100.465527
2072.000000	100.464833
2071.000000	100.464753
2070.000000	100.465520
2069.000000	100.466518
2068.000000	100.467037
2067.000000	100.467046
2066.000000	100.466933
2065.000000	100.466890
2064.000000	100.466849
2063.000000	100.466849
2062.000000	100.467101
2061.000000	100.467704
2060.000000	100.468514
2059.000000	100.469284
2058.000000	100.469799
2057.000000	100.469943
2056.000000	100.469755
2055.000000	100.469431
2054.000000	100.469221
2053.000000	100.469276
2052.000000	100.469616
2051.000000	100.470133
2050.000000	100.470538
2049.000000	100.470521
2048.000000	100.470028
2047.000000	100.469339
2046.000000	100.468800
2045.000000	100.468466
2044.000000	100.468219
2043.000000	100.468060
2042.000000	100.468098
2041.000000	100.468307
2040.000000	100.468478
2039.000000	100.468499
2038.000000	100.468497
2037.000000	100.468632
2036.000000	100.468866
2035.000000	100.468975
2034.000000	100.468757
2033.000000	100.468237
2032.000000	100.467672
2031.000000	100.467311
2030.000000	100.467127
2029.000000	100.466869
2028.000000	100.466399
2027.000000	100.465819
2026.000000	100.465275
2025.000000	100.464753
2024.000000	100.464169
2023.000000	100.463537
2022.000000	100.462953
2021.000000	100.462459
2020.000000	100.462016
2019.000000	100.461576
2018.000000	100.461121
2017.000000	100.460653
2016.000000	100.460171
2015.000000	100.459683
2014.000000	100.459209
2013.000000	100.458762
2012.000000	100.458341
2011.000000	100.457934
2010.000000	100.457531
2009.000000	100.457122
2008.000000	100.456704
2007.000000	100.456274
2006.000000	100.455836
2005.000000	100.455398
2004.000000	100.454966
2003.000000	100.454540
2002.000000	100.454117
2001.000000	100.453695
2000.000000	100.453274
1999.000000	100.452862
1998.000000	100.452465
1997.000000	100.452082
1996.000000	100.451707
1995.000000	100.451330
1994.000000	100.450952
1993.000000	100.450580
1992.000000	100.450226
1991.000000	100.449898
1990.000000	100.449601
1989.000000	100.449328
1988.000000	100.449053
1987.000000	100.448735
1986.000000	100.448387
1985.000000	100.448095
1984.000000	100.447943
1983.000000	100.447955
1982.000000	100.448107
1981.000000	100.448316
1980.000000	100.448448
1979.000000	100.448442
1978.000000	100.448419
1977.000000	100.448520
1976.000000	100.448676
1975.000000	100.448689
1974.000000	100.448511
1973.000000	100.448270
1972.000000	100.448053
1971.000000	100.447870
1970.000000	100.447771
1969.000000	100.447748
1968.000000	100.447556
1967.000000	100.446935
1966.000000	100.446048
1965.000000	100.445401
1964.000000	100.445256
1963.000000	100.445436
1962.000000	100.445709
1961.000000	100.446078
1960.000000	100.446546
1959.000000	100.446924
1958.000000	100.447055
1957.000000	100.447055
1956.000000	100.447145
1955.000000	100.447296
1954.000000	100.447241
1953.000000	100.446782
1952.000000	100.446060
1951.000000	100.445460
1950.000000	100.445258
1949.000000	100.445434
1948.000000	100.445754
1947.000000	100.446021
1946.000000	100.446178
1945.000000	100.446113
1944.000000	100.445562
1943.000000	100.444370
1942.000000	100.442758
1941.000000	100.441233
1940.000000	100.440173
1939.000000	100.439633
1938.000000	100.439430
1937.000000	100.439215
1936.000000	100.438677
1935.000000	100.437808
1934.000000	100.436944
1933.000000	100.436438
1932.000000	100.436327
1931.000000	100.436338
1930.000000	100.436160
1929.000000	100.435715
1928.000000	100.435083
1927.000000	100.434377
1926.000000	100.433671
1925.000000	100.433049
1924.000000	100.432589
1923.000000	100.432251
1922.000000	100.431860
1921.000000	100.431264
1920.000000	100.430471
1919.000000	100.429641
1918.000000	100.428929
1917.000000	100.428329
1916.000000	100.427692
1915.000000	100.426930
1914.000000	100.426138
1913.000000	100.425461
1912.000000	100.424895
1911.000000	100.424279
1910.000000	100.423517
1909.000000	100.422700
1908.000000	100.421899
1907.000000	100.421120
1906.000000	100.420473
1905.000000	100.420291
1904.000000	100.420783
1903.000000	100.421571
1902.000000	100.421898
1901.000000	100.421402
1900.000000	100.420432
1899.000000	100.419710
1898.000000	100.419519
1897.000000	100.419595
1896.000000	100.419628
1895.000000	100.419504
1894.000000	100.419096
1893.000000	100.418135
1892.000000	100.416499
1891.000000	100.414552
1890.000000	100.413086
1889.000000	100.412644
1888.000000	100.412854
1887.000000	100.412717
1886.000000	100.411688
1885.000000	100.410288
1884.000000	100.409618
1883.000000	100.410151
1882.000000	100.411247
1881.000000	100.411839
1880.000000	100.411488
1879.000000	100.410695
1878.000000	100.410091
1877.000000	100.409562
1876.000000	100.408658
1875.000000	100.407568
1874.000000	100.407109
1873.000000	100.407744
1872.000000	100.408992
1871.000000	100.410011
1870.000000	100.410544
1869.000000	100.411039
1868.000000	100.411878
1867.000000	100.412750
1866.000000	100.413236
1865.000000	100.413614
1864.000000	100.414566
1863.000000	100.416242
1862.000000	100.417862
1861.000000	100.418431
1860.000000	100.417901
1859.000000	100.417387
1858.000000	100.417949
1857.000000	100.419284
1856.000000	100.420071
1855.000000	100.419652
1854.000000	100.418890
1853.000000	100.419258
1852.000000	100.420866
1851.000000	100.422698
1850.000000	100.424097
1849.000000	100.425343
1848.000000	100.426767
1847.000000	100.428010
1846.000000	100.428565
1845.000000	100.428494
1844.000000	100.428378
1843.000000	100.428796
1842.000000	100.429809
1841.000000	100.431147
1840.000000	100.432533
1839.000000	100.433698
1838.000000	100.434229
1837.000000	100.434063
1836.000000	100.433653
1835.000000	100.433466
1834.000000	100.433536
1833.000000	100.433499
1832.000000	100.432941
1831.000000	100.431975
1830.000000	100.431189
1829.000000	100.431074
1828.000000	100.431607
1827.000000	100.432435
1826.000000	100.433214
1825.000000	100.433596
1824.000000	100.433499
1823.000000	100.433322
1822.000000	100.433508
1821.000000	100.434076
1820.000000	100.434668
1819.000000	100.435034
1818.000000	100.435242
1817.000000	100.435503
1816.000000	100.435896
1815.000000	100.436325
1814.000000	100.436697
1813.000000	100.436941
1812.000000	100.437025
1811.000000	100.437003
1810.000000	100.436996
1809.000000	100.437121
1808.000000	100.437370
1807.000000	100.437657
1806.000000	100.437928
1805.000000	100.438182
1804.000000	100.438441
1803.000000	100.438705
1802.000000	100.438975
1801.000000	100.439247
1800.000000	100.439519
1799.000000	100.439796
1798.000000	100.440086
1797.000000	100.440396
1796.000000	100.440730
1795.000000	100.441089
1794.000000	100.441473
1793.000000	100.441882
1792.000000	100.442313
1791.000000	100.442763
1790.000000	100.443233
1789.000000	100.443722
1788.000000	100.444233
1787.000000	100.444764
1786.000000	100.445320
1785.000000	100.445904
1784.000000	100.446518
1783.000000	100.447158
1782.000000	100.447819
1781.000000	100.448495
1780.000000	100.449183
1779.000000	100.449883
1778.000000	100.450590
1777.000000	100.451298
1776.000000	100.451990
1775.000000	100.452652
1774.000000	100.453288
1773.000000	100.453900
1772.000000	100.454520
1771.000000	100.455216
1770.000000	100.455921
1769.000000	100.456502
1768.000000	100.456989
1767.000000	100.457562
1766.000000	100.458278
1765.000000	100.458954
1764.000000	100.459418
1763.000000	100.459727
1762.000000	100.460111
1761.000000	100.460612
1760.000000	100.461121
1759.000000	100.461630
1758.000000	100.462414
1757.000000	100.463609
1756.000000	100.464720
1755.000000	100.465255
1754.000000	100.465284
1753.000000	100.465159
1752.000000	100.465006
1751.000000	100.464946
1750.000000	100.465409
1749.000000	100.466861
1748.000000	100.469003
1747.000000	100.470963
1746.000000	100.472331
1745.000000	100.473074
1744.000000	100.473261
1743.000000	100.473056
1742.000000	100.472740
1741.000000	100.472390
1740.000000	100.471711
1739.000000	100.470384
1738.000000	100.468821
1737.000000	100.467542
1736.000000	100.466547
1735.000000	100.465360
1734.000000	100.463840
1733.000000	100.463324
1732.000000	100.464367
1731.000000	100.465710
1730.000000	100.466165
1729.000000	100.465691
1728.000000	100.465051
1727.000000	100.464810
1726.000000	100.464826
1725.000000	100.464585
1724.000000	100.464027
1723.000000	100.463489
1722.000000	100.463071
1721.000000	100.462546
1720.000000	100.461831
1719.000000	100.461303
1718.000000	100.461310
1717.000000	100.461472
1716.000000	100.460949
1715.000000	100.459462
1714.000000	100.457567
1713.000000	100.456137
1712.000000	100.455531
1711.000000	100.455437
1710.000000	100.455381
1709.000000	100.455304
1708.000000	100.455432
1707.000000	100.455729
1706.000000	100.455480
1705.000000	100.454064
1704.000000	100.451824
1703.000000	100.449491
1702.000000	100.447470
1701.000000	100.445863
1700.000000	100.444539
1699.000000	100.443668
1698.000000	100.443300
1697.000000	100.443378
1696.000000	100.443667
1695.000000	100.443250
1694.000000	100.441821
1693.000000	100.439908
1692.000000	100.438002
1691.000000	100.436061
1690.000000	100.433708
1689.000000	100.431139
1688.000000	100.428990
1687.000000	100.427674
1686.000000	100.427076
1685.000000	100.426594
1684.000000	100.425277
1683.000000	100.423138
1682.000000	100.420781
1681.000000	100.418567
1680.000000	100.416993
1679.000000	100.416355
1678.000000	100.416456
1677.000000	100.416742
1676.000000	100.416577
1675.000000	100.415487
1674.000000	100.413860
1673.000000	100.412077
1672.000000	100.410007
1671.000000	100.407409
1670.000000	100.404453
1669.000000	100.401951
1668.000000	100.400297
1667.000000	100.398866
1666.000000	100.396941
1665.000000	100.394573
1664.000000	100.392808
1663.000000	100.392514
1662.000000	100.393218
1661.000000	100.393547
1660.000000	100.393065
1659.000000	100.392588
1658.000000	100.392733
1657.000000	100.393076
1656.000000	100.392779
1655.000000	100.391871
1654.000000	100.390987
1653.000000	100.389872
1652.000000	100.388274
1651.000000	100.386735
1650.000000	100.385713
1649.000000	100.385405
1648.000000	100.385521
1647.000000	100.385111
1646.000000	100.383654
1645.000000	100.381768
1644.000000	100.380337
1643.000000	100.379577
1642.000000	100.379338
1641.000000	100.379292
1640.000000	100.379112
1639.000000	100.378811
1638.000000	100.378653
1637.000000	100.378848
1636.000000	100.379146
1635.000000	100.379240
1634.000000	100.379286
1633.000000	100.379481
1632.000000	100.379764
1631.000000	100.380005
1630.000000	100.380217
1629.000000	100.380530
1628.000000	100.380951
1627.000000	100.381285
1626.000000	100.381461
1625.000000	100.381689
1624.000000	100.382223
1623.000000	100.383028
1622.000000	100.383822
1621.000000	100.384448
1620.000000	100.385001
1619.000000	100.385684
1618.000000	100.386644
1617.000000	100.387768
1616.000000	100.388718
1615.000000	100.389439
1614.000000	100.390216
1613.000000	100.391245
1612.000000	100.392376
1611.000000	100.393205
1610.000000	100.393566
1609.000000	100.393908
1608.000000	100.394815
1607.000000	100.396286
1606.000000	100.397880
1605.000000	100.399369
1604.000000	100.400842
1603.000000	100.402339
1602.000000	100.403784
1601.000000	100.405268
1600.000000	100.406942
1599.000000	100.408749
1598.000000	100.410492
1597.000000	100.412117
1596.000000	100.413739
1595.000000	100.415379
1594.000000	100.416921
1593.000000	100.418347
1592.000000	100.419785
1591.000000	100.421260
1590.000000	100.422593
1589.000000	100.423715
1588.000000	100.424848
1587.000000	100.426143
1586.000000	100.427380
1585.000000	100.428341
1584.000000	100.429188
1583.000000	100.430381
1582.000000	100.432106
1581.000000	100.433957
1580.000000	100.435362
1579.000000	100.436222
1578.000000	100.436860
1577.000000	100.437570
1576.000000	100.438429
1575.000000	100.439526
1574.000000	100.440835
1573.000000	100.441960
1572.000000	100.442531
1571.000000	100.442660
1570.000000	100.443055
1569.000000	100.444467
1568.000000	100.446646
1567.000000	100.448736
1566.000000	100.450161
1565.000000	100.450797
1564.000000	100.450813
1563.000000	100.450706
1562.000000	100.450827
1561.000000	100.451326
1560.000000	100.452238
1559.000000	100.453965
1558.000000	100.456612
1557.000000	100.458573
1556.000000	100.458885
1555.000000	100.458231
1554.000000	100.457377
1553.000000	100.455984
1552.000000	100.453487
1551.000000	100.451082
1550.000000	100.450987
1549.000000	100.453990
1548.000000	100.458375
1547.000000	100.462119
1546.000000	100.464975
1545.000000	100.467495
1544.000000	100.469501
1543.000000	100.470439
1542.000000	100.470181
1541.000000	100.469215
1540.000000	100.468210
1539.000000	100.467816
1538.000000	100.468293
1537.000000	100.469205
1536.000000	100.470122
1535.000000	100.470854
1534.000000	100.471085
1533.000000	100.469933
1532.000000	100.467154
1531.000000	100.463727
1530.000000	100.461036
1529.000000	100.460211
1528.000000	100.461440
1527.000000	100.463738
1526.000000	100.465876
1525.000000	100.467237
1524.000000	100.467602
1523.000000	100.466785
1522.000000	100.464785
1521.000000	100.462397
1520.000000	100.460681
1519.000000	100.459697
1518.000000	100.459144
1517.000000	100.458996
1516.000000	100.459127
1515.000000	100.459297
1514.000000	100.459618
1513.000000	100.460256
1512.000000	100.460970
1511.000000	100.461074
1510.000000	100.460026
1509.000000	100.457738
1508.000000	100.454581
1507.000000	100.451971
1506.000000	100.451922
1505.000000	100.454462
1504.000000	100.457825
1503.000000	100.460680
1502.000000	100.462417
1501.000000	100.462834
1500.000000	100.462383
1499.000000	100.462255
1498.000000	100.463379
1497.000000	100.465177
1496.000000	100.466179
1495.000000	100.465789
1494.000000	100.464598
1493.000000	100.463279
1492.000000	100.462166
1491.000000	100.461524
1490.000000	100.461678
1489.000000	100.462623
1488.000000	100.463839
1487.000000	100.464761
1486.000000	100.465198
1485.000000	100.465368
1484.000000	100.465271
1483.000000	100.464796
1482.000000	100.464103
1481.000000	100.463662
1480.000000	100.463813
1479.000000	100.464387
1478.000000	100.465018
1477.000000	100.465512
1476.000000	100.466104
1475.000000	100.467187
1474.000000	100.469175
1473.000000	100.471937
1472.000000	100.474295
1471.000000	100.475176
1470.000000	100.474709
1469.000000	100.473682
1468.000000	100.472872
1467.000000	100.472706
1466.000000	100.473243
1465.000000	100.474010
1464.000000	100.474047
1463.000000	100.472999
1462.000000	100.471337
1461.000000	100.469705
1460.000000	100.468481
1459.000000	100.468070
1458.000000	100.469149
1457.000000	100.471561
1456.000000	100.473333
1455.000000	100.473033
1454.000000	100.471458
1453.000000	100.470082
1452.000000	100.469502
1451.000000	100.468996
1450.000000	100.467531
1449.000000	100.465159
1448.000000	100.463202
1447.000000	100.462597
1446.000000	100.463358
1445.000000	100.465136
1444.000000	100.467625
1443.000000	100.470374
1442.000000	100.472454
1441.000000	100.473281
1440.000000	100.473117
1439.000000	100.472673
1438.000000	100.472091
1437.000000	100.470912
1436.000000	100.469208
1435.000000	100.467765
1434.000000	100.466676
1433.000000	100.465406
1432.000000	100.463652
1431.000000	100.461631
1430.000000	100.460006
1429.000000	100.459408
1428.000000	100.460064
1427.000000	100.461425
1426.000000	100.462640
1425.000000	100.463076
1424.000000	100.462694
1423.000000	100.462155
1422.000000	100.461952
1421.000000	100.461922
1420.000000	100.461666
1419.000000	100.461252
1418.000000	100.461166
1417.000000	100.461516
1416.000000	100.462046
1415.000000	100.462599
1414.000000	100.463131
1413.000000	100.463529
1412.000000	100.463723
1411.000000	100.463808
1410.000000	100.463927
1409.000000	100.464136
1408.000000	100.464418
1407.000000	100.464720
1406.000000	100.464990
1405.000000	100.465204
1404.000000	100.465386
1403.000000	100.465572
1402.000000	100.465764
1401.000000	100.465960
1400.000000	100.466172
1399.000000	100.466408
1398.000000	100.466660
1397.000000	100.466916
1396.000000	100.467163
1395.000000	100.467397
1394.000000	100.467628
1393.000000	100.467867
1392.000000	100.468122
1391.000000	100.468399
1390.000000	100.468699
1389.000000	100.469021
1388.000000	100.469351
1387.000000	100.469674
1386.000000	100.469979
1385.000000	100.470265
1384.000000	100.470536
1383.000000	100.470794
1382.000000	100.471034
1381.000000	100.471250
1380.000000	100.471440
1379.000000	100.471612
1378.000000	100.471774
1377.000000	100.471928
1376.000000	100.472080
1375.000000	100.472242
1374.000000	100.472423
1373.000000	100.472616
1372.000000	100.472792
1371.000000	100.472926
1370.000000	100.473013
1369.000000	100.473071
1368.000000	100.473117
1367.000000	100.473161
1366.000000	100.473208
1365.000000	100.473260
1364.000000	100.473318
1363.000000	100.473371
1362.000000	100.473401
1361.000000	100.473395
1360.000000	100.473356
1359.000000	100.473300
1358.000000	100.473246
1357.000000	100.473207
1356.000000	100.473187
1355.000000	100.473185
1354.000000	100.473196
1353.000000	100.473213
1352.000000	100.473229
1351.000000	100.473233
1350.000000	100.473225
1349.000000	100.473211
1348.000000	100.473203
1347.000000	100.473199
1346.000000	100.473163
1345.000000	100.473035
1344.000000	100.472814
1343.000000	100.472589
1342.000000	100.472422
1341.000000	100.472289
1340.000000	100.472220
1339.000000	100.472356
1338.000000	100.472708
1337.000000	100.473029
1336.000000	100.473166
1335.000000	100.473335
1334.000000	100.473793
1333.000000	100.474308
1332.000000	100.474302
1331.000000	100.473630
1330.000000	100.472937
1329.000000	100.472906
1328.000000	100.473569
1327.000000	100.474498
1326.000000	100.475233
1325.000000	100.475328
1324.000000	100.474513
1323.000000	100.473068
1322.000000	100.471685
1321.000000	100.470707
1320.000000	100.469937
1319.000000	100.469505
1318.000000	100.470251
1317.000000	100.472549
1316.000000	100.475242
1315.000000	100.476490
1314.000000	100.475635
1313.000000	100.473620
1312.000000	100.471768
1311.000000	100.470590
1310.000000	100.470103
1309.000000	100.470552
1308.000000	100.472231
1307.000000	100.474727
1306.000000	100.476859
1305.000000	100.477526
1304.000000	100.476339
1303.000000	100.473602
1302.000000	100.470100
1301.000000	100.466789
1300.000000	100.464333
1299.000000	100.462727
1298.000000	100.461509
1297.000000	100.460519
1296.000000	100.460325
1295.000000	100.461516
1294.000000	100.463569
1293.000000	100.464787
1292.000000	100.463729
1291.000000	100.460454
1290.000000	100.456291
1289.000000	100.452568
1288.000000	100.449802
1287.000000	100.448046
1286.000000	100.447323
1285.000000	100.447393
1284.000000	100.447503
1283.000000	100.446778
1282.000000	100.444742
1281.000000	100.441353
1280.000000	100.436849
1279.000000	100.432027
1278.000000	100.428402
1277.000000	100.427316
1276.000000	100.428631
1275.000000	100.430422
1274.000000	100.430492
1273.000000	100.428237
1272.000000	100.424684
1271.000000	100.420965
1270.000000	100.417279
1269.000000	100.413680
1268.000000	100.411293
1267.000000	100.411736
1266.000000	100.415075
1265.000000	100.419068
1264.000000	100.421232
1263.000000	100.421133
1262.000000	100.419869
1261.000000	100.418082
1260.000000	100.415864
1259.000000	100.414312
1258.000000	100.414937
1257.000000	100.416738
1256.000000	100.416014
1255.000000	100.410888
1254.000000	100.404798
1253.000000	100.403340
1252.000000	100.407605
1251.000000	100.412342
1250.000000	100.411142
1249.000000	100.402215
1248.000000	100.389037
1247.000000	100.376888
1246.000000	100.369133
1245.000000	100.365720
1244.000000	100.364057
1243.000000	100.361501
1242.000000	100.357711
1241.000000	100.354659
1240.000000	100.354208
1239.000000	100.355957
1238.000000	100.357459
1237.000000	100.356064
1236.000000	100.350312
1235.000000	100.340322
1234.000000	100.327878
1233.000000	100.316034
1232.000000	100.307668
1231.000000	100.303736
1230.000000	100.302750
1229.000000	100.301986
1228.000000	100.299196
1227.000000	100.293310
1226.000000	100.284235
1225.000000	100.272669
1224.000000	100.260160
1223.000000	100.248761
1222.000000	100.239585
1221.000000	100.231075
1220.000000	100.219236
1219.000000	100.200955
1218.000000	100.178050
1217.000000	100.157438
1216.000000	100.145218
1215.000000	100.139743
1214.000000	100.132205
1213.000000	100.115800
1212.000000	100.093002
1211.000000	100.071788
1210.000000	100.055659
1209.000000	100.040969
1208.000000	100.024282
1207.000000	100.007630
1206.000000	99.993933
1205.000000	99.980848
1204.000000	99.963664
1203.000000	99.942649
1202.000000	99.922755
1201.000000	99.906060
1200.000000	99.888914
1199.000000	99.868007
1198.000000	99.845579
1197.000000	99.826074
1196.000000	99.809734
1195.000000	99.792375
1194.000000	99.770881
1193.000000	99.746504
1192.000000	99.722469
1191.000000	99.700013
1190.000000	99.677791
1189.000000	99.654661
1188.000000	99.632063
1187.000000	99.612831
1186.000000	99.597371
1185.000000	99.581612
1184.000000	99.560040
1183.000000	99.531449
1182.000000	99.501338
1181.000000	99.477532
1180.000000	99.462716
1179.000000	99.451519
1178.000000	99.435296
1177.000000	99.409669
1176.000000	99.376636
1175.000000	99.340010
1174.000000	99.301106
1173.000000	99.260515
1172.000000	99.222282
1171.000000	99.192672
1170.000000	99.173978
1169.000000	99.161866
1168.000000	99.149955
1167.000000	99.135065
1166.000000	99.116860
1165.000000	99.095416
1164.000000	99.072591
1163.000000	99.054393
1162.000000	99.047688
1161.000000	99.053472
1160.000000	99.064909
1159.000000	99.073056
1158.000000	99.074124
1157.000000	99.069851
1156.000000	99.061805
1155.000000	99.048028
1154.000000	99.026557
1153.000000	99.000387
1152.000000	98.975872
1151.000000	98.955551
1150.000000	98.935163
1149.000000	98.909672
1148.000000	98.880271
1147.000000	98.852912
1146.000000	98.830889
1145.000000	98.811809
1144.000000	98.791757
1143.000000	98.769303
1142.000000	98.744875
1141.000000	98.719230
1140.000000	98.693969
1139.000000	98.671220
1138.000000	98.650864
1137.000000	98.629536
1136.000000	98.604245
1135.000000	98.576340
1134.000000	98.550528
1133.000000	98.529898
1132.000000	98.512666
1131.000000	98.493895
1130.000000	98.470326
1129.000000	98.443327
1128.000000	98.416683
1127.000000	98.391936
1126.000000	98.367719
1125.000000	98.343924
1124.000000	98.323700
1123.000000	98.309073
1122.000000	98.296320
1121.000000	98.278514
1120.000000	98.252308
1119.000000	98.220179
1118.000000	98.187439
1117.000000	98.157941
1116.000000	98.133283
1115.000000	98.114005
1114.000000	98.099142
1113.000000	98.086131
1112.000000	98.073552
1111.000000	98.061977
1110.000000	98.049722
1109.000000	98.031037
1108.000000	98.002340
1107.000000	97.967484
1106.000000	97.932962
1105.000000	97.900772
1104.000000	97.870446
1103.000000	97.844539
1102.000000	97.825914
1101.000000	97.811259
1100.000000	97.792885
1099.000000	97.767001
1098.000000	97.736859
1097.000000	97.708430
1096.000000	97.685635
1095.000000	97.668294
1094.000000	97.652288
1093.000000	97.633759
1092.000000	97.614590
1091.000000	97.599722
1090.000000	97.587257
1089.000000	97.567864
1088.000000	97.539021
1087.000000	97.513234
1086.000000	97.503666
1085.000000	97.505490
1084.000000	97.501091
1083.000000	97.482831
1082.000000	97.461562
1081.000000	97.451545
1080.000000	97.454711
1079.000000	97.462454
1078.000000	97.466284
1077.000000	97.462607
1076.000000	97.451217
1075.000000	97.433469
1074.000000	97.410717
1073.000000	97.382352
1072.000000	97.346512
1071.000000	97.303448
1070.000000	97.255985
1069.000000	97.205799
1068.000000	97.151693
1067.000000	97.092549
1066.000000	97.029339
1065.000000	96.962966
1064.000000	96.892500
1063.000000	96.817280
1062.000000	96.739438
1061.000000	96.663035
1060.000000	96.591499
1059.000000	96.526487
1058.000000	96.468043
1057.000000	96.414589
1056.000000	96.362530
1055.000000	96.306879
1054.000000	96.244762
1053.000000	96.180205
1052.000000	96.123457
1051.000000	96.081429
1050.000000	96.048621
1049.000000	96.011388
1048.000000	95.961371
1047.000000	95.901046
1046.000000	95.837569
1045.000000	95.776505
1044.000000	95.720872
1043.000000	95.670210
1042.000000	95.619254
1041.000000	95.562743
1040.000000	95.503082
1039.000000	95.448607
1038.000000	95.402977
1037.000000	95.360935
1036.000000	95.316350
1035.000000	95.269903
1034.000000	95.226946
1033.000000	95.192776
1032.000000	95.171951
1031.000000	95.166234
1030.000000	95.169261
1029.000000	95.167697
1028.000000	95.152107
1027.000000	95.124908
1026.000000	95.096096
1025.000000	95.074161
1024.000000	95.062583
1023.000000	95.060821
1022.000000	95.064950
1021.000000	95.068970
1020.000000	95.067680
1019.000000	95.058287
1018.000000	95.040500
1017.000000	95.017341
1016.000000	94.994422
1015.000000	94.975394
1014.000000	94.959558
1013.000000	94.946743
1012.000000	94.940490
1011.000000	94.940587
1010.000000	94.937266
1009.000000	94.922778
1008.000000	94.906413
1007.000000	94.905904
1006.000000	94.923234
1005.000000	94.941029
1004.000000	94.946532
1003.000000	94.947030
1002.000000	94.954199
1001.000000	94.964956
1000.000000	94.969278
999.000000	94.969812
998.000000	94.980235
997.000000	95.005397
996.000000	95.033950
995.000000	95.052456
994.000000	95.059815
993.000000	95.064858
992.000000	95.075106
991.000000	95.092605
990.000000	95.118798
989.000000	95.158589
988.000000	95.216122
987.000000	95.286118
986.000000	95.353021
985.000000	95.403362
984.000000	95.437927
983.000000	95.467102
982.000000	95.495700
981.000000	95.519669
980.000000	95.539268
979.000000	95.566627
978.000000	95.612973
977.000000	95.673356
976.000000	95.731868
975.000000	95.780171
974.000000	95.823558
973.000000	95.869105
972.000000	95.916600
971.000000	95.964734
970.000000	96.019519
969.000000	96.089902
968.000000	96.177022
967.000000	96.272842
966.000000	96.368507
965.000000	96.459226
964.000000	96.540370
963.000000	96.605164
962.000000	96.651304
961.000000	96.687000
960.000000	96.725452
959.000000	96.772848
958.000000	96.824203
957.000000	96.870593
956.000000	96.908101
955.000000	96.940322
954.000000	96.975327
953.000000	97.020404
952.000000	97.076827
951.000000	97.138308
950.000000	97.195710
949.000000	97.243521
948.000000	97.281028
947.000000	97.309738
946.000000	97.333660
945.000000	97.360604
944.000000	97.397055
943.000000	97.439634
942.000000	97.476329
941.000000	97.499544
940.000000	97.514611
939.000000	97.532017
938.000000	97.553095
937.000000	97.567607
936.000000	97.566177
935.000000	97.552729
934.000000	97.542898
933.000000	97.549619
932.000000	97.571827
931.000000	97.598863
930.000000	97.624556
929.000000	97.651907
928.000000	97.681497
927.000000	97.702683
926.000000	97.705809
925.000000	97.700532
924.000000	97.710260
923.000000	97.745567
922.000000	97.792367
921.000000	97.830120
920.000000	97.853102
919.000000	97.866724
918.000000	97.871720
917.000000	97.863748
916.000000	97.845949
915.000000	97.831317
914.000000	97.830818
913.000000	97.845296
912.000000	97.869646
911.000000	97.899073
910.000000	97.930866
909.000000	97.965497
908.000000	98.006892
907.000000	98.058087
906.000000	98.116687
905.000000	98.176932
904.000000	98.233956
903.000000	98.283218
902.000000	98.320420
901.000000	98.347868
900.000000	98.377483
899.000000	98.420515
898.000000	98.475765
897.000000	98.533709
896.000000	98.589680
895.000000	98.644724
894.000000	98.694849
893.000000	98.730047
892.000000	98.746864
891.000000	98.754049
890.000000	98.762170
889.000000	98.774199
888.000000	98.791127
887.000000	98.819753
886.000000	98.867029
885.000000	98.929251
884.000000	98.992506
883.000000	99.043885
882.000000	99.080251
881.000000	99.108108
880.000000	99.137828
879.000000	99.175262
878.000000	99.216165
877.000000	99.251699
876.000000	99.281351
875.000000	99.315427
874.000000	99.360159
873.000000	99.404994
872.000000	99.432349
871.000000	99.437705
870.000000	99.433468
869.000000	99.433970
868.000000	99.443281
867.000000	99.459759
866.000000	99.485017
865.000000	99.522855
864.000000	99.572507
863.000000	99.627692
862.000000	99.681977
861.000000	99.731384
860.000000	99.771493
859.000000	99.796409
858.000000	99.804083
857.000000	99.801444
856.000000	99.800948
855.000000	99.810967
854.000000	99.831179
853.000000	99.857487
852.000000	99.887713
851.000000	99.918903
850.000000	99.941640
849.000000	99.944025
848.000000	99.924053
847.000000	99.895002
846.000000	99.875723
845.000000	99.876889
844.000000	99.897896
843.000000	99.932416
842.000000	99.972487
841.000000	100.009100
840.000000	100.034002
839.000000	100.043647
838.000000	100.041176
837.000000	100.034052
836.000000	100.028968
835.000000	100.027171
834.000000	100.024335
833.000000	100.016689
832.000000	100.006091
831.000000	99.995198
830.000000	99.979490
829.000000	99.953260
828.000000	99.926408
827.000000	99.922790
826.000000	99.949671
825.000000	99.977823
824.000000	99.969983
823.000000	99.925776
822.000000	99.880685
821.000000	99.861417
820.000000	99.861986
819.000000	99.865895
818.000000	99.870416
817.000000	99.879293
816.000000	99.884798
815.000000	99.871314
814.000000	99.833499
813.000000	99.779965
812.000000	99.718956
811.000000	99.649504
810.000000	99.569237
809.000000	99.483437
808.000000	99.400126
807.000000	99.317338
806.000000	99.219542
805.000000	99.090298
804.000000	98.930929
803.000000	98.766346
802.000000	98.628170
801.000000	98.529840
800.000000	98.461240
799.000000	98.408400
798.000000	98.373524
797.000000	98.369593
796.000000	98.397438
795.000000	98.437331
794.000000	98.468231
793.000000	98.489071
792.000000	98.512258
791.000000	98.540493
790.000000	98.561969
789.000000	98.569818
788.000000	98.573496
787.000000	98.581715
786.000000	98.582205
785.000000	98.551746
784.000000	98.486311
783.000000	98.410524
782.000000	98.353107
781.000000	98.320211
780.000000	98.297398
779.000000	98.272736
778.000000	98.251140
777.000000	98.245870
776.000000	98.261792
775.000000	98.290840
774.000000	98.324046
773.000000	98.364479
772.000000	98.422058
771.000000	98.494847
770.000000	98.563861
769.000000	98.612461
768.000000	98.643729
767.000000	98.669701
766.000000	98.690118
765.000000	98.695701
764.000000	98.691125
763.000000	98.698564
762.000000	98.731879
761.000000	98.778932
760.000000	98.817842
759.000000	98.841755
758.000000	98.857963
757.000000	98.870503
756.000000	98.877143
755.000000	98.882262
754.000000	98.899962
753.000000	98.938746
752.000000	98.988604
751.000000	99.028698
750.000000	99.048114
749.000000	99.056122
748.000000	99.070908
747.000000	99.099479
746.000000	99.132060
745.000000	99.156599
744.000000	99.172577
743.000000	99.185094
742.000000	99.191268
741.000000	99.184188
740.000000	99.170501
739.000000	99.171599
738.000000	99.201016
737.000000	99.249176
736.000000	99.295148
735.000000	99.328697
734.000000	99.353781
733.000000	99.373354
732.000000	99.383347
731.000000	99.384546
730.000000	99.389884
729.000000	99.412443
728.000000	99.451570
727.000000	99.496024
726.000000	99.534812
725.000000	99.560206
724.000000	99.566816
723.000000	99.554794
722.000000	99.532903
721.000000	99.515114
720.000000	99.513795
719.000000	99.534261
718.000000	99.571092
717.000000	99.608606
716.000000	99.630205
715.000000	99.631848
714.000000	99.623788
713.000000	99.617188
712.000000	99.613806
711.000000	99.613164
710.000000	99.623177
709.000000	99.652438
708.000000	99.694258
707.000000	99.725861
706.000000	99.726148
705.000000	99.692984
704.000000	99.643371
703.000000	99.598171
702.000000	99.564406
701.000000	99.532657
700.000000	99.493248
699.000000	99.450963
698.000000	99.416668
697.000000	99.386231
696.000000	99.342246
695.000000	99.285265
694.000000	99.248980
693.000000	99.265598
692.000000	99.327423
691.000000	99.397137
690.000000	99.451387
689.000000	99.500235
688.000000	99.556984
687.000000	99.608348
686.000000	99.630114
685.000000	99.622004
684.000000	99.609504
683.000000	99.614351
682.000000	99.635236
681.000000	99.659224
680.000000	99.680133
679.000000	99.700191
678.000000	99.717973
677.000000	99.726007
676.000000	99.723011
675.000000	99.720509
674.000000	99.732343
673.000000	99.757744
672.000000	99.780070
671.000000	99.786105
670.000000	99.778290
669.000000	99.776943
668.000000	99.799184
667.000000	99.830183
666.000000	99.851241
665.000000	99.865389
664.000000	99.882701
663.000000	99.907151
662.000000	99.931785
661.000000	99.946470
660.000000	99.950324
659.000000	99.950960
658.000000	99.954688
657.000000	99.961525
656.000000	99.971352
655.000000	99.988855
654.000000	100.017935
653.000000	100.051185
652.000000	100.070228
651.000000	100.060873
650.000000	100.028668
