4000.000000	100.355066
3999.000000	100.360389
3998.000000	100.366811
3997.000000	100.371826
3996.000000	100.372836
3995.000000	100.368622
3994.000000	100.360182
3993.000000	100.349554
3992.000000	100.338193
3991.000000	100.326979
3990.000000	100.317212
3989.000000	100.310765
3988.000000	100.309087
3987.000000	100.312283
3986.000000	100.318662
3985.000000	100.324947
3984.000000	100.327621
3983.000000	100.324924
3982.000000	100.317987
3981.000000	100.310225
3980.000000	100.305135
3979.000000	100.304520
3978.000000	100.308279
3977.000000	100.315034
3976.000000	100.323015
3975.000000	100.330697
3974.000000	100.336925
3973.000000	100.340636
3972.000000	100.340955
3971.000000	100.337980
3970.000000	100.333468
3969.000000	100.330143
3968.000000	100.329880
3967.000000	100.332765
3966.000000	100.337478
3965.000000	100.342072
3964.000000	100.344674
3963.000000	100.344293
3962.000000	100.341596
3961.000000	100.338622
3960.000000	100.337198
3959.000000	100.337503
3958.000000	100.338240
3957.000000	100.337783
3956.000000	100.335263
3955.000000	100.331262
3954.000000	100.327680
3953.000000	100.326496
3952.000000	100.328112
3951.000000	100.331000
3950.000000	100.333093
3949.000000	100.333610
3948.000000	100.333517
3947.000000	100.334173
3946.000000	100.335795
3945.000000	100.337401
3944.000000	100.338242
3943.000000	100.339016
3942.000000	100.341193
3941.000000	100.344985
3940.000000	100.348588
3939.000000	100.349846
3938.000000	100.348475
3937.000000	100.346390
3936.000000	100.345869
3935.000000	100.347852
3934.000000	100.351763
3933.000000	100.356283
3932.000000	100.359823
3931.000000	100.360895
3930.000000	100.359159
3929.000000	100.355856
3928.000000	100.352680
3927.000000	100.349973
3926.000000	100.346821
3925.000000	100.343098
3924.000000	100.340349
3923.000000	100.340200
3922.000000	100.342871
3921.000000	100.347109
3920.000000	100.350758
3919.000000	100.351300
3918.000000	100.347014
3917.000000	100.338653
3916.000000	100.329953
3915.000000	100.325170
3914.000000	100.326163
3913.000000	100.331659
3912.000000	100.338234
3911.000000	100.342666
3910.000000	100.343934
3909.000000	100.343591
3908.000000	100.344070
3907.000000	100.346554
3906.000000	100.350148
3905.000000	100.353380
3904.000000	100.356385
3903.000000	100.360458
3902.000000	100.365240
3901.000000	100.367848
3900.000000	100.365949
3899.000000	100.360532
3898.000000	100.354836
3897.000000	100.351206
3896.000000	100.350373
3895.000000	100.351945
3894.000000	100.354299
3893.000000	100.354386
3892.000000	100.350005
3891.000000	100.342642
3890.000000	100.336441
3889.000000	100.334316
3888.000000	100.335751
3887.000000	100.337710
3886.000000	100.338467
3885.000000	100.339224
3884.000000	100.340941
3883.000000	100.342185
3882.000000	100.340675
3881.000000	100.336484
3880.000000	100.333041
3879.000000	100.333460
3878.000000	100.337568
3877.000000	100.342575
3876.000000	100.345227
3875.000000	100.344658
3874.000000	100.343372
3873.000000	100.344033
3872.000000	100.345607
3871.000000	100.344619
3870.000000	100.340828
3869.000000	100.338291
3868.000000	100.339954
3867.000000	100.344753
3866.000000	100.349749
3865.000000	100.353153
3864.000000	100.354488
3863.000000	100.352956
3862.000000	100.348037
3861.000000	100.340708
3860.000000	100.332756
3859.000000	100.325703
3858.000000	100.320935
3857.000000	100.319982
3856.000000	100.322759
3855.000000	100.325143
3854.000000	100.323406
3853.000000	100.319778
3852.000000	100.317864
3851.000000	100.317649
3850.000000	100.317658
3849.000000	100.317450
3848.000000	100.317491
3847.000000	100.317959
3846.000000	100.318398
3845.000000	100.318100
3844.000000	100.316703
3843.000000	100.314546
3842.000000	100.312422
3841.000000	100.311046
3840.000000	100.310829
3839.000000	100.311716
3838.000000	100.312978
3837.000000	100.313579
3836.000000	100.313042
3835.000000	100.311815
3834.000000	100.310832
3833.000000	100.310768
3832.000000	100.311672
3831.000000	100.313112
3830.000000	100.314551
3829.000000	100.315523
3828.000000	100.315699
3827.000000	100.315107
3826.000000	100.314222
3825.000000	100.313692
3824.000000	100.313755
3823.000000	100.314149
3822.000000	100.314575
3821.000000	100.315028
3820.000000	100.315591
3819.000000	100.316220
3818.000000	100.316722
3817.000000	100.316891
3816.000000	100.316771
3815.000000	100.316725
3814.000000	100.316954
3813.000000	100.317338
3812.000000	100.317692
3811.000000	100.318023
3810.000000	100.318453
3809.000000	100.318960
3808.000000	100.319350
3807.000000	100.319539
3806.000000	100.319638
3805.000000	100.319823
3804.000000	100.320199
3803.000000	100.320720
3802.000000	100.321407
3801.000000	100.322471
3800.000000	100.323887
3799.000000	100.325230
3798.000000	100.326037
3797.000000	100.326129
3796.000000	100.325696
3795.000000	100.325106
3794.000000	100.324545
3793.000000	100.324091
3792.000000	100.323880
3791.000000	100.324074
3790.000000	100.324736
3789.000000	100.325737
3788.000000	100.326777
3787.000000	100.327377
3786.000000	100.326943
3785.000000	100.325282
3784.000000	100.323151
3783.000000	100.321794
3782.000000	100.321667
3781.000000	100.321756
3780.000000	100.320593
3779.000000	100.318095
3778.000000	100.315740
3777.000000	100.314905
3776.000000	100.315605
3775.000000	100.316958
3774.000000	100.318251
3773.000000	100.318834
3772.000000	100.317362
3771.000000	100.313185
3770.000000	100.308931
3769.000000	100.308977
3768.000000	100.314894
3767.000000	100.323631
3766.000000	100.330282
3765.000000	100.332532
3764.000000	100.331720
3763.000000	100.329715
3762.000000	100.326612
3761.000000	100.322639
3760.000000	100.320214
3759.000000	100.320950
3758.000000	100.322303
3757.000000	100.320590
3756.000000	100.315028
3755.000000	100.307203
3754.000000	100.298044
3753.000000	100.287163
3752.000000	100.275169
3751.000000	100.264866
3750.000000	100.258240
3749.000000	100.255242
3748.000000	100.257031
3747.000000	100.264799
3746.000000	100.270853
3745.000000	100.269615
3744.000000	100.274019
3743.000000	100.291217
3742.000000	100.308119
3741.000000	100.312657
3740.000000	100.307949
3739.000000	100.305642
3738.000000	100.310029
3737.000000	100.313813
3736.000000	100.310806
3735.000000	100.303683
3734.000000	100.297008
3733.000000	100.292047
3732.000000	100.289392
3731.000000	100.289366
3730.000000	100.289913
3729.000000	100.287149
3728.000000	100.279256
3727.000000	100.271126
3726.000000	100.271307
3725.000000	100.280986
3724.000000	100.291617
3723.000000	100.294697
3722.000000	100.289699
3721.000000	100.281517
3720.000000	100.273116
3719.000000	100.262462
3718.000000	100.247400
3717.000000	100.230328
3716.000000	100.216610
3715.000000	100.209893
3714.000000	100.209331
3713.000000	100.210888
3712.000000	100.211440
3711.000000	100.209926
3710.000000	100.205051
3709.000000	100.195605
3708.000000	100.182100
3707.000000	100.166982
3706.000000	100.153306
3705.000000	100.143011
3704.000000	100.135998
3703.000000	100.131059
3702.000000	100.127731
3701.000000	100.126608
3700.000000	100.127707
3699.000000	100.129165
3698.000000	100.128339
3697.000000	100.124285
3696.000000	100.118412
3695.000000	100.112012
3694.000000	100.105002
3693.000000	100.097127
3692.000000	100.089029
3691.000000	100.081470
3690.000000	100.074459
3689.000000	100.068186
3688.000000	100.063080
3687.000000	100.058416
3686.000000	100.052442
3685.000000	100.044340
3684.000000	100.035087
3683.000000	100.026179
3682.000000	100.017767
3681.000000	100.008956
3680.000000	99.999753
3679.000000	99.991206
3678.000000	99.983483
3677.000000	99.974972
3676.000000	99.964871
3675.000000	99.954147
3674.000000	99.944059
3673.000000	99.934934
3672.000000	99.926625
3671.000000	99.918471
3670.000000	99.909728
3669.000000	99.900291
3668.000000	99.890429
3667.000000	99.880329
3666.000000	99.870094
3665.000000	99.859904
3664.000000	99.849870
3663.000000	99.839578
3662.000000	99.828180
3661.000000	99.815757
3660.000000	99.804146
3659.000000	99.795233
3658.000000	99.787727
3657.000000	99.778372
3656.000000	99.768042
3655.000000	99.761725
3654.000000	99.762118
3653.000000	99.765769
3652.000000	99.763747
3651.000000	99.748046
3650.000000	99.721930
3649.000000	99.699167
3648.000000	99.687654
3647.000000	99.683534
3646.000000	99.680851
3645.000000	99.676960
3644.000000	99.670205
3643.000000	99.658543
3642.000000	99.641330
3641.000000	99.620358
3640.000000	99.598389
3639.000000	99.579453
3638.000000	99.569385
3637.000000	99.570604
3636.000000	99.575194
3635.000000	99.568459
3634.000000	99.544504
3633.000000	99.513928
3632.000000	99.492101
3631.000000	99.479416
3630.000000	99.462303
3629.000000	99.444917
3628.000000	99.446277
3627.000000	99.464663
3626.000000	99.481866
3625.000000	99.488415
3624.000000	99.490128
3623.000000	99.498521
3622.000000	99.517479
3621.000000	99.538512
3620.000000	99.548893
3619.000000	99.545044
3618.000000	99.535277
3617.000000	99.530844
3616.000000	99.536533
3615.000000	99.548327
3614.000000	99.560015
3613.000000	99.571411
3612.000000	99.586947
3611.000000	99.606334
3610.000000	99.621241
3609.000000	99.625002
3608.000000	99.622734
3607.000000	99.625592
3606.000000	99.637707
3605.000000	99.654958
3604.000000	99.671826
3603.000000	99.685214
3602.000000	99.693281
3601.000000	99.695161
3600.000000	99.692363
3599.000000	99.688665
3598.000000	99.687863
3597.000000	99.690977
3596.000000	99.695683
3595.000000	99.699320
3594.000000	99.702373
3593.000000	99.707715
3592.000000	99.717449
3591.000000	99.730044
3590.000000	99.739578
3589.000000	99.740110
3588.000000	99.733205
3587.000000	99.727387
3586.000000	99.728201
3585.000000	99.733920
3584.000000	99.740054
3583.000000	99.743557
3582.000000	99.743768
3581.000000	99.741695
3580.000000	99.739097
3579.000000	99.737628
3578.000000	99.738114
3577.000000	99.740043
3576.000000	99.741854
3575.000000	99.742204
3574.000000	99.741173
3573.000000	99.740182
3572.000000	99.740720
3571.000000	99.743107
3570.000000	99.746030
3569.000000	99.747230
3568.000000	99.745595
3567.000000	99.742135
3566.000000	99.738781
3565.000000	99.736387
3564.000000	99.734706
3563.000000	99.733431
3562.000000	99.732565
3561.000000	99.732128
3560.000000	99.731866
3559.000000	99.731376
3558.000000	99.730486
3557.000000	99.729378
3556.000000	99.728317
3555.000000	99.727306
3554.000000	99.726103
3553.000000	99.724600
3552.000000	99.723072
3551.000000	99.721940
3550.000000	99.721352
3549.000000	99.721103
3548.000000	99.720765
3547.000000	99.719938
3546.000000	99.718441
3545.000000	99.716358
3544.000000	99.714050
3543.000000	99.712027
3542.000000	99.710620
3541.000000	99.709835
3540.000000	99.709470
3539.000000	99.709304
3538.000000	99.709170
3537.000000	99.708910
3536.000000	99.708362
3535.000000	99.707436
3534.000000	99.706211
3533.000000	99.704961
3532.000000	99.704054
3531.000000	99.703707
3530.000000	99.703846
3529.000000	99.704128
3528.000000	99.704199
3527.000000	99.703972
3526.000000	99.703528
3525.000000	99.702924
3524.000000	99.702184
3523.000000	99.701384
3522.000000	99.700681
3521.000000	99.700174
3520.000000	99.699825
3519.000000	99.699510
3518.000000	99.699090
3517.000000	99.698447
3516.000000	99.697532
3515.000000	99.696446
3514.000000	99.695433
3513.000000	99.694684
3512.000000	99.694142
3511.000000	99.693519
3510.000000	99.692575
3509.000000	99.691355
3508.000000	99.690098
3507.000000	99.688969
3506.000000	99.687964
3505.000000	99.687082
3504.000000	99.686432
3503.000000	99.686039
3502.000000	99.685641
3501.000000	99.684858
3500.000000	99.683489
3499.000000	99.681590
3498.000000	99.679413
3497.000000	99.677341
3496.000000	99.675788
3495.000000	99.674975
3494.000000	99.674681
3493.000000	99.674347
3492.000000	99.673560
3491.000000	99.672361
3490.000000	99.671048
3489.000000	99.669721
3488.000000	99.668173
3487.000000	99.666250
3486.000000	99.664171
3485.000000	99.662450
3484.000000	99.661416
3483.000000	99.660712
3482.000000	99.659303
3481.000000	99.656278
3480.000000	99.651640
3479.000000	99.646481
3478.000000	99.642265
3477.000000	99.639823
3476.000000	99.639169
3475.000000	99.639765
3474.000000	99.640773
3473.000000	99.641278
3472.000000	99.640643
3471.000000	99.638780
3470.000000	99.636072
3469.000000	99.633024
3468.000000	99.630099
3467.000000	99.627844
3466.000000	99.626674
3465.000000	99.626322
3464.000000	99.625673
3463.000000	99.623578
3462.000000	99.619835
3461.000000	99.615351
3460.000000	99.611358
3459.000000	99.608484
3458.000000	99.606641
3457.000000	99.605563
3456.000000	99.605243
3455.000000	99.605753
3454.000000	99.606702
3453.000000	99.607235
3452.000000	99.606835
3451.000000	99.605796
3450.000000	99.604641
3449.000000	99.603343
3448.000000	99.601508
3447.000000	99.599147
3446.000000	99.596767
3445.000000	99.594777
3444.000000	99.593226
3443.000000	99.592155
3442.000000	99.591638
3441.000000	99.591326
3440.000000	99.590421
3439.000000	99.588432
3438.000000	99.585763
3437.000000	99.583394
3436.000000	99.581874
3435.000000	99.581000
3434.000000	99.580284
3433.000000	99.579413
3432.000000	99.578344
3431.000000	99.577132
3430.000000	99.575812
3429.000000	99.574387
3428.000000	99.572895
3427.000000	99.571492
3426.000000	99.570399
3425.000000	99.569718
3424.000000	99.569301
3423.000000	99.568827
3422.000000	99.568082
3421.000000	99.567107
3420.000000	99.566106
3419.000000	99.565257
3418.000000	99.564584
3417.000000	99.564002
3416.000000	99.563395
3415.000000	99.562679
3414.000000	99.561833
3413.000000	99.560939
3412.000000	99.560122
3411.000000	99.559429
3410.000000	99.558791
3409.000000	99.558126
3408.000000	99.557451
3407.000000	99.556866
3406.000000	99.556431
3405.000000	99.556088
3404.000000	99.555699
3403.000000	99.555176
3402.000000	99.554569
3401.000000	99.554074
3400.000000	99.553879
3399.000000	99.554021
3398.000000	99.554372
3397.000000	99.554726
3396.000000	99.554933
3395.000000	99.554947
3394.000000	99.554777
3393.000000	99.554475
3392.000000	99.554137
3391.000000	99.553920
3390.000000	99.554012
3389.000000	99.554492
3388.000000	99.555260
3387.000000	99.556074
3386.000000	99.556710
3385.000000	99.557113
3384.000000	99.557376
3383.000000	99.557661
3382.000000	99.558086
3381.000000	99.558674
3380.000000	99.559404
3379.000000	99.560253
3378.000000	99.561187
3377.000000	99.562121
3376.000000	99.562957
3375.000000	99.563650
3374.000000	99.564247
3373.000000	99.564847
3372.000000	99.565543
3371.000000	99.566374
3370.000000	99.567321
3369.000000	99.568323
3368.000000	99.569299
3367.000000	99.570211
3366.000000	99.571076
3365.000000	99.571944
3364.000000	99.572840
3363.000000	99.573749
3362.000000	99.574651
3361.000000	99.575542
3360.000000	99.576437
3359.000000	99.577349
3358.000000	99.578275
3357.000000	99.579195
3356.000000	99.580095
3355.000000	99.580985
3354.000000	99.581891
3353.000000	99.582829
3352.000000	99.583780
3351.000000	99.584704
3350.000000	99.585571
3349.000000	99.586390
3348.000000	99.587222
3347.000000	99.588119
3346.000000	99.589082
3345.000000	99.590036
3344.000000	99.590922
3343.000000	99.591791
3342.000000	99.592775
3341.000000	99.593949
3340.000000	99.595238
3339.000000	99.596424
3338.000000	99.597326
3337.000000	99.597946
3336.000000	99.598543
3335.000000	99.599424
3334.000000	99.600678
3333.000000	99.602084
3332.000000	99.603316
3331.000000	99.604275
3330.000000	99.605105
3329.000000	99.605857
3328.000000	99.606296
3327.000000	99.606204
3326.000000	99.605766
3325.000000	99.605584
3324.000000	99.606253
3323.000000	99.607942
3322.000000	99.610317
3321.000000	99.612674
3320.000000	99.614342
3319.000000	99.615039
3318.000000	99.614980
3317.000000	99.614685
3316.000000	99.614467
3315.000000	99.614197
3314.000000	99.613666
3313.000000	99.613102
3312.000000	99.613159
3311.000000	99.614266
3310.000000	99.616072
3309.000000	99.617704
3308.000000	99.618629
3307.000000	99.619072
3306.000000	99.619606
3305.000000	99.620558
3304.000000	99.621874
3303.000000	99.623364
3302.000000	99.624907
3301.000000	99.626440
3300.000000	99.627945
3299.000000	99.629437
3298.000000	99.630837
3297.000000	99.631937
3296.000000	99.632593
3295.000000	99.632974
3294.000000	99.633520
3293.000000	99.634548
3292.000000	99.635983
3291.000000	99.637511
3290.000000	99.638912
3289.000000	99.640194
3288.000000	99.641441
3287.000000	99.642697
3286.000000	99.643976
3285.000000	99.645294
3284.000000	99.646650
3283.000000	99.648038
3282.000000	99.649452
3281.000000	99.650880
3280.000000	99.652312
3279.000000	99.653744
3278.000000	99.655178
3277.000000	99.656626
3276.000000	99.658101
3275.000000	99.659607
3274.000000	99.661129
3273.000000	99.662639
3272.000000	99.664109
3271.000000	99.665528
3270.000000	99.666901
3269.000000	99.668242
3268.000000	99.669564
3267.000000	99.670878
3266.000000	99.672185
3265.000000	99.673484
3264.000000	99.674775
3263.000000	99.676058
3262.000000	99.677331
3261.000000	99.678587
3260.000000	99.679815
3259.000000	99.681012
3258.000000	99.682196
3257.000000	99.683389
3256.000000	99.684614
3255.000000	99.685876
3254.000000	99.687161
3253.000000	99.688450
3252.000000	99.689722
3251.000000	99.690964
3250.000000	99.692176
3249.000000	99.693365
3248.000000	99.694541
3247.000000	99.695710
3246.000000	99.696875
3245.000000	99.698034
3244.000000	99.699188
3243.000000	99.700338
3242.000000	99.701487
3241.000000	99.702627
3240.000000	99.703751
3239.000000	99.704861
3238.000000	99.705956
3237.000000	99.707029
3236.000000	99.708069
3235.000000	99.709075
3234.000000	99.710055
3233.000000	99.711018
3232.000000	99.711984
3231.000000	99.713005
3230.000000	99.714145
3229.000000	99.715458
3228.000000	99.716951
3227.000000	99.718575
3226.000000	99.720211
3225.000000	99.721722
3224.000000	99.723051
3223.000000	99.724278
3222.000000	99.725575
3221.000000	99.727026
3220.000000	99.728545
3219.000000	99.729974
3218.000000	99.731280
3217.000000	99.732619
3216.000000	99.734155
3215.000000	99.735882
3214.000000	99.737632
3213.000000	99.739245
3212.000000	99.740725
3211.000000	99.742200
3210.000000	99.743757
3209.000000	99.745336
3208.000000	99.746792
3207.000000	99.748056
3206.000000	99.749215
3205.000000	99.750466
3204.000000	99.752000
3203.000000	99.753905
3202.000000	99.756148
3201.000000	99.758542
3200.000000	99.760785
3199.000000	99.762626
3198.000000	99.764025
3197.000000	99.765168
3196.000000	99.766326
3195.000000	99.767661
3194.000000	99.769261
3193.000000	99.771256
3192.000000	99.773748
3191.000000	99.776625
3190.000000	99.779461
3189.000000	99.781780
3188.000000	99.783420
3187.000000	99.784593
3186.000000	99.785684
3185.000000	99.786911
3184.000000	99.788304
3183.000000	99.789882
3182.000000	99.791695
3181.000000	99.793706
3180.000000	99.795700
3179.000000	99.797364
3178.000000	99.798516
3177.000000	99.799251
3176.000000	99.799923
3175.000000	99.800911
3174.000000	99.802348
3173.000000	99.804066
3172.000000	99.805738
3171.000000	99.807175
3170.000000	99.808471
3169.000000	99.809850
3168.000000	99.811424
3167.000000	99.813100
3166.000000	99.814691
3165.000000	99.816098
3164.000000	99.817375
3163.000000	99.818653
3162.000000	99.820005
3161.000000	99.821402
3160.000000	99.822769
3159.000000	99.824067
3158.000000	99.825344
3157.000000	99.826706
3156.000000	99.828201
3155.000000	99.829711
3154.000000	99.831005
3153.000000	99.831948
3152.000000	99.832652
3151.000000	99.833389
3150.000000	99.834385
3149.000000	99.835749
3148.000000	99.837518
3147.000000	99.839708
3146.000000	99.842146
3145.000000	99.844367
3144.000000	99.845965
3143.000000	99.846899
3142.000000	99.847503
3141.000000	99.848087
3140.000000	99.848669
3139.000000	99.849278
3138.000000	99.850295
3137.000000	99.852172
3136.000000	99.854804
3135.000000	99.857382
3134.000000	99.859104
3133.000000	99.859944
3132.000000	99.860676
3131.000000	99.862113
3130.000000	99.864360
3129.000000	99.866891
3128.000000	99.869175
3127.000000	99.871083
3126.000000	99.872714
3125.000000	99.874160
3124.000000	99.875659
3123.000000	99.877703
3122.000000	99.880647
3121.000000	99.884239
3120.000000	99.887740
3119.000000	99.890446
3118.000000	99.891945
3117.000000	99.892153
3116.000000	99.891567
3115.000000	99.891349
3114.000000	99.892544
3113.000000	99.895007
3112.000000	99.897333
3111.000000	99.898088
3110.000000	99.897020
3109.000000	99.895136
3108.000000	99.893873
3107.000000	99.894233
3106.000000	99.896420
3105.000000	99.900002
3104.000000	99.904380
3103.000000	99.909080
3102.000000	99.913636
3101.000000	99.917499
3100.000000	99.920233
3099.000000	99.921725
3098.000000	99.922067
3097.000000	99.921497
3096.000000	99.920718
3095.000000	99.920858
3094.000000	99.922608
3093.000000	99.925500
3092.000000	99.928273
3091.000000	99.930062
3090.000000	99.930979
3089.000000	99.931574
3088.000000	99.932189
3087.000000	99.932966
3086.000000	99.934050
3085.000000	99.935469
3084.000000	99.936985
3083.000000	99.938291
3082.000000	99.939296
3081.000000	99.940123
3080.000000	99.940966
3079.000000	99.942024
3078.000000	99.943391
3077.000000	99.944937
3076.000000	99.946375
3075.000000	99.947524
3074.000000	99.948441
3073.000000	99.949275
3072.000000	99.950121
3071.000000	99.951024
3070.000000	99.952040
3069.000000	99.953211
3068.000000	99.954498
3067.000000	99.955795
3066.000000	99.957019
3065.000000	99.958161
3064.000000	99.959246
3063.000000	99.960279
3062.000000	99.961269
3061.000000	99.962241
3060.000000	99.963214
3059.000000	99.964197
3058.000000	99.965192
3057.000000	99.966198
3056.000000	99.967222
3055.000000	99.968270
3054.000000	99.969346
3053.000000	99.970447
3052.000000	99.971563
3051.000000	99.972682
3050.000000	99.973800
3049.000000	99.974917
3048.000000	99.976034
3047.000000	99.977154
3046.000000	99.978272
3045.000000	99.979383
3044.000000	99.980491
3043.000000	99.981602
3042.000000	99.982726
3041.000000	99.983870
3040.000000	99.985030
3039.000000	99.986202
3038.000000	99.987371
3037.000000	99.988526
3036.000000	99.989662
3035.000000	99.990790
3034.000000	99.991941
3033.000000	99.993141
3032.000000	99.994401
3031.000000	99.995715
3030.000000	99.997060
3029.000000	99.998414
3028.000000	99.999773
3027.000000	100.001159
3026.000000	100.002589
3025.000000	100.004052
3024.000000	100.005514
3023.000000	100.006962
3022.000000	100.008444
3021.000000	100.010025
3020.000000	100.011716
3019.000000	100.013474
3018.000000	100.015250
3017.000000	100.017026
3016.000000	100.018787
3015.000000	100.020519
3014.000000	100.022229
3013.000000	100.023951
3012.000000	100.025717
3011.000000	100.027525
3010.000000	100.029349
3009.000000	100.031172
3008.000000	100.032999
3007.000000	100.034854
3006.000000	100.036746
3005.000000	100.038666
3004.000000	100.040598
3003.000000	100.042526
3002.000000	100.044428
3001.000000	100.046274
3000.000000	100.048045
2999.000000	100.049768
2998.000000	100.051523
2997.000000	100.053391
2996.000000	100.055416
2995.000000	100.057615
2994.000000	100.059920
2993.000000	100.062136
2992.000000	100.064064
2991.000000	100.065681
2990.000000	100.067235
2989.000000	100.068965
2988.000000	100.070868
2987.000000	100.072849
2986.000000	100.074925
2985.000000	100.077134
2984.000000	100.079289
2983.000000	100.081139
2982.000000	100.082833
2981.000000	100.084787
2980.000000	100.086943
2979.000000	100.088668
2978.000000	100.089667
2977.000000	100.090630
2976.000000	100.092501
2975.000000	100.095291
2974.000000	100.098103
2973.000000	100.100337
2972.000000	100.102372
2971.000000	100.104910
2970.000000	100.108029
2969.000000	100.111112
2968.000000	100.113373
2967.000000	100.114223
2966.000000	100.113432
2965.000000	100.111425
2964.000000	100.109408
2963.000000	100.108770
2962.000000	100.110081
2961.000000	100.112772
2960.000000	100.115822
2959.000000	100.118577
2958.000000	100.120730
2957.000000	100.121886
2956.000000	100.121785
2955.000000	100.121141
2954.000000	100.121876
2953.000000	100.125887
2952.000000	100.133286
2951.000000	100.141815
2950.000000	100.148224
2949.000000	100.150637
2948.000000	100.149552
2947.000000	100.146657
2946.000000	100.143320
2945.000000	100.140821
2944.000000	100.141408
2943.000000	100.147312
2942.000000	100.157901
2941.000000	100.168909
2940.000000	100.176127
2939.000000	100.179657
2938.000000	100.182976
2937.000000	100.187997
2936.000000	100.192780
2935.000000	100.194729
2934.000000	100.194353
2933.000000	100.194503
2932.000000	100.196919
2931.000000	100.201144
2930.000000	100.206518
2929.000000	100.213514
2928.000000	100.222509
2927.000000	100.232140
2926.000000	100.239756
2925.000000	100.243361
2924.000000	100.242744
2923.000000	100.238928
2922.000000	100.233179
2921.000000	100.226987
2920.000000	100.222681
2919.000000	100.222792
2918.000000	100.227618
2917.000000	100.233511
2916.000000	100.234816
2915.000000	100.228316
2914.000000	100.215767
2913.000000	100.202420
2912.000000	100.193103
2911.000000	100.189515
2910.000000	100.190521
2909.000000	100.193931
2908.000000	100.198034
2907.000000	100.201879
2906.000000	100.204401
2905.000000	100.203950
2904.000000	100.199420
2903.000000	100.191985
2902.000000	100.184638
2901.000000	100.179261
2900.000000	100.175124
2899.000000	100.170940
2898.000000	100.167768
2897.000000	100.168176
2896.000000	100.172420
2895.000000	100.177052
2894.000000	100.178381
2893.000000	100.176429
2892.000000	100.174263
2891.000000	100.173863
2890.000000	100.173965
2889.000000	100.172183
2888.000000	100.168221
2887.000000	100.164285
2886.000000	100.162846
2885.000000	100.164664
2884.000000	100.168678
2883.000000	100.173067
2882.000000	100.176391
2881.000000	100.178475
2880.000000	100.180175
2879.000000	100.181718
2878.000000	100.181627
2877.000000	100.178426
2876.000000	100.173452
2875.000000	100.170383
2874.000000	100.171107
2873.000000	100.173523
2872.000000	100.174650
2871.000000	100.174871
2870.000000	100.176898
2869.000000	100.181216
2868.000000	100.185314
2867.000000	100.188032
2866.000000	100.192031
2865.000000	100.200062
2864.000000	100.210305
2863.000000	100.217630
2862.000000	100.219459
2861.000000	100.218662
2860.000000	100.220357
2859.000000	100.226316
2858.000000	100.232892
2857.000000	100.234636
2856.000000	100.229839
2855.000000	100.222414
2854.000000	100.218165
2853.000000	100.218737
2852.000000	100.220580
2851.000000	100.219843
2850.000000	100.216554
2849.000000	100.213194
2848.000000	100.211030
2847.000000	100.209754
2846.000000	100.209456
2845.000000	100.210354
2844.000000	100.210685
2843.000000	100.207482
2842.000000	100.200428
2841.000000	100.193437
2840.000000	100.190971
2839.000000	100.193552
2838.000000	100.197882
2837.000000	100.200540
2836.000000	100.200684
2835.000000	100.199154
2834.000000	100.196619
2833.000000	100.193429
2832.000000	100.190415
2831.000000	100.188660
2830.000000	100.188411
2829.000000	100.188892
2828.000000	100.189360
2827.000000	100.189927
2826.000000	100.191052
2825.000000	100.192626
2824.000000	100.194022
2823.000000	100.194876
2822.000000	100.195368
2821.000000	100.195690
2820.000000	100.195681
2819.000000	100.195148
2818.000000	100.194238
2817.000000	100.193301
2816.000000	100.192640
2815.000000	100.192490
2814.000000	100.192952
2813.000000	100.193737
2812.000000	100.194198
2811.000000	100.193926
2810.000000	100.193340
2809.000000	100.193378
2808.000000	100.194504
2807.000000	100.196195
2806.000000	100.197368
2805.000000	100.197409
2804.000000	100.196637
2803.000000	100.195990
2802.000000	100.196138
2801.000000	100.196940
2800.000000	100.197689
2799.000000	100.197929
2798.000000	100.198017
2797.000000	100.198724
2796.000000	100.200320
2795.000000	100.202294
2794.000000	100.203952
2793.000000	100.205056
2792.000000	100.205872
2791.000000	100.206764
2790.000000	100.207892
2789.000000	100.209241
2788.000000	100.210753
2787.000000	100.212339
2786.000000	100.213806
2785.000000	100.214910
2784.000000	100.215553
2783.000000	100.215911
2782.000000	100.216335
2781.000000	100.217027
2780.000000	100.217905
2779.000000	100.218773
2778.000000	100.219541
2777.000000	100.220225
2776.000000	100.220819
2775.000000	100.221315
2774.000000	100.221813
2773.000000	100.222503
2772.000000	100.223465
2771.000000	100.224590
2770.000000	100.225625
2769.000000	100.226391
2768.000000	100.226909
2767.000000	100.227327
2766.000000	100.227784
2765.000000	100.228320
2764.000000	100.228921
2763.000000	100.229558
2762.000000	100.230193
2761.000000	100.230807
2760.000000	100.231407
2759.000000	100.232010
2758.000000	100.232615
2757.000000	100.233209
2756.000000	100.233784
2755.000000	100.234345
2754.000000	100.234895
2753.000000	100.235440
2752.000000	100.235983
2751.000000	100.236516
2750.000000	100.237037
2749.000000	100.237545
2748.000000	100.238040
2747.000000	100.238522
2746.000000	100.238993
2745.000000	100.239457
2744.000000	100.239927
2743.000000	100.240407
2742.000000	100.240896
2741.000000	100.241392
2740.000000	100.241885
2739.000000	100.242353
2738.000000	100.242787
2737.000000	100.243207
2736.000000	100.243660
2735.000000	100.244199
2734.000000	100.244803
2733.000000	100.245347
2732.000000	100.245740
2731.000000	100.246101
2730.000000	100.246674
2729.000000	100.247527
2728.000000	100.248441
2727.000000	100.249168
2726.000000	100.249721
2725.000000	100.250363
2724.000000	100.251315
2723.000000	100.252449
2722.000000	100.253321
2721.000000	100.253595
2720.000000	100.253433
2719.000000	100.253362
2718.000000	100.253739
2717.000000	100.254489
2716.000000	100.255388
2715.000000	100.256342
2714.000000	100.257284
2713.000000	100.258106
2712.000000	100.258914
2711.000000	100.260047
2710.000000	100.261457
2709.000000	100.262315
2708.000000	100.261660
2707.000000	100.259444
2706.000000	100.256726
2705.000000	100.254831
2704.000000	100.254398
2703.000000	100.255480
2702.000000	100.257853
2701.000000	100.261026
2700.000000	100.264421
2699.000000	100.267486
2698.000000	100.269704
2697.000000	100.270718
2696.000000	100.270684
2695.000000	100.270349
2694.000000	100.270374
2693.000000	100.270655
2692.000000	100.270664
2691.000000	100.270301
2690.000000	100.269998
2689.000000	100.269990
2688.000000	100.269970
2687.000000	100.269680
2686.000000	100.269376
2685.000000	100.269435
2684.000000	100.269809
2683.000000	100.270118
2682.000000	100.270176
2681.000000	100.270146
2680.000000	100.270241
2679.000000	100.270452
2678.000000	100.270644
2677.000000	100.270761
2676.000000	100.270842
2675.000000	100.270904
2674.000000	100.270917
2673.000000	100.270876
2672.000000	100.270825
2671.000000	100.270790
2670.000000	100.270773
2669.000000	100.270779
2668.000000	100.270804
2667.000000	100.270836
2666.000000	100.270867
2665.000000	100.270886
2664.000000	100.270878
2663.000000	100.270825
2662.000000	100.270723
2661.000000	100.270589
2660.000000	100.270448
2659.000000	100.270316
2658.000000	100.270195
2657.000000	100.270089
2656.000000	100.270006
2655.000000	100.269950
2654.000000	100.269918
2653.000000	100.269909
2652.000000	100.269929
2651.000000	100.269991
2650.000000	100.270100
2649.000000	100.270243
2648.000000	100.270404
2647.000000	100.270576
2646.000000	100.270766
2645.000000	100.270983
2644.000000	100.271218
2643.000000	100.271462
2642.000000	100.271707
2641.000000	100.271953
2640.000000	100.272191
2639.000000	100.272399
2638.000000	100.272561
2637.000000	100.272688
2636.000000	100.272808
2635.000000	100.272954
2634.000000	100.273136
2633.000000	100.273345
2632.000000	100.273564
2631.000000	100.273776
2630.000000	100.273970
2629.000000	100.274143
2628.000000	100.274297
2627.000000	100.274445
2626.000000	100.274600
2625.000000	100.274771
2624.000000	100.274957
2623.000000	100.275148
2622.000000	100.275334
2621.000000	100.275516
2620.000000	100.275684
2619.000000	100.275820
2618.000000	100.275924
2617.000000	100.276033
2616.000000	100.276225
2615.000000	100.276541
2614.000000	100.276907
2613.000000	100.277183
2612.000000	100.277330
2611.000000	100.277499
2610.000000	100.277852
2609.000000	100.278363
2608.000000	100.278936
2607.000000	100.279632
2606.000000	100.280517
2605.000000	100.281241
2604.000000	100.281168
2603.000000	100.280066
2602.000000	100.278543
2601.000000	100.277665
2600.000000	100.277952
2599.000000	100.279017
2598.000000	100.279971
2597.000000	100.280257
2596.000000	100.279926
2595.000000	100.279275
2594.000000	100.278488
2593.000000	100.277700
2592.000000	100.277212
2591.000000	100.277254
2590.000000	100.277574
2589.000000	100.277514
2588.000000	100.276614
2587.000000	100.275152
2586.000000	100.273940
2585.000000	100.273577
2584.000000	100.274068
2583.000000	100.275050
2582.000000	100.276196
2581.000000	100.277261
2580.000000	100.277894
2579.000000	100.277815
2578.000000	100.277358
2577.000000	100.277495
2576.000000	100.278929
2575.000000	100.281267
2574.000000	100.283300
2573.000000	100.284183
2572.000000	100.284055
2571.000000	100.283482
2570.000000	100.282740
2569.000000	100.281957
2568.000000	100.281639
2567.000000	100.282516
2566.000000	100.284726
2565.000000	100.287337
2564.000000	100.288913
2563.000000	100.288634
2562.000000	100.286748
2561.000000	100.284238
2560.000000	100.282188
2559.000000	100.281320
2558.000000	100.281914
2557.000000	100.283758
2556.000000	100.286060
2555.000000	100.287640
2554.000000	100.287535
2553.000000	100.285525
2552.000000	100.282177
2551.000000	100.278541
2550.000000	100.275795
2549.000000	100.274943
2548.000000	100.276418
2547.000000	100.279644
2546.000000	100.283072
2545.000000	100.285183
2544.000000	100.285554
2543.000000	100.284817
2542.000000	100.283872
2541.000000	100.283195
2540.000000	100.282857
2539.000000	100.282936
2538.000000	100.283585
2537.000000	100.284742
2536.000000	100.286052
2535.000000	100.287207
2534.000000	100.288252
2533.000000	100.289400
2532.000000	100.290582
2531.000000	100.291310
2530.000000	100.291154
2529.000000	100.290384
2528.000000	100.290000
2527.000000	100.290892
2526.000000	100.292899
2525.000000	100.294791
2524.000000	100.295405
2523.000000	100.294734
2522.000000	100.293724
2521.000000	100.293138
2520.000000	100.292890
2519.000000	100.292454
2518.000000	100.291569
2517.000000	100.290436
2516.000000	100.289472
2515.000000	100.289087
2514.000000	100.289598
2513.000000	100.291060
2512.000000	100.293140
2511.000000	100.295221
2510.000000	100.296748
2509.000000	100.297426
2508.000000	100.297156
2507.000000	100.296103
2506.000000	100.294869
2505.000000	100.294314
2504.000000	100.294950
2503.000000	100.296664
2502.000000	100.298984
2501.000000	100.301457
2500.000000	100.303668
2499.000000	100.305035
2498.000000	100.305050
2497.000000	100.303845
2496.000000	100.302273
2495.000000	100.301287
2494.000000	100.301321
2493.000000	100.302305
2492.000000	100.303934
2491.000000	100.305793
2490.000000	100.307355
2489.000000	100.308170
2488.000000	100.308127
2487.000000	100.307476
2486.000000	100.306620
2485.000000	100.305897
2484.000000	100.305509
2483.000000	100.305499
2482.000000	100.305789
2481.000000	100.306291
2480.000000	100.307000
2479.000000	100.307935
2478.000000	100.308942
2477.000000	100.309664
2476.000000	100.309784
2475.000000	100.309282
2474.000000	100.308445
2473.000000	100.307635
2472.000000	100.307071
2471.000000	100.306863
2470.000000	100.307149
2469.000000	100.308049
2468.000000	100.309452
2467.000000	100.310939
2466.000000	100.312006
2465.000000	100.312444
2464.000000	100.312387
2463.000000	100.312111
2462.000000	100.311811
2461.000000	100.311602
2460.000000	100.311601
2459.000000	100.311894
2458.000000	100.312427
2457.000000	100.312995
2456.000000	100.313372
2455.000000	100.313461
2454.000000	100.313310
2453.000000	100.313062
2452.000000	100.312905
2451.000000	100.312981
2450.000000	100.313303
2449.000000	100.313745
2448.000000	100.314131
2447.000000	100.314393
2446.000000	100.314590
2445.000000	100.314822
2444.000000	100.315131
2443.000000	100.315474
2442.000000	100.315783
2441.000000	100.316053
2440.000000	100.316354
2439.000000	100.316753
2438.000000	100.317244
2437.000000	100.317743
2436.000000	100.318146
2435.000000	100.318399
2434.000000	100.318513
2433.000000	100.318544
2432.000000	100.318573
2431.000000	100.318675
2430.000000	100.318899
2429.000000	100.319253
2428.000000	100.319704
2427.000000	100.320186
2426.000000	100.320607
2425.000000	100.320867
2424.000000	100.320914
2423.000000	100.320758
2422.000000	100.320461
2421.000000	100.320078
2420.000000	100.319650
2419.000000	100.319299
2418.000000	100.319271
2417.000000	100.319757
2416.000000	100.320618
2415.000000	100.321424
2414.000000	100.321903
2413.000000	100.322205
2412.000000	100.322642
2411.000000	100.323180
2410.000000	100.323446
2409.000000	100.323296
2408.000000	100.323104
2407.000000	100.323315
2406.000000	100.323967
2405.000000	100.324742
2404.000000	100.325289
2403.000000	100.325425
2402.000000	100.325137
2401.000000	100.324568
2400.000000	100.324080
2399.000000	100.324060
2398.000000	100.324418
2397.000000	100.324337
2396.000000	100.323319
2395.000000	100.322432
2394.000000	100.323186
2393.000000	100.325553
2392.000000	100.328224
2391.000000	100.330028
2390.000000	100.331023
2389.000000	100.331914
2388.000000	100.333028
2387.000000	100.334161
2386.000000	100.335081
2385.000000	100.335753
2384.000000	100.336095
2383.000000	100.335918
2382.000000	100.335260
2381.000000	100.334643
2380.000000	100.334777
2379.000000	100.335977
2378.000000	100.337959
2377.000000	100.340125
2376.000000	100.341927
2375.000000	100.343042
2374.000000	100.343410
2373.000000	100.343345
2372.000000	100.343480
2371.000000	100.344396
2370.000000	100.346223
2369.000000	100.348555
2368.000000	100.350594
2367.000000	100.351581
2366.000000	100.351441
2365.000000	100.351027
2364.000000	100.351345
2363.000000	100.352930
2362.000000	100.356122
2361.000000	100.361180
2360.000000	100.367595
2359.000000	100.373222
2358.000000	100.375891
2357.000000	100.375566
2356.000000	100.373242
2355.000000	100.369264
2354.000000	100.364085
2353.000000	100.360239
2352.000000	100.360255
2351.000000	100.363566
2350.000000	100.367135
2349.000000	100.368355
2348.000000	100.367478
2347.000000	100.366816
2346.000000	100.367954
2345.000000	100.369996
2344.000000	100.370349
2343.000000	100.368807
2342.000000	100.367492
2341.000000	100.367972
2340.000000	100.369571
2339.000000	100.370634
2338.000000	100.370952
2337.000000	100.371541
2336.000000	100.373140
2335.000000	100.374767
2334.000000	100.375104
2333.000000	100.373647
2332.000000	100.371698
2331.000000	100.370357
2330.000000	100.370971
2329.000000	100.373570
2328.000000	100.377759
2327.000000	100.381891
2326.000000	100.384615
2325.000000	100.386093
2324.000000	100.387062
2323.000000	100.387602
2322.000000	100.386807
2321.000000	100.384936
2320.000000	100.383497
2319.000000	100.382178
2318.000000	100.378984
2317.000000	100.372775
2316.000000	100.366475
2315.000000	100.363372
2314.000000	100.364004
2313.000000	100.364481
2312.000000	100.361534
2311.000000	100.354944
2310.000000	100.348050
2309.000000	100.343700
2308.000000	100.343015
2307.000000	100.345159
2306.000000	100.348898
2305.000000	100.352249
2304.000000	100.354048
2303.000000	100.353931
2302.000000	100.352503
2301.000000	100.349992
2300.000000	100.346823
2299.000000	100.343571
2298.000000	100.341378
2297.000000	100.340574
2296.000000	100.340407
2295.000000	100.339287
2294.000000	100.336499
2293.000000	100.332903
2292.000000	100.330228
2291.000000	100.329306
2290.000000	100.329374
2289.000000	100.329152
2288.000000	100.328251
2287.000000	100.327272
2286.000000	100.326746
2285.000000	100.326567
2284.000000	100.326233
2283.000000	100.325407
2282.000000	100.324118
2281.000000	100.322668
2280.000000	100.321353
2279.000000	100.320265
2278.000000	100.319348
2277.000000	100.318575
2276.000000	100.318004
2275.000000	100.317677
2274.000000	100.317504
2273.000000	100.317271
2272.000000	100.316794
2271.000000	100.316078
2270.000000	100.315246
2269.000000	100.314454
2268.000000	100.313848
2267.000000	100.313437
2266.000000	100.313120
2265.000000	100.312780
2264.000000	100.312380
2263.000000	100.311968
2262.000000	100.311605
2261.000000	100.311312
2260.000000	100.311066
2259.000000	100.310839
2258.000000	100.310617
2257.000000	100.310394
2256.000000	100.310175
2255.000000	100.309969
2254.000000	100.309781
2253.000000	100.309611
2252.000000	100.309456
2251.000000	100.309315
2250.000000	100.309181
2249.000000	100.309042
2248.000000	100.308892
2247.000000	100.308732
2246.000000	100.308579
2245.000000	100.308449
2244.000000	100.308352
2243.000000	100.308287
2242.000000	100.308246
2241.000000	100.308225
2240.000000	100.308221
2239.000000	100.308238
2238.000000	100.308279
2237.000000	100.308348
2236.000000	100.308455
2235.000000	100.308602
2234.000000	100.308786
2233.000000	100.308993
2232.000000	100.309223
2231.000000	100.309477
2230.000000	100.309750
2229.000000	100.310016
2228.000000	100.310249
2227.000000	100.310468
2226.000000	100.310736
2225.000000	100.311073
2224.000000	100.311420
2223.000000	100.311725
2222.000000	100.312008
2221.000000	100.312295
2220.000000	100.312554
2219.000000	100.312782
2218.000000	100.313071
2217.000000	100.313505
2216.000000	100.314009
2215.000000	100.314373
2214.000000	100.314449
2213.000000	100.314285
2212.000000	100.314121
2211.000000	100.314240
2210.000000	100.314783
2209.000000	100.315616
2208.000000	100.316368
2207.000000	100.316649
2206.000000	100.316327
2205.000000	100.315763
2204.000000	100.315677
2203.000000	100.316522
2202.000000	100.317962
2201.000000	100.319152
2200.000000	100.319758
2199.000000	100.320300
2198.000000	100.321334
2197.000000	100.322738
2196.000000	100.324111
2195.000000	100.325331
2194.000000	100.326151
2193.000000	100.325836
2192.000000	100.324106
2191.000000	100.322114
2190.000000	100.321529
2189.000000	100.322473
2188.000000	100.323356
2187.000000	100.322897
2186.000000	100.321476
2185.000000	100.320176
2184.000000	100.319198
2183.000000	100.317997
2182.000000	100.316596
2181.000000	100.315877
2180.000000	100.316452
2179.000000	100.317865
2178.000000	100.318982
2177.000000	100.319054
2176.000000	100.318212
2175.000000	100.317139
2174.000000	100.316449
2173.000000	100.316235
2172.000000	100.316121
2171.000000	100.315653
2170.000000	100.314727
2169.000000	100.313700
2168.000000	100.313152
2167.000000	100.313474
2166.000000	100.314594
2165.000000	100.315983
2164.000000	100.316994
2163.000000	100.317343
2162.000000	100.317226
2161.000000	100.317027
2160.000000	100.316948
2159.000000	100.316937
2158.000000	100.316888
2157.000000	100.316813
2156.000000	100.316814
2155.000000	100.316966
2154.000000	100.317240
2153.000000	100.317494
2152.000000	100.317567
2151.000000	100.317425
2150.000000	100.317186
2149.000000	100.317049
2148.000000	100.317128
2147.000000	100.317384
2146.000000	100.317689
2145.000000	100.317964
2144.000000	100.318210
2143.000000	100.318425
2142.000000	100.318582
2141.000000	100.318690
2140.000000	100.318817
2139.000000	100.319020
2138.000000	100.319295
2137.000000	100.319590
2136.000000	100.319854
2135.000000	100.320080
2134.000000	100.320301
2133.000000	100.320568
2132.000000	100.320896
2131.000000	100.321252
2130.000000	100.321585
2129.000000	100.321879
2128.000000	100.322149
2127.000000	100.322415
2126.000000	100.322679
2125.000000	100.322929
2124.000000	100.323157
2123.000000	100.323362
2122.000000	100.323553
2121.000000	100.323745
2120.000000	100.323957
2119.000000	100.324199
2118.000000	100.324462
2117.000000	100.324736
2116.000000	100.325012
2115.000000	100.325290
2114.000000	100.325569
2113.000000	100.325846
2112.000000	100.326121
2111.000000	100.326396
2110.000000	100.326669
2109.000000	100.326937
2108.000000	100.327200
2107.000000	100.327456
2106.000000	100.327706
2105.000000	100.327953
2104.000000	100.328198
2103.000000	100.328445
2102.000000	100.328693
2101.000000	100.328937
2100.000000	100.329172
2099.000000	100.329400
2098.000000	100.329630
2097.000000	100.329869
2096.000000	100.330123
2095.000000	100.330397
2094.000000	100.330688
2093.000000	100.330989
2092.000000	100.331291
2091.000000	100.331583
2090.000000	100.331864
2089.000000	100.332136
2088.000000	100.332404
2087.000000	100.332670
2086.000000	100.332927
2085.000000	100.333167
2084.000000	100.333391
2083.000000	100.333607
2082.000000	100.333829
2081.000000	100.334069
2080.000000	100.334330
2079.000000	100.334606
2078.000000	100.334884
2077.000000	100.335148
2076.000000	100.335393
2075.000000	100.335619
2074.000000	100.335832
2073.000000	100.336036
2072.000000	100.336233
2071.000000	100.336424
2070.000000	100.336606
2069.000000	100.336775
2068.000000	100.336929
2067.000000	100.337067
2066.000000	100.337182
2065.000000	100.337265
2064.000000	100.337310
2063.000000	100.337335
2062.000000	100.337372
2061.000000	100.337441
2060.000000	100.337522
2059.000000	100.337591
2058.000000	100.337644
2057.000000	100.337666
2056.000000	100.337613
2055.000000	100.337485
2054.000000	100.337349
2053.000000	100.337262
2052.000000	100.337199
2051.000000	100.337072
2050.000000	100.336799
2049.000000	100.336333
2048.000000	100.335721
2047.000000	100.335098
2046.000000	100.334573
2045.000000	100.334134
2044.000000	100.333710
2043.000000	100.333318
2042.000000	100.333047
2041.000000	100.332876
2040.000000	100.332607
2039.000000	100.332069
2038.000000	100.331280
2037.000000	100.330416
2036.000000	100.329641
2035.000000	100.328973
2034.000000	100.328339
2033.000000	100.327647
2032.000000	100.326868
2031.000000	100.326043
2030.000000	100.325231
2029.000000	100.324438
2028.000000	100.323641
2027.000000	100.322832
2026.000000	100.322016
2025.000000	100.321189
2024.000000	100.320346
2023.000000	100.319496
2022.000000	100.318659
2021.000000	100.317831
2020.000000	100.316983
2019.000000	100.316105
2018.000000	100.315222
2017.000000	100.314360
2016.000000	100.313522
2015.000000	100.312696
2014.000000	100.311875
2013.000000	100.311061
2012.000000	100.310264
2011.000000	100.309499
2010.000000	100.308776
2009.000000	100.308088
2008.000000	100.307412
2007.000000	100.306729
2006.000000	100.306027
2005.000000	100.305314
2004.000000	100.304615
2003.000000	100.303948
2002.000000	100.303309
2001.000000	100.302688
2000.000000	100.302102
1999.000000	100.301586
1998.000000	100.301152
1997.000000	100.300776
1996.000000	100.300411
1995.000000	100.300017
1994.000000	100.299579
1993.000000	100.299120
1992.000000	100.298722
1991.000000	100.298449
1990.000000	100.298277
1989.000000	100.298086
1988.000000	100.297748
1987.000000	100.297238
1986.000000	100.296741
1985.000000	100.296470
1984.000000	100.296464
1983.000000	100.296643
1982.000000	100.297003
1981.000000	100.297535
1980.000000	100.298054
1979.000000	100.298343
1978.000000	100.298397
1977.000000	100.298388
1976.000000	100.298446
1975.000000	100.298604
1974.000000	100.298878
1973.000000	100.299226
1972.000000	100.299520
1971.000000	100.299703
1970.000000	100.299839
1969.000000	100.299824
1968.000000	100.299277
1967.000000	100.298067
1966.000000	100.296836
1965.000000	100.296514
1964.000000	100.297382
1963.000000	100.298888
1962.000000	100.300276
1961.000000	100.301179
1960.000000	100.301590
1959.000000	100.301636
1958.000000	100.301530
1957.000000	100.301500
1956.000000	100.301577
1955.000000	100.301602
1954.000000	100.301477
1953.000000	100.301326
1952.000000	100.301384
1951.000000	100.301951
1950.000000	100.303321
1949.000000	100.305427
1948.000000	100.307680
1947.000000	100.309515
1946.000000	100.310825
1945.000000	100.311535
1944.000000	100.311023
1943.000000	100.308628
1942.000000	100.304943
1941.000000	100.301804
1940.000000	100.300501
1939.000000	100.300698
1938.000000	100.301005
1937.000000	100.300215
1936.000000	100.298120
1935.000000	100.295458
1934.000000	100.293260
1933.000000	100.292156
1932.000000	100.291993
1931.000000	100.292093
1930.000000	100.291797
1929.000000	100.290770
1928.000000	100.289165
1927.000000	100.287591
1926.000000	100.286812
1925.000000	100.287090
1924.000000	100.287752
1923.000000	100.287706
1922.000000	100.286461
1921.000000	100.284522
1920.000000	100.282695
1919.000000	100.281173
1918.000000	100.279376
1917.000000	100.276578
1916.000000	100.272861
1915.000000	100.269368
1914.000000	100.267266
1913.000000	100.266523
1912.000000	100.265781
1911.000000	100.263747
1910.000000	100.260572
1909.000000	100.257446
1908.000000	100.255065
1907.000000	100.253148
1906.000000	100.251555
1905.000000	100.250820
1904.000000	100.251135
1903.000000	100.251485
1902.000000	100.250395
1901.000000	100.247572
1900.000000	100.244428
1899.000000	100.242555
1898.000000	100.241979
1897.000000	100.241308
1896.000000	100.239423
1895.000000	100.236626
1894.000000	100.233897
1893.000000	100.231545
1892.000000	100.229138
1891.000000	100.226403
1890.000000	100.223726
1889.000000	100.221610
1888.000000	100.219829
1887.000000	100.217616
1886.000000	100.214557
1885.000000	100.211376
1884.000000	100.209878
1883.000000	100.211365
1882.000000	100.214811
1881.000000	100.217217
1880.000000	100.216728
1879.000000	100.214559
1878.000000	100.213156
1877.000000	100.213240
1876.000000	100.213637
1875.000000	100.213602
1874.000000	100.213772
1873.000000	100.214485
1872.000000	100.214794
1871.000000	100.213911
1870.000000	100.212787
1869.000000	100.213292
1868.000000	100.215399
1867.000000	100.217029
1866.000000	100.217217
1865.000000	100.217167
1864.000000	100.218502
1863.000000	100.221550
1862.000000	100.224960
1861.000000	100.226795
1860.000000	100.226420
1859.000000	100.225176
1858.000000	100.224830
1857.000000	100.225639
1856.000000	100.226675
1855.000000	100.227612
1854.000000	100.229034
1853.000000	100.230881
1852.000000	100.232115
1851.000000	100.232209
1850.000000	100.232175
1849.000000	100.233634
1848.000000	100.237123
1847.000000	100.241744
1846.000000	100.245945
1845.000000	100.248386
1844.000000	100.248970
1843.000000	100.248953
1842.000000	100.249391
1841.000000	100.250306
1840.000000	100.251486
1839.000000	100.253086
1838.000000	100.255204
1837.000000	100.257051
1836.000000	100.257666
1835.000000	100.257566
1834.000000	100.258384
1833.000000	100.260560
1832.000000	100.262411
1831.000000	100.261915
1830.000000	100.259504
1829.000000	100.257650
1828.000000	100.257172
1827.000000	100.256706
1826.000000	100.255056
1825.000000	100.252745
1824.000000	100.251276
1823.000000	100.251406
1822.000000	100.252955
1821.000000	100.255241
1820.000000	100.257321
1819.000000	100.258670
1818.000000	100.259754
1817.000000	100.261113
1816.000000	100.262144
1815.000000	100.261845
1814.000000	100.260192
1813.000000	100.257957
1812.000000	100.255468
1811.000000	100.252671
1810.000000	100.250370
1809.000000	100.249722
1808.000000	100.250494
1807.000000	100.251141
1806.000000	100.250637
1805.000000	100.249487
1804.000000	100.248843
1803.000000	100.249324
1802.000000	100.250743
1801.000000	100.252610
1800.000000	100.254351
1799.000000	100.255549
1798.000000	100.256182
1797.000000	100.256261
1796.000000	100.255688
1795.000000	100.254679
1794.000000	100.253963
1793.000000	100.254529
1792.000000	100.256797
1791.000000	100.259849
1790.000000	100.262352
1789.000000	100.263803
1788.000000	100.264317
1787.000000	100.264242
1786.000000	100.264185
1785.000000	100.264722
1784.000000	100.265749
1783.000000	100.266619
1782.000000	100.266829
1781.000000	100.266668
1780.000000	100.267105
1779.000000	100.268990
1778.000000	100.272464
1777.000000	100.276654
1776.000000	100.279965
1775.000000	100.281124
1774.000000	100.280233
1773.000000	100.279198
1772.000000	100.280402
1771.000000	100.283411
1770.000000	100.285989
1769.000000	100.287739
1768.000000	100.290043
1767.000000	100.293720
1766.000000	100.297781
1765.000000	100.300792
1764.000000	100.302247
1763.000000	100.302524
1762.000000	100.302476
1761.000000	100.302818
1760.000000	100.303595
1759.000000	100.304679
1758.000000	100.305850
1757.000000	100.306561
1756.000000	100.306405
1755.000000	100.305591
1754.000000	100.304898
1753.000000	100.304976
1752.000000	100.305866
1751.000000	100.307208
1750.000000	100.308834
1749.000000	100.310762
1748.000000	100.312756
1747.000000	100.314266
1746.000000	100.314809
1745.000000	100.314402
1744.000000	100.313511
1743.000000	100.312875
1742.000000	100.313136
1741.000000	100.314117
1740.000000	100.314468
1739.000000	100.312966
1738.000000	100.310084
1737.000000	100.307293
1736.000000	100.305205
1735.000000	100.303258
1734.000000	100.301533
1733.000000	100.301160
1732.000000	100.302120
1731.000000	100.303073
1730.000000	100.302752
1729.000000	100.300995
1728.000000	100.298739
1727.000000	100.296940
1726.000000	100.295631
1725.000000	100.294334
1724.000000	100.292834
1723.000000	100.291356
1722.000000	100.290092
1721.000000	100.288904
1720.000000	100.287559
1719.000000	100.285994
1718.000000	100.284420
1717.000000	100.282923
1716.000000	100.281109
1715.000000	100.278782
1714.000000	100.276263
1713.000000	100.273978
1712.000000	100.272057
1711.000000	100.270360
1710.000000	100.268683
1709.000000	100.266935
1708.000000	100.265126
1707.000000	100.263185
1706.000000	100.260942
1705.000000	100.258369
1704.000000	100.255682
1703.000000	100.253117
1702.000000	100.250710
1701.000000	100.248346
1700.000000	100.246099
1699.000000	100.244127
1698.000000	100.242381
1697.000000	100.240656
1696.000000	100.238678
1695.000000	100.236337
1694.000000	100.233814
1693.000000	100.231338
1692.000000	100.228955
1691.000000	100.226643
1690.000000	100.224383
1689.000000	100.222219
1688.000000	100.220262
1687.000000	100.218623
1686.000000	100.217278
1685.000000	100.215912
1684.000000	100.214241
1683.000000	100.212331
1682.000000	100.210263
1681.000000	100.208006
1680.000000	100.205656
1679.000000	100.203535
1678.000000	100.201925
1677.000000	100.200825
1676.000000	100.199940
1675.000000	100.198911
1674.000000	100.197586
1673.000000	100.195990
1672.000000	100.194045
1671.000000	100.191578
1670.000000	100.188843
1669.000000	100.186723
1668.000000	100.185739
1667.000000	100.185492
1666.000000	100.185236
1665.000000	100.184581
1664.000000	100.183663
1663.000000	100.183017
1662.000000	100.182824
1661.000000	100.182441
1660.000000	100.181417
1659.000000	100.180156
1658.000000	100.179290
1657.000000	100.178821
1656.000000	100.178259
1655.000000	100.177147
1654.000000	100.175462
1653.000000	100.174477
1652.000000	100.174545
1651.000000	100.175079
1650.000000	100.176256
1649.000000	100.178290
1648.000000	100.180918
1647.000000	100.182920
1646.000000	100.182907
1645.000000	100.181011
1644.000000	100.178513
1643.000000	100.176301
1642.000000	100.174715
1641.000000	100.173877
1640.000000	100.173733
1639.000000	100.174183
1638.000000	100.175144
1637.000000	100.175960
1636.000000	100.175793
1635.000000	100.175553
1634.000000	100.176989
1633.000000	100.179912
1632.000000	100.182388
1631.000000	100.183084
1630.000000	100.182758
1629.000000	100.183707
1628.000000	100.187072
1627.000000	100.191187
1626.000000	100.193722
1625.000000	100.194575
1624.000000	100.195390
1623.000000	100.197167
1622.000000	100.198931
1621.000000	100.199541
1620.000000	100.199665
1619.000000	100.200956
1618.000000	100.204491
1617.000000	100.209352
1616.000000	100.213208
1615.000000	100.215342
1614.000000	100.217057
1613.000000	100.219431
1612.000000	100.222391
1611.000000	100.225068
1610.000000	100.226699
1609.000000	100.227592
1608.000000	100.228918
1607.000000	100.231567
1606.000000	100.235480
1605.000000	100.240080
1604.000000	100.244676
1603.000000	100.248405
1602.000000	100.250816
1601.000000	100.252662
1600.000000	100.255423
1599.000000	100.259849
1598.000000	100.265360
1597.000000	100.270909
1596.000000	100.275960
1595.000000	100.280566
1594.000000	100.284949
1593.000000	100.289178
1592.000000	100.292864
1591.000000	100.295151
1590.000000	100.295659
1589.000000	100.295500
1588.000000	100.296538
1587.000000	100.299182
1586.000000	100.301886
1585.000000	100.303368
1584.000000	100.304582
1583.000000	100.307395
1582.000000	100.311955
1581.000000	100.316577
1580.000000	100.319914
1579.000000	100.321984
1578.000000	100.323185
1577.000000	100.323538
1576.000000	100.323665
1575.000000	100.325005
1574.000000	100.327666
1573.000000	100.330391
1572.000000	100.332219
1571.000000	100.333092
1570.000000	100.333852
1569.000000	100.335385
1568.000000	100.337513
1567.000000	100.339465
1566.000000	100.340741
1565.000000	100.341274
1564.000000	100.341501
1563.000000	100.342006
1562.000000	100.343165
1561.000000	100.344907
1560.000000	100.346464
1559.000000	100.347779
1558.000000	100.349243
1557.000000	100.349996
1556.000000	100.349854
1555.000000	100.349186
1554.000000	100.348374
1553.000000	100.347714
1552.000000	100.347164
1551.000000	100.346719
1550.000000	100.346694
1549.000000	100.347373
1548.000000	100.348632
1547.000000	100.350116
1546.000000	100.351256
1545.000000	100.351304
1544.000000	100.349990
1543.000000	100.348146
1542.000000	100.347260
1541.000000	100.348091
1540.000000	100.349515
1539.000000	100.349801
1538.000000	100.349223
1537.000000	100.348819
1536.000000	100.348580
1535.000000	100.348169
1534.000000	100.347478
1533.000000	100.346475
1532.000000	100.344600
1531.000000	100.341688
1530.000000	100.338834
1529.000000	100.337406
1528.000000	100.337817
1527.000000	100.339181
1526.000000	100.340219
1525.000000	100.340542
1524.000000	100.340364
1523.000000	100.339426
1522.000000	100.337169
1521.000000	100.334245
1520.000000	100.332132
1519.000000	100.331100
1518.000000	100.330419
1517.000000	100.329787
1516.000000	100.329638
1515.000000	100.330345
1514.000000	100.331795
1513.000000	100.333430
1512.000000	100.334260
1511.000000	100.333459
1510.000000	100.331151
1509.000000	100.328334
1508.000000	100.326542
1507.000000	100.327632
1506.000000	100.331308
1505.000000	100.335030
1504.000000	100.338205
1503.000000	100.340962
1502.000000	100.342738
1501.000000	100.343025
1500.000000	100.342135
1499.000000	100.341589
1498.000000	100.342839
1497.000000	100.345359
1496.000000	100.346733
1495.000000	100.346039
1494.000000	100.344886
1493.000000	100.344625
1492.000000	100.344735
1491.000000	100.344022
1490.000000	100.343194
1489.000000	100.344407
1488.000000	100.347208
1487.000000	100.348836
1486.000000	100.348074
1485.000000	100.346030
1484.000000	100.344419
1483.000000	100.343656
1482.000000	100.342969
1481.000000	100.342112
1480.000000	100.342143
1479.000000	100.344350
1478.000000	100.348850
1477.000000	100.354208
1476.000000	100.358092
1475.000000	100.358935
1474.000000	100.356693
1473.000000	100.353425
1472.000000	100.352688
1471.000000	100.355478
1470.000000	100.359577
1469.000000	100.362736
1468.000000	100.364057
1467.000000	100.363991
1466.000000	100.363527
1465.000000	100.362907
1464.000000	100.361630
1463.000000	100.359630
1462.000000	100.357934
1461.000000	100.357131
1460.000000	100.356880
1459.000000	100.356638
1458.000000	100.356719
1457.000000	100.358272
1456.000000	100.360302
1455.000000	100.360575
1454.000000	100.358969
1453.000000	100.356187
1452.000000	100.352614
1451.000000	100.348081
1450.000000	100.342073
1449.000000	100.334558
1448.000000	100.326241
1447.000000	100.318700
1446.000000	100.313597
1445.000000	100.312292
1444.000000	100.314952
1443.000000	100.319340
1442.000000	100.322238
1441.000000	100.322508
1440.000000	100.321748
1439.000000	100.321102
1438.000000	100.318710
1437.000000	100.312151
1436.000000	100.304271
1435.000000	100.299879
1434.000000	100.298742
1433.000000	100.297458
1432.000000	100.293714
1431.000000	100.288047
1430.000000	100.283112
1429.000000	100.281219
1428.000000	100.282721
1427.000000	100.286568
1426.000000	100.290924
1425.000000	100.293961
1424.000000	100.295414
1423.000000	100.296498
1422.000000	100.298491
1421.000000	100.301771
1420.000000	100.305576
1419.000000	100.308448
1418.000000	100.309361
1417.000000	100.308536
1416.000000	100.307672
1415.000000	100.308714
1414.000000	100.311914
1413.000000	100.315254
1412.000000	100.316420
1411.000000	100.315452
1410.000000	100.314773
1409.000000	100.316394
1408.000000	100.319896
1407.000000	100.323582
1406.000000	100.326514
1405.000000	100.329005
1404.000000	100.331342
1403.000000	100.332848
1402.000000	100.332978
1401.000000	100.332378
1400.000000	100.332837
1399.000000	100.336025
1398.000000	100.341474
1397.000000	100.346647
1396.000000	100.349385
1395.000000	100.349638
1394.000000	100.349127
1393.000000	100.349341
1392.000000	100.350165
1391.000000	100.350867
1390.000000	100.351265
1389.000000	100.351702
1388.000000	100.352402
1387.000000	100.353219
1386.000000	100.354013
1385.000000	100.354975
1384.000000	100.356383
1383.000000	100.358166
1382.000000	100.359857
1381.000000	100.360998
1380.000000	100.361500
1379.000000	100.361540
1378.000000	100.361185
1377.000000	100.360357
1376.000000	100.359233
1375.000000	100.358513
1374.000000	100.358841
1373.000000	100.360008
1372.000000	100.361050
1371.000000	100.361289
1370.000000	100.360834
1369.000000	100.360227
1368.000000	100.359913
1367.000000	100.359896
1366.000000	100.359996
1365.000000	100.360202
1364.000000	100.360655
1363.000000	100.361341
1362.000000	100.361891
1361.000000	100.361892
1360.000000	100.361337
1359.000000	100.360626
1358.000000	100.360144
1357.000000	100.359935
1356.000000	100.359785
1355.000000	100.359584
1354.000000	100.359492
1353.000000	100.359700
1352.000000	100.360114
1351.000000	100.360471
1350.000000	100.360626
1349.000000	100.360641
1348.000000	100.360619
1347.000000	100.360507
1346.000000	100.360194
1345.000000	100.359776
1344.000000	100.359657
1343.000000	100.360213
1342.000000	100.361248
1341.000000	100.361906
1340.000000	100.361509
1339.000000	100.360390
1338.000000	100.359471
1337.000000	100.359073
1336.000000	100.358856
1335.000000	100.358685
1334.000000	100.358807
1333.000000	100.359148
1332.000000	100.359122
1331.000000	100.358641
1330.000000	100.358715
1329.000000	100.360324
1328.000000	100.363033
1327.000000	100.365280
1326.000000	100.365728
1325.000000	100.364007
1324.000000	100.360817
1323.000000	100.357610
1322.000000	100.355686
1321.000000	100.355199
1320.000000	100.355378
1319.000000	100.355856
1318.000000	100.357095
1317.000000	100.358945
1316.000000	100.359741
1315.000000	100.357968
1314.000000	100.354379
1313.000000	100.351416
1312.000000	100.350376
1311.000000	100.350344
1310.000000	100.350276
1309.000000	100.350851
1308.000000	100.353319
1307.000000	100.357256
1306.000000	100.360574
1305.000000	100.361796
1304.000000	100.361205
1303.000000	100.359635
1302.000000	100.357076
1301.000000	100.353058
1300.000000	100.347884
1299.000000	100.342712
1298.000000	100.338613
1297.000000	100.336087
1296.000000	100.335404
1295.000000	100.336580
1294.000000	100.338654
1293.000000	100.339635
1292.000000	100.337833
1291.000000	100.333216
1290.000000	100.327268
1289.000000	100.321612
1288.000000	100.316983
1287.000000	100.313412
1286.000000	100.310710
1285.000000	100.308588
1284.000000	100.306785
1283.000000	100.305228
1282.000000	100.303646
1281.000000	100.300926
1280.000000	100.295684
1279.000000	100.288233
1278.000000	100.281596
1277.000000	100.279496
1276.000000	100.282860
1275.000000	100.288393
1274.000000	100.290893
1273.000000	100.287232
1272.000000	100.278128
1271.000000	100.266537
1270.000000	100.255078
1269.000000	100.245652
1268.000000	100.240692
1267.000000	100.242280
1266.000000	100.248896
1265.000000	100.255012
1264.000000	100.255944
1263.000000	100.252219
1262.000000	100.247708
1261.000000	100.244637
1260.000000	100.242604
1259.000000	100.241344
1258.000000	100.240941
1257.000000	100.239050
1256.000000	100.231535
1255.000000	100.217952
1254.000000	100.204334
1253.000000	100.197878
1252.000000	100.199252
1251.000000	100.201807
1250.000000	100.198296
1249.000000	100.187374
1248.000000	100.173793
1247.000000	100.163207
1246.000000	100.156884
1245.000000	100.151181
1244.000000	100.141956
1243.000000	100.129019
1242.000000	100.115687
1241.000000	100.104305
1240.000000	100.093516
1239.000000	100.080321
1238.000000	100.063601
1237.000000	100.044786
1236.000000	100.025963
1235.000000	100.008518
1234.000000	99.993453
1233.000000	99.981773
1232.000000	99.973518
1231.000000	99.966448
1230.000000	99.956821
1229.000000	99.942456
1228.000000	99.924497
1227.000000	99.904943
1226.000000	99.882671
1225.000000	99.853902
1224.000000	99.817249
1223.000000	99.776162
1222.000000	99.734782
1221.000000	99.693216
1220.000000	99.649303
1219.000000	99.603548
1218.000000	99.559339
1217.000000	99.518532
1216.000000	99.479031
1215.000000	99.436611
1214.000000	99.387872
1213.000000	99.332670
1212.000000	99.275300
1211.000000	99.221475
1210.000000	99.171788
1209.000000	99.120529
1208.000000	99.064304
1207.000000	99.009431
1206.000000	98.965721
1205.000000	98.933807
1204.000000	98.904014
1203.000000	98.868080
1202.000000	98.826591
1201.000000	98.783367
1200.000000	98.738561
1199.000000	98.691260
1198.000000	98.644552
1197.000000	98.602526
1196.000000	98.563637
1195.000000	98.521727
1194.000000	98.474098
1193.000000	98.425319
1192.000000	98.381904
1191.000000	98.345300
1190.000000	98.311448
1189.000000	98.275853
1188.000000	98.237275
1187.000000	98.196684
1186.000000	98.154374
1185.000000	98.109251
1184.000000	98.060823
1183.000000	98.011346
1182.000000	97.965470
1181.000000	97.926989
1180.000000	97.895154
1179.000000	97.864048
1178.000000	97.826354
1177.000000	97.778129
1176.000000	97.719534
1175.000000	97.651856
1174.000000	97.576103
1173.000000	97.495200
1172.000000	97.415053
1171.000000	97.340821
1170.000000	97.272749
1169.000000	97.207617
1168.000000	97.143474
1167.000000	97.080660
1166.000000	97.019501
1165.000000	96.960970
1164.000000	96.910336
1163.000000	96.876841
1162.000000	96.868067
1161.000000	96.885566
1160.000000	96.924677
1159.000000	96.975520
1158.000000	97.024819
1157.000000	97.060515
1156.000000	97.076066
1155.000000	97.070389
1154.000000	97.045674
1153.000000	97.006612
1152.000000	96.959347
1151.000000	96.908107
1150.000000	96.853524
1149.000000	96.796127
1148.000000	96.739522
1147.000000	96.686887
1146.000000	96.636012
1145.000000	96.581742
1144.000000	96.522052
1143.000000	96.457811
1142.000000	96.388536
1141.000000	96.313830
1140.000000	96.238245
1139.000000	96.168470
1138.000000	96.104318
1137.000000	96.037759
1136.000000	95.962814
1135.000000	95.882399
1134.000000	95.803711
1133.000000	95.729720
1132.000000	95.656543
1131.000000	95.577330
1130.000000	95.488827
1129.000000	95.395670
1128.000000	95.306157
1127.000000	95.221819
1126.000000	95.135772
1125.000000	95.045220
1124.000000	94.958905
1123.000000	94.884009
1122.000000	94.811308
1121.000000	94.724971
1120.000000	94.624143
1119.000000	94.522520
1118.000000	94.427644
1117.000000	94.334209
1116.000000	94.239338
1115.000000	94.150191
1114.000000	94.071561
1113.000000	93.997630
1112.000000	93.921397
1111.000000	93.842339
1110.000000	93.759951
1109.000000	93.669837
1108.000000	93.572000
1107.000000	93.474692
1106.000000	93.384628
1105.000000	93.300738
1104.000000	93.221678
1103.000000	93.150787
1102.000000	93.087839
1101.000000	93.023629
1100.000000	92.948931
1099.000000	92.863559
1098.000000	92.772524
1097.000000	92.679050
1096.000000	92.585377
1095.000000	92.494270
1094.000000	92.405451
1093.000000	92.316019
1092.000000	92.227078
1091.000000	92.142956
1090.000000	92.061735
1089.000000	91.976103
1088.000000	91.887338
1087.000000	91.807351
1086.000000	91.740034
1085.000000	91.670875
1084.000000	91.584372
1083.000000	91.484676
1082.000000	91.390484
1081.000000	91.314916
1080.000000	91.257509
1079.000000	91.209795
1078.000000	91.160986
1077.000000	91.103056
1076.000000	91.037073
1075.000000	90.971243
1074.000000	90.908337
1073.000000	90.840143
1072.000000	90.759036
1071.000000	90.668870
1070.000000	90.578304
1069.000000	90.487516
1068.000000	90.387954
1067.000000	90.272554
1066.000000	90.141377
1065.000000	89.999505
1064.000000	89.853478
1063.000000	89.709164
1062.000000	89.571402
1061.000000	89.446128
1060.000000	89.340040
1059.000000	89.253521
1058.000000	89.176656
1057.000000	89.098754
1056.000000	89.018590
1055.000000	88.937836
1054.000000	88.849799
1053.000000	88.746953
1052.000000	88.636664
1051.000000	88.533768
1050.000000	88.436361
1049.000000	88.326249
1048.000000	88.196020
1047.000000	88.057578
1046.000000	87.920415
1045.000000	87.777684
1044.000000	87.618531
1043.000000	87.441009
1042.000000	87.248782
1041.000000	87.046350
1040.000000	86.841847
1039.000000	86.644863
1038.000000	86.457729
1037.000000	86.277288
1036.000000	86.105895
1035.000000	85.950323
1034.000000	85.810523
1033.000000	85.681977
1032.000000	85.567995
1031.000000	85.475010
1030.000000	85.396092
1029.000000	85.314937
1028.000000	85.227795
1027.000000	85.146648
1026.000000	85.080058
1025.000000	85.025927
1024.000000	84.982281
1023.000000	84.948305
1022.000000	84.914083
1021.000000	84.866189
1020.000000	84.805125
1019.000000	84.742114
1018.000000	84.679426
1017.000000	84.610300
1016.000000	84.536772
1015.000000	84.469113
1014.000000	84.408221
1013.000000	84.347126
1012.000000	84.288401
1011.000000	84.239525
1010.000000	84.192881
1009.000000	84.134154
1008.000000	84.071024
1007.000000	84.027659
1006.000000	84.007222
1005.000000	83.985429
1004.000000	83.947254
1003.000000	83.904545
1002.000000	83.868405
1001.000000	83.830047
1000.000000	83.782333
999.000000	83.738358
998.000000	83.712841
997.000000	83.701521
996.000000	83.692052
995.000000	83.680701
994.000000	83.666844
993.000000	83.644982
992.000000	83.614313
991.000000	83.585770
990.000000	83.570944
989.000000	83.573772
988.000000	83.596793
987.000000	83.641085
986.000000	83.694723
985.000000	83.737050
984.000000	83.761977
983.000000	83.783476
982.000000	83.813248
981.000000	83.849444
980.000000	83.893302
979.000000	83.958184
978.000000	84.050902
977.000000	84.158809
976.000000	84.266847
975.000000	84.376235
974.000000	84.496612
973.000000	84.630959
972.000000	84.778258
971.000000	84.941364
970.000000	85.122179
969.000000	85.315379
968.000000	85.514334
967.000000	85.718256
966.000000	85.928545
965.000000	86.142765
964.000000	86.355291
963.000000	86.559549
962.000000	86.749262
961.000000	86.923158
960.000000	87.088473
959.000000	87.254136
958.000000	87.421248
957.000000	87.585673
956.000000	87.746746
955.000000	87.905465
954.000000	88.057652
953.000000	88.198994
952.000000	88.334387
951.000000	88.471219
950.000000	88.604460
949.000000	88.720035
948.000000	88.813876
947.000000	88.897793
946.000000	88.985636
945.000000	89.081579
944.000000	89.181381
943.000000	89.275738
942.000000	89.352793
941.000000	89.407489
940.000000	89.449253
939.000000	89.492059
938.000000	89.537069
937.000000	89.573763
936.000000	89.597272
935.000000	89.614740
934.000000	89.634994
933.000000	89.662097
932.000000	89.699887
931.000000	89.752801
930.000000	89.820069
929.000000	89.895860
928.000000	89.974407
927.000000	90.048981
926.000000	90.111134
925.000000	90.160893
924.000000	90.212516
923.000000	90.278316
922.000000	90.351027
921.000000	90.414696
920.000000	90.468008
919.000000	90.520820
918.000000	90.570926
917.000000	90.603417
916.000000	90.614906
915.000000	90.621690
914.000000	90.640512
913.000000	90.675803
912.000000	90.728204
911.000000	90.799461
910.000000	90.884447
909.000000	90.973791
908.000000	91.070308
907.000000	91.189607
906.000000	91.339523
905.000000	91.510512
904.000000	91.688596
903.000000	91.865238
902.000000	92.033077
901.000000	92.187650
900.000000	92.338062
899.000000	92.502413
898.000000	92.687326
897.000000	92.882585
896.000000	93.077819
895.000000	93.270408
894.000000	93.453562
893.000000	93.612623
892.000000	93.741287
891.000000	93.850122
890.000000	93.952808
889.000000	94.055389
888.000000	94.165491
887.000000	94.298234
886.000000	94.460709
885.000000	94.638392
884.000000	94.807050
883.000000	94.953522
882.000000	95.079966
881.000000	95.196402
880.000000	95.316066
879.000000	95.448995
878.000000	95.590828
877.000000	95.725401
876.000000	95.846713
875.000000	95.969525
874.000000	96.107705
873.000000	96.249955
872.000000	96.370545
871.000000	96.460123
870.000000	96.533668
869.000000	96.609588
868.000000	96.693215
867.000000	96.783488
866.000000	96.885593
865.000000	97.009165
864.000000	97.155794
863.000000	97.313373
862.000000	97.464789
861.000000	97.600612
860.000000	97.720831
859.000000	97.826082
858.000000	97.914126
857.000000	97.987853
856.000000	98.059337
855.000000	98.137726
854.000000	98.216574
853.000000	98.282604
852.000000	98.335160
851.000000	98.385656
850.000000	98.436521
849.000000	98.472874
848.000000	98.480990
847.000000	98.466439
846.000000	98.448154
845.000000	98.441193
844.000000	98.450431
843.000000	98.472462
842.000000	98.494356
841.000000	98.495335
840.000000	98.459036
839.000000	98.384982
838.000000	98.286106
837.000000	98.178542
836.000000	98.076112
835.000000	97.988341
834.000000	97.918228
833.000000	97.865890
832.000000	97.835963
831.000000	97.832273
830.000000	97.842074
829.000000	97.840244
828.000000	97.820612
827.000000	97.810282
826.000000	97.834914
825.000000	97.878657
824.000000	97.901587
823.000000	97.893311
822.000000	97.883536
821.000000	97.897683
820.000000	97.926890
819.000000	97.948014
818.000000	97.952810
817.000000	97.946592
816.000000	97.928903
815.000000	97.887381
814.000000	97.808673
813.000000	97.687800
812.000000	97.526310
811.000000	97.326295
810.000000	97.088886
809.000000	96.817738
808.000000	96.521443
807.000000	96.208425
806.000000	95.878049
805.000000	95.522695
804.000000	95.144727
803.000000	94.767494
802.000000	94.422022
801.000000	94.125215
800.000000	93.878329
799.000000	93.683804
798.000000	93.553979
797.000000	93.500787
796.000000	93.520950
795.000000	93.593559
794.000000	93.693550
793.000000	93.808349
792.000000	93.937372
791.000000	94.074135
790.000000	94.197666
789.000000	94.288675
788.000000	94.345484
787.000000	94.371302
786.000000	94.352034
785.000000	94.264998
784.000000	94.112590
783.000000	93.932359
782.000000	93.766384
781.000000	93.630944
780.000000	93.521874
779.000000	93.437655
778.000000	93.388083
777.000000	93.387925
776.000000	93.449328
775.000000	93.573075
774.000000	93.741294
773.000000	93.925725
772.000000	94.106940
771.000000	94.277824
770.000000	94.428281
769.000000	94.541522
768.000000	94.612538
767.000000	94.657707
766.000000	94.696162
765.000000	94.730792
764.000000	94.757455
763.000000	94.782623
762.000000	94.817163
761.000000	94.858304
760.000000	94.893374
759.000000	94.919940
758.000000	94.947728
757.000000	94.979565
756.000000	95.005593
755.000000	95.023428
754.000000	95.052430
753.000000	95.114834
752.000000	95.205241
751.000000	95.290177
750.000000	95.344035
749.000000	95.380127
748.000000	95.435698
747.000000	95.527595
746.000000	95.635493
745.000000	95.733379
744.000000	95.823762
743.000000	95.925057
742.000000	96.035400
741.000000	96.133669
740.000000	96.217485
739.000000	96.315347
738.000000	96.449962
737.000000	96.607630
736.000000	96.757481
735.000000	96.887535
734.000000	97.004346
733.000000	97.106911
732.000000	97.183330
731.000000	97.232713
730.000000	97.272999
729.000000	97.323048
728.000000	97.387416
727.000000	97.459802
726.000000	97.530283
725.000000	97.587875
724.000000	97.625467
723.000000	97.644475
722.000000	97.651738
721.000000	97.656839
720.000000	97.678185
719.000000	97.739585
718.000000	97.843703
717.000000	97.955894
716.000000	98.032183
715.000000	98.064029
714.000000	98.081133
713.000000	98.105216
712.000000	98.120653
711.000000	98.106430
710.000000	98.079696
709.000000	98.081139
708.000000	98.119188
707.000000	98.150559
706.000000	98.124694
705.000000	98.035458
704.000000	97.918758
703.000000	97.805200
702.000000	97.687167
701.000000	97.535785
700.000000	97.341698
699.000000	97.129124
698.000000	96.929020
697.000000	96.749550
696.000000	96.585755
695.000000	96.455786
694.000000	96.407911
693.000000	96.476270
692.000000	96.638246
691.000000	96.831327
690.000000	97.012530
689.000000	97.187331
688.000000	97.370084
687.000000	97.533485
686.000000	97.625740
685.000000	97.636905
684.000000	97.620033
683.000000	97.636445
682.000000	97.698382
681.000000	97.777759
680.000000	97.854407
679.000000	97.931523
678.000000	98.004056
677.000000	98.043521
676.000000	98.034329
675.000000	98.007359
674.000000	98.013967
673.000000	98.069668
672.000000	98.139465
671.000000	98.184056
670.000000	98.197213
669.000000	98.216278
668.000000	98.284800
667.000000	98.374501
666.000000	98.440884
665.000000	98.492540
664.000000	98.550453
663.000000	98.617926
662.000000	98.677329
661.000000	98.708421
660.000000	98.711495
659.000000	98.705168
658.000000	98.707400
657.000000	98.721970
656.000000	98.746086
655.000000	98.783972
654.000000	98.842740
653.000000	98.913468
652.000000	98.965678
651.000000	98.969479
650.000000	98.926149
