4000.000000	101.974295
3999.000000	101.975747
3998.000000	101.983578
3997.000000	101.992474
3996.000000	101.995883
3995.000000	101.991059
3994.000000	101.980625
3993.000000	101.969287
3992.000000	101.958877
3991.000000	101.947674
3990.000000	101.934294
3989.000000	101.920968
3988.000000	101.912327
3987.000000	101.911220
3986.000000	101.916159
3985.000000	101.922253
3984.000000	101.924654
3983.000000	101.921494
3982.000000	101.914113
3981.000000	101.905405
3980.000000	101.898315
3979.000000	101.895612
3978.000000	101.899871
3977.000000	101.912297
3976.000000	101.931157
3975.000000	101.951788
3974.000000	101.968589
3973.000000	101.977505
3972.000000	101.977356
3971.000000	101.970108
3970.000000	101.960249
3969.000000	101.952622
3968.000000	101.949579
3967.000000	101.950162
3966.000000	101.952002
3965.000000	101.953688
3964.000000	101.955117
3963.000000	101.956156
3962.000000	101.955912
3961.000000	101.953724
3960.000000	101.950146
3959.000000	101.946339
3958.000000	101.942362
3957.000000	101.936594
3956.000000	101.927420
3955.000000	101.915611
3954.000000	101.904844
3953.000000	101.899245
3952.000000	101.900142
3951.000000	101.905053
3950.000000	101.909633
3949.000000	101.910684
3948.000000	101.907963
3947.000000	101.903887
3946.000000	101.901613
3945.000000	101.902911
3944.000000	101.907415
3943.000000	101.913556
3942.000000	101.919880
3941.000000	101.925381
3940.000000	101.928857
3939.000000	101.928987
3938.000000	101.925601
3937.000000	101.920508
3936.000000	101.916577
3935.000000	101.915830
3934.000000	101.918468
3933.000000	101.923019
3932.000000	101.926945
3931.000000	101.927662
3930.000000	101.924085
3929.000000	101.917407
3928.000000	101.910158
3927.000000	101.904142
3926.000000	101.899352
3925.000000	101.895281
3924.000000	101.892733
3923.000000	101.893356
3922.000000	101.897497
3921.000000	101.903320
3920.000000	101.907886
3919.000000	101.908649
3918.000000	101.904083
3917.000000	101.894253
3916.000000	101.881833
3915.000000	101.871759
3914.000000	101.868181
3913.000000	101.871781
3912.000000	101.879288
3911.000000	101.885867
3910.000000	101.888592
3909.000000	101.887930
3908.000000	101.886437
3907.000000	101.886416
3906.000000	101.888733
3905.000000	101.893000
3904.000000	101.898768
3903.000000	101.905981
3902.000000	101.913578
3901.000000	101.918233
3900.000000	101.916231
3899.000000	101.907303
3898.000000	101.895586
3897.000000	101.886126
3896.000000	101.881246
3895.000000	101.880526
3894.000000	101.881669
3893.000000	101.880745
3892.000000	101.873311
3891.000000	101.858900
3890.000000	101.843715
3889.000000	101.835549
3888.000000	101.836855
3887.000000	101.842379
3886.000000	101.843158
3885.000000	101.836026
3884.000000	101.826119
3883.000000	101.819177
3882.000000	101.816170
3881.000000	101.814916
3880.000000	101.813626
3879.000000	101.812701
3878.000000	101.813712
3877.000000	101.817040
3876.000000	101.820768
3875.000000	101.821659
3874.000000	101.818562
3873.000000	101.814063
3872.000000	101.811043
3871.000000	101.808536
3870.000000	101.803806
3869.000000	101.798760
3868.000000	101.799095
3867.000000	101.807734
3866.000000	101.822718
3865.000000	101.839616
3864.000000	101.853152
3863.000000	101.857879
3862.000000	101.850825
3861.000000	101.834515
3860.000000	101.815336
3859.000000	101.798429
3858.000000	101.785587
3857.000000	101.777856
3856.000000	101.776652
3855.000000	101.778103
3854.000000	101.771711
3853.000000	101.755876
3852.000000	101.742765
3851.000000	101.739801
3850.000000	101.743498
3849.000000	101.748165
3848.000000	101.751402
3847.000000	101.753348
3846.000000	101.754285
3845.000000	101.754004
3844.000000	101.751965
3843.000000	101.747852
3842.000000	101.742286
3841.000000	101.736984
3840.000000	101.733979
3839.000000	101.734143
3838.000000	101.735655
3837.000000	101.734964
3836.000000	101.730291
3835.000000	101.723626
3834.000000	101.719499
3833.000000	101.721239
3832.000000	101.728333
3831.000000	101.737184
3830.000000	101.744244
3829.000000	101.748018
3828.000000	101.748221
3827.000000	101.744776
3826.000000	101.738459
3825.000000	101.731627
3824.000000	101.727225
3823.000000	101.726652
3822.000000	101.728711
3821.000000	101.730774
3820.000000	101.731417
3819.000000	101.730920
3818.000000	101.729877
3817.000000	101.728346
3816.000000	101.726413
3815.000000	101.725186
3814.000000	101.725816
3813.000000	101.727875
3812.000000	101.729859
3811.000000	101.730784
3810.000000	101.730871
3809.000000	101.730869
3808.000000	101.730763
3807.000000	101.729794
3806.000000	101.727688
3805.000000	101.725096
3804.000000	101.723110
3803.000000	101.722689
3802.000000	101.723877
3801.000000	101.725946
3800.000000	101.728469
3799.000000	101.731077
3798.000000	101.733022
3797.000000	101.733647
3796.000000	101.732892
3795.000000	101.731317
3794.000000	101.729661
3793.000000	101.728478
3792.000000	101.728223
3791.000000	101.729347
3790.000000	101.731812
3789.000000	101.734741
3788.000000	101.737019
3787.000000	101.737950
3786.000000	101.737095
3785.000000	101.733938
3784.000000	101.728620
3783.000000	101.722892
3782.000000	101.718940
3781.000000	101.717013
3780.000000	101.714883
3779.000000	101.710775
3778.000000	101.706327
3777.000000	101.705022
3776.000000	101.707786
3775.000000	101.711613
3774.000000	101.712624
3773.000000	101.709467
3772.000000	101.703222
3771.000000	101.695672
3770.000000	101.689281
3769.000000	101.687820
3768.000000	101.694415
3767.000000	101.707914
3766.000000	101.721700
3765.000000	101.727977
3764.000000	101.724130
3763.000000	101.713731
3762.000000	101.702242
3761.000000	101.693943
3760.000000	101.692030
3759.000000	101.697554
3758.000000	101.706521
3757.000000	101.711520
3756.000000	101.706892
3755.000000	101.691048
3754.000000	101.665581
3753.000000	101.634670
3752.000000	101.606213
3751.000000	101.588982
3750.000000	101.584893
3749.000000	101.588371
3748.000000	101.594689
3747.000000	101.604554
3746.000000	101.619431
3745.000000	101.633220
3744.000000	101.641625
3743.000000	101.652245
3742.000000	101.667340
3741.000000	101.676855
3740.000000	101.674516
3739.000000	101.666286
3738.000000	101.662504
3737.000000	101.665248
3736.000000	101.667682
3735.000000	101.664803
3734.000000	101.658999
3733.000000	101.654848
3732.000000	101.654153
3731.000000	101.656308
3730.000000	101.659805
3729.000000	101.662915
3728.000000	101.664745
3727.000000	101.666272
3726.000000	101.670300
3725.000000	101.678351
3724.000000	101.687555
3723.000000	101.693113
3722.000000	101.693098
3721.000000	101.689364
3720.000000	101.684081
3719.000000	101.677019
3718.000000	101.666559
3717.000000	101.652872
3716.000000	101.639089
3715.000000	101.629437
3714.000000	101.626966
3713.000000	101.632446
3712.000000	101.643699
3711.000000	101.655865
3710.000000	101.663790
3709.000000	101.665216
3708.000000	101.661293
3707.000000	101.654645
3706.000000	101.647648
3705.000000	101.641773
3704.000000	101.637791
3703.000000	101.636240
3702.000000	101.637503
3701.000000	101.641387
3700.000000	101.646954
3699.000000	101.652541
3698.000000	101.655636
3697.000000	101.654007
3696.000000	101.647840
3695.000000	101.639372
3694.000000	101.630270
3693.000000	101.620747
3692.000000	101.611312
3691.000000	101.604253
3690.000000	101.601356
3689.000000	101.601299
3688.000000	101.602407
3687.000000	101.605143
3686.000000	101.609239
3685.000000	101.612291
3684.000000	101.612840
3683.000000	101.612236
3682.000000	101.612533
3681.000000	101.613090
3680.000000	101.611376
3679.000000	101.607401
3678.000000	101.604507
3677.000000	101.603538
3676.000000	101.599507
3675.000000	101.589957
3674.000000	101.581063
3673.000000	101.579728
3672.000000	101.586761
3671.000000	101.597001
3670.000000	101.603492
3669.000000	101.605116
3668.000000	101.605911
3667.000000	101.608591
3666.000000	101.612714
3665.000000	101.616695
3664.000000	101.619572
3663.000000	101.621201
3662.000000	101.621595
3661.000000	101.620796
3660.000000	101.619589
3659.000000	101.619522
3658.000000	101.621576
3657.000000	101.624747
3656.000000	101.627301
3655.000000	101.629227
3654.000000	101.631634
3653.000000	101.634405
3652.000000	101.635556
3651.000000	101.632988
3650.000000	101.627568
3649.000000	101.623817
3648.000000	101.624737
3647.000000	101.628977
3646.000000	101.633620
3645.000000	101.637103
3644.000000	101.639171
3643.000000	101.639643
3642.000000	101.638199
3641.000000	101.635035
3640.000000	101.631184
3639.000000	101.628027
3638.000000	101.626720
3637.000000	101.627695
3636.000000	101.630040
3635.000000	101.631449
3634.000000	101.629878
3633.000000	101.625365
3632.000000	101.620020
3631.000000	101.616161
3630.000000	101.614241
3629.000000	101.613351
3628.000000	101.613518
3627.000000	101.615448
3626.000000	101.618503
3625.000000	101.621108
3624.000000	101.622471
3623.000000	101.623069
3622.000000	101.623748
3621.000000	101.624437
3620.000000	101.623873
3619.000000	101.620881
3618.000000	101.615871
3617.000000	101.610779
3616.000000	101.607411
3615.000000	101.606020
3614.000000	101.605483
3613.000000	101.604755
3612.000000	101.603982
3611.000000	101.603691
3610.000000	101.603356
3609.000000	101.601834
3608.000000	101.599304
3607.000000	101.597529
3606.000000	101.597671
3605.000000	101.598962
3604.000000	101.599755
3603.000000	101.599135
3602.000000	101.597171
3601.000000	101.594288
3600.000000	101.590971
3599.000000	101.587807
3598.000000	101.585424
3597.000000	101.584158
3596.000000	101.583832
3595.000000	101.583914
3594.000000	101.584190
3593.000000	101.585126
3592.000000	101.587292
3591.000000	101.590441
3590.000000	101.592998
3589.000000	101.592869
3588.000000	101.589550
3587.000000	101.585076
3586.000000	101.581908
3585.000000	101.580567
3584.000000	101.580043
3583.000000	101.579083
3582.000000	101.577022
3581.000000	101.573894
3580.000000	101.570266
3579.000000	101.566949
3578.000000	101.564597
3577.000000	101.563342
3576.000000	101.562652
3575.000000	101.561714
3574.000000	101.560168
3573.000000	101.558511
3572.000000	101.557656
3571.000000	101.558076
3570.000000	101.559266
3569.000000	101.559837
3568.000000	101.558671
3567.000000	101.555922
3566.000000	101.552602
3565.000000	101.549340
3564.000000	101.546177
3563.000000	101.543253
3562.000000	101.541025
3561.000000	101.539812
3560.000000	101.539321
3559.000000	101.538796
3558.000000	101.537687
3557.000000	101.536024
3556.000000	101.534117
3555.000000	101.532035
3554.000000	101.529547
3553.000000	101.526549
3552.000000	101.523442
3551.000000	101.520930
3550.000000	101.519436
3549.000000	101.518844
3548.000000	101.518567
3547.000000	101.517815
3546.000000	101.516016
3545.000000	101.513064
3544.000000	101.509390
3543.000000	101.505817
3542.000000	101.503043
3541.000000	101.501286
3540.000000	101.500376
3539.000000	101.500000
3538.000000	101.499834
3537.000000	101.499500
3536.000000	101.498629
3535.000000	101.497043
3534.000000	101.494899
3533.000000	101.492678
3532.000000	101.490979
3531.000000	101.490169
3530.000000	101.490156
3529.000000	101.490347
3528.000000	101.489993
3527.000000	101.488769
3526.000000	101.486864
3525.000000	101.484659
3524.000000	101.482446
3523.000000	101.480433
3522.000000	101.478854
3521.000000	101.477844
3520.000000	101.477284
3519.000000	101.476819
3518.000000	101.476057
3517.000000	101.474778
3516.000000	101.472999
3515.000000	101.470958
3514.000000	101.469046
3513.000000	101.467569
3512.000000	101.466479
3511.000000	101.465365
3510.000000	101.463819
3509.000000	101.461821
3508.000000	101.459681
3507.000000	101.457697
3506.000000	101.456020
3505.000000	101.454820
3504.000000	101.454291
3503.000000	101.454213
3502.000000	101.453788
3501.000000	101.452300
3500.000000	101.449727
3499.000000	101.446601
3498.000000	101.443487
3497.000000	101.440801
3496.000000	101.439044
3495.000000	101.438697
3494.000000	101.439654
3493.000000	101.440928
3492.000000	101.441352
3491.000000	101.440547
3490.000000	101.438998
3489.000000	101.437357
3488.000000	101.435856
3487.000000	101.434443
3486.000000	101.433242
3485.000000	101.432625
3484.000000	101.432767
3483.000000	101.433140
3482.000000	101.432576
3481.000000	101.430107
3480.000000	101.425787
3479.000000	101.420836
3478.000000	101.416808
3477.000000	101.414543
3476.000000	101.414064
3475.000000	101.414994
3474.000000	101.416804
3473.000000	101.418761
3472.000000	101.420008
3471.000000	101.419930
3470.000000	101.418476
3469.000000	101.416170
3468.000000	101.413858
3467.000000	101.412288
3466.000000	101.411730
3465.000000	101.411900
3464.000000	101.412205
3463.000000	101.412133
3462.000000	101.411444
3461.000000	101.410139
3460.000000	101.408442
3459.000000	101.406760
3458.000000	101.405484
3457.000000	101.404732
3456.000000	101.404385
3455.000000	101.404301
3454.000000	101.404329
3453.000000	101.404140
3452.000000	101.403331
3451.000000	101.401842
3450.000000	101.400128
3449.000000	101.398770
3448.000000	101.397919
3447.000000	101.397259
3446.000000	101.396474
3445.000000	101.395645
3444.000000	101.395125
3443.000000	101.395066
3442.000000	101.395118
3441.000000	101.394630
3440.000000	101.393218
3439.000000	101.391121
3438.000000	101.389142
3437.000000	101.387939
3436.000000	101.387412
3435.000000	101.386920
3434.000000	101.385970
3433.000000	101.384619
3432.000000	101.383299
3431.000000	101.382341
3430.000000	101.381647
3429.000000	101.380784
3428.000000	101.379506
3427.000000	101.378162
3426.000000	101.377432
3425.000000	101.377663
3424.000000	101.378514
3423.000000	101.379193
3422.000000	101.379080
3421.000000	101.378075
3420.000000	101.376522
3419.000000	101.374981
3418.000000	101.374005
3417.000000	101.373895
3416.000000	101.374463
3415.000000	101.375016
3414.000000	101.374812
3413.000000	101.373724
3412.000000	101.372331
3411.000000	101.371298
3410.000000	101.370808
3409.000000	101.370662
3408.000000	101.370686
3407.000000	101.370764
3406.000000	101.370545
3405.000000	101.369485
3404.000000	101.367354
3403.000000	101.364574
3402.000000	101.361993
3401.000000	101.360305
3400.000000	101.359672
3399.000000	101.359784
3398.000000	101.360098
3397.000000	101.360132
3396.000000	101.359637
3395.000000	101.358533
3394.000000	101.356810
3393.000000	101.354629
3392.000000	101.352476
3391.000000	101.351004
3390.000000	101.350555
3389.000000	101.350929
3388.000000	101.351552
3387.000000	101.351828
3386.000000	101.351384
3385.000000	101.350167
3384.000000	101.348457
3383.000000	101.346751
3382.000000	101.345401
3381.000000	101.344451
3380.000000	101.343874
3379.000000	101.343799
3378.000000	101.344299
3377.000000	101.345024
3376.000000	101.345281
3375.000000	101.344606
3374.000000	101.343077
3373.000000	101.341201
3372.000000	101.339560
3371.000000	101.338509
3370.000000	101.338063
3369.000000	101.337872
3368.000000	101.337417
3367.000000	101.336467
3366.000000	101.335280
3365.000000	101.334294
3364.000000	101.333648
3363.000000	101.333103
3362.000000	101.332317
3361.000000	101.331134
3360.000000	101.329686
3359.000000	101.328316
3358.000000	101.327317
3357.000000	101.326670
3356.000000	101.326087
3355.000000	101.325420
3354.000000	101.324898
3353.000000	101.324757
3352.000000	101.324777
3351.000000	101.324391
3350.000000	101.323303
3349.000000	101.321770
3348.000000	101.320300
3347.000000	101.319183
3346.000000	101.318353
3345.000000	101.317558
3344.000000	101.316640
3343.000000	101.315707
3342.000000	101.315028
3341.000000	101.314716
3340.000000	101.314577
3339.000000	101.314280
3338.000000	101.313671
3337.000000	101.312876
3336.000000	101.312137
3335.000000	101.311576
3334.000000	101.311116
3333.000000	101.310594
3332.000000	101.309923
3331.000000	101.309140
3330.000000	101.308325
3329.000000	101.307493
3328.000000	101.306614
3327.000000	101.305692
3326.000000	101.304786
3325.000000	101.303945
3324.000000	101.303169
3323.000000	101.302417
3322.000000	101.301655
3321.000000	101.300865
3320.000000	101.300046
3319.000000	101.299206
3318.000000	101.298350
3317.000000	101.297482
3316.000000	101.296602
3315.000000	101.295708
3314.000000	101.294802
3313.000000	101.293899
3312.000000	101.293015
3311.000000	101.292160
3310.000000	101.291327
3309.000000	101.290495
3308.000000	101.289647
3307.000000	101.288778
3306.000000	101.287898
3305.000000	101.287023
3304.000000	101.286164
3303.000000	101.285324
3302.000000	101.284498
3301.000000	101.283676
3300.000000	101.282845
3299.000000	101.281989
3298.000000	101.281095
3297.000000	101.280161
3296.000000	101.279196
3295.000000	101.278213
3294.000000	101.277223
3293.000000	101.276229
3292.000000	101.275226
3291.000000	101.274212
3290.000000	101.273180
3289.000000	101.272125
3288.000000	101.271044
3287.000000	101.269955
3286.000000	101.268893
3285.000000	101.267880
3284.000000	101.266894
3283.000000	101.265891
3282.000000	101.264882
3281.000000	101.263951
3280.000000	101.263142
3279.000000	101.262386
3278.000000	101.261577
3277.000000	101.260722
3276.000000	101.259996
3275.000000	101.259568
3274.000000	101.259362
3273.000000	101.259028
3272.000000	101.258255
3271.000000	101.257021
3270.000000	101.255592
3269.000000	101.254227
3268.000000	101.253023
3267.000000	101.251991
3266.000000	101.251087
3265.000000	101.250214
3264.000000	101.249281
3263.000000	101.248290
3262.000000	101.247274
3261.000000	101.246216
3260.000000	101.245070
3259.000000	101.243850
3258.000000	101.242668
3257.000000	101.241636
3256.000000	101.240767
3255.000000	101.239981
3254.000000	101.239168
3253.000000	101.238271
3252.000000	101.237306
3251.000000	101.236334
3250.000000	101.235431
3249.000000	101.234622
3248.000000	101.233873
3247.000000	101.233139
3246.000000	101.232388
3245.000000	101.231605
3244.000000	101.230782
3243.000000	101.229925
3242.000000	101.229052
3241.000000	101.228175
3240.000000	101.227301
3239.000000	101.226435
3238.000000	101.225573
3237.000000	101.224707
3236.000000	101.223827
3235.000000	101.222927
3234.000000	101.222009
3233.000000	101.221082
3232.000000	101.220162
3231.000000	101.219272
3230.000000	101.218436
3229.000000	101.217673
3228.000000	101.216984
3227.000000	101.216355
3226.000000	101.215755
3225.000000	101.215151
3224.000000	101.214528
3223.000000	101.213892
3222.000000	101.213258
3221.000000	101.212638
3220.000000	101.212032
3219.000000	101.211420
3218.000000	101.210782
3217.000000	101.210126
3216.000000	101.209491
3215.000000	101.208911
3214.000000	101.208359
3213.000000	101.207757
3212.000000	101.207053
3211.000000	101.206288
3210.000000	101.205551
3209.000000	101.204875
3208.000000	101.204187
3207.000000	101.203368
3206.000000	101.202358
3205.000000	101.201251
3204.000000	101.200289
3203.000000	101.199721
3202.000000	101.199595
3201.000000	101.199623
3200.000000	101.199296
3199.000000	101.198246
3198.000000	101.196500
3197.000000	101.194514
3196.000000	101.192811
3195.000000	101.191597
3194.000000	101.190815
3193.000000	101.190523
3192.000000	101.190990
3191.000000	101.192287
3190.000000	101.193830
3189.000000	101.194581
3188.000000	101.193912
3187.000000	101.192075
3186.000000	101.189922
3185.000000	101.188142
3184.000000	101.186929
3183.000000	101.186246
3182.000000	101.185997
3181.000000	101.185904
3180.000000	101.185465
3179.000000	101.184198
3178.000000	101.181945
3177.000000	101.178994
3176.000000	101.175997
3175.000000	101.173713
3174.000000	101.172601
3173.000000	101.172566
3172.000000	101.173037
3171.000000	101.173371
3170.000000	101.173208
3169.000000	101.172503
3168.000000	101.171419
3167.000000	101.170164
3166.000000	101.168774
3165.000000	101.167041
3164.000000	101.164849
3163.000000	101.162592
3162.000000	101.160958
3161.000000	101.160164
3160.000000	101.159638
3159.000000	101.158653
3158.000000	101.157236
3157.000000	101.156064
3156.000000	101.155495
3155.000000	101.155075
3154.000000	101.154153
3153.000000	101.152659
3152.000000	101.151046
3151.000000	101.149659
3150.000000	101.148448
3149.000000	101.147309
3148.000000	101.146442
3147.000000	101.146156
3146.000000	101.146389
3145.000000	101.146531
3144.000000	101.145958
3143.000000	101.144561
3142.000000	101.142771
3141.000000	101.141146
3140.000000	101.139840
3139.000000	101.138617
3138.000000	101.137259
3137.000000	101.135861
3136.000000	101.134741
3135.000000	101.134115
3134.000000	101.133919
3133.000000	101.133953
3132.000000	101.134105
3131.000000	101.134309
3130.000000	101.134284
3129.000000	101.133531
3128.000000	101.131749
3127.000000	101.129262
3126.000000	101.126996
3125.000000	101.125815
3124.000000	101.125958
3123.000000	101.127043
3122.000000	101.128369
3121.000000	101.129334
3120.000000	101.129683
3119.000000	101.129521
3118.000000	101.129136
3117.000000	101.128709
3116.000000	101.128192
3115.000000	101.127510
3114.000000	101.126785
3113.000000	101.126238
3112.000000	101.125863
3111.000000	101.125297
3110.000000	101.124131
3109.000000	101.122366
3108.000000	101.120529
3107.000000	101.119305
3106.000000	101.118990
3105.000000	101.119434
3104.000000	101.120350
3103.000000	101.121502
3102.000000	101.122620
3101.000000	101.123299
3100.000000	101.123208
3099.000000	101.122345
3098.000000	101.120996
3097.000000	101.119591
3096.000000	101.118580
3095.000000	101.118283
3094.000000	101.118694
3093.000000	101.119348
3092.000000	101.119522
3091.000000	101.118837
3090.000000	101.117498
3089.000000	101.116060
3088.000000	101.114956
3087.000000	101.114242
3086.000000	101.113711
3085.000000	101.113131
3084.000000	101.112428
3083.000000	101.111677
3082.000000	101.110939
3081.000000	101.110175
3080.000000	101.109359
3079.000000	101.108616
3078.000000	101.108138
3077.000000	101.107912
3076.000000	101.107632
3075.000000	101.106958
3074.000000	101.105828
3073.000000	101.104435
3072.000000	101.102974
3071.000000	101.101491
3070.000000	101.100035
3069.000000	101.098835
3068.000000	101.098157
3067.000000	101.097981
3066.000000	101.097902
3065.000000	101.097443
3064.000000	101.096482
3063.000000	101.095294
3062.000000	101.094288
3061.000000	101.093624
3060.000000	101.093100
3059.000000	101.092354
3058.000000	101.091210
3057.000000	101.089820
3056.000000	101.088518
3055.000000	101.087484
3054.000000	101.086570
3053.000000	101.085534
3052.000000	101.084458
3051.000000	101.083796
3050.000000	101.083890
3049.000000	101.084618
3048.000000	101.085430
3047.000000	101.085754
3046.000000	101.085265
3045.000000	101.083869
3044.000000	101.081774
3043.000000	101.079513
3042.000000	101.077690
3041.000000	101.076581
3040.000000	101.076044
3039.000000	101.075731
3038.000000	101.075334
3037.000000	101.074668
3036.000000	101.073649
3035.000000	101.072372
3034.000000	101.071157
3033.000000	101.070361
3032.000000	101.070096
3031.000000	101.070144
3030.000000	101.070099
3029.000000	101.069654
3028.000000	101.068804
3027.000000	101.067871
3026.000000	101.067285
3025.000000	101.067215
3024.000000	101.067420
3023.000000	101.067487
3022.000000	101.067235
3021.000000	101.066826
3020.000000	101.066525
3019.000000	101.066418
3018.000000	101.066386
3017.000000	101.066244
3016.000000	101.065869
3015.000000	101.065273
3014.000000	101.064609
3013.000000	101.064068
3012.000000	101.063711
3011.000000	101.063404
3010.000000	101.062945
3009.000000	101.062302
3008.000000	101.061716
3007.000000	101.061507
3006.000000	101.061761
3005.000000	101.062270
3004.000000	101.062717
3003.000000	101.062870
3002.000000	101.062632
3001.000000	101.062035
3000.000000	101.061281
2999.000000	101.060689
2998.000000	101.060505
2997.000000	101.060769
2996.000000	101.061420
2995.000000	101.062380
2994.000000	101.063439
2993.000000	101.064228
2992.000000	101.064488
2991.000000	101.064292
2990.000000	101.064002
2989.000000	101.063973
2988.000000	101.064316
2987.000000	101.064984
2986.000000	101.065865
2985.000000	101.066716
2984.000000	101.067183
2983.000000	101.067135
2982.000000	101.066896
2981.000000	101.066922
2980.000000	101.067176
2979.000000	101.067148
2978.000000	101.066523
2977.000000	101.065677
2976.000000	101.065376
2975.000000	101.066001
2974.000000	101.067277
2973.000000	101.068690
2972.000000	101.070065
2971.000000	101.071502
2970.000000	101.072932
2969.000000	101.073956
2968.000000	101.074108
2967.000000	101.073185
2966.000000	101.071367
2965.000000	101.069258
2964.000000	101.067970
2963.000000	101.068810
2962.000000	101.072322
2961.000000	101.077341
2960.000000	101.081389
2959.000000	101.082464
2958.000000	101.080458
2957.000000	101.077168
2956.000000	101.074955
2955.000000	101.075039
2954.000000	101.076673
2953.000000	101.077983
2952.000000	101.077779
2951.000000	101.076495
2950.000000	101.075429
2949.000000	101.075514
2948.000000	101.076943
2947.000000	101.079120
2946.000000	101.080521
2945.000000	101.079677
2944.000000	101.077421
2943.000000	101.077383
2942.000000	101.082664
2941.000000	101.092164
2940.000000	101.101460
2939.000000	101.107542
2938.000000	101.111119
2937.000000	101.113914
2936.000000	101.115461
2935.000000	101.113908
2934.000000	101.109233
2933.000000	101.104485
2932.000000	101.103877
2931.000000	101.109803
2930.000000	101.120975
2929.000000	101.132815
2928.000000	101.140548
2927.000000	101.142789
2926.000000	101.142042
2925.000000	101.141594
2924.000000	101.142014
2923.000000	101.140790
2922.000000	101.134923
2921.000000	101.123859
2920.000000	101.110717
2919.000000	101.100543
2918.000000	101.095951
2917.000000	101.094258
2916.000000	101.089905
2915.000000	101.080121
2914.000000	101.067533
2913.000000	101.057129
2912.000000	101.051712
2911.000000	101.050758
2910.000000	101.052143
2909.000000	101.053649
2908.000000	101.053599
2907.000000	101.051425
2906.000000	101.047780
2905.000000	101.043491
2904.000000	101.038680
2903.000000	101.033214
2902.000000	101.027621
2901.000000	101.022494
2900.000000	101.017748
2899.000000	101.013274
2898.000000	101.009830
2897.000000	101.008280
2896.000000	101.007822
2895.000000	101.006192
2894.000000	101.002169
2893.000000	100.997040
2892.000000	100.992875
2891.000000	100.989916
2890.000000	100.986623
2889.000000	100.982071
2888.000000	100.977214
2887.000000	100.973452
2886.000000	100.971158
2885.000000	100.970403
2884.000000	100.972172
2883.000000	100.977416
2882.000000	100.985026
2881.000000	100.992146
2880.000000	100.996812
2879.000000	100.998901
2878.000000	100.998313
2877.000000	100.994400
2876.000000	100.988443
2875.000000	100.984604
2874.000000	100.985764
2873.000000	100.989376
2872.000000	100.990114
2871.000000	100.986561
2870.000000	100.982312
2869.000000	100.980151
2868.000000	100.978487
2867.000000	100.975432
2866.000000	100.973462
2865.000000	100.976662
2864.000000	100.984538
2863.000000	100.991818
2862.000000	100.995038
2861.000000	100.996801
2860.000000	101.002091
2859.000000	101.011604
2858.000000	101.020158
2857.000000	101.022000
2856.000000	101.016569
2855.000000	101.008733
2854.000000	101.003523
2853.000000	101.000749
2852.000000	100.996285
2851.000000	100.988023
2850.000000	100.978551
2849.000000	100.971603
2848.000000	100.967761
2847.000000	100.965293
2846.000000	100.963561
2845.000000	100.963101
2844.000000	100.962862
2843.000000	100.960091
2842.000000	100.953872
2841.000000	100.947001
2840.000000	100.943078
2839.000000	100.942587
2838.000000	100.943004
2837.000000	100.942079
2836.000000	100.939828
2835.000000	100.937446
2834.000000	100.935546
2833.000000	100.934018
2832.000000	100.932861
2831.000000	100.932313
2830.000000	100.932195
2829.000000	100.931648
2828.000000	100.929794
2827.000000	100.926567
2826.000000	100.922768
2825.000000	100.919395
2824.000000	100.917008
2823.000000	100.915468
2822.000000	100.913921
2821.000000	100.911191
2820.000000	100.906811
2819.000000	100.901825
2818.000000	100.898104
2817.000000	100.896652
2816.000000	100.896977
2815.000000	100.898188
2814.000000	100.899899
2813.000000	100.901830
2812.000000	100.903135
2811.000000	100.902809
2810.000000	100.900930
2809.000000	100.898584
2808.000000	100.896654
2807.000000	100.895031
2806.000000	100.893005
2805.000000	100.890180
2804.000000	100.886839
2803.000000	100.883631
2802.000000	100.881103
2801.000000	100.879403
2800.000000	100.878346
2799.000000	100.877712
2798.000000	100.877499
2797.000000	100.877795
2796.000000	100.878449
2795.000000	100.878974
2794.000000	100.878847
2793.000000	100.877861
2792.000000	100.876191
2791.000000	100.874226
2790.000000	100.872373
2789.000000	100.870932
2788.000000	100.870033
2787.000000	100.869595
2786.000000	100.869368
2785.000000	100.869098
2784.000000	100.868695
2783.000000	100.868219
2782.000000	100.867731
2781.000000	100.867199
2780.000000	100.866566
2779.000000	100.865875
2778.000000	100.865237
2777.000000	100.864686
2776.000000	100.864126
2775.000000	100.863472
2774.000000	100.862810
2773.000000	100.862356
2772.000000	100.862210
2771.000000	100.862284
2770.000000	100.862291
2769.000000	100.861980
2768.000000	100.861320
2767.000000	100.860470
2766.000000	100.859649
2765.000000	100.858934
2764.000000	100.858329
2763.000000	100.857868
2762.000000	100.857574
2761.000000	100.857373
2760.000000	100.857141
2759.000000	100.856844
2758.000000	100.856528
2757.000000	100.856184
2756.000000	100.855693
2755.000000	100.854981
2754.000000	100.854158
2753.000000	100.853440
2752.000000	100.852914
2751.000000	100.852469
2750.000000	100.851974
2749.000000	100.851441
2748.000000	100.850953
2747.000000	100.850522
2746.000000	100.850122
2745.000000	100.849827
2744.000000	100.849789
2743.000000	100.849983
2742.000000	100.849996
2741.000000	100.849351
2740.000000	100.848018
2739.000000	100.846540
2738.000000	100.845492
2737.000000	100.844893
2736.000000	100.844328
2735.000000	100.843465
2734.000000	100.842337
2733.000000	100.841109
2732.000000	100.839807
2731.000000	100.838419
2730.000000	100.837104
2729.000000	100.836101
2728.000000	100.835446
2727.000000	100.834999
2726.000000	100.834649
2725.000000	100.834321
2724.000000	100.833878
2723.000000	100.833151
2722.000000	100.832092
2721.000000	100.830870
2720.000000	100.829754
2719.000000	100.828896
2718.000000	100.828197
2717.000000	100.827379
2716.000000	100.826258
2715.000000	100.824969
2714.000000	100.823893
2713.000000	100.823271
2712.000000	100.823010
2711.000000	100.822787
2710.000000	100.822335
2709.000000	100.821546
2708.000000	100.820421
2707.000000	100.819031
2706.000000	100.817531
2705.000000	100.816157
2704.000000	100.815072
2703.000000	100.814323
2702.000000	100.813822
2701.000000	100.813367
2700.000000	100.812835
2699.000000	100.812188
2698.000000	100.811434
2697.000000	100.810609
2696.000000	100.809761
2695.000000	100.808918
2694.000000	100.808078
2693.000000	100.807231
2692.000000	100.806383
2691.000000	100.805546
2690.000000	100.804728
2689.000000	100.803927
2688.000000	100.803129
2687.000000	100.802327
2686.000000	100.801525
2685.000000	100.800729
2684.000000	100.799937
2683.000000	100.799143
2682.000000	100.798351
2681.000000	100.797576
2680.000000	100.796833
2679.000000	100.796115
2678.000000	100.795402
2677.000000	100.794668
2676.000000	100.793897
2675.000000	100.793085
2674.000000	100.792232
2673.000000	100.791340
2672.000000	100.790414
2671.000000	100.789465
2670.000000	100.788515
2669.000000	100.787583
2668.000000	100.786677
2667.000000	100.785801
2666.000000	100.784952
2665.000000	100.784120
2664.000000	100.783285
2663.000000	100.782430
2662.000000	100.781558
2661.000000	100.780688
2660.000000	100.779844
2659.000000	100.779028
2658.000000	100.778228
2657.000000	100.777429
2656.000000	100.776628
2655.000000	100.775831
2654.000000	100.775046
2653.000000	100.774282
2652.000000	100.773550
2651.000000	100.772860
2650.000000	100.772207
2649.000000	100.771577
2648.000000	100.770951
2647.000000	100.770328
2646.000000	100.769718
2645.000000	100.769131
2644.000000	100.768554
2643.000000	100.767968
2642.000000	100.767364
2641.000000	100.766747
2640.000000	100.766111
2639.000000	100.765437
2638.000000	100.764702
2637.000000	100.763912
2636.000000	100.763098
2635.000000	100.762300
2634.000000	100.761539
2633.000000	100.760822
2632.000000	100.760138
2631.000000	100.759476
2630.000000	100.758820
2629.000000	100.758158
2628.000000	100.757485
2627.000000	100.756801
2626.000000	100.756110
2625.000000	100.755413
2624.000000	100.754707
2623.000000	100.753980
2622.000000	100.753228
2621.000000	100.752447
2620.000000	100.751638
2619.000000	100.750787
2618.000000	100.749882
2617.000000	100.748937
2616.000000	100.748004
2615.000000	100.747130
2614.000000	100.746298
2613.000000	100.745425
2612.000000	100.744459
2611.000000	100.743468
2610.000000	100.742579
2609.000000	100.741842
2608.000000	100.741210
2607.000000	100.740658
2606.000000	100.740195
2605.000000	100.739653
2604.000000	100.738670
2603.000000	100.737030
2602.000000	100.734994
2601.000000	100.733208
2600.000000	100.732060
2599.000000	100.731399
2598.000000	100.730740
2597.000000	100.729788
2596.000000	100.728609
2595.000000	100.727360
2594.000000	100.726080
2593.000000	100.724814
2592.000000	100.723743
2591.000000	100.722982
2590.000000	100.722337
2589.000000	100.721407
2588.000000	100.719945
2587.000000	100.718136
2586.000000	100.716451
2585.000000	100.715208
2584.000000	100.714374
2583.000000	100.713788
2582.000000	100.713396
2581.000000	100.713160
2580.000000	100.712799
2579.000000	100.711916
2578.000000	100.710514
2577.000000	100.709236
2576.000000	100.708828
2575.000000	100.709387
2574.000000	100.710215
2573.000000	100.710412
2572.000000	100.709627
2571.000000	100.708129
2570.000000	100.706412
2569.000000	100.704889
2568.000000	100.703868
2567.000000	100.703593
2566.000000	100.704050
2565.000000	100.704717
2564.000000	100.704738
2563.000000	100.703603
2562.000000	100.701511
2561.000000	100.699145
2560.000000	100.697090
2559.000000	100.695589
2558.000000	100.694813
2557.000000	100.694927
2556.000000	100.695702
2555.000000	100.696275
2554.000000	100.695686
2553.000000	100.693656
2552.000000	100.690692
2551.000000	100.687624
2550.000000	100.685095
2549.000000	100.683556
2548.000000	100.683312
2547.000000	100.684241
2546.000000	100.685566
2545.000000	100.686258
2544.000000	100.685807
2543.000000	100.684415
2542.000000	100.682629
2541.000000	100.680893
2540.000000	100.679472
2539.000000	100.678620
2538.000000	100.678530
2537.000000	100.679021
2536.000000	100.679474
2535.000000	100.679355
2534.000000	100.678775
2533.000000	100.678323
2532.000000	100.678272
2531.000000	100.678136
2530.000000	100.677225
2529.000000	100.675590
2528.000000	100.674200
2527.000000	100.674047
2526.000000	100.675206
2525.000000	100.676781
2524.000000	100.677743
2523.000000	100.677782
2522.000000	100.677230
2521.000000	100.676291
2520.000000	100.674684
2519.000000	100.672115
2518.000000	100.668849
2517.000000	100.665674
2516.000000	100.663331
2515.000000	100.662152
2514.000000	100.662119
2513.000000	100.662942
2512.000000	100.664041
2511.000000	100.664728
2510.000000	100.664654
2509.000000	100.663860
2508.000000	100.662342
2507.000000	100.660032
2506.000000	100.657329
2505.000000	100.655236
2504.000000	100.654540
2503.000000	100.655125
2502.000000	100.656263
2501.000000	100.657336
2500.000000	100.658015
2499.000000	100.657876
2498.000000	100.656501
2497.000000	100.654115
2496.000000	100.651684
2495.000000	100.650121
2494.000000	100.649595
2493.000000	100.649690
2492.000000	100.649920
2491.000000	100.650020
2490.000000	100.649875
2489.000000	100.649380
2488.000000	100.648398
2487.000000	100.646807
2486.000000	100.644667
2485.000000	100.642360
2484.000000	100.640449
2483.000000	100.639248
2482.000000	100.638645
2481.000000	100.638372
2480.000000	100.638260
2479.000000	100.638216
2478.000000	100.638099
2477.000000	100.637752
2476.000000	100.637138
2475.000000	100.636329
2474.000000	100.635386
2473.000000	100.634304
2472.000000	100.633110
2471.000000	100.631947
2470.000000	100.631028
2469.000000	100.630476
2468.000000	100.630227
2467.000000	100.630057
2466.000000	100.629723
2465.000000	100.629126
2464.000000	100.628307
2463.000000	100.627353
2462.000000	100.626316
2461.000000	100.625260
2460.000000	100.624319
2459.000000	100.623609
2458.000000	100.623128
2457.000000	100.622744
2456.000000	100.622265
2455.000000	100.621587
2454.000000	100.620732
2453.000000	100.619794
2452.000000	100.618874
2451.000000	100.618030
2450.000000	100.617270
2449.000000	100.616564
2448.000000	100.615861
2447.000000	100.615128
2446.000000	100.614375
2445.000000	100.613638
2444.000000	100.612933
2443.000000	100.612239
2442.000000	100.611517
2441.000000	100.610757
2440.000000	100.609976
2439.000000	100.609196
2438.000000	100.608426
2437.000000	100.607667
2436.000000	100.606915
2435.000000	100.606180
2434.000000	100.605480
2433.000000	100.604825
2432.000000	100.604214
2431.000000	100.603639
2430.000000	100.603085
2429.000000	100.602537
2428.000000	100.601981
2427.000000	100.601411
2426.000000	100.600819
2425.000000	100.600199
2424.000000	100.599551
2423.000000	100.598887
2422.000000	100.598218
2421.000000	100.597554
2420.000000	100.596903
2419.000000	100.596267
2418.000000	100.595644
2417.000000	100.595025
2416.000000	100.594399
2415.000000	100.593762
2414.000000	100.593124
2413.000000	100.592496
2412.000000	100.591879
2411.000000	100.591262
2410.000000	100.590625
2409.000000	100.589961
2408.000000	100.589276
2407.000000	100.588584
2406.000000	100.587895
2405.000000	100.587209
2404.000000	100.586522
2403.000000	100.585839
2402.000000	100.585170
2401.000000	100.584514
2400.000000	100.583854
2399.000000	100.583240
2398.000000	100.582804
2397.000000	100.582503
2396.000000	100.582175
2395.000000	100.581985
2394.000000	100.582277
2393.000000	100.582888
2392.000000	100.583079
2391.000000	100.582368
2390.000000	100.581133
2389.000000	100.580107
2388.000000	100.579519
2387.000000	100.579093
2386.000000	100.578620
2385.000000	100.578079
2384.000000	100.577224
2383.000000	100.575661
2382.000000	100.573532
2381.000000	100.571755
2380.000000	100.571291
2379.000000	100.572119
2378.000000	100.573208
2377.000000	100.573481
2376.000000	100.572711
2375.000000	100.571543
2374.000000	100.570733
2373.000000	100.570353
2372.000000	100.569763
2371.000000	100.568435
2370.000000	100.566660
2369.000000	100.565218
2368.000000	100.564450
2367.000000	100.564132
2366.000000	100.564213
2365.000000	100.564894
2364.000000	100.565858
2363.000000	100.566467
2362.000000	100.567124
2361.000000	100.569252
2360.000000	100.573133
2359.000000	100.576646
2358.000000	100.577628
2357.000000	100.576143
2356.000000	100.573383
2355.000000	100.569762
2354.000000	100.565495
2353.000000	100.561960
2352.000000	100.560568
2351.000000	100.561130
2350.000000	100.562195
2349.000000	100.562525
2348.000000	100.562063
2347.000000	100.561545
2346.000000	100.561596
2345.000000	100.561811
2344.000000	100.561137
2343.000000	100.559400
2342.000000	100.557758
2341.000000	100.557493
2340.000000	100.558681
2339.000000	100.560265
2338.000000	100.561029
2337.000000	100.560606
2336.000000	100.559347
2335.000000	100.557833
2334.000000	100.556523
2333.000000	100.555733
2332.000000	100.555581
2331.000000	100.555957
2330.000000	100.556611
2329.000000	100.557247
2328.000000	100.557549
2327.000000	100.557178
2326.000000	100.556118
2325.000000	100.554717
2324.000000	100.553309
2323.000000	100.551907
2322.000000	100.550464
2321.000000	100.549176
2320.000000	100.548098
2319.000000	100.546868
2318.000000	100.545144
2317.000000	100.543168
2316.000000	100.541503
2315.000000	100.540376
2314.000000	100.539586
2313.000000	100.538797
2312.000000	100.537831
2311.000000	100.536691
2310.000000	100.535414
2309.000000	100.534027
2308.000000	100.532648
2307.000000	100.531453
2306.000000	100.530517
2305.000000	100.529719
2304.000000	100.528860
2303.000000	100.527828
2302.000000	100.526575
2301.000000	100.525062
2300.000000	100.523312
2299.000000	100.521493
2298.000000	100.519905
2297.000000	100.518745
2296.000000	100.517911
2295.000000	100.517084
2294.000000	100.515981
2293.000000	100.514612
2292.000000	100.513155
2291.000000	100.511731
2290.000000	100.510374
2289.000000	100.509102
2288.000000	100.507921
2287.000000	100.506771
2286.000000	100.505580
2285.000000	100.504349
2284.000000	100.503122
2283.000000	100.501919
2282.000000	100.500740
2281.000000	100.499579
2280.000000	100.498437
2279.000000	100.497314
2278.000000	100.496209
2277.000000	100.495124
2276.000000	100.494063
2275.000000	100.493031
2274.000000	100.492019
2273.000000	100.490994
2272.000000	100.489914
2271.000000	100.488783
2270.000000	100.487635
2269.000000	100.486508
2268.000000	100.485426
2267.000000	100.484381
2266.000000	100.483349
2265.000000	100.482310
2264.000000	100.481279
2263.000000	100.480282
2262.000000	100.479322
2261.000000	100.478382
2260.000000	100.477450
2259.000000	100.476528
2258.000000	100.475615
2257.000000	100.474700
2256.000000	100.473778
2255.000000	100.472845
2254.000000	100.471900
2253.000000	100.470942
2252.000000	100.469976
2251.000000	100.469007
2250.000000	100.468039
2249.000000	100.467062
2248.000000	100.466066
2247.000000	100.465047
2246.000000	100.464015
2245.000000	100.462991
2244.000000	100.461989
2243.000000	100.461015
2242.000000	100.460065
2241.000000	100.459133
2240.000000	100.458216
2239.000000	100.457309
2238.000000	100.456415
2237.000000	100.455536
2236.000000	100.454679
2235.000000	100.453848
2234.000000	100.453038
2233.000000	100.452243
2232.000000	100.451458
2231.000000	100.450684
2230.000000	100.449925
2229.000000	100.449179
2228.000000	100.448436
2227.000000	100.447690
2226.000000	100.446944
2225.000000	100.446199
2224.000000	100.445450
2223.000000	100.444690
2222.000000	100.443912
2221.000000	100.443114
2220.000000	100.442291
2219.000000	100.441439
2218.000000	100.440589
2217.000000	100.439789
2216.000000	100.439057
2215.000000	100.438332
2214.000000	100.437511
2213.000000	100.436529
2212.000000	100.435409
2211.000000	100.434256
2210.000000	100.433184
2209.000000	100.432253
2208.000000	100.431424
2207.000000	100.430590
2206.000000	100.429701
2205.000000	100.428884
2204.000000	100.428341
2203.000000	100.428102
2202.000000	100.427936
2201.000000	100.427522
2200.000000	100.426794
2199.000000	100.425974
2198.000000	100.425286
2197.000000	100.424722
2196.000000	100.424136
2195.000000	100.423433
2194.000000	100.422538
2193.000000	100.421382
2192.000000	100.420119
2191.000000	100.419165
2190.000000	100.418795
2189.000000	100.418707
2188.000000	100.418180
2187.000000	100.416828
2186.000000	100.414954
2185.000000	100.413181
2184.000000	100.411731
2183.000000	100.410399
2182.000000	100.409090
2181.000000	100.408063
2180.000000	100.407570
2179.000000	100.407468
2178.000000	100.407259
2177.000000	100.406488
2176.000000	100.405082
2175.000000	100.403390
2174.000000	100.401910
2173.000000	100.400891
2172.000000	100.400225
2171.000000	100.399639
2170.000000	100.398900
2169.000000	100.397905
2168.000000	100.396740
2167.000000	100.395745
2166.000000	100.395354
2165.000000	100.395718
2164.000000	100.396495
2163.000000	100.397049
2162.000000	100.396893
2161.000000	100.395965
2160.000000	100.394631
2159.000000	100.393397
2158.000000	100.392463
2157.000000	100.391559
2156.000000	100.390359
2155.000000	100.389009
2154.000000	100.387995
2153.000000	100.387365
2152.000000	100.386409
2151.000000	100.384427
2150.000000	100.381629
2149.000000	100.379122
2148.000000	100.377853
2147.000000	100.377802
2146.000000	100.378238
2145.000000	100.378573
2144.000000	100.378729
2143.000000	100.378765
2142.000000	100.378554
2141.000000	100.377945
2140.000000	100.377055
2139.000000	100.376232
2138.000000	100.375681
2137.000000	100.375251
2136.000000	100.374649
2135.000000	100.373814
2134.000000	100.372988
2133.000000	100.372421
2132.000000	100.372115
2131.000000	100.371877
2130.000000	100.371511
2129.000000	100.370955
2128.000000	100.370265
2127.000000	100.369546
2126.000000	100.368876
2125.000000	100.368250
2124.000000	100.367609
2123.000000	100.366916
2122.000000	100.366196
2121.000000	100.365503
2120.000000	100.364871
2119.000000	100.364292
2118.000000	100.363738
2117.000000	100.363188
2116.000000	100.362633
2115.000000	100.362074
2114.000000	100.361510
2113.000000	100.360948
2112.000000	100.360388
2111.000000	100.359828
2110.000000	100.359261
2109.000000	100.358685
2108.000000	100.358098
2107.000000	100.357503
2106.000000	100.356900
2105.000000	100.356291
2104.000000	100.355679
2103.000000	100.355067
2102.000000	100.354451
2101.000000	100.353825
2100.000000	100.353183
2099.000000	100.352526
2098.000000	100.351860
2097.000000	100.351196
2096.000000	100.350537
2095.000000	100.349888
2094.000000	100.349252
2093.000000	100.348630
2092.000000	100.348018
2091.000000	100.347410
2090.000000	100.346801
2089.000000	100.346193
2088.000000	100.345588
2087.000000	100.344985
2086.000000	100.344380
2085.000000	100.343767
2084.000000	100.343146
2083.000000	100.342519
2082.000000	100.341891
2081.000000	100.341268
2080.000000	100.340653
2079.000000	100.340045
2078.000000	100.339440
2077.000000	100.338833
2076.000000	100.338225
2075.000000	100.337623
2074.000000	100.337035
2073.000000	100.336464
2072.000000	100.335918
2071.000000	100.335400
2070.000000	100.334909
2069.000000	100.334435
2068.000000	100.333969
2067.000000	100.333503
2066.000000	100.333029
2065.000000	100.332547
2064.000000	100.332064
2063.000000	100.331587
2062.000000	100.331124
2061.000000	100.330671
2060.000000	100.330220
2059.000000	100.329764
2058.000000	100.329303
2057.000000	100.328844
2056.000000	100.328388
2055.000000	100.327937
2054.000000	100.327488
2053.000000	100.327037
2052.000000	100.326584
2051.000000	100.326131
2050.000000	100.325677
2049.000000	100.325220
2048.000000	100.324757
2047.000000	100.324291
2046.000000	100.323829
2045.000000	100.323371
2044.000000	100.322907
2043.000000	100.322427
2042.000000	100.321932
2041.000000	100.321447
2040.000000	100.321016
2039.000000	100.320665
2038.000000	100.320362
2037.000000	100.320039
2036.000000	100.319654
2035.000000	100.319227
2034.000000	100.318786
2033.000000	100.318335
2032.000000	100.317912
2031.000000	100.317625
2030.000000	100.317543
2029.000000	100.317543
2028.000000	100.317360
2027.000000	100.316821
2026.000000	100.315949
2025.000000	100.314893
2024.000000	100.313868
2023.000000	100.313120
2022.000000	100.312765
2021.000000	100.312634
2020.000000	100.312399
2019.000000	100.311856
2018.000000	100.311006
2017.000000	100.309900
2016.000000	100.308630
2015.000000	100.307476
2014.000000	100.306802
2013.000000	100.306764
2012.000000	100.307226
2011.000000	100.307930
2010.000000	100.308634
2009.000000	100.309020
2008.000000	100.308709
2007.000000	100.307577
2006.000000	100.305946
2005.000000	100.304386
2004.000000	100.303246
2003.000000	100.302421
2002.000000	100.301568
2001.000000	100.300493
2000.000000	100.299369
1999.000000	100.298564
1998.000000	100.298273
1997.000000	100.298344
1996.000000	100.298398
1995.000000	100.298080
1994.000000	100.297215
1993.000000	100.295924
1992.000000	100.294639
1991.000000	100.293737
1990.000000	100.293090
1989.000000	100.292200
1988.000000	100.290812
1987.000000	100.289187
1986.000000	100.287778
1985.000000	100.286739
1984.000000	100.285956
1983.000000	100.285371
1982.000000	100.284997
1981.000000	100.284649
1980.000000	100.284019
1979.000000	100.283066
1978.000000	100.282066
1977.000000	100.281193
1976.000000	100.280280
1975.000000	100.279137
1974.000000	100.277875
1973.000000	100.276774
1972.000000	100.275949
1971.000000	100.275274
1970.000000	100.274526
1969.000000	100.273562
1968.000000	100.272374
1967.000000	100.271107
1966.000000	100.269996
1965.000000	100.269163
1964.000000	100.268533
1963.000000	100.267921
1962.000000	100.267222
1961.000000	100.266478
1960.000000	100.265763
1959.000000	100.265085
1958.000000	100.264399
1957.000000	100.263665
1956.000000	100.262879
1955.000000	100.262048
1954.000000	100.261184
1953.000000	100.260307
1952.000000	100.259450
1951.000000	100.258637
1950.000000	100.257860
1949.000000	100.257092
1948.000000	100.256310
1947.000000	100.255507
1946.000000	100.254690
1945.000000	100.253861
1944.000000	100.253019
1943.000000	100.252168
1942.000000	100.251308
1941.000000	100.250443
1940.000000	100.249583
1939.000000	100.248731
1938.000000	100.247885
1937.000000	100.247038
1936.000000	100.246188
1935.000000	100.245339
1934.000000	100.244502
1933.000000	100.243685
1932.000000	100.242888
1931.000000	100.242098
1930.000000	100.241301
1929.000000	100.240488
1928.000000	100.239662
1927.000000	100.238831
1926.000000	100.238006
1925.000000	100.237192
1924.000000	100.236391
1923.000000	100.235594
1922.000000	100.234794
1921.000000	100.233983
1920.000000	100.233158
1919.000000	100.232319
1918.000000	100.231471
1917.000000	100.230621
1916.000000	100.229775
1915.000000	100.228941
1914.000000	100.228126
1913.000000	100.227330
1912.000000	100.226549
1911.000000	100.225773
1910.000000	100.224997
1909.000000	100.224221
1908.000000	100.223450
1907.000000	100.222693
1906.000000	100.221957
1905.000000	100.221242
1904.000000	100.220545
1903.000000	100.219856
1902.000000	100.219168
1901.000000	100.218478
1900.000000	100.217778
1899.000000	100.217064
1898.000000	100.216332
1897.000000	100.215580
1896.000000	100.214807
1895.000000	100.214019
1894.000000	100.213222
1893.000000	100.212407
1892.000000	100.211540
1891.000000	100.210593
1890.000000	100.209609
1889.000000	100.208702
1888.000000	100.207922
1887.000000	100.207163
1886.000000	100.206281
1885.000000	100.205280
1884.000000	100.204322
1883.000000	100.203526
1882.000000	100.202802
1881.000000	100.201942
1880.000000	100.200906
1879.000000	100.199889
1878.000000	100.199018
1877.000000	100.198143
1876.000000	100.197063
1875.000000	100.195871
1874.000000	100.194890
1873.000000	100.194217
1872.000000	100.193525
1871.000000	100.192454
1870.000000	100.191134
1869.000000	100.190146
1868.000000	100.189707
1867.000000	100.189252
1866.000000	100.188242
1865.000000	100.186853
1864.000000	100.185646
1863.000000	100.184853
1862.000000	100.184091
1861.000000	100.182891
1860.000000	100.181296
1859.000000	100.179738
1858.000000	100.178381
1857.000000	100.176896
1856.000000	100.174982
1855.000000	100.172845
1854.000000	100.171037
1853.000000	100.169847
1852.000000	100.169127
1851.000000	100.168605
1850.000000	100.168156
1849.000000	100.167775
1848.000000	100.167397
1847.000000	100.166856
1846.000000	100.165958
1845.000000	100.164625
1844.000000	100.163088
1843.000000	100.161776
1842.000000	100.160859
1841.000000	100.160199
1840.000000	100.159627
1839.000000	100.159055
1838.000000	100.158423
1837.000000	100.157670
1836.000000	100.156799
1835.000000	100.155924
1834.000000	100.155142
1833.000000	100.154400
1832.000000	100.153535
1831.000000	100.152463
1830.000000	100.151269
1829.000000	100.150164
1828.000000	100.149262
1827.000000	100.148511
1826.000000	100.147786
1825.000000	100.146985
1824.000000	100.146104
1823.000000	100.145214
1822.000000	100.144383
1821.000000	100.143634
1820.000000	100.142948
1819.000000	100.142284
1818.000000	100.141597
1817.000000	100.140862
1816.000000	100.140082
1815.000000	100.139288
1814.000000	100.138498
1813.000000	100.137704
1812.000000	100.136885
1811.000000	100.136040
1810.000000	100.135194
1809.000000	100.134363
1808.000000	100.133547
1807.000000	100.132734
1806.000000	100.131920
1805.000000	100.131108
1804.000000	100.130307
1803.000000	100.129516
1802.000000	100.128729
1801.000000	100.127943
1800.000000	100.127155
1799.000000	100.126363
1798.000000	100.125564
1797.000000	100.124757
1796.000000	100.123948
1795.000000	100.123154
1794.000000	100.122403
1793.000000	100.121707
1792.000000	100.121051
1791.000000	100.120410
1790.000000	100.119776
1789.000000	100.119158
1788.000000	100.118565
1787.000000	100.118003
1786.000000	100.117473
1785.000000	100.116977
1784.000000	100.116516
1783.000000	100.116106
1782.000000	100.115749
1781.000000	100.115390
1780.000000	100.114952
1779.000000	100.114467
1778.000000	100.114099
1777.000000	100.113929
1776.000000	100.113800
1775.000000	100.113434
1774.000000	100.112685
1773.000000	100.111773
1772.000000	100.111289
1771.000000	100.111518
1770.000000	100.112085
1769.000000	100.112456
1768.000000	100.112437
1767.000000	100.112179
1766.000000	100.111861
1765.000000	100.111405
1764.000000	100.110611
1763.000000	100.109469
1762.000000	100.108351
1761.000000	100.107787
1760.000000	100.108011
1759.000000	100.108877
1758.000000	100.109883
1757.000000	100.110106
1756.000000	100.109021
1755.000000	100.107175
1754.000000	100.105485
1753.000000	100.104190
1752.000000	100.103008
1751.000000	100.102077
1750.000000	100.102092
1749.000000	100.103137
1748.000000	100.104296
1747.000000	100.105013
1746.000000	100.105697
1745.000000	100.106754
1744.000000	100.107609
1743.000000	100.107181
1742.000000	100.105250
1741.000000	100.102606
1740.000000	100.099908
1739.000000	100.097254
1738.000000	100.094882
1737.000000	100.093148
1736.000000	100.091788
1735.000000	100.089783
1734.000000	100.086883
1733.000000	100.084622
1732.000000	100.083851
1731.000000	100.083608
1730.000000	100.082689
1729.000000	100.080877
1728.000000	100.078971
1727.000000	100.077636
1726.000000	100.076650
1725.000000	100.075458
1724.000000	100.073968
1723.000000	100.072553
1722.000000	100.071453
1721.000000	100.070476
1720.000000	100.069327
1719.000000	100.067957
1718.000000	100.066622
1717.000000	100.065451
1716.000000	100.064073
1715.000000	100.062248
1714.000000	100.060289
1713.000000	100.058659
1712.000000	100.057474
1711.000000	100.056530
1710.000000	100.055585
1709.000000	100.054576
1708.000000	100.053564
1707.000000	100.052485
1706.000000	100.051089
1705.000000	100.049247
1704.000000	100.047207
1703.000000	100.045419
1702.000000	100.044073
1701.000000	100.043098
1700.000000	100.042269
1699.000000	100.041532
1698.000000	100.041045
1697.000000	100.040767
1696.000000	100.040273
1695.000000	100.039226
1694.000000	100.037847
1693.000000	100.036584
1692.000000	100.035554
1691.000000	100.034617
1690.000000	100.033627
1689.000000	100.032621
1688.000000	100.031797
1687.000000	100.031275
1686.000000	100.030929
1685.000000	100.030412
1684.000000	100.029495
1683.000000	100.028468
1682.000000	100.027555
1681.000000	100.026560
1680.000000	100.025398
1679.000000	100.024270
1678.000000	100.023440
1677.000000	100.022844
1676.000000	100.022143
1675.000000	100.021138
1674.000000	100.019999
1673.000000	100.018933
1672.000000	100.017897
1671.000000	100.016708
1670.000000	100.015328
1669.000000	100.013976
1668.000000	100.012879
1667.000000	100.012033
1666.000000	100.011337
1665.000000	100.010808
1664.000000	100.010551
1663.000000	100.010522
1662.000000	100.010393
1661.000000	100.009909
1660.000000	100.009187
1659.000000	100.008437
1658.000000	100.007749
1657.000000	100.007094
1656.000000	100.006430
1655.000000	100.005757
1654.000000	100.005107
1653.000000	100.004519
1652.000000	100.003988
1651.000000	100.003490
1650.000000	100.003009
1649.000000	100.002534
1648.000000	100.002048
1647.000000	100.001540
1646.000000	100.001018
1645.000000	100.000506
1644.000000	100.000023
1643.000000	99.999571
1642.000000	99.999149
1641.000000	99.998751
1640.000000	99.998378
1639.000000	99.998029
1638.000000	99.997703
1637.000000	99.997394
1636.000000	99.997098
1635.000000	99.996823
1634.000000	99.996586
1633.000000	99.996391
1632.000000	99.996225
1631.000000	99.996068
1630.000000	99.995909
1629.000000	99.995746
1628.000000	99.995578
1627.000000	99.995397
1626.000000	99.995193
1625.000000	99.994967
1624.000000	99.994728
1623.000000	99.994483
1622.000000	99.994228
1621.000000	99.993961
1620.000000	99.993692
1619.000000	99.993434
1618.000000	99.993188
1617.000000	99.992941
1616.000000	99.992675
1615.000000	99.992390
1614.000000	99.992090
1613.000000	99.991775
1612.000000	99.991432
1611.000000	99.991050
1610.000000	99.990626
1609.000000	99.990168
1608.000000	99.989685
1607.000000	99.989179
1606.000000	99.988644
1605.000000	99.988074
1604.000000	99.987462
1603.000000	99.986797
1602.000000	99.986074
1601.000000	99.985273
1600.000000	99.984401
1599.000000	99.983500
1598.000000	99.982616
1597.000000	99.981751
1596.000000	99.980871
1595.000000	99.979957
1594.000000	99.978975
1593.000000	99.977903
1592.000000	99.976805
1591.000000	99.975759
1590.000000	99.974671
1589.000000	99.973394
1588.000000	99.972042
1587.000000	99.970806
1586.000000	99.969449
1585.000000	99.967538
1584.000000	99.965370
1583.000000	99.963938
1582.000000	99.963524
1581.000000	99.963246
1580.000000	99.962215
1579.000000	99.960508
1578.000000	99.958641
1577.000000	99.956688
1576.000000	99.954486
1575.000000	99.952571
1574.000000	99.951488
1573.000000	99.950800
1572.000000	99.949645
1571.000000	99.947490
1570.000000	99.944716
1569.000000	99.942334
1568.000000	99.940835
1567.000000	99.939800
1566.000000	99.938531
1565.000000	99.936566
1564.000000	99.934185
1563.000000	99.932112
1562.000000	99.930632
1561.000000	99.929267
1560.000000	99.927616
1559.000000	99.926776
1558.000000	99.927330
1557.000000	99.927559
1556.000000	99.926556
1555.000000	99.924998
1554.000000	99.923173
1553.000000	99.921200
1552.000000	99.919103
1551.000000	99.917522
1550.000000	99.917236
1549.000000	99.918327
1548.000000	99.920022
1547.000000	99.921623
1546.000000	99.922602
1545.000000	99.922172
1544.000000	99.919820
1543.000000	99.916388
1542.000000	99.913940
1541.000000	99.914142
1540.000000	99.916165
1539.000000	99.917297
1538.000000	99.916819
1537.000000	99.915696
1536.000000	99.914456
1535.000000	99.913232
1534.000000	99.912169
1533.000000	99.910969
1532.000000	99.908863
1531.000000	99.905711
1530.000000	99.902554
1529.000000	99.900600
1528.000000	99.900094
1527.000000	99.900172
1526.000000	99.899968
1525.000000	99.899583
1524.000000	99.899443
1523.000000	99.899298
1522.000000	99.898369
1521.000000	99.896508
1520.000000	99.894461
1519.000000	99.892611
1518.000000	99.890632
1517.000000	99.888422
1516.000000	99.886672
1515.000000	99.886165
1514.000000	99.886805
1513.000000	99.887722
1512.000000	99.887797
1511.000000	99.886404
1510.000000	99.883863
1509.000000	99.881053
1508.000000	99.878915
1507.000000	99.878153
1506.000000	99.878729
1505.000000	99.879966
1504.000000	99.881453
1503.000000	99.882920
1502.000000	99.883789
1501.000000	99.883698
1500.000000	99.882976
1499.000000	99.882602
1498.000000	99.883058
1497.000000	99.883616
1496.000000	99.883278
1495.000000	99.882263
1494.000000	99.881586
1493.000000	99.881709
1492.000000	99.882389
1491.000000	99.883144
1490.000000	99.883691
1489.000000	99.884039
1488.000000	99.884143
1487.000000	99.883959
1486.000000	99.883791
1485.000000	99.884013
1484.000000	99.884666
1483.000000	99.885442
1482.000000	99.885944
1481.000000	99.886093
1480.000000	99.886177
1479.000000	99.886504
1478.000000	99.887092
1477.000000	99.887765
1476.000000	99.888392
1475.000000	99.889013
1474.000000	99.889715
1473.000000	99.890498
1472.000000	99.891312
1471.000000	99.892088
1470.000000	99.892714
1469.000000	99.893062
1468.000000	99.893115
1467.000000	99.893061
1466.000000	99.893143
1465.000000	99.893410
1464.000000	99.893722
1463.000000	99.893936
1462.000000	99.894016
1461.000000	99.893925
1460.000000	99.893547
1459.000000	99.892824
1458.000000	99.892099
1457.000000	99.892174
1456.000000	99.893284
1455.000000	99.894680
1454.000000	99.895745
1453.000000	99.896347
1452.000000	99.896340
1451.000000	99.895706
1450.000000	99.894690
1449.000000	99.893749
1448.000000	99.893156
1447.000000	99.892884
1446.000000	99.892768
1445.000000	99.892766
1444.000000	99.893027
1443.000000	99.893536
1442.000000	99.893994
1441.000000	99.894108
1440.000000	99.893950
1439.000000	99.893714
1438.000000	99.893276
1437.000000	99.892264
1436.000000	99.890735
1435.000000	99.889293
1434.000000	99.888254
1433.000000	99.887455
1432.000000	99.886647
1431.000000	99.885758
1430.000000	99.884891
1429.000000	99.884162
1428.000000	99.883587
1427.000000	99.883100
1426.000000	99.882559
1425.000000	99.881780
1424.000000	99.880726
1423.000000	99.879552
1422.000000	99.878410
1421.000000	99.877298
1420.000000	99.876139
1419.000000	99.874905
1418.000000	99.873629
1417.000000	99.872361
1416.000000	99.871123
1415.000000	99.869888
1414.000000	99.868631
1413.000000	99.867356
1412.000000	99.866061
1411.000000	99.864751
1410.000000	99.863440
1409.000000	99.862143
1408.000000	99.860866
1407.000000	99.859602
1406.000000	99.858339
1405.000000	99.857067
1404.000000	99.855780
1403.000000	99.854475
1402.000000	99.853154
1401.000000	99.851825
1400.000000	99.850496
1399.000000	99.849171
1398.000000	99.847847
1397.000000	99.846514
1396.000000	99.845164
1395.000000	99.843805
1394.000000	99.842451
1393.000000	99.841115
1392.000000	99.839800
1391.000000	99.838507
1390.000000	99.837236
1389.000000	99.835987
1388.000000	99.834757
1387.000000	99.833534
1386.000000	99.832312
1385.000000	99.831091
1384.000000	99.829879
1383.000000	99.828679
1382.000000	99.827491
1381.000000	99.826310
1380.000000	99.825134
1379.000000	99.823966
1378.000000	99.822810
1377.000000	99.821671
1376.000000	99.820557
1375.000000	99.819485
1374.000000	99.818460
1373.000000	99.817468
1372.000000	99.816475
1371.000000	99.815462
1370.000000	99.814432
1369.000000	99.813402
1368.000000	99.812385
1367.000000	99.811381
1366.000000	99.810382
1365.000000	99.809385
1364.000000	99.808389
1363.000000	99.807404
1362.000000	99.806431
1361.000000	99.805434
1360.000000	99.804360
1359.000000	99.803207
1358.000000	99.802033
1357.000000	99.800900
1356.000000	99.799840
1355.000000	99.798894
1354.000000	99.798149
1353.000000	99.797640
1352.000000	99.797258
1351.000000	99.796853
1350.000000	99.796381
1349.000000	99.795865
1348.000000	99.795288
1347.000000	99.794539
1346.000000	99.793503
1345.000000	99.792168
1344.000000	99.790682
1343.000000	99.789244
1342.000000	99.787931
1341.000000	99.786729
1340.000000	99.785861
1339.000000	99.785789
1338.000000	99.786556
1337.000000	99.787394
1336.000000	99.787491
1335.000000	99.786902
1334.000000	99.786361
1333.000000	99.786235
1332.000000	99.785984
1331.000000	99.785023
1330.000000	99.783660
1329.000000	99.782631
1328.000000	99.782171
1327.000000	99.781970
1326.000000	99.781747
1325.000000	99.781374
1324.000000	99.780707
1323.000000	99.779660
1322.000000	99.778440
1321.000000	99.777468
1320.000000	99.777006
1319.000000	99.776997
1318.000000	99.777218
1317.000000	99.777429
1316.000000	99.777428
1315.000000	99.777091
1314.000000	99.776450
1313.000000	99.775682
1312.000000	99.774967
1311.000000	99.774383
1310.000000	99.773951
1309.000000	99.773697
1308.000000	99.773604
1307.000000	99.773531
1306.000000	99.773267
1305.000000	99.772725
1304.000000	99.772040
1303.000000	99.771402
1302.000000	99.770823
1301.000000	99.770131
1300.000000	99.769217
1299.000000	99.768185
1298.000000	99.767254
1297.000000	99.766600
1296.000000	99.766358
1295.000000	99.766601
1294.000000	99.767163
1293.000000	99.767502
1292.000000	99.767083
1291.000000	99.765854
1290.000000	99.764185
1289.000000	99.762459
1288.000000	99.760901
1287.000000	99.759830
1286.000000	99.759627
1285.000000	99.760232
1284.000000	99.760979
1283.000000	99.761263
1282.000000	99.761124
1281.000000	99.760898
1280.000000	99.760575
1279.000000	99.759934
1278.000000	99.759134
1277.000000	99.758634
1276.000000	99.758456
1275.000000	99.757933
1274.000000	99.756375
1273.000000	99.753803
1272.000000	99.750972
1271.000000	99.748650
1270.000000	99.746945
1269.000000	99.745525
1268.000000	99.744464
1267.000000	99.744478
1266.000000	99.745960
1265.000000	99.748129
1264.000000	99.749647
1263.000000	99.750001
1262.000000	99.749688
1261.000000	99.749182
1260.000000	99.748455
1259.000000	99.747646
1258.000000	99.747208
1257.000000	99.746939
1256.000000	99.745804
1255.000000	99.743627
1254.000000	99.742168
1253.000000	99.743266
1252.000000	99.746322
1251.000000	99.748603
1250.000000	99.748254
1249.000000	99.745946
1248.000000	99.743624
1247.000000	99.742627
1246.000000	99.743301
1245.000000	99.745276
1244.000000	99.747615
1243.000000	99.749344
1242.000000	99.750321
1241.000000	99.751157
1240.000000	99.752059
1239.000000	99.752268
1238.000000	99.750906
1237.000000	99.748062
1236.000000	99.744921
1235.000000	99.743005
1234.000000	99.743114
1233.000000	99.744663
1232.000000	99.746419
1231.000000	99.748226
1230.000000	99.751505
1229.000000	99.757430
1228.000000	99.765013
1227.000000	99.771701
1226.000000	99.775720
1225.000000	99.777076
1224.000000	99.776654
1223.000000	99.775430
1222.000000	99.774465
1221.000000	99.774579
1220.000000	99.775711
1219.000000	99.777394
1218.000000	99.780104
1217.000000	99.785113
1216.000000	99.792333
1215.000000	99.799008
1214.000000	99.801961
1213.000000	99.801555
1212.000000	99.802230
1211.000000	99.807800
1210.000000	99.816640
1209.000000	99.823254
1208.000000	99.825492
1207.000000	99.828113
1206.000000	99.836797
1205.000000	99.850136
1204.000000	99.860693
1203.000000	99.864416
1202.000000	99.865267
1201.000000	99.868766
1200.000000	99.874780
1199.000000	99.880165
1198.000000	99.885675
1197.000000	99.895243
1196.000000	99.908958
1195.000000	99.921428
1194.000000	99.928460
1193.000000	99.932189
1192.000000	99.937817
1191.000000	99.947442
1190.000000	99.958659
1189.000000	99.967833
1188.000000	99.973534
1187.000000	99.977620
1186.000000	99.983715
1185.000000	99.993925
1184.000000	100.006979
1183.000000	100.020526
1182.000000	100.034918
1181.000000	100.052592
1180.000000	100.073303
1179.000000	100.092355
1178.000000	100.105047
1177.000000	100.111068
1176.000000	100.113235
1175.000000	100.113789
1174.000000	100.113926
1173.000000	100.115863
1172.000000	100.122754
1171.000000	100.135838
1170.000000	100.152671
1169.000000	100.168824
1168.000000	100.181310
1167.000000	100.190356
1166.000000	100.197914
1165.000000	100.204470
1164.000000	100.207601
1163.000000	100.204459
1162.000000	100.195509
1161.000000	100.184501
1160.000000	100.175148
1159.000000	100.169420
1158.000000	100.168721
1157.000000	100.174102
1156.000000	100.184216
1155.000000	100.194732
1154.000000	100.201644
1153.000000	100.204814
1152.000000	100.206989
1151.000000	100.210024
1150.000000	100.213542
1149.000000	100.217007
1148.000000	100.221293
1147.000000	100.227255
1146.000000	100.233630
1145.000000	100.237672
1144.000000	100.238051
1143.000000	100.236392
1142.000000	100.235540
1141.000000	100.236727
1140.000000	100.239107
1139.000000	100.241705
1138.000000	100.244634
1137.000000	100.248028
1136.000000	100.250876
1135.000000	100.251987
1134.000000	100.251672
1133.000000	100.251363
1132.000000	100.251660
1131.000000	100.251726
1130.000000	100.250754
1129.000000	100.249070
1128.000000	100.247334
1127.000000	100.245394
1126.000000	100.242786
1125.000000	100.240011
1124.000000	100.238658
1123.000000	100.240196
1122.000000	100.244608
1121.000000	100.249624
1120.000000	100.252029
1119.000000	100.250064
1118.000000	100.244553
1117.000000	100.238478
1116.000000	100.235652
1115.000000	100.238747
1114.000000	100.247028
1113.000000	100.256214
1112.000000	100.261995
1111.000000	100.263373
1110.000000	100.261639
1109.000000	100.257353
1108.000000	100.250739
1107.000000	100.243957
1106.000000	100.239643
1105.000000	100.237343
1104.000000	100.234689
1103.000000	100.232385
1102.000000	100.234417
1101.000000	100.242131
1100.000000	100.251032
1099.000000	100.255106
1098.000000	100.252565
1097.000000	100.245828
1096.000000	100.238080
1095.000000	100.231707
1094.000000	100.228602
1093.000000	100.229916
1092.000000	100.235299
1091.000000	100.242335
1090.000000	100.246586
1089.000000	100.244272
1088.000000	100.237249
1087.000000	100.233275
1086.000000	100.237037
1085.000000	100.242264
1084.000000	100.238370
1083.000000	100.225346
1082.000000	100.215564
1081.000000	100.218796
1080.000000	100.232315
1079.000000	100.248538
1078.000000	100.266015
1077.000000	100.287177
1076.000000	100.309924
1075.000000	100.328206
1074.000000	100.338435
1073.000000	100.340308
1072.000000	100.334559
1071.000000	100.326003
1070.000000	100.325952
1069.000000	100.344332
1068.000000	100.379640
1067.000000	100.420678
1066.000000	100.457482
1065.000000	100.486386
1064.000000	100.505911
1063.000000	100.515558
1062.000000	100.520460
1061.000000	100.530879
1060.000000	100.553509
1059.000000	100.586186
1058.000000	100.622082
1057.000000	100.655747
1056.000000	100.683679
1055.000000	100.703145
1054.000000	100.714250
1053.000000	100.721811
1052.000000	100.732780
1051.000000	100.751964
1050.000000	100.780245
1049.000000	100.814691
1048.000000	100.849465
1047.000000	100.878948
1046.000000	100.901575
1045.000000	100.919811
1044.000000	100.936484
1043.000000	100.952580
1042.000000	100.967905
1041.000000	100.981594
1040.000000	100.992283
1039.000000	101.000096
1038.000000	101.008261
1037.000000	101.020287
1036.000000	101.035436
1035.000000	101.049901
1034.000000	101.062918
1033.000000	101.078767
1032.000000	101.101155
1031.000000	101.127698
1030.000000	101.151940
1029.000000	101.170195
1028.000000	101.184619
1027.000000	101.200544
1026.000000	101.221887
1025.000000	101.248187
1024.000000	101.274954
1023.000000	101.297490
1022.000000	101.315069
1021.000000	101.330490
1020.000000	101.345488
1019.000000	101.358844
1018.000000	101.370013
1017.000000	101.381768
1016.000000	101.396670
1015.000000	101.412773
1014.000000	101.425937
1013.000000	101.436010
1012.000000	101.447631
1011.000000	101.464126
1010.000000	101.483459
1009.000000	101.502443
1008.000000	101.523068
1007.000000	101.550711
1006.000000	101.585531
1005.000000	101.619709
1004.000000	101.646267
1003.000000	101.667168
1002.000000	101.687731
1001.000000	101.705711
1000.000000	101.713965
999.000000	101.714655
998.000000	101.721515
997.000000	101.742491
996.000000	101.767329
995.000000	101.779979
994.000000	101.778325
993.000000	101.773448
992.000000	101.773397
991.000000	101.778140
990.000000	101.789838
989.000000	101.816472
988.000000	101.860620
987.000000	101.911527
986.000000	101.953858
985.000000	101.980750
984.000000	101.994381
983.000000	101.998177
982.000000	101.993401
981.000000	101.982372
980.000000	101.971568
979.000000	101.969600
978.000000	101.980292
977.000000	101.996903
976.000000	102.006037
975.000000	102.000256
974.000000	101.985044
973.000000	101.970731
972.000000	101.960596
971.000000	101.951381
970.000000	101.942207
969.000000	101.936244
968.000000	101.934914
967.000000	101.937151
966.000000	101.943817
965.000000	101.955572
964.000000	101.965490
963.000000	101.961399
962.000000	101.938543
961.000000	101.905116
960.000000	101.873583
959.000000	101.850213
958.000000	101.833780
957.000000	101.819125
956.000000	101.800270
955.000000	101.775309
954.000000	101.750712
953.000000	101.736460
952.000000	101.734990
951.000000	101.738473
950.000000	101.737873
949.000000	101.730339
948.000000	101.716786
947.000000	101.698727
946.000000	101.680888
945.000000	101.671052
944.000000	101.672176
943.000000	101.677635
942.000000	101.677874
941.000000	101.670103
940.000000	101.658577
939.000000	101.647554
938.000000	101.636656
937.000000	101.622017
936.000000	101.600573
935.000000	101.574325
934.000000	101.550772
933.000000	101.536620
932.000000	101.531376
931.000000	101.528882
930.000000	101.524575
929.000000	101.518886
928.000000	101.512702
927.000000	101.503932
926.000000	101.491238
925.000000	101.478140
924.000000	101.469587
923.000000	101.465845
922.000000	101.462779
921.000000	101.457276
920.000000	101.449911
919.000000	101.441948
918.000000	101.432498
917.000000	101.420096
916.000000	101.405542
915.000000	101.391498
914.000000	101.379683
913.000000	101.369687
912.000000	101.360197
911.000000	101.350233
910.000000	101.339470
909.000000	101.328464
908.000000	101.318677
907.000000	101.311523
906.000000	101.307103
905.000000	101.304003
904.000000	101.299849
903.000000	101.291993
902.000000	101.279082
901.000000	101.263138
900.000000	101.248841
899.000000	101.238906
898.000000	101.231234
897.000000	101.222258
896.000000	101.212310
895.000000	101.204869
894.000000	101.200423
893.000000	101.194107
892.000000	101.180999
891.000000	101.161294
890.000000	101.139137
889.000000	101.118230
888.000000	101.100610
887.000000	101.088463
886.000000	101.083747
885.000000	101.085436
884.000000	101.088734
883.000000	101.088238
882.000000	101.081519
881.000000	101.070019
880.000000	101.057703
879.000000	101.048166
878.000000	101.041919
877.000000	101.036982
876.000000	101.032684
875.000000	101.030779
874.000000	101.030743
873.000000	101.026363
872.000000	101.011009
871.000000	100.985469
870.000000	100.957200
869.000000	100.931481
868.000000	100.907026
867.000000	100.881666
866.000000	100.858768
865.000000	100.845457
864.000000	100.846128
863.000000	100.858662
862.000000	100.875934
861.000000	100.889560
860.000000	100.892776
859.000000	100.882204
858.000000	100.859468
857.000000	100.831882
856.000000	100.809223
855.000000	100.796627
854.000000	100.790393
853.000000	100.782890
852.000000	100.771842
851.000000	100.760891
850.000000	100.750203
849.000000	100.732950
848.000000	100.705769
847.000000	100.677489
846.000000	100.660535
845.000000	100.657501
844.000000	100.663567
843.000000	100.678299
842.000000	100.705281
841.000000	100.740067
840.000000	100.767781
839.000000	100.776496
838.000000	100.767838
837.000000	100.752725
836.000000	100.741744
835.000000	100.740781
834.000000	100.750111
833.000000	100.764692
832.000000	100.778599
831.000000	100.789669
830.000000	100.796825
829.000000	100.796235
828.000000	100.787967
827.000000	100.782853
826.000000	100.789053
825.000000	100.792433
824.000000	100.769134
823.000000	100.723613
822.000000	100.693325
821.000000	100.704737
820.000000	100.744710
819.000000	100.782830
818.000000	100.806593
817.000000	100.823060
816.000000	100.838272
815.000000	100.851496
814.000000	100.864271
813.000000	100.880574
812.000000	100.898952
811.000000	100.915515
810.000000	100.934618
809.000000	100.967316
808.000000	101.019091
807.000000	101.085547
806.000000	101.157825
805.000000	101.225363
804.000000	101.277192
803.000000	101.310853
802.000000	101.339010
801.000000	101.377565
800.000000	101.428152
799.000000	101.482148
798.000000	101.539274
797.000000	101.607418
796.000000	101.681624
795.000000	101.739377
794.000000	101.765948
793.000000	101.772929
792.000000	101.782394
791.000000	101.799129
790.000000	101.809942
789.000000	101.807710
788.000000	101.803767
787.000000	101.813292
786.000000	101.835131
785.000000	101.852901
784.000000	101.855636
783.000000	101.852145
782.000000	101.861449
781.000000	101.890281
780.000000	101.925105
779.000000	101.947794
778.000000	101.954818
777.000000	101.957585
776.000000	101.966415
775.000000	101.980157
774.000000	101.991190
773.000000	101.995207
772.000000	101.994029
771.000000	101.991225
770.000000	101.987194
769.000000	101.978915
768.000000	101.964090
767.000000	101.943911
766.000000	101.920668
765.000000	101.895403
764.000000	101.871783
763.000000	101.859156
762.000000	101.863777
761.000000	101.876768
760.000000	101.880053
759.000000	101.867406
758.000000	101.850575
757.000000	101.839743
756.000000	101.827870
755.000000	101.804644
754.000000	101.778006
753.000000	101.767380
752.000000	101.776706
751.000000	101.787228
750.000000	101.781175
749.000000	101.763162
748.000000	101.751144
747.000000	101.752196
746.000000	101.755801
745.000000	101.749629
744.000000	101.733039
743.000000	101.712016
742.000000	101.687699
741.000000	101.657189
740.000000	101.624017
739.000000	101.600016
738.000000	101.592979
737.000000	101.597140
736.000000	101.599778
735.000000	101.594637
734.000000	101.585358
733.000000	101.576817
732.000000	101.568798
731.000000	101.559587
730.000000	101.551362
729.000000	101.548964
728.000000	101.554481
727.000000	101.565023
726.000000	101.575036
725.000000	101.579306
724.000000	101.575086
723.000000	101.562726
722.000000	101.545084
721.000000	101.526624
720.000000	101.512980
719.000000	101.509263
718.000000	101.515593
717.000000	101.524691
716.000000	101.526874
715.000000	101.519558
714.000000	101.509670
713.000000	101.504171
712.000000	101.501107
711.000000	101.494850
710.000000	101.487347
709.000000	101.487714
708.000000	101.499734
707.000000	101.515204
706.000000	101.521874
705.000000	101.515966
704.000000	101.504019
703.000000	101.494730
702.000000	101.491382
701.000000	101.492620
700.000000	101.498370
699.000000	101.512014
698.000000	101.534530
697.000000	101.557178
696.000000	101.566368
695.000000	101.558977
694.000000	101.547584
693.000000	101.546971
692.000000	101.555480
691.000000	101.560369
690.000000	101.556988
689.000000	101.553327
688.000000	101.555293
687.000000	101.556482
686.000000	101.548013
685.000000	101.530916
684.000000	101.514148
683.000000	101.503983
682.000000	101.499192
681.000000	101.496153
680.000000	101.493836
679.000000	101.493224
678.000000	101.493400
677.000000	101.490779
676.000000	101.483336
675.000000	101.473892
674.000000	101.467692
673.000000	101.466383
672.000000	101.466295
671.000000	101.463363
670.000000	101.457048
669.000000	101.451241
668.000000	101.450401
667.000000	101.451270
666.000000	101.449324
665.000000	101.446140
664.000000	101.445427
663.000000	101.448781
662.000000	101.453085
661.000000	101.453123
660.000000	101.447217
659.000000	101.438340
658.000000	101.430354
657.000000	101.424627
656.000000	101.421911
655.000000	101.425732
654.000000	101.440112
653.000000	101.461887
652.000000	101.477474
651.000000	101.472088
650.000000	101.443155
