4000.000000	99.773530
3999.000000	99.772829
3998.000000	99.772087
3997.000000	99.771285
3996.000000	99.770433
3995.000000	99.769553
3994.000000	99.768659
3993.000000	99.767752
3992.000000	99.766831
3991.000000	99.765901
3990.000000	99.764972
3989.000000	99.764065
3988.000000	99.763210
3987.000000	99.762432
3986.000000	99.761738
3985.000000	99.761108
3984.000000	99.760500
3983.000000	99.759878
3982.000000	99.759234
3981.000000	99.758592
3980.000000	99.757999
3979.000000	99.757502
3978.000000	99.757129
3977.000000	99.756881
3976.000000	99.756736
3975.000000	99.756661
3974.000000	99.756630
3973.000000	99.756640
3972.000000	99.756706
3971.000000	99.756849
3970.000000	99.757081
3969.000000	99.757396
3968.000000	99.757781
3967.000000	99.758219
3966.000000	99.758706
3965.000000	99.759244
3964.000000	99.759839
3963.000000	99.760492
3962.000000	99.761189
3961.000000	99.761902
3960.000000	99.762594
3959.000000	99.763241
3958.000000	99.763845
3957.000000	99.764430
3956.000000	99.765021
3955.000000	99.765625
3954.000000	99.766231
3953.000000	99.766820
3952.000000	99.767393
3951.000000	99.767973
3950.000000	99.768599
3949.000000	99.769295
3948.000000	99.770053
3947.000000	99.770824
3946.000000	99.771539
3945.000000	99.772143
3944.000000	99.772626
3943.000000	99.773016
3942.000000	99.773353
3941.000000	99.773653
3940.000000	99.773899
3939.000000	99.774059
3938.000000	99.774105
3937.000000	99.774031
3936.000000	99.773851
3935.000000	99.773581
3934.000000	99.773222
3933.000000	99.772748
3932.000000	99.772125
3931.000000	99.771331
3930.000000	99.770372
3929.000000	99.769270
3928.000000	99.768034
3927.000000	99.766641
3926.000000	99.765038
3925.000000	99.763187
3924.000000	99.761101
3923.000000	99.758852
3922.000000	99.756531
3921.000000	99.754188
3920.000000	99.751809
3919.000000	99.749337
3918.000000	99.746726
3917.000000	99.743973
3916.000000	99.741118
3915.000000	99.738200
3914.000000	99.735233
3913.000000	99.732200
3912.000000	99.729086
3911.000000	99.725908
3910.000000	99.722714
3909.000000	99.719560
3908.000000	99.716477
3907.000000	99.713449
3906.000000	99.710416
3905.000000	99.707318
3904.000000	99.704153
3903.000000	99.700998
3902.000000	99.697970
3901.000000	99.695160
3900.000000	99.692592
3899.000000	99.690239
3898.000000	99.688069
3897.000000	99.686087
3896.000000	99.684349
3895.000000	99.682910
3894.000000	99.681766
3893.000000	99.680844
3892.000000	99.680048
3891.000000	99.679335
3890.000000	99.678746
3889.000000	99.678373
3888.000000	99.678299
3887.000000	99.678542
3886.000000	99.679097
3885.000000	99.679902
3884.000000	99.680817
3883.000000	99.681811
3882.000000	99.683115
3881.000000	99.685021
3880.000000	99.687617
3879.000000	99.690451
3878.000000	99.692733
3877.000000	99.693949
3876.000000	99.694227
3875.000000	99.694537
3874.000000	99.695772
3873.000000	99.697839
3872.000000	99.700020
3871.000000	99.702261
3870.000000	99.705402
3869.000000	99.709798
3868.000000	99.714520
3867.000000	99.718722
3866.000000	99.722419
3865.000000	99.725291
3864.000000	99.726546
3863.000000	99.726617
3862.000000	99.727624
3861.000000	99.731298
3860.000000	99.736792
3859.000000	99.741420
3858.000000	99.742895
3857.000000	99.740998
3856.000000	99.737894
3855.000000	99.737098
3854.000000	99.740138
3853.000000	99.743332
3852.000000	99.741894
3851.000000	99.737031
3850.000000	99.734518
3849.000000	99.737748
3848.000000	99.745097
3847.000000	99.752162
3846.000000	99.755084
3845.000000	99.751891
3844.000000	99.743097
3843.000000	99.731814
3842.000000	99.721438
3841.000000	99.713192
3840.000000	99.705848
3839.000000	99.697938
3838.000000	99.690685
3837.000000	99.687587
3836.000000	99.690264
3835.000000	99.696360
3834.000000	99.701184
3833.000000	99.701121
3832.000000	99.695528
3831.000000	99.686408
3830.000000	99.676842
3829.000000	99.669523
3828.000000	99.665793
3827.000000	99.664871
3826.000000	99.663803
3825.000000	99.659582
3824.000000	99.652174
3823.000000	99.645621
3822.000000	99.644965
3821.000000	99.650965
3820.000000	99.657981
3819.000000	99.659779
3818.000000	99.655655
3817.000000	99.648963
3816.000000	99.643755
3815.000000	99.641698
3814.000000	99.641737
3813.000000	99.643193
3812.000000	99.646166
3811.000000	99.649210
3810.000000	99.650866
3809.000000	99.652850
3808.000000	99.659045
3807.000000	99.670378
3806.000000	99.681452
3805.000000	99.685807
3804.000000	99.682639
3803.000000	99.676289
3802.000000	99.672550
3801.000000	99.674483
3800.000000	99.679862
3799.000000	99.685307
3798.000000	99.691134
3797.000000	99.698252
3796.000000	99.705614
3795.000000	99.711999
3794.000000	99.718069
3793.000000	99.725764
3792.000000	99.735246
3791.000000	99.743544
3790.000000	99.747734
3789.000000	99.748353
3788.000000	99.748459
3787.000000	99.750595
3786.000000	99.755633
3785.000000	99.762735
3784.000000	99.769170
3783.000000	99.771092
3782.000000	99.766723
3781.000000	99.758906
3780.000000	99.752825
3779.000000	99.751552
3778.000000	99.753903
3777.000000	99.757651
3776.000000	99.763042
3775.000000	99.771422
3774.000000	99.780780
3773.000000	99.786358
3772.000000	99.785923
3771.000000	99.781618
3770.000000	99.775665
3769.000000	99.766433
3768.000000	99.751022
3767.000000	99.731111
3766.000000	99.712741
3765.000000	99.700578
3764.000000	99.694480
3763.000000	99.693147
3762.000000	99.698364
3761.000000	99.710221
3760.000000	99.720643
3759.000000	99.718803
3758.000000	99.702019
3757.000000	99.677145
3756.000000	99.652418
3755.000000	99.633414
3754.000000	99.622684
3753.000000	99.617008
3752.000000	99.609131
3751.000000	99.598802
3750.000000	99.596697
3749.000000	99.606915
3748.000000	99.617794
3747.000000	99.619292
3746.000000	99.614711
3745.000000	99.613986
3744.000000	99.620788
3743.000000	99.622643
3742.000000	99.612256
3741.000000	99.603410
3740.000000	99.605291
3739.000000	99.611326
3738.000000	99.613464
3737.000000	99.611847
3736.000000	99.611156
3735.000000	99.613353
3734.000000	99.617461
3733.000000	99.621931
3732.000000	99.624471
3731.000000	99.622928
3730.000000	99.618293
3729.000000	99.614700
3728.000000	99.614327
3727.000000	99.614235
3726.000000	99.610446
3725.000000	99.603371
3724.000000	99.597729
3723.000000	99.596774
3722.000000	99.598879
3721.000000	99.600451
3720.000000	99.599932
3719.000000	99.598264
3718.000000	99.596609
3717.000000	99.595066
3716.000000	99.593438
3715.000000	99.592380
3714.000000	99.592597
3713.000000	99.593170
3712.000000	99.592208
3711.000000	99.589448
3710.000000	99.586628
3709.000000	99.585104
3708.000000	99.584563
3707.000000	99.584164
3706.000000	99.583517
3705.000000	99.582645
3704.000000	99.581560
3703.000000	99.580093
3702.000000	99.578230
3701.000000	99.576275
3700.000000	99.574348
3699.000000	99.572133
3698.000000	99.569453
3697.000000	99.566603
3696.000000	99.563993
3695.000000	99.562106
3694.000000	99.561555
3693.000000	99.562459
3692.000000	99.563656
3691.000000	99.563167
3690.000000	99.560029
3689.000000	99.555397
3688.000000	99.551495
3687.000000	99.548983
3686.000000	99.547303
3685.000000	99.546418
3684.000000	99.545956
3683.000000	99.544570
3682.000000	99.541599
3681.000000	99.538063
3680.000000	99.535227
3679.000000	99.532477
3678.000000	99.528217
3677.000000	99.522178
3676.000000	99.515932
3675.000000	99.510939
3674.000000	99.506669
3673.000000	99.502374
3672.000000	99.498697
3671.000000	99.495741
3670.000000	99.492138
3669.000000	99.486848
3668.000000	99.480384
3667.000000	99.474213
3666.000000	99.469335
3665.000000	99.465799
3664.000000	99.462978
3663.000000	99.460013
3662.000000	99.456320
3661.000000	99.451775
3660.000000	99.446715
3659.000000	99.441828
3658.000000	99.437923
3657.000000	99.435298
3656.000000	99.432950
3655.000000	99.428886
3654.000000	99.422086
3653.000000	99.413959
3652.000000	99.406995
3651.000000	99.402067
3650.000000	99.398091
3649.000000	99.393492
3648.000000	99.388521
3647.000000	99.384514
3646.000000	99.381380
3645.000000	99.378282
3644.000000	99.375122
3643.000000	99.372255
3642.000000	99.369662
3641.000000	99.366985
3640.000000	99.364004
3639.000000	99.360799
3638.000000	99.357552
3637.000000	99.354459
3636.000000	99.351937
3635.000000	99.350275
3634.000000	99.349006
3633.000000	99.347148
3632.000000	99.344326
3631.000000	99.341297
3630.000000	99.339154
3629.000000	99.338266
3628.000000	99.337972
3627.000000	99.337618
3626.000000	99.337395
3625.000000	99.337613
3624.000000	99.338046
3623.000000	99.338467
3622.000000	99.339136
3621.000000	99.340384
3620.000000	99.342058
3619.000000	99.343718
3618.000000	99.345215
3617.000000	99.346754
3616.000000	99.348552
3615.000000	99.350643
3614.000000	99.352940
3613.000000	99.355484
3612.000000	99.358262
3611.000000	99.361184
3610.000000	99.364160
3609.000000	99.367141
3608.000000	99.370137
3607.000000	99.373186
3606.000000	99.376303
3605.000000	99.379451
3604.000000	99.382569
3603.000000	99.385619
3602.000000	99.388617
3601.000000	99.391620
3600.000000	99.394676
3599.000000	99.397777
3598.000000	99.400863
3597.000000	99.403856
3596.000000	99.406721
3595.000000	99.409485
3594.000000	99.412214
3593.000000	99.414957
3592.000000	99.417700
3591.000000	99.420376
3590.000000	99.422906
3589.000000	99.425240
3588.000000	99.427394
3587.000000	99.429434
3586.000000	99.431421
3585.000000	99.433358
3584.000000	99.435187
3583.000000	99.436840
3582.000000	99.438299
3581.000000	99.439609
3580.000000	99.440837
3579.000000	99.442009
3578.000000	99.443102
3577.000000	99.444070
3576.000000	99.444894
3575.000000	99.445597
3574.000000	99.446225
3573.000000	99.446802
3572.000000	99.447309
3571.000000	99.447684
3570.000000	99.447865
3569.000000	99.447836
3568.000000	99.447654
3567.000000	99.447426
3566.000000	99.447254
3565.000000	99.447175
3564.000000	99.447163
3563.000000	99.447174
3562.000000	99.447199
3561.000000	99.447266
3560.000000	99.447413
3559.000000	99.447639
3558.000000	99.447896
3557.000000	99.448117
3556.000000	99.448268
3555.000000	99.448378
3554.000000	99.448515
3553.000000	99.448733
3552.000000	99.449032
3551.000000	99.449366
3550.000000	99.449687
3549.000000	99.450000
3548.000000	99.450366
3547.000000	99.450864
3546.000000	99.451534
3545.000000	99.452351
3544.000000	99.453235
3543.000000	99.454121
3542.000000	99.454999
3541.000000	99.455920
3540.000000	99.456939
3539.000000	99.458076
3538.000000	99.459297
3537.000000	99.460546
3536.000000	99.461794
3535.000000	99.463063
3534.000000	99.464408
3533.000000	99.465870
3532.000000	99.467436
3531.000000	99.469046
3530.000000	99.470632
3529.000000	99.472179
3528.000000	99.473738
3527.000000	99.475398
3526.000000	99.477216
3525.000000	99.479170
3524.000000	99.481171
3523.000000	99.483128
3522.000000	99.485007
3521.000000	99.486844
3520.000000	99.488696
3519.000000	99.490588
3518.000000	99.492491
3517.000000	99.494348
3516.000000	99.496116
3515.000000	99.497802
3514.000000	99.499450
3513.000000	99.501108
3512.000000	99.502786
3511.000000	99.504452
3510.000000	99.506070
3509.000000	99.507635
3508.000000	99.509187
3507.000000	99.510783
3506.000000	99.512447
3505.000000	99.514152
3504.000000	99.515834
3503.000000	99.517443
3502.000000	99.518976
3501.000000	99.520471
3500.000000	99.521976
3499.000000	99.523513
3498.000000	99.525071
3497.000000	99.526616
3496.000000	99.528118
3495.000000	99.529568
3494.000000	99.530979
3493.000000	99.532366
3492.000000	99.533724
3491.000000	99.535021
3490.000000	99.536227
3489.000000	99.537348
3488.000000	99.538425
3487.000000	99.539508
3486.000000	99.540609
3485.000000	99.541694
3484.000000	99.542708
3483.000000	99.543617
3482.000000	99.544433
3481.000000	99.545201
3480.000000	99.545955
3479.000000	99.546699
3478.000000	99.547396
3477.000000	99.548004
3476.000000	99.548504
3475.000000	99.548918
3474.000000	99.549297
3473.000000	99.549684
3472.000000	99.550094
3471.000000	99.550516
3470.000000	99.550931
3469.000000	99.551339
3468.000000	99.551760
3467.000000	99.552216
3466.000000	99.552702
3465.000000	99.553174
3464.000000	99.553569
3463.000000	99.553833
3462.000000	99.553957
3461.000000	99.553981
3460.000000	99.553966
3459.000000	99.553957
3458.000000	99.553953
3457.000000	99.553919
3456.000000	99.553820
3455.000000	99.553646
3454.000000	99.553428
3453.000000	99.553213
3452.000000	99.553035
3451.000000	99.552894
3450.000000	99.552764
3449.000000	99.552615
3448.000000	99.552441
3447.000000	99.552256
3446.000000	99.552082
3445.000000	99.551930
3444.000000	99.551803
3443.000000	99.551698
3442.000000	99.551616
3441.000000	99.551566
3440.000000	99.551561
3439.000000	99.551612
3438.000000	99.551717
3437.000000	99.551866
3436.000000	99.552043
3435.000000	99.552241
3434.000000	99.552466
3433.000000	99.552737
3432.000000	99.553075
3431.000000	99.553497
3430.000000	99.554004
3429.000000	99.554581
3428.000000	99.555194
3427.000000	99.555808
3426.000000	99.556403
3425.000000	99.556971
3424.000000	99.557517
3423.000000	99.558051
3422.000000	99.558597
3421.000000	99.559188
3420.000000	99.559858
3419.000000	99.560618
3418.000000	99.561444
3417.000000	99.562296
3416.000000	99.563142
3415.000000	99.563982
3414.000000	99.564842
3413.000000	99.565749
3412.000000	99.566697
3411.000000	99.567654
3410.000000	99.568570
3409.000000	99.569416
3408.000000	99.570197
3407.000000	99.570946
3406.000000	99.571708
3405.000000	99.572507
3404.000000	99.573337
3403.000000	99.574165
3402.000000	99.574957
3401.000000	99.575697
3400.000000	99.576394
3399.000000	99.577066
3398.000000	99.577716
3397.000000	99.578321
3396.000000	99.578843
3395.000000	99.579252
3394.000000	99.579553
3393.000000	99.579784
3392.000000	99.579996
3391.000000	99.580217
3390.000000	99.580433
3389.000000	99.580589
3388.000000	99.580627
3387.000000	99.580527
3386.000000	99.580329
3385.000000	99.580108
3384.000000	99.579927
3383.000000	99.579795
3382.000000	99.579672
3381.000000	99.579504
3380.000000	99.579264
3379.000000	99.578965
3378.000000	99.578639
3377.000000	99.578312
3376.000000	99.577984
3375.000000	99.577625
3374.000000	99.577200
3373.000000	99.576689
3372.000000	99.576105
3371.000000	99.575485
3370.000000	99.574866
3369.000000	99.574266
3368.000000	99.573677
3367.000000	99.573073
3366.000000	99.572441
3365.000000	99.571791
3364.000000	99.571151
3363.000000	99.570548
3362.000000	99.569984
3361.000000	99.569428
3360.000000	99.568840
3359.000000	99.568199
3358.000000	99.567511
3357.000000	99.566807
3356.000000	99.566124
3355.000000	99.565488
3354.000000	99.564913
3353.000000	99.564404
3352.000000	99.563959
3351.000000	99.563574
3350.000000	99.563249
3349.000000	99.562980
3348.000000	99.562753
3347.000000	99.562551
3346.000000	99.562362
3345.000000	99.562183
3344.000000	99.562021
3343.000000	99.561883
3342.000000	99.561770
3341.000000	99.561678
3340.000000	99.561602
3339.000000	99.561542
3338.000000	99.561502
3337.000000	99.561492
3336.000000	99.561522
3335.000000	99.561610
3334.000000	99.561771
3333.000000	99.562019
3332.000000	99.562362
3331.000000	99.562801
3330.000000	99.563330
3329.000000	99.563931
3328.000000	99.564580
3327.000000	99.565258
3326.000000	99.565951
3325.000000	99.566658
3324.000000	99.567384
3323.000000	99.568130
3322.000000	99.568883
3321.000000	99.569616
3320.000000	99.570306
3319.000000	99.570952
3318.000000	99.571579
3317.000000	99.572227
3316.000000	99.572921
3315.000000	99.573665
3314.000000	99.574434
3313.000000	99.575198
3312.000000	99.575926
3311.000000	99.576604
3310.000000	99.577230
3309.000000	99.577808
3308.000000	99.578330
3307.000000	99.578780
3306.000000	99.579150
3305.000000	99.579457
3304.000000	99.579742
3303.000000	99.580049
3302.000000	99.580395
3301.000000	99.580755
3300.000000	99.581074
3299.000000	99.581302
3298.000000	99.581433
3297.000000	99.581502
3296.000000	99.581561
3295.000000	99.581633
3294.000000	99.581690
3293.000000	99.581668
3292.000000	99.581506
3291.000000	99.581187
3290.000000	99.580741
3289.000000	99.580219
3288.000000	99.579652
3287.000000	99.579036
3286.000000	99.578342
3285.000000	99.577545
3284.000000	99.576652
3283.000000	99.575712
3282.000000	99.574787
3281.000000	99.573922
3280.000000	99.573116
3279.000000	99.572335
3278.000000	99.571542
3277.000000	99.570732
3276.000000	99.569923
3275.000000	99.569140
3274.000000	99.568387
3273.000000	99.567645
3272.000000	99.566878
3271.000000	99.566062
3270.000000	99.565200
3269.000000	99.564322
3268.000000	99.563473
3267.000000	99.562684
3266.000000	99.561950
3265.000000	99.561243
3264.000000	99.560529
3263.000000	99.559795
3262.000000	99.559047
3261.000000	99.558300
3260.000000	99.557561
3259.000000	99.556825
3258.000000	99.556093
3257.000000	99.555374
3256.000000	99.554690
3255.000000	99.554056
3254.000000	99.553475
3253.000000	99.552942
3252.000000	99.552447
3251.000000	99.551997
3250.000000	99.551606
3249.000000	99.551291
3248.000000	99.551060
3247.000000	99.550904
3246.000000	99.550809
3245.000000	99.550757
3244.000000	99.550738
3243.000000	99.550750
3242.000000	99.550800
3241.000000	99.550886
3240.000000	99.550991
3239.000000	99.551085
3238.000000	99.551151
3237.000000	99.551191
3236.000000	99.551230
3235.000000	99.551293
3234.000000	99.551384
3233.000000	99.551489
3232.000000	99.551582
3231.000000	99.551645
3230.000000	99.551678
3229.000000	99.551699
3228.000000	99.551734
3227.000000	99.551801
3226.000000	99.551895
3225.000000	99.551987
3224.000000	99.552051
3223.000000	99.552087
3222.000000	99.552125
3221.000000	99.552207
3220.000000	99.552350
3219.000000	99.552541
3218.000000	99.552746
3217.000000	99.552933
3216.000000	99.553096
3215.000000	99.553249
3214.000000	99.553409
3213.000000	99.553581
3212.000000	99.553743
3211.000000	99.553859
3210.000000	99.553904
3209.000000	99.553881
3208.000000	99.553816
3207.000000	99.553736
3206.000000	99.553651
3205.000000	99.553543
3204.000000	99.553384
3203.000000	99.553158
3202.000000	99.552877
3201.000000	99.552573
3200.000000	99.552279
3199.000000	99.552005
3198.000000	99.551738
3197.000000	99.551450
3196.000000	99.551121
3195.000000	99.550751
3194.000000	99.550356
3193.000000	99.549954
3192.000000	99.549551
3191.000000	99.549145
3190.000000	99.548728
3189.000000	99.548305
3188.000000	99.547891
3187.000000	99.547508
3186.000000	99.547160
3185.000000	99.546832
3184.000000	99.546497
3183.000000	99.546137
3182.000000	99.545755
3181.000000	99.545375
3180.000000	99.545019
3179.000000	99.544688
3178.000000	99.544365
3177.000000	99.544029
3176.000000	99.543675
3175.000000	99.543317
3174.000000	99.542983
3173.000000	99.542696
3172.000000	99.542458
3171.000000	99.542253
3170.000000	99.542062
3169.000000	99.541874
3168.000000	99.541697
3167.000000	99.541547
3166.000000	99.541431
3165.000000	99.541341
3164.000000	99.541256
3163.000000	99.541155
3162.000000	99.541041
3161.000000	99.540934
3160.000000	99.540859
3159.000000	99.540835
3158.000000	99.540859
3157.000000	99.540918
3156.000000	99.540992
3155.000000	99.541075
3154.000000	99.541172
3153.000000	99.541301
3152.000000	99.541469
3151.000000	99.541671
3150.000000	99.541888
3149.000000	99.542105
3148.000000	99.542318
3147.000000	99.542535
3146.000000	99.542772
3145.000000	99.543039
3144.000000	99.543338
3143.000000	99.543662
3142.000000	99.544002
3141.000000	99.544360
3140.000000	99.544740
3139.000000	99.545148
3138.000000	99.545578
3137.000000	99.546019
3136.000000	99.546457
3135.000000	99.546887
3134.000000	99.547313
3133.000000	99.547741
3132.000000	99.548173
3131.000000	99.548601
3130.000000	99.549013
3129.000000	99.549394
3128.000000	99.549740
3127.000000	99.550050
3126.000000	99.550329
3125.000000	99.550585
3124.000000	99.550824
3123.000000	99.551054
3122.000000	99.551281
3121.000000	99.551514
3120.000000	99.551756
3119.000000	99.552003
3118.000000	99.552245
3117.000000	99.552475
3116.000000	99.552684
3115.000000	99.552863
3114.000000	99.553007
3113.000000	99.553118
3112.000000	99.553209
3111.000000	99.553296
3110.000000	99.553394
3109.000000	99.553510
3108.000000	99.553641
3107.000000	99.553778
3106.000000	99.553908
3105.000000	99.554022
3104.000000	99.554119
3103.000000	99.554200
3102.000000	99.554266
3101.000000	99.554322
3100.000000	99.554372
3099.000000	99.554421
3098.000000	99.554467
3097.000000	99.554510
3096.000000	99.554546
3095.000000	99.554575
3094.000000	99.554602
3093.000000	99.554623
3092.000000	99.554634
3091.000000	99.554628
3090.000000	99.554606
3089.000000	99.554583
3088.000000	99.554577
3087.000000	99.554602
3086.000000	99.554659
3085.000000	99.554741
3084.000000	99.554842
3083.000000	99.554967
3082.000000	99.555125
3081.000000	99.555326
3080.000000	99.555565
3079.000000	99.555826
3078.000000	99.556092
3077.000000	99.556358
3076.000000	99.556632
3075.000000	99.556929
3074.000000	99.557260
3073.000000	99.557623
3072.000000	99.558009
3071.000000	99.558406
3070.000000	99.558810
3069.000000	99.559219
3068.000000	99.559630
3067.000000	99.560036
3066.000000	99.560428
3065.000000	99.560802
3064.000000	99.561169
3063.000000	99.561543
3062.000000	99.561937
3061.000000	99.562359
3060.000000	99.562804
3059.000000	99.563259
3058.000000	99.563704
3057.000000	99.564124
3056.000000	99.564517
3055.000000	99.564896
3054.000000	99.565290
3053.000000	99.565720
3052.000000	99.566197
3051.000000	99.566713
3050.000000	99.567260
3049.000000	99.567837
3048.000000	99.568454
3047.000000	99.569113
3046.000000	99.569799
3045.000000	99.570486
3044.000000	99.571155
3043.000000	99.571805
3042.000000	99.572461
3041.000000	99.573151
3040.000000	99.573891
3039.000000	99.574675
3038.000000	99.575486
3037.000000	99.576310
3036.000000	99.577147
3035.000000	99.578009
3034.000000	99.578903
3033.000000	99.579825
3032.000000	99.580756
3031.000000	99.581680
3030.000000	99.582603
3029.000000	99.583549
3028.000000	99.584553
3027.000000	99.585637
3026.000000	99.586806
3025.000000	99.588051
3024.000000	99.589356
3023.000000	99.590715
3022.000000	99.592129
3021.000000	99.593608
3020.000000	99.595162
3019.000000	99.596792
3018.000000	99.598494
3017.000000	99.600263
3016.000000	99.602104
3015.000000	99.604032
3014.000000	99.606065
3013.000000	99.608201
3012.000000	99.610411
3011.000000	99.612642
3010.000000	99.614843
3009.000000	99.616998
3008.000000	99.619127
3007.000000	99.621268
3006.000000	99.623444
3005.000000	99.625652
3004.000000	99.627866
3003.000000	99.630080
3002.000000	99.632192
3001.000000	99.634082
3000.000000	99.635851
2999.000000	99.637844
2998.000000	99.640378
2997.000000	99.643293
2996.000000	99.645820
2995.000000	99.647148
2994.000000	99.647304
2993.000000	99.647493
2992.000000	99.649126
2991.000000	99.652505
2990.000000	99.656462
2989.000000	99.659485
2988.000000	99.661185
2987.000000	99.662733
2986.000000	99.665961
2985.000000	99.671838
2984.000000	99.679374
2983.000000	99.685951
2982.000000	99.689227
2981.000000	99.689137
2980.000000	99.688286
2979.000000	99.690016
2978.000000	99.695674
2977.000000	99.703500
2976.000000	99.709954
2975.000000	99.712333
2974.000000	99.710522
2973.000000	99.706767
2972.000000	99.703629
2971.000000	99.701846
2970.000000	99.700040
2969.000000	99.696289
2968.000000	99.690019
2967.000000	99.682879
2966.000000	99.677719
2965.000000	99.676218
2964.000000	99.677609
2963.000000	99.679486
2962.000000	99.679689
2961.000000	99.677278
2960.000000	99.672156
2959.000000	99.664942
2958.000000	99.657527
2957.000000	99.652756
2956.000000	99.652409
2955.000000	99.655667
2954.000000	99.660311
2953.000000	99.665012
2952.000000	99.669820
2951.000000	99.674873
2950.000000	99.679304
2949.000000	99.681345
2948.000000	99.679332
2947.000000	99.673073
2946.000000	99.665109
2945.000000	99.660039
2944.000000	99.661061
2943.000000	99.667160
2942.000000	99.674078
2941.000000	99.678376
2940.000000	99.679902
2939.000000	99.680210
2938.000000	99.680200
2937.000000	99.679931
2936.000000	99.679561
2935.000000	99.679338
2934.000000	99.679157
2933.000000	99.679096
2932.000000	99.680042
2931.000000	99.682929
2930.000000	99.687370
2929.000000	99.691493
2928.000000	99.693458
2927.000000	99.692904
2926.000000	99.690790
2925.000000	99.688441
2924.000000	99.686773
2923.000000	99.686066
2922.000000	99.686065
2921.000000	99.686297
2920.000000	99.686605
2919.000000	99.687361
2918.000000	99.689016
2917.000000	99.691495
2916.000000	99.694092
2915.000000	99.695923
2914.000000	99.696534
2913.000000	99.696142
2912.000000	99.695502
2911.000000	99.695409
2910.000000	99.696091
2909.000000	99.697115
2908.000000	99.697881
2907.000000	99.698234
2906.000000	99.698477
2905.000000	99.698892
2904.000000	99.699479
2903.000000	99.700172
2902.000000	99.701054
2901.000000	99.702196
2900.000000	99.703424
2899.000000	99.704376
2898.000000	99.704767
2897.000000	99.704564
2896.000000	99.703893
2895.000000	99.702945
2894.000000	99.702058
2893.000000	99.701711
2892.000000	99.702254
2891.000000	99.703581
2890.000000	99.704991
2889.000000	99.705675
2888.000000	99.705389
2887.000000	99.704622
2886.000000	99.704105
2885.000000	99.704142
2884.000000	99.704450
2883.000000	99.704487
2882.000000	99.703902
2881.000000	99.702808
2880.000000	99.701748
2879.000000	99.701282
2878.000000	99.701542
2877.000000	99.702071
2876.000000	99.702217
2875.000000	99.701720
2874.000000	99.700837
2873.000000	99.699946
2872.000000	99.699196
2871.000000	99.698662
2870.000000	99.698530
2869.000000	99.698916
2868.000000	99.699551
2867.000000	99.699824
2866.000000	99.699205
2865.000000	99.697494
2864.000000	99.694821
2863.000000	99.691649
2862.000000	99.688790
2861.000000	99.687177
2860.000000	99.687267
2859.000000	99.688747
2858.000000	99.690875
2857.000000	99.692968
2856.000000	99.694672
2855.000000	99.695900
2854.000000	99.696562
2853.000000	99.696476
2852.000000	99.695507
2851.000000	99.693693
2850.000000	99.691381
2849.000000	99.689195
2848.000000	99.687644
2847.000000	99.686824
2846.000000	99.686493
2845.000000	99.686296
2844.000000	99.685948
2843.000000	99.685297
2842.000000	99.684372
2841.000000	99.683345
2840.000000	99.682445
2839.000000	99.681801
2838.000000	99.681359
2837.000000	99.680977
2836.000000	99.680549
2835.000000	99.680082
2834.000000	99.679615
2833.000000	99.679163
2832.000000	99.678742
2831.000000	99.678371
2830.000000	99.678053
2829.000000	99.677775
2828.000000	99.677521
2827.000000	99.677279
2826.000000	99.677053
2825.000000	99.676858
2824.000000	99.676709
2823.000000	99.676619
2822.000000	99.676584
2821.000000	99.676592
2820.000000	99.676631
2819.000000	99.676690
2818.000000	99.676767
2817.000000	99.676857
2816.000000	99.676950
2815.000000	99.677031
2814.000000	99.677089
2813.000000	99.677126
2812.000000	99.677166
2811.000000	99.677246
2810.000000	99.677396
2809.000000	99.677629
2808.000000	99.677933
2807.000000	99.678281
2806.000000	99.678644
2805.000000	99.679008
2804.000000	99.679381
2803.000000	99.679780
2802.000000	99.680215
2801.000000	99.680686
2800.000000	99.681190
2799.000000	99.681730
2798.000000	99.682312
2797.000000	99.682940
2796.000000	99.683613
2795.000000	99.684319
2794.000000	99.685048
2793.000000	99.685788
2792.000000	99.686537
2791.000000	99.687302
2790.000000	99.688096
2789.000000	99.688926
2788.000000	99.689782
2787.000000	99.690643
2786.000000	99.691486
2785.000000	99.692303
2784.000000	99.693110
2783.000000	99.693935
2782.000000	99.694797
2781.000000	99.695690
2780.000000	99.696579
2779.000000	99.697431
2778.000000	99.698230
2777.000000	99.698996
2776.000000	99.699761
2775.000000	99.700549
2774.000000	99.701364
2773.000000	99.702185
2772.000000	99.702992
2771.000000	99.703780
2770.000000	99.704565
2769.000000	99.705372
2768.000000	99.706204
2767.000000	99.707032
2766.000000	99.707812
2765.000000	99.708519
2764.000000	99.709167
2763.000000	99.709810
2762.000000	99.710503
2761.000000	99.711267
2760.000000	99.712082
2759.000000	99.712896
2758.000000	99.713662
2757.000000	99.714359
2756.000000	99.714998
2755.000000	99.715600
2754.000000	99.716175
2753.000000	99.716709
2752.000000	99.717182
2751.000000	99.717585
2750.000000	99.717936
2749.000000	99.718266
2748.000000	99.718606
2747.000000	99.718956
2746.000000	99.719292
2745.000000	99.719573
2744.000000	99.719777
2743.000000	99.719915
2742.000000	99.720021
2741.000000	99.720126
2740.000000	99.720232
2739.000000	99.720320
2738.000000	99.720365
2737.000000	99.720366
2736.000000	99.720344
2735.000000	99.720334
2734.000000	99.720356
2733.000000	99.720403
2732.000000	99.720442
2731.000000	99.720441
2730.000000	99.720393
2729.000000	99.720320
2728.000000	99.720261
2727.000000	99.720239
2726.000000	99.720249
2725.000000	99.720260
2724.000000	99.720243
2723.000000	99.720189
2722.000000	99.720116
2721.000000	99.720044
2720.000000	99.719977
2719.000000	99.719894
2718.000000	99.719764
2717.000000	99.719567
2716.000000	99.719319
2715.000000	99.719059
2714.000000	99.718831
2713.000000	99.718652
2712.000000	99.718506
2711.000000	99.718354
2710.000000	99.718165
2709.000000	99.717940
2708.000000	99.717711
2707.000000	99.717524
2706.000000	99.717397
2705.000000	99.717309
2704.000000	99.717220
2703.000000	99.717101
2702.000000	99.716960
2701.000000	99.716834
2700.000000	99.716755
2699.000000	99.716725
2698.000000	99.716714
2697.000000	99.716682
2696.000000	99.716611
2695.000000	99.716523
2694.000000	99.716463
2693.000000	99.716460
2692.000000	99.716498
2691.000000	99.716516
2690.000000	99.716446
2689.000000	99.716262
2688.000000	99.715995
2687.000000	99.715714
2686.000000	99.715470
2685.000000	99.715266
2684.000000	99.715065
2683.000000	99.714829
2682.000000	99.714560
2681.000000	99.714300
2680.000000	99.714096
2679.000000	99.713951
2678.000000	99.713812
2677.000000	99.713597
2676.000000	99.713253
2675.000000	99.712795
2674.000000	99.712298
2673.000000	99.711846
2672.000000	99.711480
2671.000000	99.711175
2670.000000	99.710873
2669.000000	99.710539
2668.000000	99.710190
2667.000000	99.709881
2666.000000	99.709646
2665.000000	99.709459
2664.000000	99.709246
2663.000000	99.708935
2662.000000	99.708515
2661.000000	99.708045
2660.000000	99.707614
2659.000000	99.707285
2658.000000	99.707053
2657.000000	99.706857
2656.000000	99.706633
2655.000000	99.706354
2654.000000	99.706045
2653.000000	99.705746
2652.000000	99.705470
2651.000000	99.705185
2650.000000	99.704845
2649.000000	99.704442
2648.000000	99.704034
2647.000000	99.703714
2646.000000	99.703543
2645.000000	99.703508
2644.000000	99.703525
2643.000000	99.703497
2642.000000	99.703375
2641.000000	99.703170
2640.000000	99.702923
2639.000000	99.702664
2638.000000	99.702392
2637.000000	99.702089
2636.000000	99.701762
2635.000000	99.701461
2634.000000	99.701253
2633.000000	99.701180
2632.000000	99.701210
2631.000000	99.701256
2630.000000	99.701230
2629.000000	99.701101
2628.000000	99.700915
2627.000000	99.700744
2626.000000	99.700629
2625.000000	99.700549
2624.000000	99.700451
2623.000000	99.700303
2622.000000	99.700130
2621.000000	99.699988
2620.000000	99.699913
2619.000000	99.699879
2618.000000	99.699808
2617.000000	99.699621
2616.000000	99.699297
2615.000000	99.698890
2614.000000	99.698489
2613.000000	99.698150
2612.000000	99.697861
2611.000000	99.697568
2610.000000	99.697240
2609.000000	99.696915
2608.000000	99.696677
2607.000000	99.696588
2606.000000	99.696625
2605.000000	99.696682
2604.000000	99.696631
2603.000000	99.696422
2602.000000	99.696112
2601.000000	99.695820
2600.000000	99.695639
2599.000000	99.695573
2598.000000	99.695549
2597.000000	99.695496
2596.000000	99.695411
2595.000000	99.695369
2594.000000	99.695458
2593.000000	99.695705
2592.000000	99.696038
2591.000000	99.696333
2590.000000	99.696498
2589.000000	99.696537
2588.000000	99.696544
2587.000000	99.696616
2586.000000	99.696773
2585.000000	99.696945
2584.000000	99.697032
2583.000000	99.696991
2582.000000	99.696879
2581.000000	99.696809
2580.000000	99.696873
2579.000000	99.697079
2578.000000	99.697353
2577.000000	99.697596
2576.000000	99.697761
2575.000000	99.697882
2574.000000	99.698045
2573.000000	99.698317
2572.000000	99.698690
2571.000000	99.699096
2570.000000	99.699469
2569.000000	99.699800
2568.000000	99.700128
2567.000000	99.700496
2566.000000	99.700902
2565.000000	99.701294
2564.000000	99.701611
2563.000000	99.701832
2562.000000	99.701994
2561.000000	99.702170
2560.000000	99.702416
2559.000000	99.702737
2558.000000	99.703092
2557.000000	99.703432
2556.000000	99.703745
2555.000000	99.704053
2554.000000	99.704386
2553.000000	99.704741
2552.000000	99.705068
2551.000000	99.705305
2550.000000	99.705418
2549.000000	99.705436
2548.000000	99.705426
2547.000000	99.705457
2546.000000	99.705554
2545.000000	99.705704
2544.000000	99.705885
2543.000000	99.706090
2542.000000	99.706341
2541.000000	99.706658
2540.000000	99.707033
2539.000000	99.707416
2538.000000	99.707739
2537.000000	99.707953
2536.000000	99.708063
2535.000000	99.708129
2534.000000	99.708234
2533.000000	99.708434
2532.000000	99.708731
2531.000000	99.709073
2530.000000	99.709401
2529.000000	99.709685
2528.000000	99.709931
2527.000000	99.710161
2526.000000	99.710382
2525.000000	99.710581
2524.000000	99.710738
2523.000000	99.710848
2522.000000	99.710932
2521.000000	99.711025
2520.000000	99.711161
2519.000000	99.711351
2518.000000	99.711576
2517.000000	99.711801
2516.000000	99.711990
2515.000000	99.712129
2514.000000	99.712227
2513.000000	99.712302
2512.000000	99.712370
2511.000000	99.712434
2510.000000	99.712498
2509.000000	99.712569
2508.000000	99.712671
2507.000000	99.712830
2506.000000	99.713075
2505.000000	99.713421
2504.000000	99.713862
2503.000000	99.714368
2502.000000	99.714893
2501.000000	99.715393
2500.000000	99.715842
2499.000000	99.716241
2498.000000	99.716614
2497.000000	99.716990
2496.000000	99.717393
2495.000000	99.717833
2494.000000	99.718305
2493.000000	99.718796
2492.000000	99.719296
2491.000000	99.719804
2490.000000	99.720319
2489.000000	99.720839
2488.000000	99.721351
2487.000000	99.721837
2486.000000	99.722296
2485.000000	99.722744
2484.000000	99.723214
2483.000000	99.723737
2482.000000	99.724320
2481.000000	99.724947
2480.000000	99.725589
2479.000000	99.726223
2478.000000	99.726842
2477.000000	99.727456
2476.000000	99.728076
2475.000000	99.728703
2474.000000	99.729324
2473.000000	99.729925
2472.000000	99.730505
2471.000000	99.731082
2470.000000	99.731683
2469.000000	99.732322
2468.000000	99.732989
2467.000000	99.733658
2466.000000	99.734295
2465.000000	99.734877
2464.000000	99.735397
2463.000000	99.735856
2462.000000	99.736255
2461.000000	99.736596
2460.000000	99.736885
2459.000000	99.737139
2458.000000	99.737390
2457.000000	99.737672
2456.000000	99.738005
2455.000000	99.738383
2454.000000	99.738775
2453.000000	99.739144
2452.000000	99.739461
2451.000000	99.739717
2450.000000	99.739930
2449.000000	99.740118
2448.000000	99.740286
2447.000000	99.740426
2446.000000	99.740526
2445.000000	99.740597
2444.000000	99.740668
2443.000000	99.740768
2442.000000	99.740905
2441.000000	99.741059
2440.000000	99.741195
2439.000000	99.741290
2438.000000	99.741346
2437.000000	99.741387
2436.000000	99.741442
2435.000000	99.741525
2434.000000	99.741628
2433.000000	99.741732
2432.000000	99.741830
2431.000000	99.741930
2430.000000	99.742052
2429.000000	99.742204
2428.000000	99.742370
2427.000000	99.742519
2426.000000	99.742630
2425.000000	99.742701
2424.000000	99.742748
2423.000000	99.742802
2422.000000	99.742881
2421.000000	99.742991
2420.000000	99.743115
2419.000000	99.743230
2418.000000	99.743323
2417.000000	99.743396
2416.000000	99.743453
2415.000000	99.743491
2414.000000	99.743493
2413.000000	99.743437
2412.000000	99.743312
2411.000000	99.743131
2410.000000	99.742926
2409.000000	99.742732
2408.000000	99.742567
2407.000000	99.742423
2406.000000	99.742276
2405.000000	99.742107
2404.000000	99.741911
2403.000000	99.741695
2402.000000	99.741465
2401.000000	99.741221
2400.000000	99.740962
2399.000000	99.740691
2398.000000	99.740413
2397.000000	99.740135
2396.000000	99.739858
2395.000000	99.739576
2394.000000	99.739273
2393.000000	99.738932
2392.000000	99.738540
2391.000000	99.738096
2390.000000	99.737617
2389.000000	99.737122
2388.000000	99.736619
2387.000000	99.736099
2386.000000	99.735544
2385.000000	99.734944
2384.000000	99.734305
2383.000000	99.733646
2382.000000	99.732987
2381.000000	99.732338
2380.000000	99.731691
2379.000000	99.731023
2378.000000	99.730316
2377.000000	99.729571
2376.000000	99.728806
2375.000000	99.728036
2374.000000	99.727260
2373.000000	99.726465
2372.000000	99.725643
2371.000000	99.724800
2370.000000	99.723959
2369.000000	99.723143
2368.000000	99.722362
2367.000000	99.721607
2366.000000	99.720858
2365.000000	99.720091
2364.000000	99.719300
2363.000000	99.718495
2362.000000	99.717702
2361.000000	99.716949
2360.000000	99.716250
2359.000000	99.715589
2358.000000	99.714925
2357.000000	99.714214
2356.000000	99.713431
2355.000000	99.712582
2354.000000	99.711696
2353.000000	99.710804
2352.000000	99.709926
2351.000000	99.709064
2350.000000	99.708217
2349.000000	99.707392
2348.000000	99.706593
2347.000000	99.705818
2346.000000	99.705057
2345.000000	99.704310
2344.000000	99.703598
2343.000000	99.702946
2342.000000	99.702371
2341.000000	99.701870
2340.000000	99.701423
2339.000000	99.701004
2338.000000	99.700599
2337.000000	99.700210
2336.000000	99.699849
2335.000000	99.699525
2334.000000	99.699240
2333.000000	99.698991
2332.000000	99.698779
2331.000000	99.698606
2330.000000	99.698483
2329.000000	99.698424
2328.000000	99.698405
2327.000000	99.698379
2326.000000	99.698317
2325.000000	99.698272
2324.000000	99.698349
2323.000000	99.698578
2322.000000	99.698969
2321.000000	99.699470
2320.000000	99.699994
2319.000000	99.700382
2318.000000	99.700550
2317.000000	99.700613
2316.000000	99.700735
2315.000000	99.700927
2314.000000	99.701127
2313.000000	99.701477
2312.000000	99.702074
2311.000000	99.702820
2310.000000	99.703413
2309.000000	99.703766
2308.000000	99.704122
2307.000000	99.704754
2306.000000	99.705635
2305.000000	99.706495
2304.000000	99.707134
2303.000000	99.707583
2302.000000	99.708023
2301.000000	99.708578
2300.000000	99.709222
2299.000000	99.709846
2298.000000	99.710312
2297.000000	99.710527
2296.000000	99.710484
2295.000000	99.710355
2294.000000	99.710362
2293.000000	99.710614
2292.000000	99.710977
2291.000000	99.711178
2290.000000	99.711084
2289.000000	99.710813
2288.000000	99.710586
2287.000000	99.710512
2286.000000	99.710615
2285.000000	99.710926
2284.000000	99.711409
2283.000000	99.711809
2282.000000	99.711802
2281.000000	99.711328
2280.000000	99.710775
2279.000000	99.710628
2278.000000	99.710963
2277.000000	99.711350
2276.000000	99.711284
2275.000000	99.710641
2274.000000	99.709707
2273.000000	99.708976
2272.000000	99.708848
2271.000000	99.709426
2270.000000	99.710400
2269.000000	99.711130
2268.000000	99.710988
2267.000000	99.709674
2266.000000	99.707417
2265.000000	99.704936
2264.000000	99.702988
2263.000000	99.701864
2262.000000	99.701314
2261.000000	99.700961
2260.000000	99.700664
2259.000000	99.700406
2258.000000	99.700019
2257.000000	99.699193
2256.000000	99.697859
2255.000000	99.696414
2254.000000	99.695541
2253.000000	99.695719
2252.000000	99.696868
2251.000000	99.698407
2250.000000	99.699666
2249.000000	99.700297
2248.000000	99.700228
2247.000000	99.699504
2246.000000	99.698404
2245.000000	99.697556
2244.000000	99.697505
2243.000000	99.698108
2242.000000	99.698598
2241.000000	99.698386
2240.000000	99.697570
2239.000000	99.696619
2238.000000	99.695856
2237.000000	99.695418
2236.000000	99.695396
2235.000000	99.695680
2234.000000	99.695887
2233.000000	99.695708
2232.000000	99.695240
2231.000000	99.694761
2230.000000	99.694321
2229.000000	99.693817
2228.000000	99.693348
2227.000000	99.693216
2226.000000	99.693571
2225.000000	99.694237
2224.000000	99.694873
2223.000000	99.695246
2222.000000	99.695320
2221.000000	99.695200
2220.000000	99.695029
2219.000000	99.694868
2218.000000	99.694684
2217.000000	99.694457
2216.000000	99.694245
2215.000000	99.694128
2214.000000	99.694147
2213.000000	99.694323
2212.000000	99.694677
2211.000000	99.695179
2210.000000	99.695710
2209.000000	99.696130
2208.000000	99.696359
2207.000000	99.696402
2206.000000	99.696299
2205.000000	99.696178
2204.000000	99.696264
2203.000000	99.696693
2202.000000	99.697364
2201.000000	99.697988
2200.000000	99.698417
2199.000000	99.698787
2198.000000	99.699294
2197.000000	99.699964
2196.000000	99.700642
2195.000000	99.701159
2194.000000	99.701475
2193.000000	99.701669
2192.000000	99.701858
2191.000000	99.702122
2190.000000	99.702475
2189.000000	99.702887
2188.000000	99.703314
2187.000000	99.703723
2186.000000	99.704109
2185.000000	99.704479
2184.000000	99.704843
2183.000000	99.705211
2182.000000	99.705586
2181.000000	99.705965
2180.000000	99.706344
2179.000000	99.706719
2178.000000	99.707090
2177.000000	99.707461
2176.000000	99.707839
2175.000000	99.708227
2174.000000	99.708625
2173.000000	99.709023
2172.000000	99.709412
2171.000000	99.709782
2170.000000	99.710130
2169.000000	99.710452
2168.000000	99.710741
2167.000000	99.710992
2166.000000	99.711204
2165.000000	99.711387
2164.000000	99.711561
2163.000000	99.711743
2162.000000	99.711939
2161.000000	99.712141
2160.000000	99.712335
2159.000000	99.712510
2158.000000	99.712664
2157.000000	99.712799
2156.000000	99.712923
2155.000000	99.713044
2154.000000	99.713169
2153.000000	99.713304
2152.000000	99.713450
2151.000000	99.713605
2150.000000	99.713766
2149.000000	99.713924
2148.000000	99.714063
2147.000000	99.714171
2146.000000	99.714245
2145.000000	99.714297
2144.000000	99.714355
2143.000000	99.714438
2142.000000	99.714553
2141.000000	99.714688
2140.000000	99.714824
2139.000000	99.714948
2138.000000	99.715062
2137.000000	99.715173
2136.000000	99.715288
2135.000000	99.715413
2134.000000	99.715549
2133.000000	99.715695
2132.000000	99.715848
2131.000000	99.716004
2130.000000	99.716163
2129.000000	99.716327
2128.000000	99.716500
2127.000000	99.716691
2126.000000	99.716904
2125.000000	99.717149
2124.000000	99.717429
2123.000000	99.717744
2122.000000	99.718088
2121.000000	99.718447
2120.000000	99.718813
2119.000000	99.719181
2118.000000	99.719551
2117.000000	99.719928
2116.000000	99.720318
2115.000000	99.720726
2114.000000	99.721140
2113.000000	99.721547
2112.000000	99.721956
2111.000000	99.722385
2110.000000	99.722831
2109.000000	99.723238
2108.000000	99.723536
2107.000000	99.723756
2106.000000	99.724083
2105.000000	99.724700
2104.000000	99.725631
2103.000000	99.726743
2102.000000	99.727871
2101.000000	99.728859
2100.000000	99.729551
2099.000000	99.729914
2098.000000	99.730131
2097.000000	99.730488
2096.000000	99.731133
2095.000000	99.732037
2094.000000	99.733125
2093.000000	99.734318
2092.000000	99.735414
2091.000000	99.736125
2090.000000	99.736386
2089.000000	99.736560
2088.000000	99.737120
2087.000000	99.738120
2086.000000	99.739139
2085.000000	99.739803
2084.000000	99.740212
2083.000000	99.740715
2082.000000	99.741382
2081.000000	99.741933
2080.000000	99.742174
2079.000000	99.742276
2078.000000	99.742518
2077.000000	99.742877
2076.000000	99.743004
2075.000000	99.742614
2074.000000	99.741863
2073.000000	99.741333
2072.000000	99.741564
2071.000000	99.742643
2070.000000	99.744166
2069.000000	99.745593
2068.000000	99.746672
2067.000000	99.747371
2066.000000	99.747505
2065.000000	99.746762
2064.000000	99.745195
2063.000000	99.743458
2062.000000	99.742314
2061.000000	99.741957
2060.000000	99.742008
2059.000000	99.742039
2058.000000	99.741995
2057.000000	99.742026
2056.000000	99.742137
2055.000000	99.742175
2054.000000	99.741974
2053.000000	99.741337
2052.000000	99.740081
2051.000000	99.738322
2050.000000	99.736611
2049.000000	99.735492
2048.000000	99.734967
2047.000000	99.734580
2046.000000	99.733963
2045.000000	99.733113
2044.000000	99.732152
2043.000000	99.731090
2042.000000	99.729953
2041.000000	99.728874
2040.000000	99.727859
2039.000000	99.726671
2038.000000	99.725129
2037.000000	99.723413
2036.000000	99.721941
2035.000000	99.720937
2034.000000	99.720282
2033.000000	99.719674
2032.000000	99.718857
2031.000000	99.717754
2030.000000	99.716447
2029.000000	99.715110
2028.000000	99.713871
2027.000000	99.712690
2026.000000	99.711424
2025.000000	99.710024
2024.000000	99.708598
2023.000000	99.707297
2022.000000	99.706144
2021.000000	99.704995
2020.000000	99.703674
2019.000000	99.702185
2018.000000	99.700739
2017.000000	99.699486
2016.000000	99.698324
2015.000000	99.697031
2014.000000	99.695562
2013.000000	99.694111
2012.000000	99.692822
2011.000000	99.691565
2010.000000	99.690113
2009.000000	99.688502
2008.000000	99.687020
2007.000000	99.685780
2006.000000	99.684533
2005.000000	99.683059
2004.000000	99.681592
2003.000000	99.680584
2002.000000	99.680156
2001.000000	99.679948
2000.000000	99.679443
1999.000000	99.678430
1998.000000	99.677171
1997.000000	99.676155
1996.000000	99.675638
1995.000000	99.675404
1994.000000	99.674972
1993.000000	99.674011
1992.000000	99.672552
1991.000000	99.670903
1990.000000	99.669376
1989.000000	99.668096
1988.000000	99.666964
1987.000000	99.665773
1986.000000	99.664511
1985.000000	99.663529
1984.000000	99.663174
1983.000000	99.663371
1982.000000	99.663633
1981.000000	99.663529
1980.000000	99.663016
1979.000000	99.662286
1978.000000	99.661539
1977.000000	99.660885
1976.000000	99.660342
1975.000000	99.659827
1974.000000	99.659220
1973.000000	99.658498
1972.000000	99.657740
1971.000000	99.656978
1970.000000	99.656148
1969.000000	99.655263
1968.000000	99.654550
1967.000000	99.654255
1966.000000	99.654353
1965.000000	99.654526
1964.000000	99.654435
1963.000000	99.653999
1962.000000	99.653336
1961.000000	99.652642
1960.000000	99.652059
1959.000000	99.651638
1958.000000	99.651367
1957.000000	99.651206
1956.000000	99.651096
1955.000000	99.650939
1954.000000	99.650594
1953.000000	99.650002
1952.000000	99.649332
1951.000000	99.648857
1950.000000	99.648609
1949.000000	99.648298
1948.000000	99.647635
1947.000000	99.646627
1946.000000	99.645495
1945.000000	99.644427
1944.000000	99.643570
1943.000000	99.643136
1942.000000	99.643226
1941.000000	99.643557
1940.000000	99.643700
1939.000000	99.643576
1938.000000	99.643324
1937.000000	99.642795
1936.000000	99.641611
1935.000000	99.639801
1934.000000	99.638036
1933.000000	99.636943
1932.000000	99.636570
1931.000000	99.636672
1930.000000	99.637076
1929.000000	99.637530
1928.000000	99.637424
1927.000000	99.636294
1926.000000	99.634394
1925.000000	99.632293
1924.000000	99.630143
1923.000000	99.627781
1922.000000	99.625530
1921.000000	99.624181
1920.000000	99.624056
1919.000000	99.624561
1918.000000	99.624691
1917.000000	99.623987
1916.000000	99.622630
1915.000000	99.620783
1914.000000	99.618374
1913.000000	99.615397
1912.000000	99.612207
1911.000000	99.609429
1910.000000	99.607564
1909.000000	99.606619
1908.000000	99.605913
1907.000000	99.604675
1906.000000	99.602797
1905.000000	99.600707
1904.000000	99.598577
1903.000000	99.595890
1902.000000	99.592332
1901.000000	99.588751
1900.000000	99.586420
1899.000000	99.585651
1898.000000	99.585623
1897.000000	99.585272
1896.000000	99.583962
1895.000000	99.581471
1894.000000	99.578210
1893.000000	99.575477
1892.000000	99.574624
1891.000000	99.575723
1890.000000	99.577159
1889.000000	99.576951
1888.000000	99.574432
1887.000000	99.570378
1886.000000	99.566383
1885.000000	99.564197
1884.000000	99.564620
1883.000000	99.566511
1882.000000	99.567447
1881.000000	99.566057
1880.000000	99.563195
1879.000000	99.560722
1878.000000	99.559486
1877.000000	99.558722
1876.000000	99.557390
1875.000000	99.555490
1874.000000	99.553760
1873.000000	99.552673
1872.000000	99.552129
1871.000000	99.552056
1870.000000	99.553064
1869.000000	99.555965
1868.000000	99.560079
1867.000000	99.562921
1866.000000	99.563060
1865.000000	99.562012
1864.000000	99.562371
1863.000000	99.565026
1862.000000	99.568702
1861.000000	99.571735
1860.000000	99.573628
1859.000000	99.574911
1858.000000	99.576469
1857.000000	99.579193
1856.000000	99.583221
1855.000000	99.587200
1854.000000	99.589058
1853.000000	99.588275
1852.000000	99.586573
1851.000000	99.586213
1850.000000	99.588160
1849.000000	99.591811
1848.000000	99.595952
1847.000000	99.599460
1846.000000	99.601375
1845.000000	99.601060
1844.000000	99.599167
1843.000000	99.597393
1842.000000	99.596490
1841.000000	99.596044
1840.000000	99.595377
1839.000000	99.594177
1838.000000	99.593013
1837.000000	99.593075
1836.000000	99.595120
1835.000000	99.598481
1834.000000	99.601432
1833.000000	99.602766
1832.000000	99.602545
1831.000000	99.601699
1830.000000	99.601366
1829.000000	99.602186
1828.000000	99.603964
1827.000000	99.606096
1826.000000	99.607790
1825.000000	99.608163
1824.000000	99.607184
1823.000000	99.605855
1822.000000	99.604955
1821.000000	99.604320
1820.000000	99.603429
1819.000000	99.602323
1818.000000	99.601556
1817.000000	99.601484
1816.000000	99.602016
1815.000000	99.602766
1814.000000	99.603375
1813.000000	99.603594
1812.000000	99.603374
1811.000000	99.603060
1810.000000	99.603164
1809.000000	99.604102
1808.000000	99.605996
1807.000000	99.608329
1806.000000	99.610041
1805.000000	99.610316
1804.000000	99.609279
1803.000000	99.607642
1802.000000	99.605954
1801.000000	99.604231
1800.000000	99.602361
1799.000000	99.600575
1798.000000	99.599396
1797.000000	99.599560
1796.000000	99.601630
1795.000000	99.605365
1794.000000	99.609506
1793.000000	99.612115
1792.000000	99.612297
1791.000000	99.611260
1790.000000	99.610448
1789.000000	99.610071
1788.000000	99.609837
1787.000000	99.609711
1786.000000	99.609975
1785.000000	99.610784
1784.000000	99.611885
1783.000000	99.612853
1782.000000	99.613986
1781.000000	99.615965
1780.000000	99.618639
1779.000000	99.620987
1778.000000	99.622199
1777.000000	99.622772
1776.000000	99.623819
1775.000000	99.625786
1774.000000	99.628120
1773.000000	99.629519
1772.000000	99.629542
1771.000000	99.629607
1770.000000	99.630837
1769.000000	99.633095
1768.000000	99.636205
1767.000000	99.640232
1766.000000	99.644854
1765.000000	99.648977
1764.000000	99.651452
1763.000000	99.651894
1762.000000	99.651513
1761.000000	99.652077
1760.000000	99.653649
1759.000000	99.654978
1758.000000	99.655248
1757.000000	99.654921
1756.000000	99.655267
1755.000000	99.657036
1754.000000	99.660010
1753.000000	99.663579
1752.000000	99.666926
1751.000000	99.669399
1750.000000	99.670878
1749.000000	99.671595
1748.000000	99.671893
1747.000000	99.672093
1746.000000	99.672464
1745.000000	99.672938
1744.000000	99.673369
1743.000000	99.674021
1742.000000	99.675243
1741.000000	99.676873
1740.000000	99.678382
1739.000000	99.679448
1738.000000	99.680092
1737.000000	99.680376
1736.000000	99.680343
1735.000000	99.680036
1734.000000	99.680065
1733.000000	99.680953
1732.000000	99.682099
1731.000000	99.682910
1730.000000	99.683352
1729.000000	99.683626
1728.000000	99.684029
1727.000000	99.684728
1726.000000	99.685726
1725.000000	99.686804
1724.000000	99.687635
1723.000000	99.688097
1722.000000	99.688387
1721.000000	99.688806
1720.000000	99.689426
1719.000000	99.689961
1718.000000	99.690017
1717.000000	99.689635
1716.000000	99.689242
1715.000000	99.689065
1714.000000	99.689041
1713.000000	99.689133
1712.000000	99.689334
1711.000000	99.689586
1710.000000	99.689800
1709.000000	99.689942
1708.000000	99.690030
1707.000000	99.690066
1706.000000	99.690036
1705.000000	99.689947
1704.000000	99.689824
1703.000000	99.689670
1702.000000	99.689500
1701.000000	99.689336
1700.000000	99.689188
1699.000000	99.689043
1698.000000	99.688884
1697.000000	99.688708
1696.000000	99.688529
1695.000000	99.688366
1694.000000	99.688225
1693.000000	99.688089
1692.000000	99.687929
1691.000000	99.687721
1690.000000	99.687458
1689.000000	99.687157
1688.000000	99.686841
1687.000000	99.686525
1686.000000	99.686202
1685.000000	99.685857
1684.000000	99.685477
1683.000000	99.685069
1682.000000	99.684655
1681.000000	99.684261
1680.000000	99.683900
1679.000000	99.683567
1678.000000	99.683242
1677.000000	99.682912
1676.000000	99.682582
1675.000000	99.682275
1674.000000	99.682007
1673.000000	99.681771
1672.000000	99.681541
1671.000000	99.681288
1670.000000	99.680998
1669.000000	99.680677
1668.000000	99.680348
1667.000000	99.680029
1666.000000	99.679729
1665.000000	99.679447
1664.000000	99.679178
1663.000000	99.678912
1662.000000	99.678644
1661.000000	99.678376
1660.000000	99.678103
1659.000000	99.677817
1658.000000	99.677508
1657.000000	99.677173
1656.000000	99.676813
1655.000000	99.676433
1654.000000	99.676023
1653.000000	99.675565
1652.000000	99.675050
1651.000000	99.674487
1650.000000	99.673902
1649.000000	99.673323
1648.000000	99.672761
1647.000000	99.672213
1646.000000	99.671670
1645.000000	99.671120
1644.000000	99.670557
1643.000000	99.669987
1642.000000	99.669417
1641.000000	99.668859
1640.000000	99.668332
1639.000000	99.667842
1638.000000	99.667362
1637.000000	99.666823
1636.000000	99.666197
1635.000000	99.665662
1634.000000	99.665404
1633.000000	99.665363
1632.000000	99.665375
1631.000000	99.665237
1630.000000	99.664750
1629.000000	99.663890
1628.000000	99.662829
1627.000000	99.661857
1626.000000	99.661192
1625.000000	99.660908
1624.000000	99.660826
1623.000000	99.660517
1622.000000	99.659824
1621.000000	99.659160
1620.000000	99.658996
1619.000000	99.659377
1618.000000	99.659772
1617.000000	99.659587
1616.000000	99.658958
1615.000000	99.658294
1614.000000	99.657455
1613.000000	99.656246
1612.000000	99.655059
1611.000000	99.654751
1610.000000	99.655787
1609.000000	99.657552
1608.000000	99.658886
1607.000000	99.659220
1606.000000	99.658973
1605.000000	99.658953
1604.000000	99.659616
1603.000000	99.660966
1602.000000	99.662598
1601.000000	99.663919
1600.000000	99.664621
1599.000000	99.665056
1598.000000	99.665895
1597.000000	99.667398
1596.000000	99.669146
1595.000000	99.670442
1594.000000	99.670983
1593.000000	99.671127
1592.000000	99.671455
1591.000000	99.672152
1590.000000	99.672940
1589.000000	99.673679
1588.000000	99.674750
1587.000000	99.676598
1586.000000	99.678956
1585.000000	99.680909
1584.000000	99.681787
1583.000000	99.681821
1582.000000	99.681804
1581.000000	99.682088
1580.000000	99.682350
1579.000000	99.682340
1578.000000	99.682319
1577.000000	99.682712
1576.000000	99.683632
1575.000000	99.684724
1574.000000	99.685601
1573.000000	99.686166
1572.000000	99.686392
1571.000000	99.686286
1570.000000	99.686103
1569.000000	99.686240
1568.000000	99.686704
1567.000000	99.687220
1566.000000	99.687613
1565.000000	99.687872
1564.000000	99.688019
1563.000000	99.688081
1562.000000	99.688024
1561.000000	99.687864
1560.000000	99.687543
1559.000000	99.687227
1558.000000	99.687341
1557.000000	99.687602
1556.000000	99.687575
1555.000000	99.687424
1554.000000	99.687291
1553.000000	99.687218
1552.000000	99.687110
1551.000000	99.686863
1550.000000	99.686447
1549.000000	99.685887
1548.000000	99.685296
1547.000000	99.684784
1546.000000	99.684428
1545.000000	99.684155
1544.000000	99.683785
1543.000000	99.683254
1542.000000	99.682616
1541.000000	99.681792
1540.000000	99.680761
1539.000000	99.679838
1538.000000	99.679098
1537.000000	99.678370
1536.000000	99.677581
1535.000000	99.676574
1534.000000	99.675351
1533.000000	99.674189
1532.000000	99.673240
1531.000000	99.672403
1530.000000	99.671653
1529.000000	99.671071
1528.000000	99.670683
1527.000000	99.670410
1526.000000	99.670129
1525.000000	99.669683
1524.000000	99.668934
1523.000000	99.667850
1522.000000	99.666610
1521.000000	99.665706
1520.000000	99.665397
1519.000000	99.665413
1518.000000	99.665388
1517.000000	99.665081
1516.000000	99.664539
1515.000000	99.664080
1514.000000	99.663956
1513.000000	99.664218
1512.000000	99.664678
1511.000000	99.665037
1510.000000	99.665002
1509.000000	99.664351
1508.000000	99.662898
1507.000000	99.661494
1506.000000	99.661811
1505.000000	99.663587
1504.000000	99.665131
1503.000000	99.666115
1502.000000	99.666845
1501.000000	99.667755
1500.000000	99.669221
1499.000000	99.671160
1498.000000	99.673159
1497.000000	99.674871
1496.000000	99.676220
1495.000000	99.677158
1494.000000	99.677717
1493.000000	99.678221
1492.000000	99.679077
1491.000000	99.680280
1490.000000	99.681311
1489.000000	99.682088
1488.000000	99.683452
1487.000000	99.685921
1486.000000	99.688845
1485.000000	99.691199
1484.000000	99.692597
1483.000000	99.693445
1482.000000	99.694351
1481.000000	99.695501
1480.000000	99.696753
1479.000000	99.698093
1478.000000	99.699763
1477.000000	99.701818
1476.000000	99.703958
1475.000000	99.705768
1474.000000	99.707158
1473.000000	99.708223
1472.000000	99.708831
1471.000000	99.708522
1470.000000	99.707185
1469.000000	99.706025
1468.000000	99.706820
1467.000000	99.710307
1466.000000	99.715005
1465.000000	99.717963
1464.000000	99.717781
1463.000000	99.715937
1462.000000	99.714401
1461.000000	99.713521
1460.000000	99.712512
1459.000000	99.711193
1458.000000	99.710860
1457.000000	99.713283
1456.000000	99.717466
1455.000000	99.720343
1454.000000	99.721832
1453.000000	99.722640
1452.000000	99.722209
1451.000000	99.720572
1450.000000	99.717663
1449.000000	99.712506
1448.000000	99.705275
1447.000000	99.698765
1446.000000	99.696001
1445.000000	99.696929
1444.000000	99.698777
1443.000000	99.698973
1442.000000	99.697107
1441.000000	99.694877
1440.000000	99.694170
1439.000000	99.695829
1438.000000	99.699107
1437.000000	99.701655
1436.000000	99.701449
1435.000000	99.698907
1434.000000	99.695992
1433.000000	99.694525
1432.000000	99.695530
1431.000000	99.698943
1430.000000	99.703509
1429.000000	99.707832
1428.000000	99.711882
1427.000000	99.716123
1426.000000	99.720350
1425.000000	99.723566
1424.000000	99.725017
1423.000000	99.725160
1422.000000	99.724377
1421.000000	99.722262
1420.000000	99.718742
1419.000000	99.715903
1418.000000	99.716324
1417.000000	99.719502
1416.000000	99.723472
1415.000000	99.727218
1414.000000	99.730280
1413.000000	99.732258
1412.000000	99.733298
1411.000000	99.734455
1410.000000	99.736632
1409.000000	99.739436
1408.000000	99.741723
1407.000000	99.742736
1406.000000	99.742591
1405.000000	99.742133
1404.000000	99.742453
1403.000000	99.744060
1402.000000	99.746499
1401.000000	99.748841
1400.000000	99.750442
1399.000000	99.751553
1398.000000	99.752911
1397.000000	99.754656
1396.000000	99.756260
1395.000000	99.757291
1394.000000	99.757852
1393.000000	99.758203
1392.000000	99.758427
1391.000000	99.758661
1390.000000	99.759198
1389.000000	99.760246
1388.000000	99.761701
1387.000000	99.763151
1386.000000	99.764242
1385.000000	99.765012
1384.000000	99.765764
1383.000000	99.766825
1382.000000	99.768295
1381.000000	99.769816
1380.000000	99.770728
1379.000000	99.770678
1378.000000	99.769955
1377.000000	99.769255
1376.000000	99.769047
1375.000000	99.769310
1374.000000	99.769784
1373.000000	99.770240
1372.000000	99.770610
1371.000000	99.770979
1370.000000	99.771479
1369.000000	99.772119
1368.000000	99.772722
1367.000000	99.773077
1366.000000	99.773093
1365.000000	99.772801
1364.000000	99.772287
1363.000000	99.771769
1362.000000	99.771590
1361.000000	99.771904
1360.000000	99.772521
1359.000000	99.773096
1358.000000	99.773419
1357.000000	99.773527
1356.000000	99.773624
1355.000000	99.773884
1354.000000	99.774253
1353.000000	99.774475
1352.000000	99.774323
1351.000000	99.773740
1350.000000	99.772862
1349.000000	99.772018
1348.000000	99.771597
1347.000000	99.771850
1346.000000	99.772681
1345.000000	99.773591
1344.000000	99.774057
1343.000000	99.773986
1342.000000	99.773711
1341.000000	99.773649
1340.000000	99.773910
1339.000000	99.774233
1338.000000	99.774264
1337.000000	99.773862
1336.000000	99.773189
1335.000000	99.772665
1334.000000	99.772708
1333.000000	99.773413
1332.000000	99.774373
1331.000000	99.774913
1330.000000	99.774667
1329.000000	99.773870
1328.000000	99.773220
1327.000000	99.773326
1326.000000	99.774250
1325.000000	99.775419
1324.000000	99.775996
1323.000000	99.775520
1322.000000	99.774201
1321.000000	99.772737
1320.000000	99.771822
1319.000000	99.771738
1318.000000	99.772158
1317.000000	99.772325
1316.000000	99.771752
1315.000000	99.770779
1314.000000	99.770273
1313.000000	99.770617
1312.000000	99.771087
1311.000000	99.770528
1310.000000	99.768533
1309.000000	99.765664
1308.000000	99.762889
1307.000000	99.760797
1306.000000	99.759429
1305.000000	99.758448
1304.000000	99.757259
1303.000000	99.755343
1302.000000	99.752746
1301.000000	99.750254
1300.000000	99.748772
1299.000000	99.748456
1298.000000	99.748451
1297.000000	99.747539
1296.000000	99.745153
1295.000000	99.741726
1294.000000	99.738250
1293.000000	99.735454
1292.000000	99.733397
1291.000000	99.731573
1290.000000	99.729249
1289.000000	99.726004
1288.000000	99.722279
1287.000000	99.719358
1286.000000	99.718268
1285.000000	99.718502
1284.000000	99.718008
1283.000000	99.715044
1282.000000	99.710120
1281.000000	99.705837
1280.000000	99.704451
1279.000000	99.705598
1278.000000	99.706724
1277.000000	99.705899
1276.000000	99.703678
1275.000000	99.701680
1274.000000	99.700106
1273.000000	99.698221
1272.000000	99.696758
1271.000000	99.697057
1270.000000	99.697083
1269.000000	99.691886
1268.000000	99.680535
1267.000000	99.669958
1266.000000	99.667727
1265.000000	99.672248
1264.000000	99.674682
1263.000000	99.670329
1262.000000	99.663147
1261.000000	99.658245
1260.000000	99.654739
1259.000000	99.648870
1258.000000	99.640352
1257.000000	99.631680
1256.000000	99.623093
1255.000000	99.611840
1254.000000	99.596139
1253.000000	99.577789
1252.000000	99.560657
1251.000000	99.547559
1250.000000	99.538708
1249.000000	99.532928
1248.000000	99.530127
1247.000000	99.531391
1246.000000	99.535688
1245.000000	99.538100
1244.000000	99.533792
1243.000000	99.523275
1242.000000	99.511420
1241.000000	99.501680
1240.000000	99.493862
1239.000000	99.487029
1238.000000	99.481047
1237.000000	99.474871
1236.000000	99.467028
1235.000000	99.459146
1234.000000	99.455403
1233.000000	99.455811
1232.000000	99.452537
1231.000000	99.436309
1230.000000	99.406102
1229.000000	99.371038
1228.000000	99.343254
1227.000000	99.329118
1226.000000	99.325738
1225.000000	99.324179
1224.000000	99.315679
1223.000000	99.295442
1222.000000	99.262734
1221.000000	99.220588
1220.000000	99.176555
1219.000000	99.139883
1218.000000	99.112888
1217.000000	99.086394
1216.000000	99.048843
1215.000000	99.000057
1214.000000	98.951707
1213.000000	98.913141
1212.000000	98.881258
1211.000000	98.846629
1210.000000	98.805146
1209.000000	98.760247
1208.000000	98.716989
1207.000000	98.678299
1206.000000	98.645570
1205.000000	98.618532
1204.000000	98.593367
1203.000000	98.563381
1202.000000	98.524101
1201.000000	98.478352
1200.000000	98.435485
1199.000000	98.403954
1198.000000	98.383642
1197.000000	98.365963
1196.000000	98.342356
1195.000000	98.311825
1194.000000	98.279301
1193.000000	98.248847
1192.000000	98.220710
1191.000000	98.193062
1190.000000	98.163065
1189.000000	98.127334
1188.000000	98.086019
1187.000000	98.047229
1186.000000	98.022244
1185.000000	98.013202
1184.000000	98.007806
1183.000000	97.989860
1182.000000	97.954575
1181.000000	97.910857
1180.000000	97.870076
1179.000000	97.834925
1178.000000	97.799809
1177.000000	97.759212
1176.000000	97.713269
1175.000000	97.665972
1174.000000	97.620350
1173.000000	97.577023
1172.000000	97.536664
1171.000000	97.500733
1170.000000	97.467911
1169.000000	97.432271
1168.000000	97.389041
1167.000000	97.342107
1166.000000	97.302031
1165.000000	97.275553
1164.000000	97.260071
1163.000000	97.249003
1162.000000	97.239946
1161.000000	97.235144
1160.000000	97.235616
1159.000000	97.238589
1158.000000	97.240266
1157.000000	97.237656
1156.000000	97.226728
1155.000000	97.202254
1154.000000	97.163080
1153.000000	97.116967
1152.000000	97.076609
1151.000000	97.047779
1150.000000	97.022411
1149.000000	96.986587
1148.000000	96.935633
1147.000000	96.879297
1146.000000	96.831370
1145.000000	96.795815
1144.000000	96.765518
1143.000000	96.732202
1142.000000	96.693764
1141.000000	96.652782
1140.000000	96.612686
1139.000000	96.576984
1138.000000	96.547811
1137.000000	96.521582
1136.000000	96.488316
1135.000000	96.439856
1134.000000	96.379234
1133.000000	96.318916
1132.000000	96.268596
1131.000000	96.226967
1130.000000	96.186884
1129.000000	96.145318
1128.000000	96.104365
1127.000000	96.064504
1126.000000	96.023400
1125.000000	95.982929
1124.000000	95.950510
1123.000000	95.927673
1122.000000	95.901316
1121.000000	95.854644
1120.000000	95.786890
1119.000000	95.715808
1118.000000	95.657913
1117.000000	95.611570
1116.000000	95.563993
1115.000000	95.509771
1114.000000	95.456424
1113.000000	95.413917
1112.000000	95.385456
1111.000000	95.368072
1110.000000	95.355427
1109.000000	95.337828
1108.000000	95.304475
1107.000000	95.251532
1106.000000	95.188782
1105.000000	95.134723
1104.000000	95.102162
1103.000000	95.088005
1102.000000	95.076553
1101.000000	95.053666
1100.000000	95.018283
1099.000000	94.981055
1098.000000	94.954675
1097.000000	94.946439
1096.000000	94.955461
1095.000000	94.970826
1094.000000	94.973735
1093.000000	94.949449
1092.000000	94.901125
1091.000000	94.848850
1090.000000	94.810861
1089.000000	94.786796
1088.000000	94.762289
1087.000000	94.728250
1086.000000	94.692231
1085.000000	94.670601
1084.000000	94.671879
1083.000000	94.688296
1082.000000	94.702155
1081.000000	94.699467
1080.000000	94.676781
1079.000000	94.637627
1078.000000	94.588277
1077.000000	94.538846
1076.000000	94.502202
1075.000000	94.484159
1074.000000	94.475832
1073.000000	94.462441
1072.000000	94.439436
1071.000000	94.412899
1070.000000	94.383543
1069.000000	94.339018
1068.000000	94.266565
1067.000000	94.167507
1066.000000	94.055161
1065.000000	93.943140
1064.000000	93.840632
1063.000000	93.753865
1062.000000	93.683391
1061.000000	93.620854
1060.000000	93.555680
1059.000000	93.486864
1058.000000	93.424498
1057.000000	93.377895
1056.000000	93.343732
1055.000000	93.306796
1054.000000	93.253234
1053.000000	93.184655
1052.000000	93.117867
1051.000000	93.066715
1050.000000	93.024109
1049.000000	92.967295
1048.000000	92.880987
1047.000000	92.769366
1046.000000	92.646987
1045.000000	92.527246
1044.000000	92.421803
1043.000000	92.340357
1042.000000	92.281187
1041.000000	92.225350
1040.000000	92.149637
1039.000000	92.048148
1038.000000	91.937638
1037.000000	91.840226
1036.000000	91.763521
1035.000000	91.698146
1034.000000	91.632125
1033.000000	91.565990
1032.000000	91.512588
1031.000000	91.483058
1030.000000	91.476320
1029.000000	91.482840
1028.000000	91.493965
1027.000000	91.503782
1026.000000	91.506703
1025.000000	91.500379
1024.000000	91.489327
1023.000000	91.479491
1022.000000	91.469908
1021.000000	91.454861
1020.000000	91.432793
1019.000000	91.406900
1018.000000	91.378264
1017.000000	91.346454
1016.000000	91.318033
1015.000000	91.306224
1014.000000	91.316933
1013.000000	91.338370
1012.000000	91.348367
1011.000000	91.332681
1010.000000	91.297062
1009.000000	91.261841
1008.000000	91.242453
1007.000000	91.234312
1006.000000	91.220609
1005.000000	91.196841
1004.000000	91.180589
1003.000000	91.191565
1002.000000	91.229020
1001.000000	91.276409
1000.000000	91.322132
999.000000	91.365061
998.000000	91.404145
997.000000	91.436479
996.000000	91.465838
995.000000	91.500769
994.000000	91.541362
993.000000	91.577761
992.000000	91.605494
991.000000	91.633798
990.000000	91.674310
989.000000	91.728251
988.000000	91.788409
987.000000	91.847839
986.000000	91.903166
985.000000	91.954418
984.000000	92.005946
983.000000	92.064450
982.000000	92.132485
981.000000	92.205199
980.000000	92.275204
979.000000	92.340707
978.000000	92.410021
977.000000	92.498433
976.000000	92.616624
975.000000	92.758022
974.000000	92.899768
973.000000	93.021211
972.000000	93.120174
971.000000	93.208773
970.000000	93.298547
969.000000	93.394474
968.000000	93.497962
967.000000	93.607513
966.000000	93.718397
965.000000	93.828029
964.000000	93.939664
963.000000	94.055206
962.000000	94.168070
961.000000	94.271065
960.000000	94.368547
959.000000	94.471758
958.000000	94.582759
957.000000	94.691623
956.000000	94.789786
955.000000	94.877274
954.000000	94.955104
953.000000	95.019011
952.000000	95.065182
951.000000	95.097314
950.000000	95.124097
949.000000	95.152555
948.000000	95.186194
947.000000	95.226487
946.000000	95.273611
945.000000	95.327742
944.000000	95.390262
943.000000	95.460535
942.000000	95.530755
941.000000	95.587335
940.000000	95.619015
939.000000	95.623230
938.000000	95.606853
937.000000	95.583560
936.000000	95.568517
935.000000	95.570798
934.000000	95.589799
933.000000	95.620601
932.000000	95.660248
931.000000	95.705159
930.000000	95.746791
929.000000	95.777860
928.000000	95.801183
927.000000	95.823917
926.000000	95.843545
925.000000	95.849703
924.000000	95.842379
923.000000	95.838051
922.000000	95.850968
921.000000	95.875087
920.000000	95.891698
919.000000	95.890664
918.000000	95.878349
917.000000	95.868720
916.000000	95.873657
915.000000	95.898981
914.000000	95.941105
913.000000	95.986415
912.000000	96.020236
911.000000	96.040086
910.000000	96.058544
909.000000	96.091777
908.000000	96.145890
907.000000	96.213173
906.000000	96.280078
905.000000	96.341356
904.000000	96.408081
903.000000	96.498670
902.000000	96.618652
901.000000	96.750248
900.000000	96.865566
899.000000	96.950355
898.000000	97.011428
897.000000	97.062824
896.000000	97.112019
895.000000	97.162330
894.000000	97.220873
893.000000	97.294611
892.000000	97.379498
891.000000	97.461983
890.000000	97.534129
889.000000	97.601048
888.000000	97.669657
887.000000	97.735875
886.000000	97.789096
885.000000	97.825416
884.000000	97.849337
883.000000	97.865015
882.000000	97.874661
881.000000	97.886376
880.000000	97.914386
879.000000	97.965854
878.000000	98.032005
877.000000	98.097144
876.000000	98.153380
875.000000	98.202424
874.000000	98.246638
873.000000	98.284822
872.000000	98.317077
871.000000	98.349243
870.000000	98.389242
869.000000	98.438212
868.000000	98.486346
867.000000	98.520804
866.000000	98.540544
865.000000	98.560601
864.000000	98.596374
863.000000	98.644861
862.000000	98.688438
861.000000	98.718611
860.000000	98.748235
859.000000	98.796053
858.000000	98.864935
857.000000	98.940413
856.000000	99.005088
855.000000	99.047477
854.000000	99.062275
853.000000	99.052977
852.000000	99.033938
851.000000	99.021188
850.000000	99.018980
849.000000	99.020729
848.000000	99.022601
847.000000	99.028549
846.000000	99.040805
845.000000	99.053673
844.000000	99.061348
843.000000	99.066614
842.000000	99.077041
841.000000	99.094274
840.000000	99.109065
839.000000	99.105254
838.000000	99.069231
837.000000	99.000431
836.000000	98.914744
835.000000	98.834853
834.000000	98.776622
833.000000	98.747561
832.000000	98.754134
831.000000	98.798301
830.000000	98.863843
829.000000	98.919965
828.000000	98.949531
827.000000	98.964687
826.000000	98.981937
825.000000	98.990420
824.000000	98.964344
823.000000	98.904107
822.000000	98.842958
821.000000	98.808549
820.000000	98.798205
819.000000	98.798832
818.000000	98.811468
817.000000	98.842315
816.000000	98.878506
815.000000	98.888783
814.000000	98.851619
813.000000	98.774158
812.000000	98.678161
811.000000	98.571562
810.000000	98.439527
809.000000	98.262300
808.000000	98.036255
807.000000	97.776350
806.000000	97.503860
805.000000	97.238991
804.000000	97.003363
803.000000	96.815303
802.000000	96.672349
801.000000	96.546665
800.000000	96.412902
799.000000	96.280683
798.000000	96.187262
797.000000	96.156766
796.000000	96.177386
795.000000	96.219792
794.000000	96.266799
793.000000	96.317417
792.000000	96.370948
791.000000	96.422084
790.000000	96.471102
789.000000	96.524233
788.000000	96.575655
787.000000	96.596854
786.000000	96.555933
785.000000	96.449163
784.000000	96.307846
783.000000	96.173089
782.000000	96.067507
781.000000	95.990957
780.000000	95.936357
779.000000	95.903569
778.000000	95.899446
777.000000	95.930986
776.000000	96.002070
775.000000	96.112912
774.000000	96.256787
773.000000	96.415711
772.000000	96.563217
771.000000	96.677683
770.000000	96.755690
769.000000	96.810055
768.000000	96.854581
767.000000	96.895414
766.000000	96.937156
765.000000	96.986793
764.000000	97.043062
763.000000	97.089867
762.000000	97.115228
761.000000	97.136074
760.000000	97.188244
759.000000	97.284930
758.000000	97.395594
757.000000	97.475078
756.000000	97.506298
755.000000	97.505360
754.000000	97.494179
753.000000	97.482777
752.000000	97.476861
751.000000	97.485500
750.000000	97.510789
749.000000	97.537781
748.000000	97.547871
747.000000	97.544703
746.000000	97.558668
745.000000	97.618759
744.000000	97.721680
743.000000	97.831736
742.000000	97.912166
741.000000	97.953217
740.000000	97.967479
739.000000	97.968244
738.000000	97.962328
737.000000	97.959401
736.000000	97.973204
735.000000	98.006602
734.000000	98.044391
733.000000	98.071108
732.000000	98.092520
731.000000	98.129243
730.000000	98.190285
729.000000	98.262842
728.000000	98.328008
727.000000	98.375231
726.000000	98.399298
725.000000	98.397602
724.000000	98.379723
723.000000	98.371295
722.000000	98.396909
721.000000	98.457914
720.000000	98.530778
719.000000	98.589887
718.000000	98.629827
717.000000	98.663357
716.000000	98.704263
715.000000	98.754991
714.000000	98.806051
713.000000	98.844248
712.000000	98.859851
711.000000	98.847042
710.000000	98.805643
709.000000	98.748504
708.000000	98.702343
707.000000	98.689077
706.000000	98.702105
705.000000	98.710892
704.000000	98.694814
703.000000	98.661562
702.000000	98.623249
701.000000	98.566074
700.000000	98.460980
699.000000	98.302543
698.000000	98.122640
697.000000	97.961968
696.000000	97.840295
695.000000	97.760220
694.000000	97.726264
693.000000	97.745584
692.000000	97.812822
691.000000	97.907540
690.000000	98.009228
689.000000	98.106665
688.000000	98.189914
687.000000	98.243888
686.000000	98.262072
685.000000	98.263510
684.000000	98.284180
683.000000	98.345438
682.000000	98.432186
681.000000	98.503964
680.000000	98.530247
679.000000	98.514443
678.000000	98.483650
677.000000	98.464626
676.000000	98.473772
675.000000	98.521342
674.000000	98.608007
673.000000	98.712963
672.000000	98.799662
671.000000	98.844035
670.000000	98.850062
669.000000	98.847808
668.000000	98.871076
667.000000	98.915697
666.000000	98.967005
665.000000	99.017330
664.000000	99.054798
663.000000	99.069838
662.000000	99.059937
661.000000	99.035472
660.000000	99.017154
659.000000	99.024728
658.000000	99.064883
657.000000	99.125590
656.000000	99.186646
655.000000	99.236173
654.000000	99.276263
653.000000	99.313336
652.000000	99.345149
651.000000	99.360115
650.000000	99.347406
