4000.000000	99.833292
3999.000000	99.832796
3998.000000	99.832263
3997.000000	99.831675
3996.000000	99.831042
3995.000000	99.830394
3994.000000	99.829751
3993.000000	99.829114
3992.000000	99.828476
3991.000000	99.827827
3990.000000	99.827166
3989.000000	99.826508
3988.000000	99.825884
3987.000000	99.825324
3986.000000	99.824840
3985.000000	99.824410
3984.000000	99.823991
3983.000000	99.823544
3982.000000	99.823060
3981.000000	99.822565
3980.000000	99.822113
3979.000000	99.821751
3978.000000	99.821501
3977.000000	99.821353
3976.000000	99.821270
3975.000000	99.821212
3974.000000	99.821159
3973.000000	99.821117
3972.000000	99.821114
3971.000000	99.821184
3970.000000	99.821342
3969.000000	99.821578
3968.000000	99.821870
3967.000000	99.822197
3966.000000	99.822553
3965.000000	99.822946
3964.000000	99.823391
3963.000000	99.823899
3962.000000	99.824465
3961.000000	99.825059
3960.000000	99.825637
3959.000000	99.826170
3958.000000	99.826660
3957.000000	99.827132
3956.000000	99.827620
3955.000000	99.828134
3954.000000	99.828666
3953.000000	99.829194
3952.000000	99.829708
3951.000000	99.830219
3950.000000	99.830756
3949.000000	99.831340
3948.000000	99.831962
3947.000000	99.832577
3946.000000	99.833123
3945.000000	99.833551
3944.000000	99.833854
3943.000000	99.834064
3942.000000	99.834221
3941.000000	99.834346
3940.000000	99.834431
3939.000000	99.834454
3938.000000	99.834389
3937.000000	99.834227
3936.000000	99.833975
3935.000000	99.833651
3934.000000	99.833269
3933.000000	99.832818
3932.000000	99.832266
3931.000000	99.831579
3930.000000	99.830739
3929.000000	99.829747
3928.000000	99.828598
3927.000000	99.827269
3926.000000	99.825716
3925.000000	99.823908
3924.000000	99.821863
3923.000000	99.819649
3922.000000	99.817358
3921.000000	99.815045
3920.000000	99.812703
3919.000000	99.810283
3918.000000	99.807740
3917.000000	99.805069
3916.000000	99.802299
3915.000000	99.799458
3914.000000	99.796542
3913.000000	99.793515
3912.000000	99.790351
3911.000000	99.787065
3910.000000	99.783715
3909.000000	99.780374
3908.000000	99.777087
3907.000000	99.773855
3906.000000	99.770638
3905.000000	99.767396
3904.000000	99.764136
3903.000000	99.760930
3902.000000	99.757872
3901.000000	99.755026
3900.000000	99.752437
3899.000000	99.750109
3898.000000	99.747996
3897.000000	99.746078
3896.000000	99.744411
3895.000000	99.743098
3894.000000	99.742182
3893.000000	99.741604
3892.000000	99.741182
3891.000000	99.740737
3890.000000	99.740216
3889.000000	99.739661
3888.000000	99.739271
3887.000000	99.739370
3886.000000	99.740147
3885.000000	99.741235
3884.000000	99.741971
3883.000000	99.742347
3882.000000	99.743356
3881.000000	99.746096
3880.000000	99.750755
3879.000000	99.755946
3878.000000	99.759644
3877.000000	99.760823
3876.000000	99.760003
3875.000000	99.759253
3874.000000	99.760320
3873.000000	99.762791
3872.000000	99.764931
3871.000000	99.766450
3870.000000	99.769253
3869.000000	99.774686
3868.000000	99.781536
3867.000000	99.788079
3866.000000	99.793761
3865.000000	99.797885
3864.000000	99.799415
3863.000000	99.799062
3862.000000	99.799823
3861.000000	99.804344
3860.000000	99.811811
3859.000000	99.818590
3858.000000	99.821354
3857.000000	99.819891
3856.000000	99.817636
3855.000000	99.819414
3854.000000	99.826224
3853.000000	99.832212
3852.000000	99.831416
3851.000000	99.826134
3850.000000	99.824245
3849.000000	99.829678
3848.000000	99.839430
3847.000000	99.847346
3846.000000	99.848481
3845.000000	99.840738
3844.000000	99.825634
3843.000000	99.808418
3842.000000	99.794916
3841.000000	99.787941
3840.000000	99.785935
3839.000000	99.784707
3838.000000	99.781816
3837.000000	99.779124
3836.000000	99.779506
3835.000000	99.782771
3834.000000	99.785584
3833.000000	99.784275
3832.000000	99.777425
3831.000000	99.766485
3830.000000	99.754757
3829.000000	99.745926
3828.000000	99.742256
3827.000000	99.742944
3826.000000	99.743828
3825.000000	99.740452
3824.000000	99.732514
3823.000000	99.725350
3822.000000	99.725626
3821.000000	99.734270
3820.000000	99.743906
3819.000000	99.746723
3818.000000	99.742636
3817.000000	99.736591
3816.000000	99.733055
3815.000000	99.732328
3814.000000	99.731762
3813.000000	99.730472
3812.000000	99.729449
3811.000000	99.728331
3810.000000	99.726330
3809.000000	99.725360
3808.000000	99.729380
3807.000000	99.739473
3806.000000	99.750349
3805.000000	99.755336
3804.000000	99.753671
3803.000000	99.750188
3802.000000	99.750837
3801.000000	99.757742
3800.000000	99.766879
3799.000000	99.773909
3798.000000	99.779549
3797.000000	99.785276
3796.000000	99.790148
3795.000000	99.792847
3794.000000	99.794363
3793.000000	99.797405
3792.000000	99.802937
3791.000000	99.808636
3790.000000	99.811817
3789.000000	99.812738
3788.000000	99.814351
3787.000000	99.819538
3786.000000	99.828910
3785.000000	99.839945
3784.000000	99.847878
3783.000000	99.848484
3782.000000	99.841402
3781.000000	99.830962
3780.000000	99.822460
3779.000000	99.817975
3778.000000	99.815821
3777.000000	99.814613
3776.000000	99.816048
3775.000000	99.821947
3774.000000	99.829897
3773.000000	99.834563
3772.000000	99.832803
3771.000000	99.825886
3770.000000	99.816587
3769.000000	99.805485
3768.000000	99.791569
3767.000000	99.776141
3766.000000	99.763228
3765.000000	99.756259
3764.000000	99.755628
3763.000000	99.760236
3762.000000	99.769430
3761.000000	99.780396
3760.000000	99.786581
3759.000000	99.782733
3758.000000	99.770008
3757.000000	99.754191
3756.000000	99.740177
3755.000000	99.730580
3754.000000	99.726621
3753.000000	99.726948
3752.000000	99.727978
3751.000000	99.728392
3750.000000	99.730656
3749.000000	99.734739
3748.000000	99.736230
3747.000000	99.733058
3746.000000	99.727746
3745.000000	99.723593
3744.000000	99.721079
3743.000000	99.716741
3742.000000	99.709882
3741.000000	99.705050
3740.000000	99.703848
3739.000000	99.703429
3738.000000	99.701374
3737.000000	99.698488
3736.000000	99.696932
3735.000000	99.696864
3734.000000	99.696729
3733.000000	99.695696
3732.000000	99.694025
3731.000000	99.691852
3730.000000	99.689280
3729.000000	99.686992
3728.000000	99.685634
3727.000000	99.684845
3726.000000	99.683530
3725.000000	99.681249
3724.000000	99.679091
3723.000000	99.678450
3722.000000	99.679203
3721.000000	99.679902
3720.000000	99.679315
3719.000000	99.677417
3718.000000	99.674939
3717.000000	99.672415
3716.000000	99.670095
3715.000000	99.668657
3714.000000	99.668651
3713.000000	99.668694
3712.000000	99.665922
3711.000000	99.659480
3710.000000	99.652115
3709.000000	99.647301
3708.000000	99.646089
3707.000000	99.647116
3706.000000	99.648151
3705.000000	99.647587
3704.000000	99.645086
3703.000000	99.641696
3702.000000	99.639494
3701.000000	99.639873
3700.000000	99.641618
3699.000000	99.641963
3698.000000	99.639590
3697.000000	99.635482
3696.000000	99.631596
3695.000000	99.629820
3694.000000	99.631652
3693.000000	99.637109
3692.000000	99.643405
3691.000000	99.646317
3690.000000	99.643988
3689.000000	99.639045
3688.000000	99.635374
3687.000000	99.633253
3686.000000	99.631016
3685.000000	99.628415
3684.000000	99.624996
3683.000000	99.619314
3682.000000	99.611776
3681.000000	99.605845
3680.000000	99.604485
3679.000000	99.605638
3678.000000	99.603810
3677.000000	99.595729
3676.000000	99.583878
3675.000000	99.573918
3674.000000	99.567176
3673.000000	99.562445
3672.000000	99.560688
3671.000000	99.560918
3670.000000	99.558820
3669.000000	99.551219
3668.000000	99.538882
3667.000000	99.525901
3666.000000	99.515822
3665.000000	99.509344
3664.000000	99.505254
3663.000000	99.501744
3662.000000	99.497355
3661.000000	99.491521
3660.000000	99.484625
3659.000000	99.477658
3658.000000	99.471860
3657.000000	99.467765
3656.000000	99.464331
3655.000000	99.458919
3654.000000	99.449951
3653.000000	99.439142
3652.000000	99.429145
3651.000000	99.420450
3650.000000	99.412086
3649.000000	99.403661
3648.000000	99.395948
3647.000000	99.389877
3646.000000	99.385394
3645.000000	99.382174
3644.000000	99.380320
3643.000000	99.379717
3642.000000	99.379364
3641.000000	99.378018
3640.000000	99.375020
3639.000000	99.370367
3638.000000	99.364365
3637.000000	99.357755
3636.000000	99.352252
3635.000000	99.349406
3634.000000	99.348350
3633.000000	99.345764
3632.000000	99.339159
3631.000000	99.329586
3630.000000	99.321165
3629.000000	99.317840
3628.000000	99.319249
3627.000000	99.321868
3626.000000	99.323827
3625.000000	99.324929
3624.000000	99.324645
3623.000000	99.322967
3622.000000	99.321456
3621.000000	99.322120
3620.000000	99.325113
3619.000000	99.328404
3618.000000	99.330117
3617.000000	99.330499
3616.000000	99.331163
3615.000000	99.333350
3614.000000	99.336987
3613.000000	99.341072
3612.000000	99.344571
3611.000000	99.347145
3610.000000	99.349143
3609.000000	99.351130
3608.000000	99.353539
3607.000000	99.356369
3606.000000	99.359359
3605.000000	99.362257
3604.000000	99.364947
3603.000000	99.367472
3602.000000	99.369915
3601.000000	99.372344
3600.000000	99.374786
3599.000000	99.377232
3598.000000	99.379635
3597.000000	99.381929
3596.000000	99.384079
3595.000000	99.386108
3594.000000	99.388073
3593.000000	99.390022
3592.000000	99.391949
3591.000000	99.393803
3590.000000	99.395532
3589.000000	99.397121
3588.000000	99.398617
3587.000000	99.400084
3586.000000	99.401555
3585.000000	99.402995
3584.000000	99.404330
3583.000000	99.405494
3582.000000	99.406480
3581.000000	99.407331
3580.000000	99.408103
3579.000000	99.408816
3578.000000	99.409438
3577.000000	99.409922
3576.000000	99.410243
3575.000000	99.410417
3574.000000	99.410488
3573.000000	99.410486
3572.000000	99.410407
3571.000000	99.410209
3570.000000	99.409855
3569.000000	99.409356
3568.000000	99.408786
3567.000000	99.408254
3566.000000	99.407843
3565.000000	99.407563
3564.000000	99.407368
3563.000000	99.407205
3562.000000	99.407058
3561.000000	99.406949
3560.000000	99.406917
3559.000000	99.406971
3558.000000	99.407073
3557.000000	99.407166
3556.000000	99.407216
3555.000000	99.407250
3554.000000	99.407339
3553.000000	99.407547
3552.000000	99.407885
3551.000000	99.408308
3550.000000	99.408761
3549.000000	99.409238
3548.000000	99.409784
3547.000000	99.410462
3546.000000	99.411288
3545.000000	99.412214
3544.000000	99.413157
3543.000000	99.414062
3542.000000	99.414941
3541.000000	99.415858
3540.000000	99.416874
3539.000000	99.418002
3538.000000	99.419204
3537.000000	99.420421
3536.000000	99.421620
3535.000000	99.422818
3534.000000	99.424062
3533.000000	99.425392
3532.000000	99.426807
3531.000000	99.428266
3530.000000	99.429723
3529.000000	99.431175
3528.000000	99.432664
3527.000000	99.434250
3526.000000	99.435948
3525.000000	99.437707
3524.000000	99.439435
3523.000000	99.441054
3522.000000	99.442557
3521.000000	99.443993
3520.000000	99.445430
3519.000000	99.446900
3518.000000	99.448380
3517.000000	99.449812
3516.000000	99.451148
3515.000000	99.452386
3514.000000	99.453565
3513.000000	99.454732
3512.000000	99.455902
3511.000000	99.457040
3510.000000	99.458097
3509.000000	99.459053
3508.000000	99.459942
3507.000000	99.460821
3506.000000	99.461720
3505.000000	99.462619
3504.000000	99.463463
3503.000000	99.464213
3502.000000	99.464873
3501.000000	99.465479
3500.000000	99.466068
3499.000000	99.466652
3498.000000	99.467213
3497.000000	99.467725
3496.000000	99.468172
3495.000000	99.468569
3494.000000	99.468950
3493.000000	99.469345
3492.000000	99.469754
3491.000000	99.470145
3490.000000	99.470480
3489.000000	99.470749
3488.000000	99.470976
3487.000000	99.471195
3486.000000	99.471415
3485.000000	99.471614
3484.000000	99.471758
3483.000000	99.471834
3482.000000	99.471857
3481.000000	99.471860
3480.000000	99.471865
3479.000000	99.471866
3478.000000	99.471825
3477.000000	99.471690
3476.000000	99.471453
3475.000000	99.471159
3474.000000	99.470860
3473.000000	99.470598
3472.000000	99.470391
3471.000000	99.470223
3470.000000	99.470065
3469.000000	99.469906
3468.000000	99.469765
3467.000000	99.469669
3466.000000	99.469629
3465.000000	99.469617
3464.000000	99.469581
3463.000000	99.469482
3462.000000	99.469316
3461.000000	99.469120
3460.000000	99.468945
3459.000000	99.468826
3458.000000	99.468756
3457.000000	99.468698
3456.000000	99.468615
3455.000000	99.468501
3454.000000	99.468387
3453.000000	99.468314
3452.000000	99.468304
3451.000000	99.468342
3450.000000	99.468391
3449.000000	99.468423
3448.000000	99.468439
3447.000000	99.468459
3446.000000	99.468507
3445.000000	99.468591
3444.000000	99.468703
3443.000000	99.468831
3442.000000	99.468966
3441.000000	99.469106
3440.000000	99.469264
3439.000000	99.469454
3438.000000	99.469688
3437.000000	99.469968
3436.000000	99.470290
3435.000000	99.470648
3434.000000	99.471045
3433.000000	99.471493
3432.000000	99.472003
3431.000000	99.472582
3430.000000	99.473226
3429.000000	99.473918
3428.000000	99.474635
3427.000000	99.475356
3426.000000	99.476065
3425.000000	99.476758
3424.000000	99.477437
3423.000000	99.478104
3422.000000	99.478766
3421.000000	99.479441
3420.000000	99.480143
3419.000000	99.480876
3418.000000	99.481618
3417.000000	99.482337
3416.000000	99.483014
3415.000000	99.483663
3414.000000	99.484323
3413.000000	99.485030
3412.000000	99.485787
3411.000000	99.486564
3410.000000	99.487312
3409.000000	99.487997
3408.000000	99.488617
3407.000000	99.489200
3406.000000	99.489779
3405.000000	99.490374
3404.000000	99.490976
3403.000000	99.491556
3402.000000	99.492085
3401.000000	99.492558
3400.000000	99.492994
3399.000000	99.493423
3398.000000	99.493858
3397.000000	99.494283
3396.000000	99.494655
3395.000000	99.494939
3394.000000	99.495128
3393.000000	99.495253
3392.000000	99.495353
3391.000000	99.495450
3390.000000	99.495523
3389.000000	99.495525
3388.000000	99.495413
3387.000000	99.495183
3386.000000	99.494879
3385.000000	99.494567
3384.000000	99.494301
3383.000000	99.494087
3382.000000	99.493885
3381.000000	99.493642
3380.000000	99.493328
3379.000000	99.492951
3378.000000	99.492549
3377.000000	99.492152
3376.000000	99.491765
3375.000000	99.491371
3374.000000	99.490946
3373.000000	99.490475
3372.000000	99.489961
3371.000000	99.489422
3370.000000	99.488876
3369.000000	99.488325
3368.000000	99.487755
3367.000000	99.487148
3366.000000	99.486498
3365.000000	99.485821
3364.000000	99.485152
3363.000000	99.484517
3362.000000	99.483923
3361.000000	99.483352
3360.000000	99.482774
3359.000000	99.482168
3358.000000	99.481534
3357.000000	99.480889
3356.000000	99.480259
3355.000000	99.479665
3354.000000	99.479119
3353.000000	99.478623
3352.000000	99.478175
3351.000000	99.477775
3350.000000	99.477419
3349.000000	99.477108
3348.000000	99.476843
3347.000000	99.476622
3346.000000	99.476438
3345.000000	99.476283
3344.000000	99.476151
3343.000000	99.476041
3342.000000	99.475957
3341.000000	99.475900
3340.000000	99.475871
3339.000000	99.475868
3338.000000	99.475896
3337.000000	99.475965
3336.000000	99.476091
3335.000000	99.476290
3334.000000	99.476571
3333.000000	99.476936
3332.000000	99.477379
3331.000000	99.477891
3330.000000	99.478460
3329.000000	99.479076
3328.000000	99.479724
3327.000000	99.480391
3326.000000	99.481072
3325.000000	99.481770
3324.000000	99.482497
3323.000000	99.483259
3322.000000	99.484047
3321.000000	99.484842
3320.000000	99.485623
3319.000000	99.486381
3318.000000	99.487122
3317.000000	99.487865
3316.000000	99.488626
3315.000000	99.489407
3314.000000	99.490194
3313.000000	99.490961
3312.000000	99.491693
3311.000000	99.492387
3310.000000	99.493049
3309.000000	99.493687
3308.000000	99.494293
3307.000000	99.494847
3306.000000	99.495332
3305.000000	99.495754
3304.000000	99.496141
3303.000000	99.496534
3302.000000	99.496962
3301.000000	99.497416
3300.000000	99.497857
3299.000000	99.498233
3298.000000	99.498523
3297.000000	99.498744
3296.000000	99.498934
3295.000000	99.499116
3294.000000	99.499267
3293.000000	99.499331
3292.000000	99.499259
3291.000000	99.499042
3290.000000	99.498718
3289.000000	99.498340
3288.000000	99.497937
3287.000000	99.497505
3286.000000	99.497017
3285.000000	99.496452
3284.000000	99.495819
3283.000000	99.495156
3282.000000	99.494507
3281.000000	99.493897
3280.000000	99.493320
3279.000000	99.492739
3278.000000	99.492125
3277.000000	99.491476
3276.000000	99.490824
3275.000000	99.490214
3274.000000	99.489673
3273.000000	99.489187
3272.000000	99.488719
3271.000000	99.488235
3270.000000	99.487729
3269.000000	99.487224
3268.000000	99.486755
3267.000000	99.486344
3266.000000	99.485981
3265.000000	99.485636
3264.000000	99.485282
3263.000000	99.484918
3262.000000	99.484566
3261.000000	99.484249
3260.000000	99.483966
3259.000000	99.483698
3258.000000	99.483421
3257.000000	99.483135
3256.000000	99.482859
3255.000000	99.482627
3254.000000	99.482460
3253.000000	99.482361
3252.000000	99.482324
3251.000000	99.482345
3250.000000	99.482427
3249.000000	99.482575
3248.000000	99.482786
3247.000000	99.483048
3246.000000	99.483348
3245.000000	99.483673
3244.000000	99.484020
3243.000000	99.484391
3242.000000	99.484797
3241.000000	99.485247
3240.000000	99.485739
3239.000000	99.486262
3238.000000	99.486800
3237.000000	99.487347
3236.000000	99.487908
3235.000000	99.488493
3234.000000	99.489102
3233.000000	99.489720
3232.000000	99.490320
3231.000000	99.490889
3230.000000	99.491434
3229.000000	99.491982
3228.000000	99.492562
3227.000000	99.493187
3226.000000	99.493838
3225.000000	99.494484
3224.000000	99.495098
3223.000000	99.495691
3222.000000	99.496301
3221.000000	99.496969
3220.000000	99.497703
3219.000000	99.498472
3218.000000	99.499229
3217.000000	99.499943
3216.000000	99.500617
3215.000000	99.501281
3214.000000	99.501958
3213.000000	99.502649
3212.000000	99.503323
3211.000000	99.503939
3210.000000	99.504472
3209.000000	99.504926
3208.000000	99.505333
3207.000000	99.505732
3206.000000	99.506141
3205.000000	99.506552
3204.000000	99.506935
3203.000000	99.507270
3202.000000	99.507563
3201.000000	99.507843
3200.000000	99.508141
3199.000000	99.508458
3198.000000	99.508760
3197.000000	99.509004
3196.000000	99.509165
3195.000000	99.509255
3194.000000	99.509313
3193.000000	99.509372
3192.000000	99.509444
3191.000000	99.509513
3190.000000	99.509557
3189.000000	99.509570
3188.000000	99.509563
3187.000000	99.509554
3186.000000	99.509549
3185.000000	99.509534
3184.000000	99.509493
3183.000000	99.509416
3182.000000	99.509314
3181.000000	99.509211
3180.000000	99.509124
3179.000000	99.509050
3178.000000	99.508969
3177.000000	99.508864
3176.000000	99.508737
3175.000000	99.508610
3174.000000	99.508512
3173.000000	99.508457
3172.000000	99.508444
3171.000000	99.508463
3170.000000	99.508507
3169.000000	99.508582
3168.000000	99.508700
3167.000000	99.508882
3166.000000	99.509138
3165.000000	99.509455
3164.000000	99.509803
3163.000000	99.510148
3162.000000	99.510481
3161.000000	99.510816
3160.000000	99.511185
3159.000000	99.511606
3158.000000	99.512075
3157.000000	99.512576
3156.000000	99.513094
3155.000000	99.513629
3154.000000	99.514193
3153.000000	99.514796
3152.000000	99.515438
3151.000000	99.516104
3150.000000	99.516778
3149.000000	99.517455
3148.000000	99.518149
3147.000000	99.518878
3146.000000	99.519661
3145.000000	99.520499
3144.000000	99.521382
3143.000000	99.522292
3142.000000	99.523211
3141.000000	99.524129
3140.000000	99.525047
3139.000000	99.525968
3138.000000	99.526892
3137.000000	99.527811
3136.000000	99.528721
3135.000000	99.529618
3134.000000	99.530506
3133.000000	99.531390
3132.000000	99.532272
3131.000000	99.533149
3130.000000	99.534011
3129.000000	99.534846
3128.000000	99.535639
3127.000000	99.536382
3126.000000	99.537075
3125.000000	99.537722
3124.000000	99.538325
3123.000000	99.538887
3122.000000	99.539413
3121.000000	99.539917
3120.000000	99.540416
3119.000000	99.540922
3118.000000	99.541432
3117.000000	99.541934
3116.000000	99.542404
3115.000000	99.542825
3114.000000	99.543189
3113.000000	99.543505
3112.000000	99.543791
3111.000000	99.544070
3110.000000	99.544360
3109.000000	99.544670
3108.000000	99.544993
3107.000000	99.545316
3106.000000	99.545616
3105.000000	99.545874
3104.000000	99.546082
3103.000000	99.546241
3102.000000	99.546361
3101.000000	99.546458
3100.000000	99.546544
3099.000000	99.546630
3098.000000	99.546726
3097.000000	99.546836
3096.000000	99.546962
3095.000000	99.547102
3094.000000	99.547251
3093.000000	99.547404
3092.000000	99.547559
3091.000000	99.547715
3090.000000	99.547873
3089.000000	99.548041
3088.000000	99.548228
3087.000000	99.548443
3086.000000	99.548683
3085.000000	99.548941
3084.000000	99.549206
3083.000000	99.549478
3082.000000	99.549764
3081.000000	99.550071
3080.000000	99.550401
3079.000000	99.550747
3078.000000	99.551099
3077.000000	99.551446
3076.000000	99.551788
3075.000000	99.552137
3074.000000	99.552506
3073.000000	99.552909
3072.000000	99.553343
3071.000000	99.553802
3070.000000	99.554271
3069.000000	99.554741
3068.000000	99.555209
3067.000000	99.555670
3066.000000	99.556122
3065.000000	99.556565
3064.000000	99.557009
3063.000000	99.557475
3062.000000	99.557981
3061.000000	99.558535
3060.000000	99.559128
3059.000000	99.559741
3058.000000	99.560355
3057.000000	99.560961
3056.000000	99.561558
3055.000000	99.562157
3054.000000	99.562771
3053.000000	99.563411
3052.000000	99.564081
3051.000000	99.564773
3050.000000	99.565482
3049.000000	99.566207
3048.000000	99.566949
3047.000000	99.567708
3046.000000	99.568471
3045.000000	99.569218
3044.000000	99.569936
3043.000000	99.570631
3042.000000	99.571337
3041.000000	99.572094
3040.000000	99.572929
3039.000000	99.573840
3038.000000	99.574805
3037.000000	99.575792
3036.000000	99.576787
3035.000000	99.577793
3034.000000	99.578826
3033.000000	99.579891
3032.000000	99.580983
3031.000000	99.582091
3030.000000	99.583211
3029.000000	99.584361
3028.000000	99.585562
3027.000000	99.586831
3026.000000	99.588165
3025.000000	99.589548
3024.000000	99.590961
3023.000000	99.592395
3022.000000	99.593854
3021.000000	99.595348
3020.000000	99.596883
3019.000000	99.598459
3018.000000	99.600069
3017.000000	99.601712
3016.000000	99.603393
3015.000000	99.605126
3014.000000	99.606924
3013.000000	99.608796
3012.000000	99.610724
3011.000000	99.612671
3010.000000	99.614598
3009.000000	99.616483
3008.000000	99.618338
3007.000000	99.620186
3006.000000	99.622048
3005.000000	99.623926
3004.000000	99.625815
3003.000000	99.627709
3002.000000	99.629614
3001.000000	99.631540
3000.000000	99.633485
2999.000000	99.635425
2998.000000	99.637343
2997.000000	99.639226
2996.000000	99.640991
2995.000000	99.642506
2994.000000	99.643772
2993.000000	99.645071
2992.000000	99.646773
2991.000000	99.648996
2990.000000	99.651341
2989.000000	99.653181
2988.000000	99.654200
2987.000000	99.654757
2986.000000	99.655665
2985.000000	99.657523
2984.000000	99.660261
2983.000000	99.663217
2982.000000	99.665626
2981.000000	99.667096
2980.000000	99.667919
2979.000000	99.669097
2978.000000	99.671725
2977.000000	99.675833
2976.000000	99.679767
2975.000000	99.681337
2974.000000	99.679968
2973.000000	99.677524
2972.000000	99.676483
2971.000000	99.677170
2970.000000	99.677383
2969.000000	99.674795
2968.000000	99.669266
2967.000000	99.663059
2966.000000	99.659064
2965.000000	99.658555
2964.000000	99.660543
2963.000000	99.662664
2962.000000	99.662947
2961.000000	99.661048
2960.000000	99.657990
2959.000000	99.655015
2958.000000	99.652760
2957.000000	99.651315
2956.000000	99.650493
2955.000000	99.649967
2954.000000	99.649543
2953.000000	99.649456
2952.000000	99.650208
2951.000000	99.651979
2950.000000	99.654108
2949.000000	99.655271
2948.000000	99.654380
2947.000000	99.651412
2946.000000	99.647731
2945.000000	99.645435
2944.000000	99.645827
2943.000000	99.648460
2942.000000	99.651636
2941.000000	99.653944
2940.000000	99.655091
2939.000000	99.655310
2938.000000	99.654713
2937.000000	99.653500
2936.000000	99.652256
2935.000000	99.651552
2934.000000	99.651424
2933.000000	99.651606
2932.000000	99.652084
2931.000000	99.653058
2930.000000	99.654512
2929.000000	99.656032
2928.000000	99.657097
2927.000000	99.657556
2926.000000	99.657648
2925.000000	99.657828
2924.000000	99.658384
2923.000000	99.659256
2922.000000	99.660164
2921.000000	99.660909
2920.000000	99.661573
2919.000000	99.662434
2918.000000	99.663694
2917.000000	99.665290
2916.000000	99.666930
2915.000000	99.668270
2914.000000	99.669143
2913.000000	99.669636
2912.000000	99.670070
2911.000000	99.670781
2910.000000	99.671827
2909.000000	99.672943
2908.000000	99.673825
2907.000000	99.674522
2906.000000	99.675423
2905.000000	99.676835
2904.000000	99.678671
2903.000000	99.680549
2902.000000	99.682094
2901.000000	99.683066
2900.000000	99.683438
2899.000000	99.683449
2898.000000	99.683454
2897.000000	99.683636
2896.000000	99.683862
2895.000000	99.683964
2894.000000	99.684094
2893.000000	99.684653
2892.000000	99.685832
2891.000000	99.687363
2890.000000	99.688704
2889.000000	99.689440
2888.000000	99.689519
2887.000000	99.689225
2886.000000	99.688876
2885.000000	99.688557
2884.000000	99.688216
2883.000000	99.687851
2882.000000	99.687522
2881.000000	99.687301
2880.000000	99.687249
2879.000000	99.687445
2878.000000	99.687922
2877.000000	99.688495
2876.000000	99.688823
2875.000000	99.688731
2874.000000	99.688387
2873.000000	99.688125
2872.000000	99.688126
2871.000000	99.688323
2870.000000	99.688521
2869.000000	99.688542
2868.000000	99.688325
2867.000000	99.687961
2866.000000	99.687632
2865.000000	99.687433
2864.000000	99.687299
2863.000000	99.687109
2862.000000	99.686849
2861.000000	99.686629
2860.000000	99.686564
2859.000000	99.686663
2858.000000	99.686865
2857.000000	99.687103
2856.000000	99.687316
2855.000000	99.687470
2854.000000	99.687563
2853.000000	99.687632
2852.000000	99.687725
2851.000000	99.687858
2850.000000	99.688030
2849.000000	99.688230
2848.000000	99.688456
2847.000000	99.688706
2846.000000	99.688986
2845.000000	99.689294
2844.000000	99.689619
2843.000000	99.689942
2842.000000	99.690240
2841.000000	99.690508
2840.000000	99.690757
2839.000000	99.691014
2838.000000	99.691303
2837.000000	99.691632
2836.000000	99.691991
2835.000000	99.692366
2834.000000	99.692750
2833.000000	99.693148
2832.000000	99.693573
2831.000000	99.694035
2830.000000	99.694530
2829.000000	99.695043
2828.000000	99.695553
2827.000000	99.696052
2826.000000	99.696550
2825.000000	99.697067
2824.000000	99.697624
2823.000000	99.698230
2822.000000	99.698883
2821.000000	99.699570
2820.000000	99.700278
2819.000000	99.700994
2818.000000	99.701706
2817.000000	99.702405
2816.000000	99.703078
2815.000000	99.703712
2814.000000	99.704299
2813.000000	99.704840
2812.000000	99.705351
2811.000000	99.705856
2810.000000	99.706372
2809.000000	99.706908
2808.000000	99.707459
2807.000000	99.708020
2806.000000	99.708584
2805.000000	99.709155
2804.000000	99.709742
2803.000000	99.710356
2802.000000	99.711000
2801.000000	99.711670
2800.000000	99.712359
2799.000000	99.713064
2798.000000	99.713791
2797.000000	99.714547
2796.000000	99.715339
2795.000000	99.716166
2794.000000	99.717013
2793.000000	99.717862
2792.000000	99.718699
2791.000000	99.719524
2790.000000	99.720345
2789.000000	99.721170
2788.000000	99.722000
2787.000000	99.722821
2786.000000	99.723622
2785.000000	99.724401
2784.000000	99.725170
2783.000000	99.725953
2782.000000	99.726759
2781.000000	99.727570
2780.000000	99.728351
2779.000000	99.729068
2778.000000	99.729716
2777.000000	99.730325
2776.000000	99.730939
2775.000000	99.731597
2774.000000	99.732313
2773.000000	99.733072
2772.000000	99.733851
2771.000000	99.734641
2770.000000	99.735457
2769.000000	99.736323
2768.000000	99.737247
2767.000000	99.738201
2766.000000	99.739138
2765.000000	99.740017
2764.000000	99.740834
2763.000000	99.741620
2762.000000	99.742423
2761.000000	99.743268
2760.000000	99.744142
2759.000000	99.745008
2758.000000	99.745830
2757.000000	99.746595
2756.000000	99.747315
2755.000000	99.748005
2754.000000	99.748661
2753.000000	99.749258
2752.000000	99.749766
2751.000000	99.750172
2750.000000	99.750497
2749.000000	99.750790
2748.000000	99.751099
2747.000000	99.751446
2746.000000	99.751821
2745.000000	99.752185
2744.000000	99.752508
2743.000000	99.752789
2742.000000	99.753056
2741.000000	99.753339
2740.000000	99.753643
2739.000000	99.753950
2738.000000	99.754238
2737.000000	99.754508
2736.000000	99.754786
2735.000000	99.755104
2734.000000	99.755472
2733.000000	99.755867
2732.000000	99.756239
2731.000000	99.756541
2730.000000	99.756758
2729.000000	99.756920
2728.000000	99.757073
2727.000000	99.757250
2726.000000	99.757448
2725.000000	99.757637
2724.000000	99.757787
2723.000000	99.757889
2722.000000	99.757965
2721.000000	99.758044
2720.000000	99.758140
2719.000000	99.758236
2718.000000	99.758305
2717.000000	99.758328
2716.000000	99.758319
2715.000000	99.758323
2714.000000	99.758384
2713.000000	99.758522
2712.000000	99.758720
2711.000000	99.758938
2710.000000	99.759146
2709.000000	99.759350
2708.000000	99.759587
2707.000000	99.759898
2706.000000	99.760288
2705.000000	99.760712
2704.000000	99.761108
2703.000000	99.761430
2702.000000	99.761686
2701.000000	99.761925
2700.000000	99.762193
2699.000000	99.762506
2698.000000	99.762832
2697.000000	99.763128
2696.000000	99.763368
2695.000000	99.763567
2694.000000	99.763757
2693.000000	99.763963
2692.000000	99.764170
2691.000000	99.764327
2690.000000	99.764381
2689.000000	99.764318
2688.000000	99.764181
2687.000000	99.764043
2686.000000	99.763959
2685.000000	99.763929
2684.000000	99.763909
2683.000000	99.763853
2682.000000	99.763754
2681.000000	99.763644
2680.000000	99.763566
2679.000000	99.763525
2678.000000	99.763474
2677.000000	99.763335
2676.000000	99.763057
2675.000000	99.762650
2674.000000	99.762185
2673.000000	99.761743
2672.000000	99.761367
2671.000000	99.761036
2670.000000	99.760701
2669.000000	99.760333
2668.000000	99.759952
2667.000000	99.759608
2666.000000	99.759330
2665.000000	99.759092
2664.000000	99.758825
2663.000000	99.758468
2662.000000	99.758020
2661.000000	99.757548
2660.000000	99.757147
2659.000000	99.756873
2658.000000	99.756714
2657.000000	99.756603
2656.000000	99.756469
2655.000000	99.756286
2654.000000	99.756078
2653.000000	99.755893
2652.000000	99.755752
2651.000000	99.755633
2650.000000	99.755494
2649.000000	99.755324
2648.000000	99.755176
2647.000000	99.755133
2646.000000	99.755255
2645.000000	99.755520
2644.000000	99.755841
2643.000000	99.756121
2642.000000	99.756306
2641.000000	99.756414
2640.000000	99.756497
2639.000000	99.756600
2638.000000	99.756732
2637.000000	99.756875
2636.000000	99.757024
2635.000000	99.757211
2634.000000	99.757490
2633.000000	99.757894
2632.000000	99.758397
2631.000000	99.758914
2630.000000	99.759353
2629.000000	99.759673
2628.000000	99.759898
2627.000000	99.760089
2626.000000	99.760284
2625.000000	99.760468
2624.000000	99.760601
2623.000000	99.760668
2622.000000	99.760702
2621.000000	99.760766
2620.000000	99.760897
2619.000000	99.761074
2618.000000	99.761220
2617.000000	99.761260
2616.000000	99.761171
2615.000000	99.761003
2614.000000	99.760835
2613.000000	99.760715
2612.000000	99.760625
2611.000000	99.760508
2610.000000	99.760334
2609.000000	99.760139
2608.000000	99.760010
2607.000000	99.760014
2606.000000	99.760130
2605.000000	99.760251
2604.000000	99.760253
2603.000000	99.760081
2602.000000	99.759786
2601.000000	99.759486
2600.000000	99.759271
2599.000000	99.759147
2598.000000	99.759043
2597.000000	99.758881
2596.000000	99.758652
2595.000000	99.758430
2594.000000	99.758313
2593.000000	99.758343
2592.000000	99.758464
2591.000000	99.758559
2590.000000	99.758536
2589.000000	99.758396
2588.000000	99.758228
2587.000000	99.758142
2586.000000	99.758176
2585.000000	99.758274
2584.000000	99.758344
2583.000000	99.758339
2582.000000	99.758306
2581.000000	99.758349
2580.000000	99.758544
2579.000000	99.758888
2578.000000	99.759295
2577.000000	99.759661
2576.000000	99.759934
2575.000000	99.760146
2574.000000	99.760376
2573.000000	99.760685
2572.000000	99.761070
2571.000000	99.761474
2570.000000	99.761851
2569.000000	99.762207
2568.000000	99.762590
2567.000000	99.763040
2566.000000	99.763544
2565.000000	99.764042
2564.000000	99.764468
2563.000000	99.764801
2562.000000	99.765083
2561.000000	99.765389
2560.000000	99.765773
2559.000000	99.766239
2558.000000	99.766747
2557.000000	99.767247
2556.000000	99.767720
2555.000000	99.768185
2554.000000	99.768670
2553.000000	99.769173
2552.000000	99.769647
2551.000000	99.770026
2550.000000	99.770277
2549.000000	99.770423
2548.000000	99.770534
2547.000000	99.770678
2546.000000	99.770882
2545.000000	99.771123
2544.000000	99.771365
2543.000000	99.771593
2542.000000	99.771832
2541.000000	99.772113
2540.000000	99.772440
2539.000000	99.772767
2538.000000	99.773025
2537.000000	99.773163
2536.000000	99.773188
2535.000000	99.773161
2534.000000	99.773166
2533.000000	99.773254
2532.000000	99.773423
2531.000000	99.773624
2530.000000	99.773804
2529.000000	99.773939
2528.000000	99.774036
2527.000000	99.774114
2526.000000	99.774178
2525.000000	99.774213
2524.000000	99.774203
2523.000000	99.774144
2522.000000	99.774061
2521.000000	99.773988
2520.000000	99.773955
2519.000000	99.773972
2518.000000	99.774025
2517.000000	99.774083
2516.000000	99.774118
2515.000000	99.774119
2514.000000	99.774099
2513.000000	99.774078
2512.000000	99.774070
2511.000000	99.774069
2510.000000	99.774079
2509.000000	99.774111
2508.000000	99.774187
2507.000000	99.774331
2506.000000	99.774577
2505.000000	99.774960
2504.000000	99.775466
2503.000000	99.776039
2502.000000	99.776626
2501.000000	99.777195
2500.000000	99.777724
2499.000000	99.778203
2498.000000	99.778646
2497.000000	99.779085
2496.000000	99.779550
2495.000000	99.780059
2494.000000	99.780610
2493.000000	99.781190
2492.000000	99.781785
2491.000000	99.782391
2490.000000	99.783014
2489.000000	99.783659
2488.000000	99.784319
2487.000000	99.784980
2486.000000	99.785631
2485.000000	99.786281
2484.000000	99.786953
2483.000000	99.787670
2482.000000	99.788438
2481.000000	99.789239
2480.000000	99.790041
2479.000000	99.790818
2478.000000	99.791564
2477.000000	99.792290
2476.000000	99.793011
2475.000000	99.793730
2474.000000	99.794437
2473.000000	99.795121
2472.000000	99.795781
2471.000000	99.796434
2470.000000	99.797112
2469.000000	99.797840
2468.000000	99.798619
2467.000000	99.799420
2466.000000	99.800198
2465.000000	99.800915
2464.000000	99.801558
2463.000000	99.802132
2462.000000	99.802648
2461.000000	99.803113
2460.000000	99.803534
2459.000000	99.803927
2458.000000	99.804323
2457.000000	99.804755
2456.000000	99.805242
2455.000000	99.805773
2454.000000	99.806310
2453.000000	99.806806
2452.000000	99.807232
2451.000000	99.807591
2450.000000	99.807905
2449.000000	99.808201
2448.000000	99.808487
2447.000000	99.808751
2446.000000	99.808977
2445.000000	99.809169
2444.000000	99.809351
2443.000000	99.809554
2442.000000	99.809784
2441.000000	99.810025
2440.000000	99.810245
2439.000000	99.810424
2438.000000	99.810572
2437.000000	99.810723
2436.000000	99.810910
2435.000000	99.811147
2434.000000	99.811420
2433.000000	99.811708
2432.000000	99.811997
2431.000000	99.812291
2430.000000	99.812600
2429.000000	99.812924
2428.000000	99.813242
2427.000000	99.813520
2426.000000	99.813731
2425.000000	99.813874
2424.000000	99.813977
2423.000000	99.814077
2422.000000	99.814198
2421.000000	99.814332
2420.000000	99.814451
2419.000000	99.814521
2418.000000	99.814530
2417.000000	99.814491
2416.000000	99.814427
2415.000000	99.814347
2414.000000	99.814236
2413.000000	99.814068
2412.000000	99.813822
2411.000000	99.813504
2410.000000	99.813139
2409.000000	99.812762
2408.000000	99.812393
2407.000000	99.812031
2406.000000	99.811660
2405.000000	99.811263
2404.000000	99.810836
2403.000000	99.810378
2402.000000	99.809888
2401.000000	99.809360
2400.000000	99.808787
2399.000000	99.808163
2398.000000	99.807491
2397.000000	99.806784
2396.000000	99.806056
2395.000000	99.805309
2394.000000	99.804531
2393.000000	99.803700
2392.000000	99.802802
2391.000000	99.801831
2390.000000	99.800799
2389.000000	99.799719
2388.000000	99.798603
2387.000000	99.797455
2386.000000	99.796272
2385.000000	99.795058
2384.000000	99.793814
2383.000000	99.792542
2382.000000	99.791238
2381.000000	99.789901
2380.000000	99.788532
2379.000000	99.787135
2378.000000	99.785721
2377.000000	99.784306
2376.000000	99.782915
2375.000000	99.781558
2374.000000	99.780213
2373.000000	99.778838
2372.000000	99.777404
2371.000000	99.775920
2370.000000	99.774430
2369.000000	99.772986
2368.000000	99.771621
2367.000000	99.770334
2366.000000	99.769095
2365.000000	99.767864
2364.000000	99.766611
2363.000000	99.765337
2362.000000	99.764066
2361.000000	99.762835
2360.000000	99.761675
2359.000000	99.760592
2358.000000	99.759569
2357.000000	99.758579
2356.000000	99.757611
2355.000000	99.756669
2354.000000	99.755759
2353.000000	99.754876
2352.000000	99.754008
2351.000000	99.753147
2350.000000	99.752300
2349.000000	99.751485
2348.000000	99.750717
2347.000000	99.750002
2346.000000	99.749338
2345.000000	99.748722
2344.000000	99.748154
2343.000000	99.747637
2342.000000	99.747175
2341.000000	99.746782
2340.000000	99.746479
2339.000000	99.746279
2338.000000	99.746172
2337.000000	99.746140
2336.000000	99.746180
2335.000000	99.746251
2334.000000	99.746312
2333.000000	99.746280
2332.000000	99.745968
2331.000000	99.745304
2330.000000	99.744684
2329.000000	99.744684
2328.000000	99.745198
2327.000000	99.745824
2326.000000	99.746545
2325.000000	99.747894
2324.000000	99.749843
2323.000000	99.751739
2322.000000	99.753161
2321.000000	99.754140
2320.000000	99.755129
2319.000000	99.756350
2318.000000	99.757998
2317.000000	99.759729
2316.000000	99.760685
2315.000000	99.760255
2314.000000	99.759014
2313.000000	99.758540
2312.000000	99.759523
2311.000000	99.761191
2310.000000	99.762249
2309.000000	99.762526
2308.000000	99.762783
2307.000000	99.763770
2306.000000	99.765470
2305.000000	99.767415
2304.000000	99.769062
2303.000000	99.770178
2302.000000	99.770896
2301.000000	99.771592
2300.000000	99.772511
2299.000000	99.773658
2298.000000	99.774883
2297.000000	99.776037
2296.000000	99.776835
2295.000000	99.777084
2294.000000	99.776935
2293.000000	99.776961
2292.000000	99.777577
2291.000000	99.778650
2290.000000	99.779707
2289.000000	99.780430
2288.000000	99.780852
2287.000000	99.781168
2286.000000	99.781558
2285.000000	99.782129
2284.000000	99.782850
2283.000000	99.783463
2282.000000	99.783656
2281.000000	99.783408
2280.000000	99.783141
2279.000000	99.783245
2278.000000	99.783588
2277.000000	99.783706
2276.000000	99.783390
2275.000000	99.782902
2274.000000	99.782648
2273.000000	99.782820
2272.000000	99.783353
2271.000000	99.784034
2270.000000	99.784555
2269.000000	99.784629
2268.000000	99.784192
2267.000000	99.783385
2266.000000	99.782450
2265.000000	99.781604
2264.000000	99.780927
2263.000000	99.780326
2262.000000	99.779665
2261.000000	99.779035
2260.000000	99.778638
2259.000000	99.778344
2258.000000	99.777757
2257.000000	99.776851
2256.000000	99.776223
2255.000000	99.776281
2254.000000	99.776561
2253.000000	99.776259
2252.000000	99.775375
2251.000000	99.774784
2250.000000	99.775177
2249.000000	99.776335
2248.000000	99.777504
2247.000000	99.778323
2246.000000	99.779031
2245.000000	99.779996
2244.000000	99.781160
2243.000000	99.781964
2242.000000	99.781986
2241.000000	99.781526
2240.000000	99.781216
2239.000000	99.781208
2238.000000	99.781111
2237.000000	99.780665
2236.000000	99.780091
2235.000000	99.779690
2234.000000	99.779482
2233.000000	99.779414
2232.000000	99.779551
2231.000000	99.779863
2230.000000	99.780079
2229.000000	99.779980
2228.000000	99.779688
2227.000000	99.779519
2226.000000	99.779623
2225.000000	99.779916
2224.000000	99.780285
2223.000000	99.780713
2222.000000	99.781177
2221.000000	99.781574
2220.000000	99.781812
2219.000000	99.781913
2218.000000	99.781974
2217.000000	99.782064
2216.000000	99.782176
2215.000000	99.782279
2214.000000	99.782370
2213.000000	99.782499
2212.000000	99.782721
2211.000000	99.783054
2210.000000	99.783464
2209.000000	99.783879
2208.000000	99.784225
2207.000000	99.784460
2206.000000	99.784572
2205.000000	99.784614
2204.000000	99.784708
2203.000000	99.784956
2202.000000	99.785367
2201.000000	99.785836
2200.000000	99.786243
2199.000000	99.786575
2198.000000	99.786916
2197.000000	99.787353
2196.000000	99.787885
2195.000000	99.788424
2194.000000	99.788871
2193.000000	99.789207
2192.000000	99.789495
2191.000000	99.789811
2190.000000	99.790175
2189.000000	99.790551
2188.000000	99.790895
2187.000000	99.791190
2186.000000	99.791443
2185.000000	99.791679
2184.000000	99.791930
2183.000000	99.792217
2182.000000	99.792540
2181.000000	99.792853
2180.000000	99.793069
2179.000000	99.793110
2178.000000	99.792985
2177.000000	99.792839
2176.000000	99.792871
2175.000000	99.793178
2174.000000	99.793704
2173.000000	99.794310
2172.000000	99.794881
2171.000000	99.795358
2170.000000	99.795712
2169.000000	99.795953
2168.000000	99.796132
2167.000000	99.796269
2166.000000	99.796301
2165.000000	99.796167
2164.000000	99.795929
2163.000000	99.795765
2162.000000	99.795829
2161.000000	99.796149
2160.000000	99.796617
2159.000000	99.797024
2158.000000	99.797195
2157.000000	99.797082
2156.000000	99.796805
2155.000000	99.796587
2154.000000	99.796583
2153.000000	99.796799
2152.000000	99.797144
2151.000000	99.797537
2150.000000	99.797959
2149.000000	99.798404
2148.000000	99.798792
2147.000000	99.798984
2146.000000	99.798904
2145.000000	99.798663
2144.000000	99.798550
2143.000000	99.798813
2142.000000	99.799499
2141.000000	99.800471
2140.000000	99.801512
2139.000000	99.802390
2138.000000	99.802922
2137.000000	99.803097
2136.000000	99.803125
2135.000000	99.803218
2134.000000	99.803315
2133.000000	99.803187
2132.000000	99.802811
2131.000000	99.802499
2130.000000	99.802607
2129.000000	99.803202
2128.000000	99.804058
2127.000000	99.804884
2126.000000	99.805539
2125.000000	99.806081
2124.000000	99.806683
2123.000000	99.807433
2122.000000	99.808242
2121.000000	99.808994
2120.000000	99.809754
2119.000000	99.810653
2118.000000	99.811588
2117.000000	99.812251
2116.000000	99.812557
2115.000000	99.812871
2114.000000	99.813636
2113.000000	99.814886
2112.000000	99.816238
2111.000000	99.817234
2110.000000	99.817624
2109.000000	99.817425
2108.000000	99.816928
2107.000000	99.816588
2106.000000	99.816705
2105.000000	99.817218
2104.000000	99.817890
2103.000000	99.818661
2102.000000	99.819642
2101.000000	99.820768
2100.000000	99.821690
2099.000000	99.822202
2098.000000	99.822607
2097.000000	99.823414
2096.000000	99.824749
2095.000000	99.826253
2094.000000	99.827534
2093.000000	99.828466
2092.000000	99.828922
2091.000000	99.828624
2090.000000	99.827580
2089.000000	99.826493
2088.000000	99.826234
2087.000000	99.826942
2086.000000	99.828055
2085.000000	99.829193
2084.000000	99.830619
2083.000000	99.832478
2082.000000	99.834099
2081.000000	99.834634
2080.000000	99.834107
2079.000000	99.833359
2078.000000	99.832948
2077.000000	99.832657
2076.000000	99.832125
2075.000000	99.831360
2074.000000	99.830628
2073.000000	99.830271
2072.000000	99.830642
2071.000000	99.831781
2070.000000	99.833080
2069.000000	99.833717
2068.000000	99.833574
2067.000000	99.833347
2066.000000	99.833608
2065.000000	99.834106
2064.000000	99.834299
2063.000000	99.834167
2062.000000	99.834046
2061.000000	99.833962
2060.000000	99.833639
2059.000000	99.833081
2058.000000	99.832671
2057.000000	99.832642
2056.000000	99.832793
2055.000000	99.832806
2054.000000	99.832559
2053.000000	99.831989
2052.000000	99.830993
2051.000000	99.829660
2050.000000	99.828405
2049.000000	99.827596
2048.000000	99.827139
2047.000000	99.826625
2046.000000	99.825837
2045.000000	99.824944
2044.000000	99.824198
2043.000000	99.823646
2042.000000	99.823221
2041.000000	99.822910
2040.000000	99.822682
2039.000000	99.822319
2038.000000	99.821525
2037.000000	99.820223
2036.000000	99.818643
2035.000000	99.817195
2034.000000	99.816154
2033.000000	99.815548
2032.000000	99.815220
2031.000000	99.814924
2030.000000	99.814446
2029.000000	99.813691
2028.000000	99.812699
2027.000000	99.811571
2026.000000	99.810391
2025.000000	99.809270
2024.000000	99.808367
2023.000000	99.807794
2022.000000	99.807445
2021.000000	99.807028
2020.000000	99.806324
2019.000000	99.805368
2018.000000	99.804352
2017.000000	99.803367
2016.000000	99.802307
2015.000000	99.801072
2014.000000	99.799749
2013.000000	99.798553
2012.000000	99.797602
2011.000000	99.796809
2010.000000	99.796022
2009.000000	99.795226
2008.000000	99.794521
2007.000000	99.793888
2006.000000	99.793086
2005.000000	99.791905
2004.000000	99.790469
2003.000000	99.789221
2002.000000	99.788510
2001.000000	99.788313
2000.000000	99.788288
1999.000000	99.788112
1998.000000	99.787729
1997.000000	99.787261
1996.000000	99.786820
1995.000000	99.786415
1994.000000	99.785989
1993.000000	99.785505
1992.000000	99.784994
1991.000000	99.784533
1990.000000	99.784188
1989.000000	99.783931
1988.000000	99.783589
1987.000000	99.782956
1986.000000	99.782009
1985.000000	99.781014
1984.000000	99.780337
1983.000000	99.780091
1982.000000	99.780064
1981.000000	99.779904
1980.000000	99.779488
1979.000000	99.778955
1978.000000	99.778474
1977.000000	99.778056
1976.000000	99.777615
1975.000000	99.777095
1974.000000	99.776505
1973.000000	99.775932
1972.000000	99.775494
1971.000000	99.775191
1970.000000	99.774849
1969.000000	99.774362
1968.000000	99.773986
1967.000000	99.774119
1966.000000	99.774782
1965.000000	99.775484
1964.000000	99.775738
1963.000000	99.775492
1962.000000	99.774957
1961.000000	99.774321
1960.000000	99.773796
1959.000000	99.773773
1958.000000	99.774531
1957.000000	99.775791
1956.000000	99.776863
1955.000000	99.777321
1954.000000	99.777253
1953.000000	99.776860
1952.000000	99.776237
1951.000000	99.775535
1950.000000	99.774827
1949.000000	99.773837
1948.000000	99.772204
1947.000000	99.770188
1946.000000	99.768700
1945.000000	99.768340
1944.000000	99.768795
1943.000000	99.769345
1942.000000	99.769743
1941.000000	99.770266
1940.000000	99.771172
1939.000000	99.772498
1938.000000	99.773865
1937.000000	99.774369
1936.000000	99.773338
1935.000000	99.771323
1934.000000	99.769836
1933.000000	99.769641
1932.000000	99.769968
1931.000000	99.769770
1930.000000	99.769268
1929.000000	99.769671
1928.000000	99.771195
1927.000000	99.772510
1926.000000	99.772222
1925.000000	99.770291
1924.000000	99.767801
1923.000000	99.765601
1922.000000	99.763812
1921.000000	99.762378
1920.000000	99.761372
1919.000000	99.760583
1918.000000	99.759435
1917.000000	99.757836
1916.000000	99.756390
1915.000000	99.755450
1914.000000	99.754535
1913.000000	99.752801
1912.000000	99.750124
1911.000000	99.747333
1910.000000	99.745180
1909.000000	99.743567
1908.000000	99.741815
1907.000000	99.739840
1906.000000	99.738161
1905.000000	99.736865
1904.000000	99.735170
1903.000000	99.732186
1902.000000	99.728483
1901.000000	99.726102
1900.000000	99.726408
1899.000000	99.728576
1898.000000	99.730259
1897.000000	99.729654
1896.000000	99.726737
1895.000000	99.722637
1894.000000	99.718556
1893.000000	99.715302
1892.000000	99.713314
1891.000000	99.712488
1890.000000	99.711919
1889.000000	99.710357
1888.000000	99.707194
1887.000000	99.703081
1886.000000	99.699721
1885.000000	99.698691
1884.000000	99.700064
1883.000000	99.702028
1882.000000	99.702293
1881.000000	99.700100
1880.000000	99.696706
1879.000000	99.694351
1878.000000	99.694509
1877.000000	99.696735
1876.000000	99.699229
1875.000000	99.700181
1874.000000	99.698566
1873.000000	99.694411
1872.000000	99.688928
1871.000000	99.684579
1870.000000	99.684438
1869.000000	99.690023
1868.000000	99.698895
1867.000000	99.706197
1866.000000	99.709798
1865.000000	99.711410
1864.000000	99.713266
1863.000000	99.715742
1862.000000	99.718045
1861.000000	99.719996
1860.000000	99.722143
1859.000000	99.724704
1858.000000	99.727571
1857.000000	99.731115
1856.000000	99.735748
1855.000000	99.740643
1854.000000	99.743798
1853.000000	99.744126
1852.000000	99.742420
1851.000000	99.740773
1850.000000	99.741148
1849.000000	99.743962
1848.000000	99.748106
1847.000000	99.751940
1846.000000	99.754474
1845.000000	99.755515
1844.000000	99.755542
1843.000000	99.755178
1842.000000	99.754774
1841.000000	99.754802
1840.000000	99.755443
1839.000000	99.756300
1838.000000	99.756978
1837.000000	99.757836
1836.000000	99.759464
1835.000000	99.761434
1834.000000	99.762671
1833.000000	99.762868
1832.000000	99.762708
1831.000000	99.762938
1830.000000	99.763568
1829.000000	99.764249
1828.000000	99.764951
1827.000000	99.765770
1826.000000	99.766479
1825.000000	99.766726
1824.000000	99.766632
1823.000000	99.766731
1822.000000	99.767261
1821.000000	99.767980
1820.000000	99.768532
1819.000000	99.768831
1818.000000	99.769023
1817.000000	99.769258
1816.000000	99.769564
1815.000000	99.769885
1814.000000	99.770174
1813.000000	99.770398
1812.000000	99.770534
1811.000000	99.770568
1810.000000	99.770519
1809.000000	99.770521
1808.000000	99.770770
1807.000000	99.771316
1806.000000	99.771916
1805.000000	99.772261
1804.000000	99.772295
1803.000000	99.772228
1802.000000	99.772300
1801.000000	99.772502
1800.000000	99.772675
1799.000000	99.772748
1798.000000	99.772713
1797.000000	99.772703
1796.000000	99.773078
1795.000000	99.774235
1794.000000	99.776270
1793.000000	99.778620
1792.000000	99.780490
1791.000000	99.781623
1790.000000	99.782020
1789.000000	99.781653
1788.000000	99.780783
1787.000000	99.780091
1786.000000	99.780240
1785.000000	99.781207
1784.000000	99.782250
1783.000000	99.782702
1782.000000	99.783072
1781.000000	99.784126
1780.000000	99.785730
1779.000000	99.787050
1778.000000	99.787200
1777.000000	99.786007
1776.000000	99.783745
1775.000000	99.781281
1774.000000	99.780065
1773.000000	99.780895
1772.000000	99.783256
1771.000000	99.786108
1770.000000	99.788511
1769.000000	99.790225
1768.000000	99.792179
1767.000000	99.795600
1766.000000	99.800686
1765.000000	99.806085
1764.000000	99.809947
1763.000000	99.810957
1762.000000	99.809704
1761.000000	99.808350
1760.000000	99.808337
1759.000000	99.809583
1758.000000	99.811356
1757.000000	99.812697
1756.000000	99.812663
1755.000000	99.811562
1754.000000	99.810942
1753.000000	99.812222
1752.000000	99.815472
1751.000000	99.819533
1750.000000	99.822767
1749.000000	99.824094
1748.000000	99.823098
1747.000000	99.819933
1746.000000	99.815933
1745.000000	99.812630
1744.000000	99.810863
1743.000000	99.810577
1742.000000	99.811120
1741.000000	99.811970
1740.000000	99.812933
1739.000000	99.813596
1738.000000	99.813466
1737.000000	99.812663
1736.000000	99.811800
1735.000000	99.811186
1734.000000	99.810863
1733.000000	99.810686
1732.000000	99.810244
1731.000000	99.809375
1730.000000	99.808048
1729.000000	99.806384
1728.000000	99.804839
1727.000000	99.803855
1726.000000	99.803565
1725.000000	99.803637
1724.000000	99.803520
1723.000000	99.802823
1722.000000	99.801549
1721.000000	99.800093
1720.000000	99.798886
1719.000000	99.797959
1718.000000	99.796766
1717.000000	99.794917
1716.000000	99.792804
1715.000000	99.790945
1714.000000	99.789378
1713.000000	99.787977
1712.000000	99.786710
1711.000000	99.785534
1710.000000	99.784279
1709.000000	99.782810
1708.000000	99.781242
1707.000000	99.779833
1706.000000	99.778528
1705.000000	99.776898
1704.000000	99.774730
1703.000000	99.772256
1702.000000	99.769929
1701.000000	99.768012
1700.000000	99.766408
1699.000000	99.764732
1698.000000	99.762850
1697.000000	99.760898
1696.000000	99.758825
1695.000000	99.756615
1694.000000	99.754467
1693.000000	99.752536
1692.000000	99.750711
1691.000000	99.748628
1690.000000	99.746067
1689.000000	99.743188
1688.000000	99.740312
1687.000000	99.737652
1686.000000	99.735269
1685.000000	99.733003
1684.000000	99.730596
1683.000000	99.728033
1682.000000	99.725484
1681.000000	99.723153
1680.000000	99.721104
1679.000000	99.719179
1678.000000	99.717182
1677.000000	99.715041
1676.000000	99.712804
1675.000000	99.710577
1674.000000	99.708429
1673.000000	99.706333
1672.000000	99.704246
1671.000000	99.702151
1670.000000	99.700055
1669.000000	99.697971
1668.000000	99.695909
1667.000000	99.693882
1666.000000	99.691892
1665.000000	99.689931
1664.000000	99.687985
1663.000000	99.686044
1662.000000	99.684115
1661.000000	99.682212
1660.000000	99.680343
1659.000000	99.678506
1658.000000	99.676696
1657.000000	99.674911
1656.000000	99.673151
1655.000000	99.671419
1654.000000	99.669708
1653.000000	99.668003
1652.000000	99.666295
1651.000000	99.664597
1650.000000	99.662936
1649.000000	99.661339
1648.000000	99.659823
1647.000000	99.658394
1646.000000	99.657041
1645.000000	99.655735
1644.000000	99.654450
1643.000000	99.653175
1642.000000	99.651919
1641.000000	99.650701
1640.000000	99.649532
1639.000000	99.648412
1638.000000	99.647338
1637.000000	99.646303
1636.000000	99.645280
1635.000000	99.644286
1634.000000	99.643418
1633.000000	99.642723
1632.000000	99.642177
1631.000000	99.641659
1630.000000	99.641002
1629.000000	99.640145
1628.000000	99.639225
1627.000000	99.638463
1626.000000	99.638004
1625.000000	99.637872
1624.000000	99.637820
1623.000000	99.637297
1622.000000	99.636103
1621.000000	99.634846
1620.000000	99.634304
1619.000000	99.634707
1618.000000	99.635255
1617.000000	99.634600
1616.000000	99.632715
1615.000000	99.630934
1614.000000	99.629878
1613.000000	99.629367
1612.000000	99.629464
1611.000000	99.630538
1610.000000	99.632591
1609.000000	99.634601
1608.000000	99.635546
1607.000000	99.635815
1606.000000	99.636838
1605.000000	99.639118
1604.000000	99.641641
1603.000000	99.643429
1602.000000	99.644449
1601.000000	99.645127
1600.000000	99.645809
1599.000000	99.647053
1598.000000	99.649684
1597.000000	99.653812
1596.000000	99.658183
1595.000000	99.660912
1594.000000	99.661152
1593.000000	99.660001
1592.000000	99.659543
1591.000000	99.660913
1590.000000	99.663495
1589.000000	99.666036
1588.000000	99.668334
1587.000000	99.671245
1586.000000	99.674911
1585.000000	99.678136
1584.000000	99.679647
1583.000000	99.679968
1582.000000	99.680761
1581.000000	99.682307
1580.000000	99.683306
1579.000000	99.683124
1578.000000	99.682621
1577.000000	99.682919
1576.000000	99.684383
1575.000000	99.686409
1574.000000	99.688280
1573.000000	99.689773
1572.000000	99.690852
1571.000000	99.691530
1570.000000	99.692063
1569.000000	99.692856
1568.000000	99.693863
1567.000000	99.694950
1566.000000	99.696236
1565.000000	99.697723
1564.000000	99.699065
1563.000000	99.700012
1562.000000	99.700692
1561.000000	99.701456
1560.000000	99.702381
1559.000000	99.703242
1558.000000	99.704118
1557.000000	99.704943
1556.000000	99.705720
1555.000000	99.706631
1554.000000	99.707654
1553.000000	99.708662
1552.000000	99.709534
1551.000000	99.710242
1550.000000	99.710812
1549.000000	99.711298
1548.000000	99.711770
1547.000000	99.712254
1546.000000	99.712733
1545.000000	99.713174
1544.000000	99.713561
1543.000000	99.713913
1542.000000	99.714264
1541.000000	99.714642
1540.000000	99.715056
1539.000000	99.715489
1538.000000	99.715906
1537.000000	99.716292
1536.000000	99.716652
1535.000000	99.716991
1534.000000	99.717332
1533.000000	99.717699
1532.000000	99.718100
1531.000000	99.718527
1530.000000	99.718972
1529.000000	99.719437
1528.000000	99.719922
1527.000000	99.720422
1526.000000	99.720919
1525.000000	99.721394
1524.000000	99.721840
1523.000000	99.722271
1522.000000	99.722721
1521.000000	99.723224
1520.000000	99.723798
1519.000000	99.724434
1518.000000	99.725116
1517.000000	99.725831
1516.000000	99.726570
1515.000000	99.727339
1514.000000	99.728147
1513.000000	99.729004
1512.000000	99.729906
1511.000000	99.730831
1510.000000	99.731756
1509.000000	99.732661
1508.000000	99.733536
1507.000000	99.734441
1506.000000	99.735503
1505.000000	99.736733
1504.000000	99.737989
1503.000000	99.739228
1502.000000	99.740483
1501.000000	99.741827
1500.000000	99.743303
1499.000000	99.744890
1498.000000	99.746497
1497.000000	99.748011
1496.000000	99.749389
1495.000000	99.750659
1494.000000	99.751908
1493.000000	99.753224
1492.000000	99.754655
1491.000000	99.756156
1490.000000	99.757571
1489.000000	99.758830
1488.000000	99.760096
1487.000000	99.761559
1486.000000	99.763200
1485.000000	99.764811
1484.000000	99.766211
1483.000000	99.767441
1482.000000	99.768698
1481.000000	99.770057
1480.000000	99.771366
1479.000000	99.772494
1478.000000	99.773528
1477.000000	99.774613
1476.000000	99.775699
1475.000000	99.776560
1474.000000	99.777147
1473.000000	99.777698
1472.000000	99.778400
1471.000000	99.778989
1470.000000	99.779080
1469.000000	99.778712
1468.000000	99.778243
1467.000000	99.778078
1466.000000	99.778504
1465.000000	99.779462
1464.000000	99.780409
1463.000000	99.780784
1462.000000	99.780490
1461.000000	99.779805
1460.000000	99.779141
1459.000000	99.779022
1458.000000	99.779906
1457.000000	99.781487
1456.000000	99.782522
1455.000000	99.782466
1454.000000	99.782198
1453.000000	99.782341
1452.000000	99.782478
1451.000000	99.781996
1450.000000	99.780775
1449.000000	99.779178
1448.000000	99.777717
1447.000000	99.776681
1446.000000	99.776305
1445.000000	99.776611
1444.000000	99.777253
1443.000000	99.777745
1442.000000	99.777747
1441.000000	99.777439
1440.000000	99.777402
1439.000000	99.778255
1438.000000	99.779896
1437.000000	99.780991
1436.000000	99.779940
1435.000000	99.776738
1434.000000	99.772926
1433.000000	99.770163
1432.000000	99.769472
1431.000000	99.770980
1430.000000	99.773724
1429.000000	99.776306
1428.000000	99.778223
1427.000000	99.779837
1426.000000	99.781733
1425.000000	99.783754
1424.000000	99.784892
1423.000000	99.784587
1422.000000	99.783273
1421.000000	99.781887
1420.000000	99.781247
1419.000000	99.782043
1418.000000	99.784352
1417.000000	99.787288
1416.000000	99.790032
1415.000000	99.792227
1414.000000	99.793719
1413.000000	99.794630
1412.000000	99.795513
1411.000000	99.797111
1410.000000	99.799603
1409.000000	99.802305
1408.000000	99.804224
1407.000000	99.804554
1406.000000	99.803186
1405.000000	99.800922
1404.000000	99.799234
1403.000000	99.799177
1402.000000	99.800614
1401.000000	99.802810
1400.000000	99.805005
1399.000000	99.806784
1398.000000	99.808167
1397.000000	99.809240
1396.000000	99.809872
1395.000000	99.809868
1394.000000	99.809434
1393.000000	99.809077
1392.000000	99.809178
1391.000000	99.809917
1390.000000	99.811306
1389.000000	99.813126
1388.000000	99.814985
1387.000000	99.816440
1386.000000	99.817293
1385.000000	99.817754
1384.000000	99.818204
1383.000000	99.818942
1382.000000	99.820030
1381.000000	99.821276
1380.000000	99.822332
1379.000000	99.822965
1378.000000	99.823280
1377.000000	99.823638
1376.000000	99.824309
1375.000000	99.825237
1374.000000	99.826169
1373.000000	99.826909
1372.000000	99.827448
1371.000000	99.827892
1370.000000	99.828407
1369.000000	99.829159
1368.000000	99.830176
1367.000000	99.831241
1366.000000	99.832002
1365.000000	99.832253
1364.000000	99.832027
1363.000000	99.831610
1362.000000	99.831410
1361.000000	99.831620
1360.000000	99.832149
1359.000000	99.832756
1358.000000	99.833244
1357.000000	99.833591
1356.000000	99.833929
1355.000000	99.834369
1354.000000	99.834832
1353.000000	99.835082
1352.000000	99.834944
1351.000000	99.834392
1350.000000	99.833563
1349.000000	99.832806
1348.000000	99.832515
1347.000000	99.832842
1346.000000	99.833573
1345.000000	99.834230
1344.000000	99.834508
1343.000000	99.834458
1342.000000	99.834313
1341.000000	99.834273
1340.000000	99.834379
1339.000000	99.834522
1338.000000	99.834546
1337.000000	99.834388
1336.000000	99.834145
1335.000000	99.834010
1334.000000	99.834106
1333.000000	99.834387
1332.000000	99.834658
1331.000000	99.834721
1330.000000	99.834532
1329.000000	99.834230
1328.000000	99.834036
1327.000000	99.834050
1326.000000	99.834160
1325.000000	99.834086
1324.000000	99.833649
1323.000000	99.832889
1322.000000	99.831973
1321.000000	99.831053
1320.000000	99.830190
1319.000000	99.829373
1318.000000	99.828513
1317.000000	99.827473
1316.000000	99.826204
1315.000000	99.824793
1314.000000	99.823368
1313.000000	99.821945
1312.000000	99.820425
1311.000000	99.818722
1310.000000	99.816854
1309.000000	99.814893
1308.000000	99.812909
1307.000000	99.810914
1306.000000	99.808881
1305.000000	99.806767
1304.000000	99.804531
1303.000000	99.802161
1302.000000	99.799682
1301.000000	99.797163
1300.000000	99.794661
1299.000000	99.792188
1298.000000	99.789685
1297.000000	99.787047
1296.000000	99.784207
1295.000000	99.781183
1294.000000	99.778048
1293.000000	99.774847
1292.000000	99.771607
1291.000000	99.768364
1290.000000	99.765079
1289.000000	99.761604
1288.000000	99.757852
1287.000000	99.754026
1286.000000	99.750523
1285.000000	99.747577
1284.000000	99.744919
1283.000000	99.741873
1282.000000	99.737961
1281.000000	99.733364
1280.000000	99.728853
1279.000000	99.725077
1278.000000	99.722071
1277.000000	99.719522
1276.000000	99.717244
1275.000000	99.715037
1274.000000	99.712384
1273.000000	99.709246
1272.000000	99.707094
1271.000000	99.707247
1270.000000	99.707406
1269.000000	99.702561
1268.000000	99.691439
1267.000000	99.680234
1266.000000	99.676413
1265.000000	99.679308
1264.000000	99.680499
1263.000000	99.674274
1262.000000	99.663983
1261.000000	99.656485
1260.000000	99.653453
1259.000000	99.651157
1258.000000	99.646708
1257.000000	99.640765
1256.000000	99.634360
1255.000000	99.626075
1254.000000	99.613647
1253.000000	99.597072
1252.000000	99.578793
1251.000000	99.561320
1250.000000	99.546065
1249.000000	99.534932
1248.000000	99.531386
1247.000000	99.537346
1246.000000	99.548633
1245.000000	99.556046
1244.000000	99.552948
1243.000000	99.540598
1242.000000	99.524983
1241.000000	99.510019
1240.000000	99.495797
1239.000000	99.482028
1238.000000	99.469799
1237.000000	99.459864
1236.000000	99.452096
1235.000000	99.447187
1234.000000	99.446115
1233.000000	99.446403
1232.000000	99.440890
1231.000000	99.422733
1230.000000	99.392069
1229.000000	99.357049
1228.000000	99.328182
1227.000000	99.311339
1226.000000	99.305006
1225.000000	99.302808
1224.000000	99.297336
1223.000000	99.281767
1222.000000	99.251072
1221.000000	99.205502
1220.000000	99.153330
1219.000000	99.106248
1218.000000	99.068699
1217.000000	99.033882
1216.000000	98.993121
1215.000000	98.947043
1214.000000	98.904133
1213.000000	98.869243
1212.000000	98.837570
1211.000000	98.800616
1210.000000	98.754904
1209.000000	98.703667
1208.000000	98.652807
1207.000000	98.607244
1206.000000	98.569271
1205.000000	98.537241
1204.000000	98.504761
1203.000000	98.463170
1202.000000	98.408506
1201.000000	98.347846
1200.000000	98.296372
1199.000000	98.263977
1198.000000	98.244285
1197.000000	98.220093
1196.000000	98.180735
1195.000000	98.130677
1194.000000	98.081049
1193.000000	98.037719
1192.000000	98.000078
1191.000000	97.965696
1190.000000	97.930094
1189.000000	97.885647
1188.000000	97.828719
1187.000000	97.768142
1186.000000	97.719711
1185.000000	97.689329
1184.000000	97.665694
1183.000000	97.631925
1182.000000	97.581549
1181.000000	97.521118
1180.000000	97.460180
1179.000000	97.401996
1178.000000	97.343361
1177.000000	97.280400
1176.000000	97.212817
1175.000000	97.143011
1174.000000	97.072770
1173.000000	97.002563
1172.000000	96.933627
1171.000000	96.867692
1170.000000	96.803355
1169.000000	96.736122
1168.000000	96.665475
1167.000000	96.599877
1166.000000	96.550542
1165.000000	96.520605
1164.000000	96.503307
1163.000000	96.490643
1162.000000	96.481721
1161.000000	96.481513
1160.000000	96.492871
1159.000000	96.511248
1158.000000	96.526484
1157.000000	96.528430
1156.000000	96.510680
1155.000000	96.471728
1154.000000	96.416470
1153.000000	96.356750
1152.000000	96.305290
1151.000000	96.264465
1150.000000	96.222948
1149.000000	96.168170
1148.000000	96.101560
1147.000000	96.037298
1146.000000	95.985989
1145.000000	95.944515
1144.000000	95.903326
1143.000000	95.857777
1142.000000	95.808989
1141.000000	95.758781
1140.000000	95.709634
1139.000000	95.667058
1138.000000	95.635057
1137.000000	95.608223
1136.000000	95.573120
1135.000000	95.520656
1134.000000	95.455435
1133.000000	95.390739
1132.000000	95.335061
1131.000000	95.285810
1130.000000	95.236467
1129.000000	95.186550
1128.000000	95.141073
1127.000000	95.101746
1126.000000	95.064281
1125.000000	95.025863
1124.000000	94.989246
1123.000000	94.954899
1122.000000	94.914096
1121.000000	94.857266
1120.000000	94.787895
1119.000000	94.721252
1118.000000	94.667157
1117.000000	94.620100
1116.000000	94.569374
1115.000000	94.513390
1114.000000	94.459352
1113.000000	94.412993
1112.000000	94.374423
1111.000000	94.341953
1110.000000	94.314109
1109.000000	94.286696
1108.000000	94.251250
1107.000000	94.199750
1106.000000	94.133105
1105.000000	94.064962
1104.000000	94.013212
1103.000000	93.983847
1102.000000	93.964288
1101.000000	93.936666
1100.000000	93.896711
1099.000000	93.854876
1098.000000	93.822101
1097.000000	93.802001
1096.000000	93.794022
1095.000000	93.792788
1094.000000	93.783076
1093.000000	93.747846
1092.000000	93.687831
1091.000000	93.625551
1090.000000	93.582817
1089.000000	93.559058
1088.000000	93.537365
1087.000000	93.507080
1086.000000	93.474711
1085.000000	93.455080
1084.000000	93.456437
1083.000000	93.472455
1082.000000	93.485542
1081.000000	93.479604
1080.000000	93.450828
1079.000000	93.406065
1078.000000	93.354608
1077.000000	93.306126
1076.000000	93.272310
1075.000000	93.259466
1074.000000	93.257554
1073.000000	93.246526
1072.000000	93.216957
1071.000000	93.175804
1070.000000	93.128947
1069.000000	93.068148
1068.000000	92.982536
1067.000000	92.875290
1066.000000	92.760247
1065.000000	92.646471
1064.000000	92.534865
1063.000000	92.426802
1062.000000	92.326410
1061.000000	92.234212
1060.000000	92.146137
1059.000000	92.061292
1058.000000	91.986487
1057.000000	91.929309
1056.000000	91.886149
1055.000000	91.838865
1054.000000	91.768374
1053.000000	91.675828
1052.000000	91.585962
1051.000000	91.520664
1050.000000	91.470290
1049.000000	91.402050
1048.000000	91.297186
1047.000000	91.168447
1046.000000	91.041163
1045.000000	90.930197
1044.000000	90.838735
1043.000000	90.766210
1042.000000	90.707843
1041.000000	90.651921
1040.000000	90.585837
1039.000000	90.505669
1038.000000	90.418202
1037.000000	90.334380
1036.000000	90.260307
1035.000000	90.192067
1034.000000	90.120876
1033.000000	90.047012
1032.000000	89.985180
1031.000000	89.950593
1030.000000	89.943462
1029.000000	89.952991
1028.000000	89.971133
1027.000000	89.992611
1026.000000	90.006476
1025.000000	90.002187
1024.000000	89.984162
1023.000000	89.967653
1022.000000	89.958452
1021.000000	89.947572
1020.000000	89.927630
1019.000000	89.903011
1018.000000	89.880394
1017.000000	89.860253
1016.000000	89.843027
1015.000000	89.834417
1014.000000	89.837728
1013.000000	89.846085
1012.000000	89.846918
1011.000000	89.831932
1010.000000	89.802588
1009.000000	89.769457
1008.000000	89.744776
1007.000000	89.731253
1006.000000	89.721383
1005.000000	89.713125
1004.000000	89.719994
1003.000000	89.755246
1002.000000	89.810214
1001.000000	89.860848
1000.000000	89.894766
999.000000	89.919373
998.000000	89.944312
997.000000	89.970734
996.000000	89.999565
995.000000	90.035318
994.000000	90.075835
993.000000	90.110031
992.000000	90.133146
991.000000	90.156068
990.000000	90.192961
989.000000	90.245853
988.000000	90.305896
987.000000	90.364008
986.000000	90.416636
985.000000	90.466167
984.000000	90.519460
983.000000	90.582438
982.000000	90.653600
981.000000	90.725253
980.000000	90.791335
979.000000	90.851836
978.000000	90.912689
977.000000	90.985713
976.000000	91.084046
975.000000	91.209345
974.000000	91.344748
973.000000	91.468258
972.000000	91.572397
971.000000	91.664335
970.000000	91.751005
969.000000	91.833844
968.000000	91.916048
967.000000	92.004420
966.000000	92.102760
965.000000	92.210426
964.000000	92.326603
963.000000	92.448240
962.000000	92.565583
961.000000	92.669609
960.000000	92.764173
959.000000	92.862361
958.000000	92.970305
957.000000	93.082079
956.000000	93.189518
955.000000	93.287466
954.000000	93.369744
953.000000	93.430999
952.000000	93.475663
951.000000	93.516835
950.000000	93.562650
949.000000	93.610475
948.000000	93.657172
947.000000	93.707525
946.000000	93.768658
945.000000	93.841641
944.000000	93.921804
943.000000	94.002228
942.000000	94.074304
941.000000	94.129753
940.000000	94.165210
939.000000	94.183179
938.000000	94.188949
937.000000	94.189179
936.000000	94.191580
935.000000	94.201529
934.000000	94.220513
933.000000	94.251649
932.000000	94.301701
931.000000	94.369818
930.000000	94.438968
929.000000	94.490142
928.000000	94.523478
927.000000	94.554193
926.000000	94.589010
925.000000	94.619957
924.000000	94.642890
923.000000	94.667018
922.000000	94.699377
921.000000	94.731662
920.000000	94.751079
919.000000	94.756497
918.000000	94.757169
917.000000	94.762797
916.000000	94.781416
915.000000	94.819102
914.000000	94.872633
913.000000	94.926994
912.000000	94.968125
911.000000	94.996271
910.000000	95.022939
909.000000	95.059311
908.000000	95.111623
907.000000	95.181009
906.000000	95.261265
905.000000	95.342544
904.000000	95.424260
903.000000	95.519332
902.000000	95.638042
901.000000	95.770889
900.000000	95.894307
899.000000	95.992047
898.000000	96.064899
897.000000	96.121924
896.000000	96.171118
895.000000	96.220357
894.000000	96.279747
893.000000	96.356422
892.000000	96.447662
891.000000	96.542311
890.000000	96.630069
889.000000	96.708964
888.000000	96.783572
887.000000	96.857049
886.000000	96.926644
885.000000	96.987276
884.000000	97.036810
883.000000	97.076257
882.000000	97.108103
881.000000	97.138353
880.000000	97.177494
879.000000	97.232388
878.000000	97.296545
877.000000	97.355306
876.000000	97.403251
875.000000	97.450316
874.000000	97.506930
873.000000	97.569151
872.000000	97.625010
871.000000	97.671679
870.000000	97.718766
869.000000	97.774328
868.000000	97.833855
867.000000	97.886673
866.000000	97.930554
865.000000	97.975098
864.000000	98.029106
863.000000	98.088341
862.000000	98.140960
861.000000	98.185043
860.000000	98.234597
859.000000	98.304558
858.000000	98.393537
857.000000	98.485208
856.000000	98.562450
855.000000	98.614393
854.000000	98.635269
853.000000	98.627980
852.000000	98.609495
851.000000	98.602754
850.000000	98.618188
849.000000	98.648467
848.000000	98.682848
847.000000	98.718546
846.000000	98.754789
845.000000	98.784962
844.000000	98.803002
843.000000	98.813246
842.000000	98.826220
841.000000	98.844808
840.000000	98.858676
839.000000	98.851941
838.000000	98.814616
837.000000	98.749321
836.000000	98.670135
835.000000	98.594340
834.000000	98.534904
833.000000	98.502338
832.000000	98.509004
831.000000	98.559860
830.000000	98.636254
829.000000	98.702356
828.000000	98.737364
827.000000	98.751185
826.000000	98.757933
825.000000	98.746960
824.000000	98.699699
823.000000	98.627191
822.000000	98.565949
821.000000	98.536272
820.000000	98.527622
819.000000	98.526937
818.000000	98.538274
817.000000	98.564976
816.000000	98.586858
815.000000	98.569975
814.000000	98.497784
813.000000	98.383957
812.000000	98.252730
811.000000	98.111241
810.000000	97.943248
809.000000	97.727531
808.000000	97.459553
807.000000	97.154844
806.000000	96.835132
805.000000	96.518725
804.000000	96.225386
803.000000	95.976300
802.000000	95.775426
801.000000	95.598355
800.000000	95.417389
799.000000	95.238472
798.000000	95.098364
797.000000	95.022743
796.000000	95.000464
795.000000	95.002081
794.000000	95.010790
793.000000	95.026974
792.000000	95.053248
791.000000	95.089910
790.000000	95.141024
789.000000	95.208020
788.000000	95.270872
787.000000	95.286774
786.000000	95.221064
785.000000	95.080459
784.000000	94.909484
783.000000	94.753693
782.000000	94.630140
781.000000	94.531175
780.000000	94.447143
779.000000	94.379671
778.000000	94.338576
777.000000	94.336007
776.000000	94.384751
775.000000	94.492409
774.000000	94.649691
773.000000	94.826910
772.000000	94.988276
771.000000	95.112870
770.000000	95.202570
769.000000	95.271406
768.000000	95.330842
767.000000	95.386892
766.000000	95.446030
765.000000	95.514488
764.000000	95.588747
763.000000	95.655159
762.000000	95.708784
761.000000	95.769114
760.000000	95.864470
759.000000	95.997551
758.000000	96.135695
757.000000	96.241184
756.000000	96.304347
755.000000	96.341422
754.000000	96.369486
753.000000	96.394821
752.000000	96.420973
751.000000	96.452892
750.000000	96.488377
749.000000	96.515435
748.000000	96.527183
747.000000	96.537669
746.000000	96.575553
745.000000	96.657951
744.000000	96.771397
743.000000	96.880140
742.000000	96.955284
741.000000	96.994971
740.000000	97.015496
739.000000	97.029347
738.000000	97.039393
737.000000	97.051059
736.000000	97.076290
735.000000	97.118979
734.000000	97.166499
733.000000	97.206212
732.000000	97.244811
731.000000	97.299209
730.000000	97.370777
729.000000	97.442076
728.000000	97.500217
727.000000	97.548938
726.000000	97.591997
725.000000	97.619174
724.000000	97.621084
723.000000	97.611532
722.000000	97.623772
721.000000	97.682062
720.000000	97.778071
719.000000	97.877066
718.000000	97.949346
717.000000	97.992387
716.000000	98.024641
715.000000	98.064346
714.000000	98.113604
713.000000	98.159158
712.000000	98.184069
711.000000	98.177355
710.000000	98.139946
709.000000	98.089575
708.000000	98.056174
707.000000	98.059852
706.000000	98.088942
705.000000	98.108367
704.000000	98.093887
703.000000	98.048934
702.000000	97.982895
701.000000	97.885217
700.000000	97.734794
699.000000	97.531579
698.000000	97.307090
697.000000	97.102260
696.000000	96.943867
695.000000	96.844264
694.000000	96.811711
693.000000	96.848401
692.000000	96.939466
691.000000	97.055547
690.000000	97.173573
689.000000	97.290171
688.000000	97.405477
687.000000	97.498255
686.000000	97.537617
685.000000	97.527329
684.000000	97.520826
683.000000	97.574397
682.000000	97.689121
681.000000	97.809337
680.000000	97.878341
679.000000	97.887319
678.000000	97.867315
677.000000	97.854496
676.000000	97.873499
675.000000	97.939680
674.000000	98.052111
673.000000	98.182075
672.000000	98.289690
671.000000	98.359575
670.000000	98.407732
669.000000	98.460152
668.000000	98.522383
667.000000	98.575665
666.000000	98.618631
665.000000	98.660110
664.000000	98.695151
663.000000	98.708099
662.000000	98.691621
661.000000	98.662514
660.000000	98.651054
659.000000	98.676936
658.000000	98.735607
657.000000	98.805597
656.000000	98.869600
655.000000	98.925851
654.000000	98.978751
653.000000	99.024621
652.000000	99.052019
651.000000	99.053032
650.000000	99.028399
