4000.000000	100.491938
3999.000000	100.470577
3998.000000	100.454753
3997.000000	100.448846
3996.000000	100.454882
3995.000000	100.470486
3994.000000	100.489174
3993.000000	100.504154
3992.000000	100.511416
3991.000000	100.509637
3990.000000	100.498930
3989.000000	100.480436
3988.000000	100.456909
3987.000000	100.432817
3986.000000	100.412616
3985.000000	100.398472
3984.000000	100.389867
3983.000000	100.385489
3982.000000	100.385031
3981.000000	100.388643
3980.000000	100.395142
3979.000000	100.401984
3978.000000	100.407695
3977.000000	100.413923
3976.000000	100.423990
3975.000000	100.438793
3974.000000	100.454383
3973.000000	100.464211
3972.000000	100.464192
3971.000000	100.455299
3970.000000	100.441830
3969.000000	100.427850
3968.000000	100.415505
3967.000000	100.406222
3966.000000	100.402096
3965.000000	100.405102
3964.000000	100.414994
3963.000000	100.428435
3962.000000	100.440576
3961.000000	100.448005
3960.000000	100.450416
3959.000000	100.449785
3958.000000	100.448119
3957.000000	100.445657
3956.000000	100.440873
3955.000000	100.432162
3954.000000	100.419614
3953.000000	100.405241
3952.000000	100.391778
3951.000000	100.381447
3950.000000	100.375319
3949.000000	100.373131
3948.000000	100.373857
3947.000000	100.377240
3946.000000	100.384682
3945.000000	100.397991
3944.000000	100.416785
3943.000000	100.437114
3942.000000	100.453170
3941.000000	100.460496
3940.000000	100.457459
3939.000000	100.445052
3938.000000	100.426535
3937.000000	100.406578
3936.000000	100.389862
3935.000000	100.379842
3934.000000	100.377953
3933.000000	100.383053
3932.000000	100.391433
3931.000000	100.398553
3930.000000	100.401658
3929.000000	100.400798
3928.000000	100.397743
3927.000000	100.394139
3926.000000	100.390291
3925.000000	100.385340
3924.000000	100.378379
3923.000000	100.368733
3922.000000	100.355587
3921.000000	100.338795
3920.000000	100.320092
3919.000000	100.302783
3918.000000	100.290557
3917.000000	100.286838
3916.000000	100.294089
3915.000000	100.312207
3914.000000	100.337765
3913.000000	100.365218
3912.000000	100.389736
3911.000000	100.408788
3910.000000	100.421479
3909.000000	100.426997
3908.000000	100.424361
3907.000000	100.413525
3906.000000	100.397022
3905.000000	100.380307
3904.000000	100.369273
3903.000000	100.366221
3902.000000	100.368385
3901.000000	100.371060
3900.000000	100.371450
3899.000000	100.369226
3898.000000	100.364609
3897.000000	100.357164
3896.000000	100.347234
3895.000000	100.336935
3894.000000	100.327520
3893.000000	100.316029
3892.000000	100.297975
3891.000000	100.273973
3890.000000	100.250345
3889.000000	100.231400
3888.000000	100.216322
3887.000000	100.204113
3886.000000	100.197799
3885.000000	100.203043
3884.000000	100.222256
3883.000000	100.251100
3882.000000	100.283237
3881.000000	100.315829
3880.000000	100.347701
3879.000000	100.375448
3878.000000	100.392863
3877.000000	100.395834
3876.000000	100.389158
3875.000000	100.385167
3874.000000	100.394757
3873.000000	100.419642
3872.000000	100.451289
3871.000000	100.478103
3870.000000	100.496331
3869.000000	100.510975
3868.000000	100.523388
3867.000000	100.523807
3866.000000	100.502377
3865.000000	100.463202
3864.000000	100.423777
3863.000000	100.400044
3862.000000	100.394202
3861.000000	100.398777
3860.000000	100.406985
3859.000000	100.416004
3858.000000	100.424793
3857.000000	100.430495
3856.000000	100.425679
3855.000000	100.400365
3854.000000	100.355796
3853.000000	100.314998
3852.000000	100.299466
3851.000000	100.303109
3850.000000	100.307706
3849.000000	100.307286
3848.000000	100.306018
3847.000000	100.306625
3846.000000	100.307214
3845.000000	100.304145
3844.000000	100.296346
3843.000000	100.286495
3842.000000	100.279487
3841.000000	100.278761
3840.000000	100.284225
3839.000000	100.293924
3838.000000	100.306918
3837.000000	100.323392
3836.000000	100.342841
3835.000000	100.363061
3834.000000	100.381226
3833.000000	100.394649
3832.000000	100.401279
3831.000000	100.401317
3830.000000	100.396891
3829.000000	100.389606
3828.000000	100.380002
3827.000000	100.368769
3826.000000	100.357859
3825.000000	100.349483
3824.000000	100.343416
3823.000000	100.337230
3822.000000	100.330785
3821.000000	100.328215
3820.000000	100.333978
3819.000000	100.345717
3818.000000	100.353847
3817.000000	100.352621
3816.000000	100.345491
3815.000000	100.339160
3814.000000	100.334744
3813.000000	100.326705
3812.000000	100.312599
3811.000000	100.298208
3810.000000	100.290870
3809.000000	100.292571
3808.000000	100.299494
3807.000000	100.307198
3806.000000	100.315227
3805.000000	100.324849
3804.000000	100.334468
3803.000000	100.340422
3802.000000	100.340511
3801.000000	100.336662
3800.000000	100.333405
3799.000000	100.331068
3798.000000	100.326544
3797.000000	100.320128
3796.000000	100.315423
3795.000000	100.314763
3794.000000	100.316432
3793.000000	100.316428
3792.000000	100.312519
3791.000000	100.305807
3790.000000	100.299107
3789.000000	100.294693
3788.000000	100.293418
3787.000000	100.295114
3786.000000	100.299271
3785.000000	100.305366
3784.000000	100.312667
3783.000000	100.319729
3782.000000	100.324396
3781.000000	100.324785
3780.000000	100.320747
3779.000000	100.314219
3778.000000	100.307957
3777.000000	100.303508
3776.000000	100.300997
3775.000000	100.300493
3774.000000	100.302479
3773.000000	100.306943
3772.000000	100.312614
3771.000000	100.317266
3770.000000	100.319226
3769.000000	100.318529
3768.000000	100.316295
3767.000000	100.313537
3766.000000	100.311110
3765.000000	100.310010
3764.000000	100.311055
3763.000000	100.314325
3762.000000	100.319066
3761.000000	100.324185
3760.000000	100.328677
3759.000000	100.331664
3758.000000	100.332454
3757.000000	100.330714
3756.000000	100.326853
3755.000000	100.322113
3754.000000	100.318442
3753.000000	100.318334
3752.000000	100.323920
3751.000000	100.334578
3750.000000	100.345660
3749.000000	100.352101
3748.000000	100.352007
3747.000000	100.346464
3746.000000	100.338054
3745.000000	100.330106
3744.000000	100.325874
3743.000000	100.325367
3742.000000	100.323512
3741.000000	100.316304
3740.000000	100.307071
3739.000000	100.302438
3738.000000	100.305161
3737.000000	100.311341
3736.000000	100.313911
3735.000000	100.310310
3734.000000	100.305352
3733.000000	100.304912
3732.000000	100.309699
3731.000000	100.316783
3730.000000	100.322945
3729.000000	100.326421
3728.000000	100.327348
3727.000000	100.326587
3726.000000	100.324233
3725.000000	100.319391
3724.000000	100.311136
3723.000000	100.300195
3722.000000	100.288941
3721.000000	100.278799
3720.000000	100.269270
3719.000000	100.260049
3718.000000	100.252130
3717.000000	100.246564
3716.000000	100.243288
3715.000000	100.240283
3714.000000	100.234445
3713.000000	100.223368
3712.000000	100.206507
3711.000000	100.185948
3710.000000	100.165513
3709.000000	100.147349
3708.000000	100.130590
3707.000000	100.114433
3706.000000	100.099653
3705.000000	100.086894
3704.000000	100.075743
3703.000000	100.066045
3702.000000	100.059268
3701.000000	100.057090
3700.000000	100.058509
3699.000000	100.059447
3698.000000	100.056260
3697.000000	100.049155
3696.000000	100.042498
3695.000000	100.041620
3694.000000	100.049587
3693.000000	100.066931
3692.000000	100.092182
3691.000000	100.120948
3690.000000	100.146145
3689.000000	100.161953
3688.000000	100.167212
3687.000000	100.162557
3686.000000	100.148088
3685.000000	100.126783
3684.000000	100.104501
3683.000000	100.085512
3682.000000	100.069831
3681.000000	100.054614
3680.000000	100.037794
3679.000000	100.019880
3678.000000	100.001698
3677.000000	99.982847
3676.000000	99.966180
3675.000000	99.959150
3674.000000	99.964009
3673.000000	99.969831
3672.000000	99.964815
3671.000000	99.950965
3670.000000	99.937059
3669.000000	99.926954
3668.000000	99.916951
3667.000000	99.900745
3666.000000	99.879618
3665.000000	99.862204
3664.000000	99.853834
3663.000000	99.852510
3662.000000	99.853269
3661.000000	99.853584
3660.000000	99.854499
3659.000000	99.857777
3658.000000	99.863076
3657.000000	99.867995
3656.000000	99.870666
3655.000000	99.871830
3654.000000	99.873057
3653.000000	99.875528
3652.000000	99.880151
3651.000000	99.884814
3650.000000	99.883376
3649.000000	99.872346
3648.000000	99.855731
3647.000000	99.837609
3646.000000	99.816525
3645.000000	99.790427
3644.000000	99.761119
3643.000000	99.733527
3642.000000	99.712355
3641.000000	99.698872
3640.000000	99.690340
3639.000000	99.682396
3638.000000	99.672297
3637.000000	99.659527
3636.000000	99.643851
3635.000000	99.624962
3634.000000	99.604741
3633.000000	99.588373
3632.000000	99.581787
3631.000000	99.588798
3630.000000	99.609798
3629.000000	99.639456
3628.000000	99.667387
3627.000000	99.684092
3626.000000	99.684799
3625.000000	99.674354
3624.000000	99.664863
3623.000000	99.665381
3622.000000	99.677632
3621.000000	99.697287
3620.000000	99.716481
3619.000000	99.727622
3618.000000	99.727900
3617.000000	99.720190
3616.000000	99.710258
3615.000000	99.704105
3614.000000	99.705475
3613.000000	99.714408
3612.000000	99.727928
3611.000000	99.741087
3610.000000	99.748687
3609.000000	99.748286
3608.000000	99.741767
3607.000000	99.733076
3606.000000	99.723993
3605.000000	99.713119
3604.000000	99.698999
3603.000000	99.682426
3602.000000	99.665843
3601.000000	99.652071
3600.000000	99.643784
3599.000000	99.642854
3598.000000	99.649396
3597.000000	99.662695
3596.000000	99.682677
3595.000000	99.708715
3594.000000	99.736972
3593.000000	99.760412
3592.000000	99.772802
3591.000000	99.773417
3590.000000	99.768128
3589.000000	99.766185
3588.000000	99.774357
3587.000000	99.792142
3586.000000	99.812803
3585.000000	99.828561
3584.000000	99.835166
3583.000000	99.833177
3582.000000	99.825183
3581.000000	99.813230
3580.000000	99.799539
3579.000000	99.787211
3578.000000	99.778398
3577.000000	99.772341
3576.000000	99.766550
3575.000000	99.759764
3574.000000	99.752659
3573.000000	99.745523
3572.000000	99.736474
3571.000000	99.723248
3570.000000	99.706323
3569.000000	99.689659
3568.000000	99.678719
3567.000000	99.677363
3566.000000	99.685628
3565.000000	99.699991
3564.000000	99.715912
3563.000000	99.731215
3562.000000	99.746154
3561.000000	99.760649
3560.000000	99.773153
3559.000000	99.781910
3558.000000	99.786539
3557.000000	99.788514
3556.000000	99.790720
3555.000000	99.796588
3554.000000	99.808716
3553.000000	99.827102
3552.000000	99.848093
3551.000000	99.865596
3550.000000	99.874257
3549.000000	99.872197
3548.000000	99.861815
3547.000000	99.848135
3546.000000	99.835781
3545.000000	99.826734
3544.000000	99.820356
3543.000000	99.814984
3542.000000	99.809287
3541.000000	99.802458
3540.000000	99.793826
3539.000000	99.782705
3538.000000	99.768733
3537.000000	99.752475
3536.000000	99.735837
3535.000000	99.721772
3534.000000	99.713319
3533.000000	99.712489
3532.000000	99.719289
3531.000000	99.731077
3530.000000	99.742890
3529.000000	99.749519
3528.000000	99.748258
3527.000000	99.740369
3526.000000	99.730056
3525.000000	99.721895
3524.000000	99.718556
3523.000000	99.720128
3522.000000	99.725386
3521.000000	99.733498
3520.000000	99.744262
3519.000000	99.756770
3518.000000	99.768456
3517.000000	99.776067
3516.000000	99.777609
3515.000000	99.773149
3514.000000	99.764248
3513.000000	99.753165
3512.000000	99.742468
3511.000000	99.734757
3510.000000	99.731868
3509.000000	99.734094
3508.000000	99.740228
3507.000000	99.748183
3506.000000	99.755490
3505.000000	99.759704
3504.000000	99.759284
3503.000000	99.754938
3502.000000	99.749988
3501.000000	99.748275
3500.000000	99.751207
3499.000000	99.756990
3498.000000	99.762164
3497.000000	99.764226
3496.000000	99.763099
3495.000000	99.760337
3494.000000	99.757329
3493.000000	99.754484
3492.000000	99.751880
3491.000000	99.749913
3490.000000	99.749000
3489.000000	99.749015
3488.000000	99.749515
3487.000000	99.750466
3486.000000	99.752293
3485.000000	99.754960
3484.000000	99.757288
3483.000000	99.757460
3482.000000	99.754382
3481.000000	99.748735
3480.000000	99.742729
3479.000000	99.738739
3478.000000	99.737981
3477.000000	99.740154
3476.000000	99.743999
3475.000000	99.748398
3474.000000	99.753403
3473.000000	99.760239
3472.000000	99.769960
3471.000000	99.781620
3470.000000	99.791785
3469.000000	99.796322
3468.000000	99.793100
3467.000000	99.783461
3466.000000	99.771447
3465.000000	99.761300
3464.000000	99.755171
3463.000000	99.752406
3462.000000	99.750437
3461.000000	99.746652
3460.000000	99.740028
3459.000000	99.731329
3458.000000	99.722056
3457.000000	99.713524
3456.000000	99.706744
3455.000000	99.702641
3454.000000	99.701783
3453.000000	99.703957
3452.000000	99.708430
3451.000000	99.714650
3450.000000	99.722437
3449.000000	99.731448
3448.000000	99.740312
3447.000000	99.746382
3446.000000	99.747125
3445.000000	99.742645
3444.000000	99.736975
3443.000000	99.735933
3442.000000	99.742245
3441.000000	99.752601
3440.000000	99.760334
3439.000000	99.761421
3438.000000	99.757305
3437.000000	99.752354
3436.000000	99.749207
3435.000000	99.746795
3434.000000	99.742214
3433.000000	99.733692
3432.000000	99.722056
3431.000000	99.710262
3430.000000	99.701650
3429.000000	99.698146
3428.000000	99.699575
3427.000000	99.704221
3426.000000	99.709959
3425.000000	99.715255
3424.000000	99.719525
3423.000000	99.722639
3422.000000	99.724253
3421.000000	99.723930
3420.000000	99.722081
3419.000000	99.720410
3418.000000	99.720877
3417.000000	99.724062
3416.000000	99.728685
3415.000000	99.732655
3414.000000	99.734499
3413.000000	99.733864
3412.000000	99.731153
3411.000000	99.727216
3410.000000	99.723359
3409.000000	99.721072
3408.000000	99.721230
3407.000000	99.723371
3406.000000	99.725762
3405.000000	99.726446
3404.000000	99.724445
3403.000000	99.720088
3402.000000	99.714586
3401.000000	99.709468
3400.000000	99.706202
3399.000000	99.705725
3398.000000	99.707977
3397.000000	99.712005
3396.000000	99.716704
3395.000000	99.721436
3394.000000	99.725693
3393.000000	99.728235
3392.000000	99.727292
3391.000000	99.722145
3390.000000	99.714492
3389.000000	99.707897
3388.000000	99.705677
3387.000000	99.709154
3386.000000	99.717054
3385.000000	99.726125
3384.000000	99.732934
3383.000000	99.735862
3382.000000	99.735579
3381.000000	99.733522
3380.000000	99.730131
3379.000000	99.725007
3378.000000	99.718688
3377.000000	99.713324
3376.000000	99.710928
3375.000000	99.711402
3374.000000	99.712925
3373.000000	99.713856
3372.000000	99.713384
3371.000000	99.710462
3370.000000	99.703564
3369.000000	99.692432
3368.000000	99.679403
3367.000000	99.668070
3366.000000	99.660979
3365.000000	99.659473
3364.000000	99.665332
3363.000000	99.680756
3362.000000	99.705659
3361.000000	99.735661
3360.000000	99.764068
3359.000000	99.786167
3358.000000	99.801321
3357.000000	99.811388
3356.000000	99.817971
3355.000000	99.821201
3354.000000	99.820564
3353.000000	99.816244
3352.000000	99.809258
3351.000000	99.800031
3350.000000	99.787098
3349.000000	99.768104
3348.000000	99.742809
3347.000000	99.715056
3346.000000	99.691053
3345.000000	99.675067
3344.000000	99.666283
3343.000000	99.659515
3342.000000	99.649495
3341.000000	99.635458
3340.000000	99.621843
3339.000000	99.614127
3338.000000	99.614132
3337.000000	99.619855
3336.000000	99.629222
3335.000000	99.642233
3334.000000	99.658835
3333.000000	99.676861
3332.000000	99.694225
3331.000000	99.712316
3330.000000	99.734783
3329.000000	99.762416
3328.000000	99.790782
3327.000000	99.813746
3326.000000	99.828328
3325.000000	99.835464
3324.000000	99.837150
3323.000000	99.833927
3322.000000	99.824963
3321.000000	99.809751
3320.000000	99.789425
3319.000000	99.766685
3318.000000	99.744609
3317.000000	99.725701
3316.000000	99.711791
3315.000000	99.703704
3314.000000	99.699990
3313.000000	99.696519
3312.000000	99.689043
3311.000000	99.676973
3310.000000	99.664022
3309.000000	99.654690
3308.000000	99.650786
3307.000000	99.651720
3306.000000	99.657129
3305.000000	99.667881
3304.000000	99.684207
3303.000000	99.703379
3302.000000	99.719828
3301.000000	99.728405
3300.000000	99.728404
3299.000000	99.724681
3298.000000	99.724386
3297.000000	99.731937
3296.000000	99.746696
3295.000000	99.764595
3294.000000	99.781060
3293.000000	99.792857
3292.000000	99.799059
3291.000000	99.801565
3290.000000	99.803931
3289.000000	99.808144
3288.000000	99.812305
3287.000000	99.812253
3286.000000	99.805732
3285.000000	99.794822
3284.000000	99.784416
3283.000000	99.778346
3282.000000	99.776553
3281.000000	99.775351
3280.000000	99.770217
3279.000000	99.758719
3278.000000	99.741686
3277.000000	99.722552
3276.000000	99.705934
3275.000000	99.695906
3274.000000	99.693995
3273.000000	99.697869
3272.000000	99.702493
3271.000000	99.703776
3270.000000	99.701626
3269.000000	99.699571
3268.000000	99.701699
3267.000000	99.709823
3266.000000	99.722688
3265.000000	99.737121
3264.000000	99.750134
3263.000000	99.760380
3262.000000	99.767947
3261.000000	99.773354
3260.000000	99.777360
3259.000000	99.781334
3258.000000	99.786473
3257.000000	99.792058
3256.000000	99.795435
3255.000000	99.794512
3254.000000	99.789758
3253.000000	99.783211
3252.000000	99.776238
3251.000000	99.769015
3250.000000	99.761264
3249.000000	99.752349
3248.000000	99.741408
3247.000000	99.728830
3246.000000	99.717125
3245.000000	99.708703
3244.000000	99.702914
3243.000000	99.696986
3242.000000	99.690307
3241.000000	99.686048
3240.000000	99.687512
3239.000000	99.694123
3238.000000	99.702150
3237.000000	99.708826
3236.000000	99.714705
3235.000000	99.722092
3234.000000	99.732036
3233.000000	99.742830
3232.000000	99.750928
3231.000000	99.753628
3230.000000	99.751485
3229.000000	99.748101
3228.000000	99.747152
3227.000000	99.749652
3226.000000	99.754304
3225.000000	99.760009
3224.000000	99.767266
3223.000000	99.777143
3222.000000	99.789577
3221.000000	99.802846
3220.000000	99.814098
3219.000000	99.820339
3218.000000	99.819735
3217.000000	99.812753
3216.000000	99.802057
3215.000000	99.790941
3214.000000	99.781723
3213.000000	99.775460
3212.000000	99.772281
3211.000000	99.770967
3210.000000	99.768560
3209.000000	99.762119
3208.000000	99.751808
3207.000000	99.741178
3206.000000	99.733125
3205.000000	99.726367
3204.000000	99.717493
3203.000000	99.706473
3202.000000	99.698244
3201.000000	99.697705
3200.000000	99.704570
3199.000000	99.714408
3198.000000	99.724186
3197.000000	99.735349
3196.000000	99.751178
3195.000000	99.772415
3194.000000	99.796017
3193.000000	99.817444
3192.000000	99.833656
3191.000000	99.844266
3190.000000	99.850563
3189.000000	99.853760
3188.000000	99.854276
3187.000000	99.852636
3186.000000	99.850484
3185.000000	99.849987
3184.000000	99.852013
3183.000000	99.855185
3182.000000	99.856774
3181.000000	99.854382
3180.000000	99.847166
3179.000000	99.836254
3178.000000	99.824249
3177.000000	99.813797
3176.000000	99.806064
3175.000000	99.800460
3174.000000	99.795751
3173.000000	99.791331
3172.000000	99.787487
3171.000000	99.784565
3170.000000	99.781963
3169.000000	99.778306
3168.000000	99.773472
3167.000000	99.770738
3166.000000	99.775679
3165.000000	99.791364
3164.000000	99.814367
3163.000000	99.836116
3162.000000	99.849231
3161.000000	99.852167
3160.000000	99.847966
3159.000000	99.840519
3158.000000	99.832911
3157.000000	99.828083
3156.000000	99.828674
3155.000000	99.835151
3154.000000	99.844900
3153.000000	99.854176
3152.000000	99.861049
3151.000000	99.865923
3150.000000	99.869536
3149.000000	99.871437
3148.000000	99.870692
3147.000000	99.867466
3146.000000	99.863373
3145.000000	99.860354
3144.000000	99.859257
3143.000000	99.859231
3142.000000	99.858352
3141.000000	99.855247
3140.000000	99.850444
3139.000000	99.846057
3138.000000	99.843917
3137.000000	99.844150
3136.000000	99.845769
3135.000000	99.848281
3134.000000	99.852139
3133.000000	99.857606
3132.000000	99.863870
3131.000000	99.869619
3130.000000	99.874116
3129.000000	99.877291
3128.000000	99.879026
3127.000000	99.878917
3126.000000	99.876893
3125.000000	99.873917
3124.000000	99.871878
3123.000000	99.872558
3122.000000	99.876417
3121.000000	99.882269
3120.000000	99.888374
3119.000000	99.893754
3118.000000	99.898267
3117.000000	99.901623
3116.000000	99.902891
3115.000000	99.901345
3114.000000	99.897465
3113.000000	99.892876
3112.000000	99.889348
3111.000000	99.887991
3110.000000	99.889247
3109.000000	99.893012
3108.000000	99.898511
3107.000000	99.904298
3106.000000	99.908741
3105.000000	99.910862
3104.000000	99.910970
3103.000000	99.910611
3102.000000	99.911550
3101.000000	99.914470
3100.000000	99.918701
3099.000000	99.923080
3098.000000	99.926859
3097.000000	99.929741
3096.000000	99.931568
3095.000000	99.932455
3094.000000	99.932999
3093.000000	99.933842
3092.000000	99.935070
3091.000000	99.936470
3090.000000	99.938362
3089.000000	99.941619
3088.000000	99.946573
3087.000000	99.952218
3086.000000	99.956865
3085.000000	99.959466
3084.000000	99.959927
3083.000000	99.958529
3082.000000	99.955740
3081.000000	99.952611
3080.000000	99.950748
3079.000000	99.951310
3078.000000	99.954123
3077.000000	99.957879
3076.000000	99.961200
3075.000000	99.963605
3074.000000	99.965411
3073.000000	99.966970
3072.000000	99.968171
3071.000000	99.968615
3070.000000	99.968096
3069.000000	99.966884
3068.000000	99.965723
3067.000000	99.965541
3066.000000	99.966971
3065.000000	99.969892
3064.000000	99.973353
3063.000000	99.976083
3062.000000	99.977188
3061.000000	99.976443
3060.000000	99.974145
3059.000000	99.971023
3058.000000	99.968225
3057.000000	99.966882
3056.000000	99.967382
3055.000000	99.969040
3054.000000	99.970551
3053.000000	99.970958
3052.000000	99.970373
3051.000000	99.969880
3050.000000	99.970591
3049.000000	99.972542
3048.000000	99.974461
3047.000000	99.974925
3046.000000	99.973857
3045.000000	99.972766
3044.000000	99.973335
3043.000000	99.975843
3042.000000	99.978949
3041.000000	99.980872
3040.000000	99.980782
3039.000000	99.979093
3038.000000	99.976778
3037.000000	99.974702
3036.000000	99.973695
3035.000000	99.974798
3034.000000	99.978674
3033.000000	99.984605
3032.000000	99.990601
3031.000000	99.995222
3030.000000	99.998925
3029.000000	100.002936
3028.000000	100.007094
3027.000000	100.009686
3026.000000	100.009599
3025.000000	100.007888
3024.000000	100.006808
3023.000000	100.007553
3022.000000	100.009612
3021.000000	100.011987
3020.000000	100.014323
3019.000000	100.016896
3018.000000	100.019888
3017.000000	100.022830
3016.000000	100.024672
3015.000000	100.024551
3014.000000	100.022714
3013.000000	100.020623
3012.000000	100.019974
3011.000000	100.021734
3010.000000	100.026108
3009.000000	100.032712
3008.000000	100.040297
3007.000000	100.046897
3006.000000	100.051153
3005.000000	100.053456
3004.000000	100.055275
3003.000000	100.057424
3002.000000	100.059590
3001.000000	100.061625
3000.000000	100.064505
2999.000000	100.069445
2998.000000	100.076293
2997.000000	100.083106
2996.000000	100.087452
2995.000000	100.088296
2994.000000	100.086867
2993.000000	100.085797
2992.000000	100.086980
2991.000000	100.090167
2990.000000	100.093801
2989.000000	100.096927
2988.000000	100.099664
2987.000000	100.101890
2986.000000	100.102544
2985.000000	100.101103
2984.000000	100.099321
2983.000000	100.100369
2982.000000	100.105865
2981.000000	100.114100
2980.000000	100.121431
2979.000000	100.125327
2978.000000	100.125761
2977.000000	100.124028
2976.000000	100.121138
2975.000000	100.117873
2974.000000	100.115754
2973.000000	100.116550
2972.000000	100.120151
2971.000000	100.123558
2970.000000	100.123077
2969.000000	100.117636
2968.000000	100.109592
2967.000000	100.102467
2966.000000	100.098318
2965.000000	100.097424
2964.000000	100.099256
2963.000000	100.102536
2962.000000	100.104689
2961.000000	100.102821
2960.000000	100.096264
2959.000000	100.087919
2958.000000	100.082108
2957.000000	100.080688
2956.000000	100.081751
2955.000000	100.082094
2954.000000	100.080485
2953.000000	100.078056
2952.000000	100.076214
2951.000000	100.075302
2950.000000	100.075221
2949.000000	100.076257
2948.000000	100.078838
2947.000000	100.083160
2946.000000	100.089310
2945.000000	100.097056
2944.000000	100.105010
2943.000000	100.110694
2942.000000	100.112407
2941.000000	100.110919
2940.000000	100.108759
2939.000000	100.107700
2938.000000	100.107266
2937.000000	100.105712
2936.000000	100.102151
2935.000000	100.097815
2934.000000	100.095492
2933.000000	100.097434
2932.000000	100.103495
2931.000000	100.111159
2930.000000	100.117580
2929.000000	100.121560
2928.000000	100.123216
2927.000000	100.122628
2926.000000	100.119874
2925.000000	100.116026
2924.000000	100.112894
2923.000000	100.111497
2922.000000	100.111501
2921.000000	100.112361
2920.000000	100.114227
2919.000000	100.117387
2918.000000	100.121457
2917.000000	100.125599
2916.000000	100.129139
2915.000000	100.131634
2914.000000	100.132860
2913.000000	100.133150
2912.000000	100.133266
2911.000000	100.133571
2910.000000	100.133699
2909.000000	100.133421
2908.000000	100.133422
2907.000000	100.134614
2906.000000	100.136884
2905.000000	100.138995
2904.000000	100.139760
2903.000000	100.138986
2902.000000	100.137432
2901.000000	100.136423
2900.000000	100.137435
2899.000000	100.141294
2898.000000	100.147365
2897.000000	100.153722
2896.000000	100.158478
2895.000000	100.160843
2894.000000	100.160993
2893.000000	100.159539
2892.000000	100.157246
2891.000000	100.154863
2890.000000	100.153051
2889.000000	100.152572
2888.000000	100.154349
2887.000000	100.158793
2886.000000	100.164969
2885.000000	100.171034
2884.000000	100.175715
2883.000000	100.178802
2882.000000	100.180350
2881.000000	100.180244
2880.000000	100.178649
2879.000000	100.176071
2878.000000	100.172754
2877.000000	100.168746
2876.000000	100.164735
2875.000000	100.161916
2874.000000	100.160603
2873.000000	100.159827
2872.000000	100.158862
2871.000000	100.158374
2870.000000	100.159238
2869.000000	100.160850
2868.000000	100.161785
2867.000000	100.161924
2866.000000	100.162701
2865.000000	100.164672
2864.000000	100.165711
2863.000000	100.162693
2862.000000	100.155102
2861.000000	100.146388
2860.000000	100.141138
2859.000000	100.141026
2858.000000	100.143916
2857.000000	100.146813
2856.000000	100.149187
2855.000000	100.152751
2854.000000	100.158421
2853.000000	100.164594
2852.000000	100.168726
2851.000000	100.170021
2850.000000	100.170075
2849.000000	100.171511
2848.000000	100.176563
2847.000000	100.186345
2846.000000	100.200118
2845.000000	100.214739
2844.000000	100.225722
2843.000000	100.229838
2842.000000	100.227050
2841.000000	100.220180
2840.000000	100.212763
2839.000000	100.207247
2838.000000	100.204885
2837.000000	100.206253
2836.000000	100.211057
2835.000000	100.217463
2834.000000	100.222422
2833.000000	100.223438
2832.000000	100.220183
2831.000000	100.214422
2830.000000	100.208522
2829.000000	100.204074
2828.000000	100.201476
2827.000000	100.200239
2826.000000	100.199660
2825.000000	100.199710
2824.000000	100.201311
2823.000000	100.205238
2822.000000	100.210564
2821.000000	100.214721
2820.000000	100.215593
2819.000000	100.213359
2818.000000	100.210046
2817.000000	100.207645
2816.000000	100.207156
2815.000000	100.209171
2814.000000	100.214411
2813.000000	100.222964
2812.000000	100.233110
2811.000000	100.241595
2810.000000	100.245755
2809.000000	100.245364
2808.000000	100.242343
2807.000000	100.238800
2806.000000	100.235647
2805.000000	100.233262
2804.000000	100.232689
2803.000000	100.235058
2802.000000	100.239586
2801.000000	100.242968
2800.000000	100.241685
2799.000000	100.234987
2798.000000	100.225553
2797.000000	100.217477
2796.000000	100.213438
2795.000000	100.213680
2794.000000	100.216903
2793.000000	100.221635
2792.000000	100.226744
2791.000000	100.231007
2790.000000	100.232960
2789.000000	100.231871
2788.000000	100.228847
2787.000000	100.226224
2786.000000	100.225534
2785.000000	100.226603
2784.000000	100.228912
2783.000000	100.233119
2782.000000	100.240464
2781.000000	100.251034
2780.000000	100.263247
2779.000000	100.274633
2778.000000	100.282538
2777.000000	100.284750
2776.000000	100.280991
2775.000000	100.274074
2774.000000	100.268456
2773.000000	100.266884
2772.000000	100.269076
2771.000000	100.273386
2770.000000	100.278149
2769.000000	100.281093
2768.000000	100.279442
2767.000000	100.272450
2766.000000	100.263318
2765.000000	100.256996
2764.000000	100.255942
2763.000000	100.258762
2762.000000	100.262259
2761.000000	100.263826
2760.000000	100.262357
2759.000000	100.258422
2758.000000	100.254012
2757.000000	100.251043
2756.000000	100.249551
2755.000000	100.247918
2754.000000	100.244975
2753.000000	100.241325
2752.000000	100.238936
2751.000000	100.240243
2750.000000	100.247130
2749.000000	100.259267
2748.000000	100.273277
2747.000000	100.284929
2746.000000	100.292696
2745.000000	100.298188
2744.000000	100.303084
2743.000000	100.307121
2742.000000	100.309533
2741.000000	100.310804
2740.000000	100.311860
2739.000000	100.312698
2738.000000	100.313229
2737.000000	100.314746
2736.000000	100.319032
2735.000000	100.325944
2734.000000	100.332652
2733.000000	100.335210
2732.000000	100.330570
2731.000000	100.318104
2730.000000	100.300530
2729.000000	100.282704
2728.000000	100.267990
2727.000000	100.256258
2726.000000	100.246446
2725.000000	100.240293
2724.000000	100.241353
2723.000000	100.249940
2722.000000	100.261024
2721.000000	100.268326
2720.000000	100.269601
2719.000000	100.266867
2718.000000	100.262820
2717.000000	100.259008
2716.000000	100.257194
2715.000000	100.260342
2714.000000	100.270777
2713.000000	100.287485
2712.000000	100.305888
2711.000000	100.320721
2710.000000	100.329452
2709.000000	100.333003
2708.000000	100.333679
2707.000000	100.333147
2706.000000	100.332782
2705.000000	100.334908
2704.000000	100.341577
2703.000000	100.351296
2702.000000	100.358473
2701.000000	100.357850
2700.000000	100.349163
2699.000000	100.336427
2698.000000	100.323069
2697.000000	100.309266
2696.000000	100.294242
2695.000000	100.279351
2694.000000	100.267710
2693.000000	100.261741
2692.000000	100.261976
2691.000000	100.267224
2690.000000	100.274439
2689.000000	100.279111
2688.000000	100.277890
2687.000000	100.271448
2686.000000	100.263652
2685.000000	100.257575
2684.000000	100.253689
2683.000000	100.252709
2682.000000	100.258308
2681.000000	100.274576
2680.000000	100.300634
2679.000000	100.329091
2678.000000	100.350869
2677.000000	100.361301
2676.000000	100.361461
2675.000000	100.355370
2674.000000	100.347347
2673.000000	100.341326
2672.000000	100.340392
2671.000000	100.345132
2670.000000	100.352440
2669.000000	100.357360
2668.000000	100.357238
2667.000000	100.353937
2666.000000	100.351291
2665.000000	100.350376
2664.000000	100.348308
2663.000000	100.342143
2662.000000	100.332824
2661.000000	100.323934
2660.000000	100.317040
2659.000000	100.310256
2658.000000	100.301813
2657.000000	100.293114
2656.000000	100.286661
2655.000000	100.281950
2654.000000	100.275454
2653.000000	100.264847
2652.000000	100.251919
2651.000000	100.240910
2650.000000	100.235113
2649.000000	100.235694
2648.000000	100.242625
2647.000000	100.255348
2646.000000	100.272285
2645.000000	100.290474
2644.000000	100.306419
2643.000000	100.317452
2642.000000	100.322779
2641.000000	100.323953
2640.000000	100.324093
2639.000000	100.325833
2638.000000	100.329694
2637.000000	100.334431
2636.000000	100.338807
2635.000000	100.342758
2634.000000	100.346863
2633.000000	100.350824
2632.000000	100.352667
2631.000000	100.349676
2630.000000	100.340457
2629.000000	100.326430
2628.000000	100.311344
2627.000000	100.298967
2626.000000	100.291179
2625.000000	100.288145
2624.000000	100.289442
2623.000000	100.294277
2622.000000	100.300682
2621.000000	100.305391
2620.000000	100.305451
2619.000000	100.300249
2618.000000	100.291913
2617.000000	100.283721
2616.000000	100.278330
2615.000000	100.277391
2614.000000	100.281733
2613.000000	100.290849
2612.000000	100.302307
2611.000000	100.312532
2610.000000	100.318796
2609.000000	100.320334
2608.000000	100.317676
2607.000000	100.311677
2606.000000	100.303758
2605.000000	100.296711
2604.000000	100.294142
2603.000000	100.298247
2602.000000	100.308113
2601.000000	100.320240
2600.000000	100.330893
2599.000000	100.337936
2598.000000	100.340601
2597.000000	100.338547
2596.000000	100.331937
2595.000000	100.322371
2594.000000	100.313153
2593.000000	100.307907
2592.000000	100.308608
2591.000000	100.314775
2590.000000	100.324125
2589.000000	100.333756
2588.000000	100.340882
2587.000000	100.343080
2586.000000	100.338807
2585.000000	100.328273
2584.000000	100.313944
2583.000000	100.299939
2582.000000	100.290448
2581.000000	100.288209
2580.000000	100.293799
2579.000000	100.305608
2578.000000	100.320221
2577.000000	100.333307
2576.000000	100.341144
2575.000000	100.342154
2574.000000	100.337472
2573.000000	100.330229
2572.000000	100.323876
2571.000000	100.320846
2570.000000	100.322452
2569.000000	100.329201
2568.000000	100.340429
2567.000000	100.353553
2566.000000	100.364508
2565.000000	100.369898
2564.000000	100.368890
2563.000000	100.363136
2562.000000	100.355248
2561.000000	100.347625
2560.000000	100.342352
2559.000000	100.341066
2558.000000	100.344119
2557.000000	100.349938
2556.000000	100.355631
2555.000000	100.358646
2554.000000	100.358012
2553.000000	100.354287
2552.000000	100.348819
2551.000000	100.343132
2550.000000	100.338751
2549.000000	100.337025
2548.000000	100.338572
2547.000000	100.342770
2546.000000	100.347902
2545.000000	100.351996
2544.000000	100.353761
2543.000000	100.352956
2542.000000	100.350257
2541.000000	100.346926
2540.000000	100.344254
2539.000000	100.342925
2538.000000	100.342730
2537.000000	100.343016
2536.000000	100.343527
2535.000000	100.344675
2534.000000	100.346753
2533.000000	100.348995
2532.000000	100.349964
2531.000000	100.349124
2530.000000	100.347480
2529.000000	100.346433
2528.000000	100.346396
2527.000000	100.346919
2526.000000	100.347962
2525.000000	100.350277
2524.000000	100.354168
2523.000000	100.358447
2522.000000	100.361288
2521.000000	100.362133
2520.000000	100.361984
2519.000000	100.361662
2518.000000	100.360537
2517.000000	100.357755
2516.000000	100.354329
2515.000000	100.352524
2514.000000	100.352806
2513.000000	100.353015
2512.000000	100.351228
2511.000000	100.348543
2510.000000	100.347766
2509.000000	100.349689
2508.000000	100.351981
2507.000000	100.351961
2506.000000	100.349694
2505.000000	100.347799
2504.000000	100.348689
2503.000000	100.352789
2502.000000	100.359033
2501.000000	100.366130
2500.000000	100.373296
2499.000000	100.380061
2498.000000	100.385694
2497.000000	100.389246
2496.000000	100.390345
2495.000000	100.389613
2494.000000	100.387908
2493.000000	100.385422
2492.000000	100.382170
2491.000000	100.379298
2490.000000	100.378982
2489.000000	100.382333
2488.000000	100.387710
2487.000000	100.391785
2486.000000	100.392404
2485.000000	100.389877
2484.000000	100.385782
2483.000000	100.381303
2482.000000	100.377141
2481.000000	100.374300
2480.000000	100.373832
2479.000000	100.375726
2478.000000	100.378725
2477.000000	100.381595
2476.000000	100.384103
2475.000000	100.386338
2474.000000	100.387666
2473.000000	100.387187
2472.000000	100.385127
2471.000000	100.383029
2470.000000	100.382249
2469.000000	100.382783
2468.000000	100.383931
2467.000000	100.385604
2466.000000	100.388343
2465.000000	100.392196
2464.000000	100.396071
2463.000000	100.398442
2462.000000	100.398581
2461.000000	100.396993
2460.000000	100.395015
2459.000000	100.393926
2458.000000	100.394184
2457.000000	100.395427
2456.000000	100.397019
2455.000000	100.398527
2454.000000	100.399696
2453.000000	100.400230
2452.000000	100.399891
2451.000000	100.398766
2450.000000	100.397207
2449.000000	100.395544
2448.000000	100.394106
2447.000000	100.393495
2446.000000	100.394350
2445.000000	100.396630
2444.000000	100.399382
2443.000000	100.401465
2442.000000	100.402489
2441.000000	100.402840
2440.000000	100.402979
2439.000000	100.402985
2438.000000	100.402725
2437.000000	100.402202
2436.000000	100.401663
2435.000000	100.401505
2434.000000	100.402069
2433.000000	100.403344
2432.000000	100.404855
2431.000000	100.405983
2430.000000	100.406384
2429.000000	100.405991
2428.000000	100.404780
2427.000000	100.402900
2426.000000	100.401021
2425.000000	100.400119
2424.000000	100.400720
2423.000000	100.402562
2422.000000	100.405060
2421.000000	100.407939
2420.000000	100.411211
2419.000000	100.414602
2418.000000	100.417407
2417.000000	100.418796
2416.000000	100.418286
2415.000000	100.416219
2414.000000	100.413718
2413.000000	100.411974
2412.000000	100.411469
2411.000000	100.411999
2410.000000	100.413278
2409.000000	100.415162
2408.000000	100.417284
2407.000000	100.418906
2406.000000	100.419533
2405.000000	100.419451
2404.000000	100.419398
2403.000000	100.419760
2402.000000	100.420371
2401.000000	100.421040
2400.000000	100.421822
2399.000000	100.422835
2398.000000	100.424088
2397.000000	100.425518
2396.000000	100.427086
2395.000000	100.428645
2394.000000	100.429902
2393.000000	100.430610
2392.000000	100.430759
2391.000000	100.430631
2390.000000	100.430591
2389.000000	100.430843
2388.000000	100.431339
2387.000000	100.431867
2386.000000	100.432230
2385.000000	100.432371
2384.000000	100.432328
2383.000000	100.432116
2382.000000	100.431831
2381.000000	100.431860
2380.000000	100.432640
2379.000000	100.434100
2378.000000	100.435425
2377.000000	100.435596
2376.000000	100.434292
2375.000000	100.432297
2374.000000	100.430957
2373.000000	100.430767
2372.000000	100.430989
2371.000000	100.430826
2370.000000	100.430366
2369.000000	100.429973
2368.000000	100.429366
2367.000000	100.428050
2366.000000	100.426376
2365.000000	100.425297
2364.000000	100.425083
2363.000000	100.425388
2362.000000	100.426998
2361.000000	100.431190
2360.000000	100.436784
2359.000000	100.440390
2358.000000	100.439567
2357.000000	100.435051
2356.000000	100.428810
2355.000000	100.421390
2354.000000	100.413847
2353.000000	100.408842
2352.000000	100.408600
2351.000000	100.411814
2350.000000	100.415075
2349.000000	100.417176
2348.000000	100.418409
2347.000000	100.419313
2346.000000	100.419392
2345.000000	100.418246
2344.000000	100.416943
2343.000000	100.416653
2342.000000	100.418670
2341.000000	100.422183
2340.000000	100.424519
2339.000000	100.422121
2338.000000	100.412795
2337.000000	100.399275
2336.000000	100.388549
2335.000000	100.385917
2334.000000	100.391190
2333.000000	100.400543
2332.000000	100.410858
2331.000000	100.420862
2330.000000	100.429072
2329.000000	100.434770
2328.000000	100.437851
2327.000000	100.439618
2326.000000	100.440250
2325.000000	100.439674
2324.000000	100.439588
2323.000000	100.441594
2322.000000	100.445512
2321.000000	100.447736
2320.000000	100.445999
2319.000000	100.441193
2318.000000	100.435922
2317.000000	100.431964
2316.000000	100.429895
2315.000000	100.430571
2314.000000	100.433998
2313.000000	100.438681
2312.000000	100.442051
2311.000000	100.443256
2310.000000	100.443252
2309.000000	100.443083
2308.000000	100.442548
2307.000000	100.441547
2306.000000	100.441340
2305.000000	100.443350
2304.000000	100.447362
2303.000000	100.451374
2302.000000	100.453644
2301.000000	100.454014
2300.000000	100.453588
2299.000000	100.453731
2298.000000	100.455022
2297.000000	100.456685
2296.000000	100.456502
2295.000000	100.452875
2294.000000	100.446838
2293.000000	100.441502
2292.000000	100.439257
2291.000000	100.439441
2290.000000	100.439524
2289.000000	100.437775
2288.000000	100.434428
2287.000000	100.430505
2286.000000	100.426789
2285.000000	100.423718
2284.000000	100.421616
2283.000000	100.420302
2282.000000	100.419245
2281.000000	100.418217
2280.000000	100.417470
2279.000000	100.416972
2278.000000	100.416234
2277.000000	100.415242
2276.000000	100.414860
2275.000000	100.415710
2274.000000	100.417076
2273.000000	100.417836
2272.000000	100.417940
2271.000000	100.418196
2270.000000	100.418879
2269.000000	100.419505
2268.000000	100.419697
2267.000000	100.419357
2266.000000	100.418179
2265.000000	100.415932
2264.000000	100.413224
2263.000000	100.411184
2262.000000	100.410154
2261.000000	100.409455
2260.000000	100.408589
2259.000000	100.407911
2258.000000	100.407872
2257.000000	100.408214
2256.000000	100.408298
2255.000000	100.407858
2254.000000	100.407097
2253.000000	100.406266
2252.000000	100.405460
2251.000000	100.404743
2250.000000	100.404167
2249.000000	100.403645
2248.000000	100.402995
2247.000000	100.402236
2246.000000	100.401679
2245.000000	100.401577
2244.000000	100.401798
2243.000000	100.401930
2242.000000	100.401702
2241.000000	100.401214
2240.000000	100.400824
2239.000000	100.400813
2238.000000	100.401196
2237.000000	100.401764
2236.000000	100.402219
2235.000000	100.402425
2234.000000	100.402437
2233.000000	100.402351
2232.000000	100.402115
2231.000000	100.401619
2230.000000	100.400956
2229.000000	100.400474
2228.000000	100.400471
2227.000000	100.400937
2226.000000	100.401566
2225.000000	100.402063
2224.000000	100.402368
2223.000000	100.402604
2222.000000	100.402912
2221.000000	100.403288
2220.000000	100.403568
2219.000000	100.403629
2218.000000	100.403605
2217.000000	100.403817
2216.000000	100.404410
2215.000000	100.405131
2214.000000	100.405589
2213.000000	100.405730
2212.000000	100.405902
2211.000000	100.406473
2210.000000	100.407517
2209.000000	100.408870
2208.000000	100.410346
2207.000000	100.411772
2206.000000	100.412928
2205.000000	100.413608
2204.000000	100.413827
2203.000000	100.413924
2202.000000	100.414381
2201.000000	100.415478
2200.000000	100.417089
2199.000000	100.418862
2198.000000	100.420585
2197.000000	100.422258
2196.000000	100.423756
2195.000000	100.424670
2194.000000	100.424587
2193.000000	100.423425
2192.000000	100.421523
2191.000000	100.419470
2190.000000	100.417969
2189.000000	100.417739
2188.000000	100.419201
2187.000000	100.422107
2186.000000	100.425537
2185.000000	100.428393
2184.000000	100.430005
2183.000000	100.430314
2182.000000	100.429783
2181.000000	100.429171
2180.000000	100.429060
2179.000000	100.429433
2178.000000	100.429813
2177.000000	100.429879
2176.000000	100.429795
2175.000000	100.429836
2174.000000	100.429925
2173.000000	100.429780
2172.000000	100.429378
2171.000000	100.428983
2170.000000	100.428728
2169.000000	100.428446
2168.000000	100.427966
2167.000000	100.427333
2166.000000	100.426644
2165.000000	100.425955
2164.000000	100.425562
2163.000000	100.426169
2162.000000	100.428373
2161.000000	100.431869
2160.000000	100.435268
2159.000000	100.437049
2158.000000	100.436656
2157.000000	100.434604
2156.000000	100.431836
2155.000000	100.429098
2154.000000	100.426988
2153.000000	100.426163
2152.000000	100.426963
2151.000000	100.428828
2150.000000	100.430539
2149.000000	100.431402
2148.000000	100.431885
2147.000000	100.432738
2146.000000	100.433745
2145.000000	100.433847
2144.000000	100.432525
2143.000000	100.430514
2142.000000	100.428934
2141.000000	100.428167
2140.000000	100.428025
2139.000000	100.428667
2138.000000	100.430604
2137.000000	100.433721
2136.000000	100.436881
2135.000000	100.439075
2134.000000	100.440570
2133.000000	100.442353
2132.000000	100.444628
2131.000000	100.446379
2130.000000	100.446687
2129.000000	100.446013
2128.000000	100.445818
2127.000000	100.446963
2126.000000	100.448941
2125.000000	100.450662
2124.000000	100.451587
2123.000000	100.451885
2122.000000	100.451864
2121.000000	100.451667
2120.000000	100.451423
2119.000000	100.451377
2118.000000	100.451775
2117.000000	100.452745
2116.000000	100.454207
2115.000000	100.455802
2114.000000	100.457072
2113.000000	100.457917
2112.000000	100.458701
2111.000000	100.459773
2110.000000	100.460980
2109.000000	100.461898
2108.000000	100.462428
2107.000000	100.462892
2106.000000	100.463550
2105.000000	100.464274
2104.000000	100.464834
2103.000000	100.465304
2102.000000	100.466004
2101.000000	100.467109
2100.000000	100.468497
2099.000000	100.469898
2098.000000	100.471018
2097.000000	100.471635
2096.000000	100.471755
2095.000000	100.471820
2094.000000	100.472426
2093.000000	100.473671
2092.000000	100.474935
2091.000000	100.475624
2090.000000	100.475888
2089.000000	100.476233
2088.000000	100.476696
2087.000000	100.476985
2086.000000	100.477305
2085.000000	100.478258
2084.000000	100.479838
2083.000000	100.481266
2082.000000	100.482071
2081.000000	100.482617
2080.000000	100.483216
2079.000000	100.483327
2078.000000	100.482309
2077.000000	100.480507
2076.000000	100.478996
2075.000000	100.478397
2074.000000	100.478542
2073.000000	100.479193
2072.000000	100.480459
2071.000000	100.482343
2070.000000	100.484243
2069.000000	100.485261
2068.000000	100.484972
2067.000000	100.483848
2066.000000	100.482954
2065.000000	100.483134
2064.000000	100.484256
2063.000000	100.485210
2062.000000	100.484732
2061.000000	100.482333
2060.000000	100.478634
2059.000000	100.474935
2058.000000	100.472250
2057.000000	100.470664
2056.000000	100.469678
2055.000000	100.469157
2054.000000	100.469472
2053.000000	100.470489
2052.000000	100.470981
2051.000000	100.469706
2050.000000	100.466983
2049.000000	100.464454
2048.000000	100.463230
2047.000000	100.462934
2046.000000	100.462801
2045.000000	100.462944
2044.000000	100.463975
2043.000000	100.465846
2042.000000	100.467675
2041.000000	100.468586
2040.000000	100.468315
2039.000000	100.467064
2038.000000	100.465165
2037.000000	100.462859
2036.000000	100.460243
2035.000000	100.457515
2034.000000	100.455246
2033.000000	100.453995
2032.000000	100.453498
2031.000000	100.452713
2030.000000	100.451091
2029.000000	100.449344
2028.000000	100.448449
2027.000000	100.448338
2026.000000	100.448237
2025.000000	100.447971
2024.000000	100.448068
2023.000000	100.448609
2022.000000	100.448864
2021.000000	100.448357
2020.000000	100.447484
2019.000000	100.446642
2018.000000	100.445438
2017.000000	100.443495
2016.000000	100.441547
2015.000000	100.440750
2014.000000	100.440989
2013.000000	100.440735
2012.000000	100.438771
2011.000000	100.435539
2010.000000	100.432651
2009.000000	100.431172
2008.000000	100.430935
2007.000000	100.431291
2006.000000	100.431971
2005.000000	100.433008
2004.000000	100.434197
2003.000000	100.435073
2002.000000	100.435303
2001.000000	100.434912
2000.000000	100.434153
1999.000000	100.433344
1998.000000	100.432802
1997.000000	100.432739
1996.000000	100.433091
1995.000000	100.433474
1994.000000	100.433430
1993.000000	100.432773
1992.000000	100.431750
1991.000000	100.430863
1990.000000	100.430449
1989.000000	100.430461
1988.000000	100.430602
1987.000000	100.430610
1986.000000	100.430542
1985.000000	100.430716
1984.000000	100.431308
1983.000000	100.432045
1982.000000	100.432456
1981.000000	100.432393
1980.000000	100.432195
1979.000000	100.432311
1978.000000	100.432841
1977.000000	100.433500
1976.000000	100.433941
1975.000000	100.434050
1974.000000	100.433933
1973.000000	100.433765
1972.000000	100.433707
1971.000000	100.433888
1970.000000	100.434351
1969.000000	100.434956
1968.000000	100.435431
1967.000000	100.435629
1966.000000	100.435680
1965.000000	100.435800
1964.000000	100.436007
1963.000000	100.436102
1962.000000	100.435966
1961.000000	100.435803
1960.000000	100.435980
1959.000000	100.436593
1958.000000	100.437274
1957.000000	100.437514
1956.000000	100.437101
1955.000000	100.436214
1954.000000	100.435267
1953.000000	100.434632
1952.000000	100.434452
1951.000000	100.434552
1950.000000	100.434559
1949.000000	100.434299
1948.000000	100.434039
1947.000000	100.434152
1946.000000	100.434591
1945.000000	100.434858
1944.000000	100.434541
1943.000000	100.433818
1942.000000	100.433374
1941.000000	100.433659
1940.000000	100.434346
1939.000000	100.434651
1938.000000	100.433980
1937.000000	100.432274
1936.000000	100.429966
1935.000000	100.427629
1934.000000	100.425647
1933.000000	100.424162
1932.000000	100.423080
1931.000000	100.422138
1930.000000	100.421255
1929.000000	100.420892
1928.000000	100.421722
1927.000000	100.423653
1926.000000	100.425362
1925.000000	100.425316
1924.000000	100.423209
1923.000000	100.420290
1922.000000	100.418117
1921.000000	100.416986
1920.000000	100.416355
1919.000000	100.416165
1918.000000	100.416770
1917.000000	100.417713
1916.000000	100.417512
1915.000000	100.415101
1914.000000	100.410830
1913.000000	100.406125
1912.000000	100.402214
1911.000000	100.399169
1910.000000	100.396382
1909.000000	100.393829
1908.000000	100.392417
1907.000000	100.392671
1906.000000	100.393579
1905.000000	100.393316
1904.000000	100.391170
1903.000000	100.388229
1902.000000	100.385850
1901.000000	100.384032
1900.000000	100.381952
1899.000000	100.379551
1898.000000	100.377609
1897.000000	100.376352
1896.000000	100.374993
1895.000000	100.373017
1894.000000	100.371112
1893.000000	100.370253
1892.000000	100.370510
1891.000000	100.370965
1890.000000	100.370285
1889.000000	100.367704
1888.000000	100.363494
1887.000000	100.358560
1886.000000	100.354036
1885.000000	100.350747
1884.000000	100.348980
1883.000000	100.348923
1882.000000	100.350449
1881.000000	100.352281
1880.000000	100.352452
1879.000000	100.350138
1878.000000	100.346514
1877.000000	100.343568
1876.000000	100.342592
1875.000000	100.343942
1874.000000	100.347306
1873.000000	100.351611
1872.000000	100.355377
1871.000000	100.357723
1870.000000	100.358675
1869.000000	100.358669
1868.000000	100.358345
1867.000000	100.358210
1866.000000	100.358269
1865.000000	100.358279
1864.000000	100.357900
1863.000000	100.357292
1862.000000	100.357927
1861.000000	100.361493
1860.000000	100.367653
1859.000000	100.374031
1858.000000	100.378722
1857.000000	100.381835
1856.000000	100.384456
1855.000000	100.387181
1854.000000	100.390186
1853.000000	100.393821
1852.000000	100.398358
1851.000000	100.403363
1850.000000	100.407790
1849.000000	100.410618
1848.000000	100.411296
1847.000000	100.409932
1846.000000	100.407447
1845.000000	100.405792
1844.000000	100.406873
1843.000000	100.410623
1842.000000	100.415642
1841.000000	100.421222
1840.000000	100.426972
1839.000000	100.431651
1838.000000	100.433835
1837.000000	100.433600
1836.000000	100.432764
1835.000000	100.432712
1834.000000	100.432951
1833.000000	100.432588
1832.000000	100.432238
1831.000000	100.433678
1830.000000	100.437599
1829.000000	100.442297
1828.000000	100.445326
1827.000000	100.446136
1826.000000	100.445787
1825.000000	100.444805
1824.000000	100.442866
1823.000000	100.440206
1822.000000	100.438266
1821.000000	100.438576
1820.000000	100.441192
1819.000000	100.444422
1818.000000	100.446227
1817.000000	100.445961
1816.000000	100.444623
1815.000000	100.443504
1814.000000	100.442794
1813.000000	100.441805
1812.000000	100.440305
1811.000000	100.439321
1810.000000	100.440093
1809.000000	100.442438
1808.000000	100.444925
1807.000000	100.446483
1806.000000	100.447075
1805.000000	100.446979
1804.000000	100.446107
1803.000000	100.444189
1802.000000	100.441471
1801.000000	100.439098
1800.000000	100.438259
1799.000000	100.438916
1798.000000	100.440006
1797.000000	100.440690
1796.000000	100.440988
1795.000000	100.441495
1794.000000	100.442854
1793.000000	100.445282
1792.000000	100.448249
1791.000000	100.451001
1790.000000	100.453054
1789.000000	100.454149
1788.000000	100.454293
1787.000000	100.453708
1786.000000	100.452813
1785.000000	100.452122
1784.000000	100.451814
1783.000000	100.451611
1782.000000	100.451353
1781.000000	100.451459
1780.000000	100.452426
1779.000000	100.453913
1778.000000	100.455078
1777.000000	100.455727
1776.000000	100.456222
1775.000000	100.456609
1774.000000	100.456809
1773.000000	100.457417
1772.000000	100.459965
1771.000000	100.465292
1770.000000	100.471153
1769.000000	100.474038
1768.000000	100.472887
1767.000000	100.470058
1766.000000	100.469187
1765.000000	100.471670
1764.000000	100.476054
1763.000000	100.479671
1762.000000	100.481109
1761.000000	100.481601
1760.000000	100.482772
1759.000000	100.484470
1758.000000	100.485582
1757.000000	100.485493
1756.000000	100.484653
1755.000000	100.483401
1754.000000	100.481575
1753.000000	100.479729
1752.000000	100.479509
1751.000000	100.481778
1750.000000	100.484846
1749.000000	100.486224
1748.000000	100.485067
1747.000000	100.482034
1746.000000	100.477963
1745.000000	100.473511
1744.000000	100.469718
1743.000000	100.468003
1742.000000	100.468783
1741.000000	100.470391
1740.000000	100.470169
1739.000000	100.467173
1738.000000	100.463006
1737.000000	100.459292
1736.000000	100.455990
1735.000000	100.452582
1734.000000	100.448612
1733.000000	100.445243
1732.000000	100.444662
1731.000000	100.446868
1730.000000	100.449171
1729.000000	100.449186
1728.000000	100.447158
1727.000000	100.444751
1726.000000	100.443286
1725.000000	100.442675
1724.000000	100.441388
1723.000000	100.438223
1722.000000	100.434106
1721.000000	100.431417
1720.000000	100.431611
1719.000000	100.434029
1718.000000	100.435369
1717.000000	100.432688
1716.000000	100.427436
1715.000000	100.422223
1714.000000	100.417039
1713.000000	100.410994
1712.000000	100.404501
1711.000000	100.398833
1710.000000	100.394705
1709.000000	100.392566
1708.000000	100.393146
1707.000000	100.395887
1706.000000	100.397218
1705.000000	100.393441
1704.000000	100.384989
1703.000000	100.375279
1702.000000	100.367619
1701.000000	100.364761
1700.000000	100.364604
1699.000000	100.362228
1698.000000	100.358500
1697.000000	100.355410
1696.000000	100.349952
1695.000000	100.339311
1694.000000	100.325383
1693.000000	100.312572
1692.000000	100.302627
1691.000000	100.294753
1690.000000	100.288408
1689.000000	100.282896
1688.000000	100.277423
1687.000000	100.271765
1686.000000	100.267256
1685.000000	100.263959
1684.000000	100.257916
1683.000000	100.249327
1682.000000	100.240453
1681.000000	100.231962
1680.000000	100.225728
1679.000000	100.222755
1678.000000	100.222578
1677.000000	100.223829
1676.000000	100.224759
1675.000000	100.222727
1674.000000	100.216116
1673.000000	100.207238
1672.000000	100.199601
1671.000000	100.193627
1670.000000	100.186439
1669.000000	100.175976
1668.000000	100.164441
1667.000000	100.155852
1666.000000	100.152312
1665.000000	100.152857
1664.000000	100.154196
1663.000000	100.152951
1662.000000	100.148394
1661.000000	100.141895
1660.000000	100.133836
1659.000000	100.123982
1658.000000	100.113502
1657.000000	100.104595
1656.000000	100.098123
1655.000000	100.094656
1654.000000	100.094951
1653.000000	100.094931
1652.000000	100.089048
1651.000000	100.079682
1650.000000	100.074524
1649.000000	100.071183
1648.000000	100.063566
1647.000000	100.055909
1646.000000	100.054845
1645.000000	100.057159
1644.000000	100.057542
1643.000000	100.057660
1642.000000	100.059316
1641.000000	100.062111
1640.000000	100.064352
1639.000000	100.063515
1638.000000	100.058488
1637.000000	100.052103
1636.000000	100.050663
1635.000000	100.057059
1634.000000	100.064875
1633.000000	100.069421
1632.000000	100.073225
1631.000000	100.077623
1630.000000	100.081231
1629.000000	100.081776
1628.000000	100.078442
1627.000000	100.073514
1626.000000	100.070127
1625.000000	100.069959
1624.000000	100.073111
1623.000000	100.078350
1622.000000	100.083789
1621.000000	100.087976
1620.000000	100.090501
1619.000000	100.091223
1618.000000	100.090748
1617.000000	100.091080
1616.000000	100.093935
1615.000000	100.098838
1614.000000	100.103873
1613.000000	100.107701
1612.000000	100.110552
1611.000000	100.113693
1610.000000	100.117640
1609.000000	100.121933
1608.000000	100.126491
1607.000000	100.131902
1606.000000	100.138321
1605.000000	100.145002
1604.000000	100.150769
1603.000000	100.154646
1602.000000	100.156543
1601.000000	100.157454
1600.000000	100.159009
1599.000000	100.162281
1598.000000	100.167120
1597.000000	100.172477
1596.000000	100.177299
1595.000000	100.181306
1594.000000	100.184793
1593.000000	100.187987
1592.000000	100.190885
1591.000000	100.193595
1590.000000	100.196479
1589.000000	100.199889
1588.000000	100.203832
1587.000000	100.207947
1586.000000	100.211775
1585.000000	100.215109
1584.000000	100.218080
1583.000000	100.221037
1582.000000	100.224188
1581.000000	100.227528
1580.000000	100.230940
1579.000000	100.234317
1578.000000	100.237646
1577.000000	100.240974
1576.000000	100.244330
1575.000000	100.247704
1574.000000	100.251051
1573.000000	100.254332
1572.000000	100.257534
1571.000000	100.260664
1570.000000	100.263720
1569.000000	100.266707
1568.000000	100.269632
1567.000000	100.272493
1566.000000	100.275293
1565.000000	100.278042
1564.000000	100.280750
1563.000000	100.283421
1562.000000	100.286055
1561.000000	100.288663
1560.000000	100.291259
1559.000000	100.293854
1558.000000	100.296459
1557.000000	100.299058
1556.000000	100.301628
1555.000000	100.304168
1554.000000	100.306680
1553.000000	100.309161
1552.000000	100.311601
1551.000000	100.314000
1550.000000	100.316374
1549.000000	100.318749
1548.000000	100.321147
1547.000000	100.323580
1546.000000	100.326052
1545.000000	100.328563
1544.000000	100.331103
1543.000000	100.333646
1542.000000	100.336154
1541.000000	100.338605
1540.000000	100.341009
1539.000000	100.343402
1538.000000	100.345804
1537.000000	100.348216
1536.000000	100.350634
1535.000000	100.353049
1534.000000	100.355451
1533.000000	100.357827
1532.000000	100.360170
1531.000000	100.362495
1530.000000	100.364832
1529.000000	100.367206
1528.000000	100.369618
1527.000000	100.372054
1526.000000	100.374504
1525.000000	100.376974
1524.000000	100.379472
1523.000000	100.381993
1522.000000	100.384521
1521.000000	100.387042
1520.000000	100.389573
1519.000000	100.392180
1518.000000	100.394866
1517.000000	100.397473
1516.000000	100.399845
1515.000000	100.402085
1514.000000	100.404401
1513.000000	100.406823
1512.000000	100.409141
1511.000000	100.411180
1510.000000	100.413176
1509.000000	100.415579
1508.000000	100.418643
1507.000000	100.422168
1506.000000	100.426600
1505.000000	100.430723
1504.000000	100.433368
1503.000000	100.435615
1502.000000	100.437396
1501.000000	100.438557
1500.000000	100.439944
1499.000000	100.441764
1498.000000	100.442844
1497.000000	100.442108
1496.000000	100.440298
1495.000000	100.439477
1494.000000	100.440950
1493.000000	100.444683
1492.000000	100.449918
1491.000000	100.455526
1490.000000	100.460169
1489.000000	100.463197
1488.000000	100.464264
1487.000000	100.462892
1486.000000	100.459878
1485.000000	100.457401
1484.000000	100.457127
1483.000000	100.458835
1482.000000	100.460814
1481.000000	100.461641
1480.000000	100.461522
1479.000000	100.461530
1478.000000	100.462126
1477.000000	100.462796
1476.000000	100.462851
1475.000000	100.462225
1474.000000	100.461187
1473.000000	100.459677
1472.000000	100.457712
1471.000000	100.455339
1470.000000	100.452588
1469.000000	100.450261
1468.000000	100.449405
1467.000000	100.450477
1466.000000	100.452913
1465.000000	100.454985
1464.000000	100.455111
1463.000000	100.453236
1462.000000	100.450664
1461.000000	100.448678
1460.000000	100.447406
1459.000000	100.446339
1458.000000	100.445319
1457.000000	100.444736
1456.000000	100.444328
1455.000000	100.443273
1454.000000	100.442105
1453.000000	100.440874
1452.000000	100.438686
1451.000000	100.435602
1450.000000	100.432370
1449.000000	100.429645
1448.000000	100.427617
1447.000000	100.426067
1446.000000	100.424730
1445.000000	100.423897
1444.000000	100.424092
1443.000000	100.424939
1442.000000	100.425018
1441.000000	100.423257
1440.000000	100.420076
1439.000000	100.416948
1438.000000	100.415264
1437.000000	100.415257
1436.000000	100.415634
1435.000000	100.415133
1434.000000	100.414041
1433.000000	100.413149
1432.000000	100.412471
1431.000000	100.411260
1430.000000	100.408764
1429.000000	100.405426
1428.000000	100.402863
1427.000000	100.402266
1426.000000	100.403554
1425.000000	100.405937
1424.000000	100.408822
1423.000000	100.411901
1422.000000	100.414489
1421.000000	100.415631
1420.000000	100.414605
1419.000000	100.411594
1418.000000	100.408791
1417.000000	100.408097
1416.000000	100.409250
1415.000000	100.411432
1414.000000	100.414227
1413.000000	100.417429
1412.000000	100.420760
1411.000000	100.423730
1410.000000	100.425751
1409.000000	100.426512
1408.000000	100.426223
1407.000000	100.425460
1406.000000	100.424888
1405.000000	100.425227
1404.000000	100.427052
1403.000000	100.430183
1402.000000	100.433681
1401.000000	100.436544
1400.000000	100.438171
1399.000000	100.438712
1398.000000	100.438929
1397.000000	100.439379
1396.000000	100.440382
1395.000000	100.442575
1394.000000	100.446364
1393.000000	100.450953
1392.000000	100.454949
1391.000000	100.457615
1390.000000	100.458899
1389.000000	100.459032
1388.000000	100.458321
1387.000000	100.457257
1386.000000	100.456623
1385.000000	100.457055
1384.000000	100.458756
1383.000000	100.461530
1382.000000	100.464701
1381.000000	100.467344
1380.000000	100.468894
1379.000000	100.469465
1378.000000	100.469619
1377.000000	100.469785
1376.000000	100.469967
1375.000000	100.470119
1374.000000	100.470613
1373.000000	100.471878
1372.000000	100.473744
1371.000000	100.475746
1370.000000	100.477640
1369.000000	100.479259
1368.000000	100.480338
1367.000000	100.480708
1366.000000	100.480573
1365.000000	100.480360
1364.000000	100.480206
1363.000000	100.479921
1362.000000	100.479579
1361.000000	100.479655
1360.000000	100.480466
1359.000000	100.481882
1358.000000	100.483378
1357.000000	100.484280
1356.000000	100.484143
1355.000000	100.482932
1354.000000	100.481010
1353.000000	100.479033
1352.000000	100.477767
1351.000000	100.477878
1350.000000	100.479712
1349.000000	100.483025
1348.000000	100.486704
1347.000000	100.489122
1346.000000	100.489171
1345.000000	100.487036
1344.000000	100.484001
1343.000000	100.481290
1342.000000	100.479402
1341.000000	100.478657
1340.000000	100.479699
1339.000000	100.482740
1338.000000	100.486384
1337.000000	100.488512
1336.000000	100.488414
1335.000000	100.486980
1334.000000	100.485206
1333.000000	100.483394
1332.000000	100.481927
1331.000000	100.481748
1330.000000	100.483149
1329.000000	100.484597
1328.000000	100.483901
1327.000000	100.480588
1326.000000	100.476439
1325.000000	100.473693
1324.000000	100.473367
1323.000000	100.475450
1322.000000	100.479633
1321.000000	100.485005
1320.000000	100.489552
1319.000000	100.491079
1318.000000	100.489017
1317.000000	100.484922
1316.000000	100.481047
1315.000000	100.478814
1314.000000	100.478650
1313.000000	100.480506
1312.000000	100.483916
1311.000000	100.487590
1310.000000	100.489593
1309.000000	100.488576
1308.000000	100.484952
1307.000000	100.480665
1306.000000	100.477391
1305.000000	100.475337
1304.000000	100.474261
1303.000000	100.474796
1302.000000	100.477493
1301.000000	100.480714
1300.000000	100.481079
1299.000000	100.476844
1298.000000	100.469994
1297.000000	100.464140
1296.000000	100.460677
1295.000000	100.458156
1294.000000	100.455170
1293.000000	100.452418
1292.000000	100.451311
1291.000000	100.451302
1290.000000	100.449543
1289.000000	100.443413
1288.000000	100.433055
1287.000000	100.421139
1286.000000	100.410004
1285.000000	100.399797
1284.000000	100.390230
1283.000000	100.383280
1282.000000	100.382048
1281.000000	100.386290
1280.000000	100.390846
1279.000000	100.390447
1278.000000	100.385134
1277.000000	100.378874
1276.000000	100.373617
1275.000000	100.367650
1274.000000	100.360146
1273.000000	100.353827
1272.000000	100.350846
1271.000000	100.348458
1270.000000	100.342368
1269.000000	100.333687
1268.000000	100.328646
1267.000000	100.330202
1266.000000	100.332758
1265.000000	100.327809
1264.000000	100.313685
1263.000000	100.297449
1262.000000	100.287132
1261.000000	100.283700
1260.000000	100.281656
1259.000000	100.276094
1258.000000	100.266976
1257.000000	100.256269
1256.000000	100.243380
1255.000000	100.225958
1254.000000	100.204917
1253.000000	100.186006
1252.000000	100.174881
1251.000000	100.171647
1250.000000	100.171533
1249.000000	100.169996
1248.000000	100.165286
1247.000000	100.156590
1246.000000	100.142554
1245.000000	100.123007
1244.000000	100.100836
1243.000000	100.080759
1242.000000	100.066124
1241.000000	100.056714
1240.000000	100.048820
1239.000000	100.037292
1238.000000	100.018878
1237.000000	99.994390
1236.000000	99.967239
1235.000000	99.940205
1234.000000	99.914706
1233.000000	99.892574
1232.000000	99.875703
1231.000000	99.862760
1230.000000	99.848787
1229.000000	99.830213
1228.000000	99.808531
1227.000000	99.786867
1226.000000	99.764404
1225.000000	99.736884
1224.000000	99.701859
1223.000000	99.660766
1222.000000	99.616017
1221.000000	99.568276
1220.000000	99.516598
1219.000000	99.459579
1218.000000	99.396827
1217.000000	99.331065
1216.000000	99.267784
1215.000000	99.209813
1214.000000	99.152491
1213.000000	99.087776
1212.000000	99.013586
1211.000000	98.936034
1210.000000	98.861911
1209.000000	98.792303
1208.000000	98.724755
1207.000000	98.657700
1206.000000	98.590702
1205.000000	98.523547
1204.000000	98.457145
1203.000000	98.393041
1202.000000	98.330675
1201.000000	98.267431
1200.000000	98.202551
1199.000000	98.138370
1198.000000	98.076295
1197.000000	98.014284
1196.000000	97.949892
1195.000000	97.883352
1194.000000	97.816138
1193.000000	97.748894
1192.000000	97.682409
1191.000000	97.618293
1190.000000	97.556579
1189.000000	97.494138
1188.000000	97.427066
1187.000000	97.353719
1186.000000	97.275157
1185.000000	97.194611
1184.000000	97.117056
1183.000000	97.046645
1182.000000	96.982579
1181.000000	96.918719
1180.000000	96.848173
1179.000000	96.767339
1178.000000	96.676004
1177.000000	96.576134
1176.000000	96.471389
1175.000000	96.365791
1174.000000	96.261811
1173.000000	96.160780
1172.000000	96.064603
1171.000000	95.974789
1170.000000	95.889964
1169.000000	95.806403
1168.000000	95.720377
1167.000000	95.628848
1166.000000	95.531969
1165.000000	95.439788
1164.000000	95.373142
1163.000000	95.350402
1162.000000	95.372239
1161.000000	95.422064
1160.000000	95.479297
1159.000000	95.527389
1158.000000	95.552677
1157.000000	95.545887
1156.000000	95.507477
1155.000000	95.446450
1154.000000	95.372538
1153.000000	95.292446
1152.000000	95.211836
1151.000000	95.134066
1150.000000	95.056453
1149.000000	94.973937
1148.000000	94.886623
1147.000000	94.797785
1146.000000	94.705570
1145.000000	94.605123
1144.000000	94.499757
1143.000000	94.401694
1142.000000	94.319510
1141.000000	94.251701
1140.000000	94.193342
1139.000000	94.139868
1138.000000	94.081935
1137.000000	94.006198
1136.000000	93.906749
1135.000000	93.790904
1134.000000	93.671269
1133.000000	93.557483
1132.000000	93.456774
1131.000000	93.373681
1130.000000	93.304711
1129.000000	93.239525
1128.000000	93.170438
1127.000000	93.095044
1126.000000	93.009097
1125.000000	92.906350
1124.000000	92.789069
1123.000000	92.670478
1122.000000	92.561791
1121.000000	92.463200
1120.000000	92.371171
1119.000000	92.286659
1118.000000	92.210925
1117.000000	92.140014
1116.000000	92.068778
1115.000000	91.995319
1114.000000	91.917464
1113.000000	91.830890
1112.000000	91.735615
1111.000000	91.639576
1110.000000	91.551571
1109.000000	91.474623
1108.000000	91.408322
1107.000000	91.350792
1106.000000	91.294217
1105.000000	91.225087
1104.000000	91.134670
1103.000000	91.026247
1102.000000	90.910670
1101.000000	90.800075
1100.000000	90.706402
1099.000000	90.637562
1098.000000	90.590962
1097.000000	90.556488
1096.000000	90.526449
1095.000000	90.494639
1094.000000	90.447798
1093.000000	90.372491
1092.000000	90.274071
1091.000000	90.176553
1090.000000	90.098081
1089.000000	90.036678
1088.000000	89.984306
1087.000000	89.942154
1086.000000	89.913737
1085.000000	89.892326
1084.000000	89.863980
1083.000000	89.818122
1082.000000	89.751981
1081.000000	89.672296
1080.000000	89.595783
1079.000000	89.538792
1078.000000	89.501589
1077.000000	89.470754
1076.000000	89.439645
1075.000000	89.414916
1074.000000	89.397542
1073.000000	89.369045
1072.000000	89.305757
1071.000000	89.200467
1070.000000	89.064916
1069.000000	88.916999
1068.000000	88.769656
1067.000000	88.626298
1066.000000	88.482070
1065.000000	88.333150
1064.000000	88.185337
1063.000000	88.047079
1062.000000	87.914689
1061.000000	87.774104
1060.000000	87.617812
1059.000000	87.450799
1058.000000	87.281694
1057.000000	87.120591
1056.000000	86.984144
1055.000000	86.885128
1054.000000	86.811100
1053.000000	86.727591
1052.000000	86.609579
1051.000000	86.458429
1050.000000	86.284892
1049.000000	86.093402
1048.000000	85.891256
1047.000000	85.694606
1046.000000	85.513519
1045.000000	85.343970
1044.000000	85.180823
1043.000000	85.024764
1042.000000	84.870659
1041.000000	84.704000
1040.000000	84.518018
1039.000000	84.323275
1038.000000	84.133517
1037.000000	83.953841
1036.000000	83.788747
1035.000000	83.648044
1034.000000	83.536039
1033.000000	83.445683
1032.000000	83.370592
1031.000000	83.312812
1030.000000	83.272737
1029.000000	83.241400
1028.000000	83.208261
1027.000000	83.168834
1026.000000	83.122854
1025.000000	83.074573
1024.000000	83.035566
1023.000000	83.015463
1022.000000	83.008301
1021.000000	82.999268
1020.000000	82.984972
1019.000000	82.973742
1018.000000	82.965804
1017.000000	82.948465
1016.000000	82.913785
1015.000000	82.867872
1014.000000	82.820085
1013.000000	82.775126
1012.000000	82.737368
1011.000000	82.710679
1010.000000	82.692260
1009.000000	82.676923
1008.000000	82.665705
1007.000000	82.658391
1006.000000	82.642579
1005.000000	82.607851
1004.000000	82.569011
1003.000000	82.556803
1002.000000	82.585104
1001.000000	82.643084
1000.000000	82.716978
999.000000	82.799089
998.000000	82.874380
997.000000	82.921724
996.000000	82.937658
995.000000	82.943502
994.000000	82.962567
993.000000	83.003596
992.000000	83.069034
991.000000	83.161943
990.000000	83.277233
989.000000	83.398950
988.000000	83.512755
987.000000	83.612854
986.000000	83.697443
985.000000	83.770905
984.000000	83.850850
983.000000	83.957664
982.000000	84.094185
981.000000	84.248284
980.000000	84.415337
979.000000	84.601746
978.000000	84.804777
977.000000	85.008083
976.000000	85.204328
975.000000	85.407061
974.000000	85.631703
973.000000	85.875529
972.000000	86.122881
971.000000	86.361663
970.000000	86.590327
969.000000	86.816370
968.000000	87.051451
967.000000	87.301634
966.000000	87.560459
965.000000	87.816062
964.000000	88.062214
963.000000	88.295446
962.000000	88.507525
961.000000	88.693655
960.000000	88.865942
959.000000	89.045478
958.000000	89.239331
957.000000	89.435413
956.000000	89.620040
955.000000	89.789147
954.000000	89.942228
953.000000	90.078044
952.000000	90.199395
951.000000	90.312315
950.000000	90.417713
949.000000	90.512103
948.000000	90.598824
947.000000	90.689644
946.000000	90.791472
945.000000	90.897744
944.000000	90.995437
943.000000	91.075374
942.000000	91.135685
941.000000	91.181628
940.000000	91.222760
939.000000	91.265634
938.000000	91.310432
937.000000	91.358621
936.000000	91.417716
935.000000	91.489290
934.000000	91.558167
933.000000	91.607412
932.000000	91.642511
931.000000	91.687236
930.000000	91.754244
929.000000	91.831931
928.000000	91.902230
927.000000	91.958515
926.000000	92.002123
925.000000	92.033740
924.000000	92.056593
923.000000	92.081572
922.000000	92.121613
921.000000	92.181928
920.000000	92.256128
919.000000	92.328098
918.000000	92.379680
917.000000	92.403456
916.000000	92.408104
915.000000	92.407518
914.000000	92.409275
913.000000	92.420746
912.000000	92.459245
911.000000	92.540926
910.000000	92.659707
909.000000	92.791282
908.000000	92.921930
907.000000	93.059733
906.000000	93.212730
905.000000	93.371454
904.000000	93.522255
903.000000	93.668218
902.000000	93.826303
901.000000	94.006913
900.000000	94.202881
899.000000	94.396985
898.000000	94.575501
897.000000	94.733220
896.000000	94.868476
895.000000	94.979743
894.000000	95.072646
893.000000	95.166992
892.000000	95.284907
891.000000	95.426409
890.000000	95.566207
889.000000	95.684313
888.000000	95.791977
887.000000	95.915376
886.000000	96.059104
885.000000	96.200547
884.000000	96.319679
883.000000	96.418430
882.000000	96.506630
881.000000	96.584204
880.000000	96.649212
879.000000	96.715628
878.000000	96.808529
877.000000	96.938384
876.000000	97.086052
875.000000	97.217220
874.000000	97.311915
873.000000	97.377837
872.000000	97.434335
871.000000	97.489322
870.000000	97.540456
869.000000	97.597005
868.000000	97.685258
867.000000	97.821110
866.000000	97.983718
865.000000	98.129212
864.000000	98.230417
863.000000	98.292795
862.000000	98.333508
861.000000	98.359887
860.000000	98.376610
859.000000	98.403338
858.000000	98.469182
857.000000	98.585555
856.000000	98.729877
855.000000	98.860121
854.000000	98.945947
853.000000	98.984602
852.000000	98.988237
851.000000	98.964753
850.000000	98.921663
849.000000	98.885424
848.000000	98.898069
847.000000	98.980950
846.000000	99.107565
845.000000	99.224720
844.000000	99.297336
843.000000	99.320395
842.000000	99.295326
841.000000	99.219397
840.000000	99.105919
839.000000	98.995620
838.000000	98.929929
837.000000	98.917016
836.000000	98.933577
835.000000	98.953834
834.000000	98.966666
833.000000	98.968802
832.000000	98.954724
831.000000	98.919113
830.000000	98.865472
829.000000	98.808171
828.000000	98.764549
827.000000	98.744068
826.000000	98.745650
825.000000	98.766599
824.000000	98.809089
823.000000	98.869718
822.000000	98.926306
821.000000	98.948658
820.000000	98.923931
819.000000	98.861515
818.000000	98.774063
817.000000	98.666279
816.000000	98.546348
815.000000	98.435597
814.000000	98.352666
813.000000	98.288154
812.000000	98.202610
811.000000	98.050121
810.000000	97.800652
809.000000	97.444606
808.000000	96.988692
807.000000	96.455933
806.000000	95.886930
805.000000	95.333008
804.000000	94.840169
803.000000	94.430442
802.000000	94.093092
801.000000	93.798900
800.000000	93.529163
799.000000	93.288597
798.000000	93.092257
797.000000	92.953812
796.000000	92.891882
795.000000	92.931229
794.000000	93.079525
793.000000	93.303341
792.000000	93.537003
791.000000	93.720136
790.000000	93.826785
789.000000	93.860894
788.000000	93.832293
787.000000	93.745636
786.000000	93.611467
785.000000	93.455619
784.000000	93.304926
783.000000	93.163483
782.000000	93.014080
781.000000	92.850054
780.000000	92.697867
779.000000	92.598006
778.000000	92.569607
777.000000	92.605493
776.000000	92.695963
775.000000	92.840262
774.000000	93.033034
773.000000	93.254914
772.000000	93.483435
771.000000	93.705109
770.000000	93.913333
769.000000	94.102596
768.000000	94.268821
767.000000	94.409481
766.000000	94.520224
765.000000	94.596283
764.000000	94.640064
763.000000	94.664332
762.000000	94.687278
761.000000	94.727210
760.000000	94.798813
759.000000	94.905328
758.000000	95.031336
757.000000	95.149786
756.000000	95.241103
755.000000	95.304328
754.000000	95.351161
753.000000	95.394867
752.000000	95.446066
751.000000	95.513396
750.000000	95.602354
749.000000	95.711677
748.000000	95.830465
747.000000	95.940441
746.000000	96.026823
745.000000	96.090822
744.000000	96.148574
743.000000	96.215588
742.000000	96.297473
741.000000	96.397781
740.000000	96.523658
739.000000	96.673149
738.000000	96.822864
737.000000	96.941614
736.000000	97.016635
735.000000	97.057698
734.000000	97.078426
733.000000	97.085636
732.000000	97.088986
731.000000	97.107418
730.000000	97.154774
729.000000	97.223343
728.000000	97.291229
727.000000	97.347170
726.000000	97.402714
725.000000	97.477007
724.000000	97.570381
723.000000	97.655851
722.000000	97.700599
721.000000	97.699249
720.000000	97.684128
719.000000	97.694397
718.000000	97.738653
717.000000	97.800407
716.000000	97.870475
715.000000	97.954694
714.000000	98.048203
713.000000	98.117792
712.000000	98.125101
711.000000	98.067614
710.000000	97.987221
709.000000	97.933527
708.000000	97.925699
707.000000	97.950230
706.000000	97.987180
705.000000	98.026083
704.000000	98.050973
703.000000	98.022159
702.000000	97.894825
701.000000	97.662354
700.000000	97.369026
699.000000	97.072859
698.000000	96.805525
697.000000	96.578117
696.000000	96.411274
695.000000	96.333071
694.000000	96.345426
693.000000	96.412117
692.000000	96.492275
691.000000	96.581201
690.000000	96.706276
689.000000	96.886188
688.000000	97.104987
687.000000	97.327751
686.000000	97.531955
685.000000	97.711367
684.000000	97.854729
683.000000	97.940512
682.000000	97.962873
681.000000	97.953622
680.000000	97.961940
679.000000	98.009018
678.000000	98.075561
677.000000	98.136067
676.000000	98.188270
675.000000	98.237448
674.000000	98.269405
673.000000	98.264028
672.000000	98.224788
671.000000	98.179782
670.000000	98.167124
669.000000	98.244393
668.000000	98.427467
667.000000	98.603896
666.000000	98.713209
665.000000	98.775405
664.000000	98.795283
663.000000	98.778940
662.000000	98.754419
661.000000	98.760883
660.000000	98.817770
659.000000	98.909089
658.000000	98.999479
657.000000	99.066669
656.000000	99.111884
655.000000	99.140619
654.000000	99.150096
653.000000	99.140656
652.000000	99.128623
651.000000	99.141867
650.000000	99.198667
