4000.000000	100.849379
3999.000000	100.832694
3998.000000	100.820494
3997.000000	100.816431
3996.000000	100.822365
3995.000000	100.836526
3994.000000	100.853720
3993.000000	100.867712
3992.000000	100.873644
3991.000000	100.868916
3990.000000	100.853133
3989.000000	100.828135
3988.000000	100.798286
3987.000000	100.769966
3986.000000	100.749043
3985.000000	100.737805
3984.000000	100.733965
3983.000000	100.732841
3982.000000	100.731426
3981.000000	100.730565
3980.000000	100.733205
3979.000000	100.741246
3978.000000	100.754402
3977.000000	100.771293
3976.000000	100.790473
3975.000000	100.809890
3974.000000	100.825974
3973.000000	100.834364
3972.000000	100.832294
3971.000000	100.820368
3970.000000	100.802410
3969.000000	100.783810
3968.000000	100.769438
3967.000000	100.762188
3966.000000	100.762564
3965.000000	100.769136
3964.000000	100.779547
3963.000000	100.791574
3962.000000	100.803612
3961.000000	100.814462
3960.000000	100.823077
3959.000000	100.828600
3958.000000	100.830523
3957.000000	100.828526
3956.000000	100.822165
3955.000000	100.811221
3954.000000	100.796605
3953.000000	100.780668
3952.000000	100.766346
3951.000000	100.755903
3950.000000	100.749992
3949.000000	100.747295
3948.000000	100.745476
3947.000000	100.743946
3946.000000	100.745874
3945.000000	100.756301
3944.000000	100.777183
3943.000000	100.803738
3942.000000	100.826501
3941.000000	100.838074
3940.000000	100.837028
3939.000000	100.826422
3938.000000	100.810847
3937.000000	100.794366
3936.000000	100.780105
3935.000000	100.770668
3934.000000	100.767783
3933.000000	100.771060
3932.000000	100.777248
3931.000000	100.781982
3930.000000	100.783110
3929.000000	100.781842
3928.000000	100.780598
3927.000000	100.779669
3926.000000	100.775945
3925.000000	100.765623
3924.000000	100.748497
3923.000000	100.728293
3922.000000	100.708954
3921.000000	100.692531
3920.000000	100.680295
3919.000000	100.673266
3918.000000	100.671565
3917.000000	100.675154
3916.000000	100.685148
3915.000000	100.702463
3914.000000	100.725087
3913.000000	100.747771
3912.000000	100.765865
3911.000000	100.778309
3910.000000	100.786472
3909.000000	100.790885
3908.000000	100.789867
3907.000000	100.781635
3906.000000	100.767633
3905.000000	100.753921
3904.000000	100.747272
3903.000000	100.748933
3902.000000	100.753417
3901.000000	100.754542
3900.000000	100.751260
3899.000000	100.746733
3898.000000	100.742761
3897.000000	100.736648
3896.000000	100.724656
3895.000000	100.706626
3894.000000	100.686180
3893.000000	100.666503
3892.000000	100.648311
3891.000000	100.631349
3890.000000	100.616828
3889.000000	100.605948
3888.000000	100.597204
3887.000000	100.589912
3886.000000	100.587899
3885.000000	100.596805
3884.000000	100.618478
3883.000000	100.647673
3882.000000	100.675809
3881.000000	100.699045
3880.000000	100.718889
3879.000000	100.736715
3878.000000	100.749968
3877.000000	100.754106
3876.000000	100.750079
3875.000000	100.746746
3874.000000	100.754709
3873.000000	100.779131
3872.000000	100.814955
3871.000000	100.848649
3870.000000	100.869772
3869.000000	100.879424
3868.000000	100.882923
3867.000000	100.876345
3866.000000	100.850824
3865.000000	100.809821
3864.000000	100.771716
3863.000000	100.752507
3862.000000	100.751823
3861.000000	100.758466
3860.000000	100.763889
3859.000000	100.766802
3858.000000	100.769180
3857.000000	100.770702
3856.000000	100.764775
3855.000000	100.740803
3854.000000	100.698292
3853.000000	100.657672
3852.000000	100.641797
3851.000000	100.650812
3850.000000	100.666373
3849.000000	100.675736
3848.000000	100.679312
3847.000000	100.680477
3846.000000	100.680105
3845.000000	100.676855
3844.000000	100.669838
3843.000000	100.660079
3842.000000	100.651446
3841.000000	100.648296
3840.000000	100.651829
3839.000000	100.659817
3838.000000	100.669293
3837.000000	100.679384
3836.000000	100.691447
3835.000000	100.706246
3834.000000	100.721930
3833.000000	100.734739
3832.000000	100.741441
3831.000000	100.742200
3830.000000	100.739770
3829.000000	100.735566
3828.000000	100.728510
3827.000000	100.717593
3826.000000	100.704823
3825.000000	100.694404
3824.000000	100.688227
3823.000000	100.684146
3822.000000	100.680297
3821.000000	100.678736
3820.000000	100.683920
3819.000000	100.696601
3818.000000	100.708662
3817.000000	100.710940
3816.000000	100.703232
3815.000000	100.693203
3814.000000	100.687551
3813.000000	100.684868
3812.000000	100.680857
3811.000000	100.676020
3810.000000	100.674013
3809.000000	100.676316
3808.000000	100.680622
3807.000000	100.683941
3806.000000	100.686334
3805.000000	100.689673
3804.000000	100.693538
3803.000000	100.695285
3802.000000	100.693531
3801.000000	100.689827
3800.000000	100.687327
3799.000000	100.686803
3798.000000	100.686291
3797.000000	100.684853
3796.000000	100.683457
3795.000000	100.683169
3794.000000	100.683774
3793.000000	100.683981
3792.000000	100.682855
3791.000000	100.680617
3790.000000	100.678157
3789.000000	100.676247
3788.000000	100.675231
3787.000000	100.675184
3786.000000	100.676100
3785.000000	100.677825
3784.000000	100.679958
3783.000000	100.681844
3782.000000	100.682769
3781.000000	100.682334
3780.000000	100.680842
3779.000000	100.679094
3778.000000	100.677782
3777.000000	100.677110
3776.000000	100.676922
3775.000000	100.677211
3774.000000	100.678351
3773.000000	100.680604
3772.000000	100.683559
3771.000000	100.685995
3770.000000	100.686661
3769.000000	100.685233
3768.000000	100.682406
3767.000000	100.679101
3766.000000	100.676066
3765.000000	100.674131
3764.000000	100.674161
3763.000000	100.676601
3762.000000	100.681032
3761.000000	100.686259
3760.000000	100.690711
3759.000000	100.692521
3758.000000	100.690258
3757.000000	100.684144
3756.000000	100.676405
3755.000000	100.669909
3754.000000	100.666419
3753.000000	100.666809
3752.000000	100.672200
3751.000000	100.682233
3750.000000	100.692520
3749.000000	100.698294
3748.000000	100.698944
3747.000000	100.696372
3746.000000	100.691525
3745.000000	100.684935
3744.000000	100.678818
3743.000000	100.675702
3742.000000	100.673497
3741.000000	100.666863
3740.000000	100.658068
3739.000000	100.655964
3738.000000	100.663869
3737.000000	100.674296
3736.000000	100.676655
3735.000000	100.670988
3734.000000	100.667969
3733.000000	100.673452
3732.000000	100.681478
3731.000000	100.684964
3730.000000	100.683570
3729.000000	100.680295
3728.000000	100.676830
3727.000000	100.672582
3726.000000	100.665597
3725.000000	100.654082
3724.000000	100.637667
3723.000000	100.618768
3722.000000	100.602461
3721.000000	100.592019
3720.000000	100.586039
3719.000000	100.580914
3718.000000	100.574633
3717.000000	100.568586
3716.000000	100.565950
3715.000000	100.566767
3714.000000	100.564956
3713.000000	100.551302
3712.000000	100.520669
3711.000000	100.478761
3710.000000	100.440105
3709.000000	100.414970
3708.000000	100.401757
3707.000000	100.393533
3706.000000	100.386233
3705.000000	100.379528
3704.000000	100.374294
3703.000000	100.371329
3702.000000	100.371125
3701.000000	100.373305
3700.000000	100.376267
3699.000000	100.377538
3698.000000	100.375100
3697.000000	100.369635
3696.000000	100.364704
3695.000000	100.363501
3694.000000	100.365955
3693.000000	100.370113
3692.000000	100.375271
3691.000000	100.381499
3690.000000	100.387479
3689.000000	100.391425
3688.000000	100.393816
3687.000000	100.395434
3686.000000	100.393415
3685.000000	100.384108
3684.000000	100.368013
3683.000000	100.349704
3682.000000	100.333596
3681.000000	100.319825
3680.000000	100.304462
3679.000000	100.284280
3678.000000	100.258675
3677.000000	100.229082
3676.000000	100.202295
3675.000000	100.188291
3674.000000	100.191048
3673.000000	100.201165
3672.000000	100.201228
3671.000000	100.185338
3670.000000	100.162579
3669.000000	100.144246
3668.000000	100.132992
3667.000000	100.121449
3666.000000	100.104513
3665.000000	100.087401
3664.000000	100.077821
3663.000000	100.077749
3662.000000	100.083115
3661.000000	100.088643
3660.000000	100.091910
3659.000000	100.093132
3658.000000	100.092581
3657.000000	100.090095
3656.000000	100.086718
3655.000000	100.085458
3654.000000	100.088263
3653.000000	100.092981
3652.000000	100.095481
3651.000000	100.092268
3650.000000	100.080693
3649.000000	100.059857
3648.000000	100.032226
3647.000000	100.001207
3646.000000	99.968621
3645.000000	99.936448
3644.000000	99.907965
3643.000000	99.886330
3642.000000	99.872806
3641.000000	99.865546
3640.000000	99.859611
3639.000000	99.849496
3638.000000	99.832999
3637.000000	99.812220
3636.000000	99.789562
3635.000000	99.765161
3634.000000	99.740520
3633.000000	99.722621
3632.000000	99.720336
3631.000000	99.736270
3630.000000	99.763519
3629.000000	99.789679
3628.000000	99.806561
3627.000000	99.814559
3626.000000	99.813604
3625.000000	99.804231
3624.000000	99.794312
3623.000000	99.792392
3622.000000	99.800922
3621.000000	99.815679
3620.000000	99.829519
3619.000000	99.837829
3618.000000	99.840838
3617.000000	99.841257
3616.000000	99.841243
3615.000000	99.843203
3614.000000	99.850738
3613.000000	99.866165
3612.000000	99.887333
3611.000000	99.907372
3610.000000	99.919216
3609.000000	99.921519
3608.000000	99.919022
3607.000000	99.916274
3606.000000	99.912803
3605.000000	99.904721
3604.000000	99.889311
3603.000000	99.867391
3602.000000	99.842729
3601.000000	99.821274
3600.000000	99.809804
3599.000000	99.812730
3598.000000	99.828921
3597.000000	99.853487
3596.000000	99.882073
3595.000000	99.911832
3594.000000	99.939304
3593.000000	99.959569
3592.000000	99.968653
3591.000000	99.967214
3590.000000	99.962049
3589.000000	99.963507
3588.000000	99.978846
3587.000000	100.004824
3586.000000	100.029686
3585.000000	100.043378
3584.000000	100.043957
3583.000000	100.036478
3582.000000	100.027042
3581.000000	100.017921
3580.000000	100.008295
3579.000000	99.997278
3578.000000	99.984708
3577.000000	99.970255
3576.000000	99.953900
3575.000000	99.937377
3574.000000	99.923964
3573.000000	99.915817
3572.000000	99.911588
3571.000000	99.907324
3570.000000	99.899979
3569.000000	99.890350
3568.000000	99.883737
3567.000000	99.886098
3566.000000	99.898008
3565.000000	99.914312
3564.000000	99.929512
3563.000000	99.942209
3562.000000	99.954196
3561.000000	99.966427
3560.000000	99.977378
3559.000000	99.984213
3558.000000	99.984745
3557.000000	99.979210
3556.000000	99.971406
3555.000000	99.967460
3554.000000	99.971893
3553.000000	99.984337
3552.000000	100.000492
3551.000000	100.016250
3550.000000	100.029774
3549.000000	100.039684
3548.000000	100.043535
3547.000000	100.039445
3546.000000	100.028793
3545.000000	100.016152
3544.000000	100.005644
3543.000000	99.998129
3542.000000	99.992343
3541.000000	99.987381
3540.000000	99.983200
3539.000000	99.979300
3538.000000	99.973832
3537.000000	99.964758
3536.000000	99.952098
3535.000000	99.938882
3534.000000	99.929756
3533.000000	99.928366
3532.000000	99.935138
3531.000000	99.946288
3530.000000	99.955112
3529.000000	99.956254
3528.000000	99.949562
3527.000000	99.939549
3526.000000	99.930736
3525.000000	99.924213
3524.000000	99.919080
3523.000000	99.915806
3522.000000	99.916789
3521.000000	99.923828
3520.000000	99.936025
3519.000000	99.950257
3518.000000	99.963041
3517.000000	99.971882
3516.000000	99.975377
3515.000000	99.972911
3514.000000	99.964889
3513.000000	99.953241
3512.000000	99.941308
3511.000000	99.932673
3510.000000	99.929243
3509.000000	99.930303
3508.000000	99.933750
3507.000000	99.938264
3506.000000	99.943786
3505.000000	99.949849
3504.000000	99.954410
3503.000000	99.955510
3502.000000	99.953821
3501.000000	99.952134
3500.000000	99.952137
3499.000000	99.952795
3498.000000	99.952230
3497.000000	99.950298
3496.000000	99.948506
3495.000000	99.947519
3494.000000	99.945986
3493.000000	99.942539
3492.000000	99.938086
3491.000000	99.935061
3490.000000	99.934631
3489.000000	99.935545
3488.000000	99.936070
3487.000000	99.936405
3486.000000	99.938544
3485.000000	99.943925
3484.000000	99.951546
3483.000000	99.958046
3482.000000	99.959729
3481.000000	99.955015
3480.000000	99.945382
3479.000000	99.934231
3478.000000	99.924683
3477.000000	99.918428
3476.000000	99.916164
3475.000000	99.918147
3474.000000	99.923801
3473.000000	99.931233
3472.000000	99.937949
3471.000000	99.942409
3470.000000	99.944704
3469.000000	99.945521
3468.000000	99.944915
3467.000000	99.942654
3466.000000	99.939558
3465.000000	99.937530
3464.000000	99.937550
3463.000000	99.937592
3462.000000	99.933305
3461.000000	99.921524
3460.000000	99.903421
3459.000000	99.884267
3458.000000	99.869570
3457.000000	99.861420
3456.000000	99.858340
3455.000000	99.858029
3454.000000	99.859807
3453.000000	99.864290
3452.000000	99.871577
3451.000000	99.880583
3450.000000	99.889908
3449.000000	99.898456
3448.000000	99.904887
3447.000000	99.907451
3446.000000	99.905523
3445.000000	99.901102
3444.000000	99.897759
3443.000000	99.897486
3442.000000	99.898806
3441.000000	99.898633
3440.000000	99.896051
3439.000000	99.893376
3438.000000	99.893334
3437.000000	99.895938
3436.000000	99.898694
3435.000000	99.899234
3434.000000	99.896793
3433.000000	99.891495
3432.000000	99.883710
3431.000000	99.874921
3430.000000	99.868218
3429.000000	99.866451
3428.000000	99.869819
3427.000000	99.875670
3426.000000	99.880714
3425.000000	99.883505
3424.000000	99.884652
3423.000000	99.885148
3422.000000	99.885158
3421.000000	99.884431
3420.000000	99.883410
3419.000000	99.883332
3418.000000	99.885069
3417.000000	99.888161
3416.000000	99.891191
3415.000000	99.892995
3414.000000	99.893367
3413.000000	99.892727
3412.000000	99.891480
3411.000000	99.889894
3410.000000	99.888413
3409.000000	99.887797
3408.000000	99.888682
3407.000000	99.890858
3406.000000	99.893128
3405.000000	99.894201
3404.000000	99.893580
3403.000000	99.891394
3402.000000	99.887842
3401.000000	99.883398
3400.000000	99.879377
3399.000000	99.877475
3398.000000	99.878450
3397.000000	99.881666
3396.000000	99.886185
3395.000000	99.891800
3394.000000	99.898191
3393.000000	99.903303
3392.000000	99.903769
3391.000000	99.897734
3390.000000	99.887234
3389.000000	99.877475
3388.000000	99.873227
3387.000000	99.875895
3386.000000	99.883436
3385.000000	99.892634
3384.000000	99.901492
3383.000000	99.909290
3382.000000	99.914899
3381.000000	99.916257
3380.000000	99.912158
3379.000000	99.904150
3378.000000	99.895714
3377.000000	99.889069
3376.000000	99.883248
3375.000000	99.875840
3374.000000	99.866363
3373.000000	99.857165
3372.000000	99.850641
3371.000000	99.846157
3370.000000	99.840804
3369.000000	99.833390
3368.000000	99.826563
3367.000000	99.824133
3366.000000	99.827177
3365.000000	99.834130
3364.000000	99.844450
3363.000000	99.860138
3362.000000	99.882418
3361.000000	99.908115
3360.000000	99.931000
3359.000000	99.946795
3358.000000	99.956115
3357.000000	99.962662
3356.000000	99.969201
3355.000000	99.975083
3354.000000	99.977115
3353.000000	99.972855
3352.000000	99.963426
3351.000000	99.952886
3350.000000	99.944203
3349.000000	99.936128
3348.000000	99.924800
3347.000000	99.908296
3346.000000	99.888761
3345.000000	99.870056
3344.000000	99.854052
3343.000000	99.839485
3342.000000	99.824072
3341.000000	99.807460
3340.000000	99.792338
3339.000000	99.782832
3338.000000	99.781737
3337.000000	99.789151
3336.000000	99.803358
3335.000000	99.822185
3334.000000	99.843143
3333.000000	99.863627
3332.000000	99.882737
3331.000000	99.902714
3330.000000	99.926765
3329.000000	99.954530
3328.000000	99.980472
3327.000000	99.997753
3326.000000	100.003550
3325.000000	100.000461
3324.000000	99.993532
3323.000000	99.986230
3322.000000	99.978747
3321.000000	99.969278
3320.000000	99.956493
3319.000000	99.941006
3318.000000	99.924879
3317.000000	99.910240
3316.000000	99.898488
3315.000000	99.889831
3314.000000	99.882622
3313.000000	99.873634
3312.000000	99.860379
3311.000000	99.843581
3310.000000	99.826598
3309.000000	99.812381
3308.000000	99.802168
3307.000000	99.797236
3306.000000	99.800042
3305.000000	99.812077
3304.000000	99.831180
3303.000000	99.852302
3302.000000	99.871155
3301.000000	99.886564
3300.000000	99.899722
3299.000000	99.912288
3298.000000	99.925271
3297.000000	99.938862
3296.000000	99.952883
3295.000000	99.967337
3294.000000	99.982136
3293.000000	99.996116
3292.000000	100.007125
3291.000000	100.013952
3290.000000	100.017529
3289.000000	100.019096
3288.000000	100.017616
3287.000000	100.010651
3286.000000	99.998346
3285.000000	99.985117
3284.000000	99.976137
3283.000000	99.972576
3282.000000	99.971190
3281.000000	99.968154
3280.000000	99.961894
3279.000000	99.952080
3278.000000	99.937619
3277.000000	99.917434
3276.000000	99.893398
3275.000000	99.871124
3274.000000	99.856528
3273.000000	99.851548
3272.000000	99.853663
3271.000000	99.859253
3270.000000	99.866763
3269.000000	99.876472
3268.000000	99.888169
3267.000000	99.900285
3266.000000	99.911478
3265.000000	99.922208
3264.000000	99.933756
3263.000000	99.945586
3262.000000	99.954703
3261.000000	99.958646
3260.000000	99.958817
3259.000000	99.959759
3258.000000	99.964688
3257.000000	99.972445
3256.000000	99.979265
3255.000000	99.982303
3254.000000	99.980347
3253.000000	99.972691
3252.000000	99.960041
3251.000000	99.946546
3250.000000	99.937883
3249.000000	99.935471
3248.000000	99.934198
3247.000000	99.927752
3246.000000	99.915666
3245.000000	99.903640
3244.000000	99.897275
3243.000000	99.897247
3242.000000	99.900500
3241.000000	99.904053
3240.000000	99.906870
3239.000000	99.909283
3238.000000	99.911895
3237.000000	99.915094
3236.000000	99.919336
3235.000000	99.925497
3234.000000	99.934030
3233.000000	99.943264
3232.000000	99.949602
3231.000000	99.950933
3230.000000	99.949637
3229.000000	99.950676
3228.000000	99.956473
3227.000000	99.964919
3226.000000	99.972445
3225.000000	99.977483
3224.000000	99.980623
3223.000000	99.983200
3222.000000	99.986707
3221.000000	99.992083
3220.000000	99.998149
3219.000000	100.001854
3218.000000	100.001471
3217.000000	99.998604
3216.000000	99.995698
3215.000000	99.992629
3214.000000	99.987528
3213.000000	99.980355
3212.000000	99.973534
3211.000000	99.968830
3210.000000	99.965439
3209.000000	99.961857
3208.000000	99.958100
3207.000000	99.954765
3206.000000	99.950669
3205.000000	99.943038
3204.000000	99.930636
3203.000000	99.916197
3202.000000	99.905046
3201.000000	99.900879
3200.000000	99.902939
3199.000000	99.907709
3198.000000	99.913615
3197.000000	99.923530
3196.000000	99.941889
3195.000000	99.969488
3194.000000	100.001420
3193.000000	100.030149
3192.000000	100.050537
3191.000000	100.061973
3190.000000	100.066582
3189.000000	100.066447
3188.000000	100.063009
3187.000000	100.058632
3186.000000	100.057178
3185.000000	100.061423
3184.000000	100.069776
3183.000000	100.076898
3182.000000	100.078270
3181.000000	100.073444
3180.000000	100.064772
3179.000000	100.054345
3178.000000	100.043266
3177.000000	100.032967
3176.000000	100.025214
3175.000000	100.020353
3174.000000	100.016709
3173.000000	100.012338
3172.000000	100.006877
3171.000000	100.001405
3170.000000	99.997163
3169.000000	99.995120
3168.000000	99.996609
3167.000000	100.003573
3166.000000	100.017335
3165.000000	100.036603
3164.000000	100.056853
3163.000000	100.072702
3162.000000	100.081539
3161.000000	100.084522
3160.000000	100.084088
3159.000000	100.081404
3158.000000	100.076960
3157.000000	100.072675
3156.000000	100.071624
3155.000000	100.075332
3154.000000	100.082405
3153.000000	100.090142
3152.000000	100.096749
3151.000000	100.101571
3150.000000	100.104145
3149.000000	100.104109
3148.000000	100.101793
3147.000000	100.098245
3146.000000	100.094880
3145.000000	100.093275
3144.000000	100.094405
3143.000000	100.097072
3142.000000	100.097717
3141.000000	100.093304
3140.000000	100.084683
3139.000000	100.076290
3138.000000	100.071970
3137.000000	100.071810
3136.000000	100.073462
3135.000000	100.075603
3134.000000	100.079207
3133.000000	100.085700
3132.000000	100.095000
3131.000000	100.105484
3130.000000	100.115043
3129.000000	100.121945
3128.000000	100.125365
3127.000000	100.125735
3126.000000	100.124541
3125.000000	100.123470
3124.000000	100.123787
3123.000000	100.126223
3122.000000	100.130692
3121.000000	100.135922
3120.000000	100.140181
3119.000000	100.142880
3118.000000	100.145014
3117.000000	100.147499
3116.000000	100.149593
3115.000000	100.149760
3114.000000	100.147740
3113.000000	100.144984
3112.000000	100.143112
3111.000000	100.142717
3110.000000	100.143876
3109.000000	100.146836
3108.000000	100.151559
3107.000000	100.157005
3106.000000	100.161487
3105.000000	100.163903
3104.000000	100.164588
3103.000000	100.165119
3102.000000	100.167236
3101.000000	100.171494
3100.000000	100.176776
3099.000000	100.181243
3098.000000	100.183967
3097.000000	100.185560
3096.000000	100.187287
3095.000000	100.189908
3094.000000	100.193392
3093.000000	100.197236
3092.000000	100.200732
3091.000000	100.203326
3090.000000	100.205258
3089.000000	100.207748
3088.000000	100.211922
3087.000000	100.217418
3086.000000	100.222376
3085.000000	100.225041
3084.000000	100.224960
3083.000000	100.222801
3082.000000	100.219768
3081.000000	100.217320
3080.000000	100.216867
3079.000000	100.219123
3078.000000	100.223634
3077.000000	100.228993
3076.000000	100.233713
3075.000000	100.237078
3074.000000	100.239348
3073.000000	100.241279
3072.000000	100.243183
3071.000000	100.244418
3070.000000	100.244128
3069.000000	100.242555
3068.000000	100.241272
3067.000000	100.241816
3066.000000	100.244333
3065.000000	100.247809
3064.000000	100.251280
3063.000000	100.254435
3062.000000	100.257170
3061.000000	100.259091
3060.000000	100.259597
3059.000000	100.258301
3058.000000	100.255437
3057.000000	100.252061
3056.000000	100.249611
3055.000000	100.248792
3054.000000	100.248924
3053.000000	100.248827
3052.000000	100.248516
3051.000000	100.249466
3050.000000	100.252761
3049.000000	100.257337
3048.000000	100.260530
3047.000000	100.260611
3046.000000	100.258431
3045.000000	100.256711
3044.000000	100.257669
3043.000000	100.261388
3042.000000	100.266114
3041.000000	100.269784
3040.000000	100.271453
3039.000000	100.271397
3038.000000	100.270432
3037.000000	100.269490
3036.000000	100.269665
3035.000000	100.272001
3034.000000	100.276759
3033.000000	100.282956
3032.000000	100.288948
3031.000000	100.293689
3030.000000	100.297194
3029.000000	100.299764
3028.000000	100.301230
3027.000000	100.301262
3026.000000	100.300172
3025.000000	100.298969
3024.000000	100.298627
3023.000000	100.299556
3022.000000	100.301810
3021.000000	100.305345
3020.000000	100.309850
3019.000000	100.314526
3018.000000	100.318299
3017.000000	100.320222
3016.000000	100.319720
3015.000000	100.316882
3014.000000	100.312906
3013.000000	100.310054
3012.000000	100.310576
3011.000000	100.315372
3010.000000	100.323583
3009.000000	100.333186
3008.000000	100.342003
3007.000000	100.348643
3006.000000	100.353099
3005.000000	100.356526
3004.000000	100.360132
3003.000000	100.364205
3002.000000	100.368356
3001.000000	100.372497
3000.000000	100.377131
2999.000000	100.382643
2998.000000	100.388579
2997.000000	100.393712
2996.000000	100.396801
2995.000000	100.397680
2994.000000	100.398066
2993.000000	100.400852
2992.000000	100.407502
2991.000000	100.415908
2990.000000	100.421694
2989.000000	100.422244
2988.000000	100.419004
2987.000000	100.415651
2986.000000	100.414545
2985.000000	100.415705
2984.000000	100.418647
2983.000000	100.423669
2982.000000	100.430891
2981.000000	100.439052
2980.000000	100.446172
2979.000000	100.451079
2978.000000	100.453503
2977.000000	100.452989
2976.000000	100.448927
2975.000000	100.442233
2974.000000	100.436191
2973.000000	100.434317
2972.000000	100.437090
2971.000000	100.441352
2970.000000	100.443093
2969.000000	100.440470
2968.000000	100.434230
2967.000000	100.426390
2966.000000	100.419277
2965.000000	100.415144
2964.000000	100.415030
2963.000000	100.417231
2962.000000	100.417715
2961.000000	100.413232
2960.000000	100.404314
2959.000000	100.394939
2958.000000	100.389003
2957.000000	100.387329
2956.000000	100.388105
2955.000000	100.389488
2954.000000	100.391104
2953.000000	100.393064
2952.000000	100.394616
2951.000000	100.394679
2950.000000	100.393356
2949.000000	100.392051
2948.000000	100.392126
2947.000000	100.394159
2946.000000	100.398386
2945.000000	100.404914
2944.000000	100.413083
2943.000000	100.421226
2942.000000	100.427545
2941.000000	100.430974
2940.000000	100.431224
2939.000000	100.428923
2938.000000	100.425935
2937.000000	100.424411
2936.000000	100.424901
2935.000000	100.426296
2934.000000	100.428058
2933.000000	100.431193
2932.000000	100.436014
2931.000000	100.440316
2930.000000	100.441645
2929.000000	100.440761
2928.000000	100.440827
2927.000000	100.443097
2926.000000	100.445464
2925.000000	100.445645
2924.000000	100.444000
2923.000000	100.442459
2922.000000	100.442212
2921.000000	100.443506
2920.000000	100.446578
2919.000000	100.451431
2918.000000	100.457058
2917.000000	100.461912
2916.000000	100.465092
2915.000000	100.466551
2914.000000	100.466663
2913.000000	100.466142
2912.000000	100.466021
2911.000000	100.467014
2910.000000	100.468828
2909.000000	100.470460
2908.000000	100.471240
2907.000000	100.471487
2906.000000	100.472317
2905.000000	100.474801
2904.000000	100.478938
2903.000000	100.483340
2902.000000	100.486416
2901.000000	100.488271
2900.000000	100.490905
2899.000000	100.496041
2898.000000	100.503324
2897.000000	100.510734
2896.000000	100.516245
2895.000000	100.518533
2894.000000	100.517243
2893.000000	100.513756
2892.000000	100.510785
2891.000000	100.509714
2890.000000	100.508894
2889.000000	100.505979
2888.000000	100.501497
2887.000000	100.498625
2886.000000	100.499681
2885.000000	100.504308
2884.000000	100.510939
2883.000000	100.518176
2882.000000	100.524254
2881.000000	100.527158
2880.000000	100.526705
2879.000000	100.525348
2878.000000	100.525317
2877.000000	100.525567
2876.000000	100.523142
2875.000000	100.517352
2874.000000	100.511160
2873.000000	100.508046
2872.000000	100.508485
2871.000000	100.510173
2870.000000	100.511059
2869.000000	100.511176
2868.000000	100.511499
2867.000000	100.511982
2866.000000	100.511361
2865.000000	100.508555
2864.000000	100.503536
2863.000000	100.496845
2862.000000	100.489103
2861.000000	100.481503
2860.000000	100.476170
2859.000000	100.475183
2858.000000	100.479080
2857.000000	100.486607
2856.000000	100.495795
2855.000000	100.504977
2854.000000	100.512940
2853.000000	100.518625
2852.000000	100.521078
2851.000000	100.519982
2850.000000	100.516495
2849.000000	100.513543
2848.000000	100.514662
2847.000000	100.521874
2846.000000	100.534402
2845.000000	100.549138
2844.000000	100.562203
2843.000000	100.570295
2842.000000	100.571703
2841.000000	100.567191
2840.000000	100.560006
2839.000000	100.554390
2838.000000	100.553277
2837.000000	100.557052
2836.000000	100.563813
2835.000000	100.570281
2834.000000	100.573192
2833.000000	100.570944
2832.000000	100.564453
2831.000000	100.556379
2830.000000	100.549313
2829.000000	100.544667
2828.000000	100.542747
2827.000000	100.543057
2826.000000	100.544625
2825.000000	100.546793
2824.000000	100.549738
2823.000000	100.553686
2822.000000	100.557787
2821.000000	100.560613
2820.000000	100.561895
2819.000000	100.562917
2818.000000	100.564798
2817.000000	100.567044
2816.000000	100.568383
2815.000000	100.568765
2814.000000	100.569933
2813.000000	100.573888
2812.000000	100.580931
2811.000000	100.589111
2810.000000	100.595545
2809.000000	100.598500
2808.000000	100.598273
2807.000000	100.596188
2806.000000	100.593221
2805.000000	100.590233
2804.000000	100.589042
2803.000000	100.591595
2802.000000	100.597181
2801.000000	100.601502
2800.000000	100.600132
2799.000000	100.592847
2798.000000	100.583873
2797.000000	100.577734
2796.000000	100.575567
2795.000000	100.575828
2794.000000	100.577279
2793.000000	100.580349
2792.000000	100.585716
2791.000000	100.592322
2790.000000	100.597177
2789.000000	100.597251
2788.000000	100.591883
2787.000000	100.583724
2786.000000	100.577305
2785.000000	100.576313
2784.000000	100.581983
2783.000000	100.593428
2782.000000	100.608608
2781.000000	100.624955
2780.000000	100.639853
2779.000000	100.651229
2778.000000	100.657894
2777.000000	100.659556
2776.000000	100.656981
2775.000000	100.652131
2774.000000	100.647516
2773.000000	100.644682
2772.000000	100.643452
2771.000000	100.642914
2770.000000	100.642637
2769.000000	100.642466
2768.000000	100.641667
2767.000000	100.639219
2766.000000	100.635062
2765.000000	100.630439
2764.000000	100.626838
2763.000000	100.624936
2762.000000	100.624529
2761.000000	100.625018
2760.000000	100.625743
2759.000000	100.626239
2758.000000	100.626413
2757.000000	100.626247
2756.000000	100.625294
2755.000000	100.622982
2754.000000	100.619667
2753.000000	100.616965
2752.000000	100.616655
2751.000000	100.619387
2750.000000	100.624522
2749.000000	100.630885
2748.000000	100.637545
2747.000000	100.644299
2746.000000	100.651797
2745.000000	100.660785
2744.000000	100.670468
2743.000000	100.678006
2742.000000	100.680733
2741.000000	100.679133
2740.000000	100.676683
2739.000000	100.676241
2738.000000	100.677481
2737.000000	100.678850
2736.000000	100.681124
2735.000000	100.686969
2734.000000	100.696376
2733.000000	100.704053
2732.000000	100.703183
2731.000000	100.691570
2730.000000	100.673302
2729.000000	100.654541
2728.000000	100.638303
2727.000000	100.624378
2726.000000	100.613355
2725.000000	100.608502
2724.000000	100.612572
2723.000000	100.623592
2722.000000	100.635225
2721.000000	100.641926
2720.000000	100.643223
2719.000000	100.642365
2718.000000	100.641692
2717.000000	100.640859
2716.000000	100.639691
2715.000000	100.640921
2714.000000	100.648137
2713.000000	100.661382
2712.000000	100.676580
2711.000000	100.689828
2710.000000	100.700551
2709.000000	100.709260
2708.000000	100.714253
2707.000000	100.713482
2706.000000	100.709498
2705.000000	100.709387
2704.000000	100.717714
2703.000000	100.730936
2702.000000	100.740610
2701.000000	100.741324
2700.000000	100.733726
2699.000000	100.720942
2698.000000	100.704764
2697.000000	100.686086
2696.000000	100.667126
2695.000000	100.651278
2694.000000	100.640921
2693.000000	100.636240
2692.000000	100.635937
2691.000000	100.638470
2690.000000	100.642654
2689.000000	100.647377
2688.000000	100.650867
2687.000000	100.650629
2686.000000	100.644884
2685.000000	100.634666
2684.000000	100.624459
2683.000000	100.620369
2682.000000	100.627002
2681.000000	100.644899
2680.000000	100.669643
2679.000000	100.693868
2678.000000	100.711864
2677.000000	100.722887
2676.000000	100.729510
2675.000000	100.733129
2674.000000	100.732852
2673.000000	100.729358
2672.000000	100.727353
2671.000000	100.731399
2670.000000	100.739844
2669.000000	100.745644
2668.000000	100.743981
2667.000000	100.737102
2666.000000	100.730721
2665.000000	100.727070
2664.000000	100.723197
2663.000000	100.715562
2662.000000	100.704479
2661.000000	100.693513
2660.000000	100.685391
2659.000000	100.679577
2658.000000	100.673667
2657.000000	100.666151
2656.000000	100.657228
2655.000000	100.647496
2654.000000	100.637088
2653.000000	100.626547
2652.000000	100.617461
2651.000000	100.611307
2650.000000	100.608327
2649.000000	100.608490
2648.000000	100.613075
2647.000000	100.624027
2646.000000	100.641316
2645.000000	100.661559
2644.000000	100.679851
2643.000000	100.692635
2642.000000	100.699052
2641.000000	100.700936
2640.000000	100.702040
2639.000000	100.706092
2638.000000	100.714249
2637.000000	100.724351
2636.000000	100.733106
2635.000000	100.738965
2634.000000	100.742525
2633.000000	100.744345
2632.000000	100.743156
2631.000000	100.736622
2630.000000	100.723561
2629.000000	100.705464
2628.000000	100.686264
2627.000000	100.670444
2626.000000	100.660843
2625.000000	100.657924
2624.000000	100.660515
2623.000000	100.666725
2622.000000	100.673966
2621.000000	100.678752
2620.000000	100.677926
2619.000000	100.670952
2618.000000	100.660737
2617.000000	100.651541
2616.000000	100.646268
2615.000000	100.646272
2614.000000	100.652600
2613.000000	100.665536
2612.000000	100.682584
2611.000000	100.698267
2610.000000	100.707412
2609.000000	100.708515
2608.000000	100.703483
2607.000000	100.695070
2606.000000	100.685564
2605.000000	100.677655
2604.000000	100.674875
2603.000000	100.679783
2602.000000	100.691747
2601.000000	100.706875
2600.000000	100.720342
2599.000000	100.728832
2598.000000	100.731027
2597.000000	100.726945
2596.000000	100.717659
2595.000000	100.705637
2594.000000	100.694748
2593.000000	100.688917
2592.000000	100.690066
2591.000000	100.697116
2590.000000	100.706997
2589.000000	100.716640
2588.000000	100.723760
2587.000000	100.726041
2586.000000	100.721017
2585.000000	100.707919
2584.000000	100.689660
2583.000000	100.672196
2582.000000	100.661148
2581.000000	100.659155
2580.000000	100.665981
2579.000000	100.679695
2578.000000	100.697000
2577.000000	100.713136
2576.000000	100.723216
2575.000000	100.724793
2574.000000	100.719258
2573.000000	100.710833
2572.000000	100.703900
2571.000000	100.701000
2570.000000	100.703002
2569.000000	100.710139
2568.000000	100.722002
2567.000000	100.736501
2566.000000	100.749697
2565.000000	100.757697
2564.000000	100.758826
2563.000000	100.753932
2562.000000	100.745261
2561.000000	100.735635
2560.000000	100.728293
2559.000000	100.726039
2558.000000	100.729531
2557.000000	100.736437
2556.000000	100.742759
2555.000000	100.745520
2554.000000	100.744235
2553.000000	100.740110
2552.000000	100.734407
2551.000000	100.727878
2550.000000	100.721652
2549.000000	100.717893
2548.000000	100.718657
2547.000000	100.723989
2546.000000	100.731408
2545.000000	100.737521
2544.000000	100.740301
2543.000000	100.739775
2542.000000	100.737253
2541.000000	100.734385
2540.000000	100.732510
2539.000000	100.732164
2538.000000	100.732906
2537.000000	100.733900
2536.000000	100.734848
2535.000000	100.736126
2534.000000	100.737863
2533.000000	100.739233
2532.000000	100.739211
2531.000000	100.737933
2530.000000	100.736622
2529.000000	100.736279
2528.000000	100.736937
2527.000000	100.738184
2526.000000	100.739925
2525.000000	100.742268
2524.000000	100.744892
2523.000000	100.746977
2522.000000	100.747919
2521.000000	100.747989
2520.000000	100.748090
2519.000000	100.748699
2518.000000	100.749089
2517.000000	100.748006
2516.000000	100.745466
2515.000000	100.743274
2514.000000	100.742955
2513.000000	100.743995
2512.000000	100.744719
2511.000000	100.744423
2510.000000	100.743834
2509.000000	100.743458
2508.000000	100.742732
2507.000000	100.741438
2506.000000	100.740937
2505.000000	100.742778
2504.000000	100.746460
2503.000000	100.749979
2502.000000	100.752531
2501.000000	100.755505
2500.000000	100.760530
2499.000000	100.767225
2498.000000	100.773402
2497.000000	100.777184
2496.000000	100.778431
2495.000000	100.778132
2494.000000	100.776957
2493.000000	100.774949
2492.000000	100.772530
2491.000000	100.771164
2490.000000	100.772485
2489.000000	100.776778
2488.000000	100.782470
2487.000000	100.787181
2486.000000	100.789232
2485.000000	100.788254
2484.000000	100.784781
2483.000000	100.779684
2482.000000	100.774016
2481.000000	100.769079
2480.000000	100.766224
2479.000000	100.766233
2478.000000	100.768784
2477.000000	100.772579
2476.000000	100.776175
2475.000000	100.778827
2474.000000	100.780507
2473.000000	100.781331
2472.000000	100.781242
2471.000000	100.780295
2470.000000	100.779046
2469.000000	100.778507
2468.000000	100.779673
2467.000000	100.782959
2466.000000	100.787860
2465.000000	100.792944
2464.000000	100.796479
2463.000000	100.797470
2462.000000	100.796156
2461.000000	100.793675
2460.000000	100.791244
2459.000000	100.789630
2458.000000	100.789201
2457.000000	100.790019
2456.000000	100.791702
2455.000000	100.793463
2454.000000	100.794618
2453.000000	100.795031
2452.000000	100.794914
2451.000000	100.794308
2450.000000	100.793049
2449.000000	100.791278
2448.000000	100.789700
2447.000000	100.789140
2446.000000	100.789897
2445.000000	100.791672
2444.000000	100.793971
2443.000000	100.796413
2442.000000	100.798749
2441.000000	100.800766
2440.000000	100.802199
2439.000000	100.802754
2438.000000	100.802290
2437.000000	100.801068
2436.000000	100.799738
2435.000000	100.798947
2434.000000	100.798993
2433.000000	100.799877
2432.000000	100.801437
2431.000000	100.803246
2430.000000	100.804549
2429.000000	100.804659
2428.000000	100.803507
2427.000000	100.801725
2426.000000	100.800147
2425.000000	100.799336
2424.000000	100.799537
2423.000000	100.800816
2422.000000	100.803092
2421.000000	100.806125
2420.000000	100.809526
2419.000000	100.812704
2418.000000	100.814923
2417.000000	100.815504
2416.000000	100.814380
2415.000000	100.812274
2414.000000	100.810057
2413.000000	100.808436
2412.000000	100.807912
2411.000000	100.808748
2410.000000	100.810698
2409.000000	100.812892
2408.000000	100.814444
2407.000000	100.815212
2406.000000	100.815764
2405.000000	100.816624
2404.000000	100.817717
2403.000000	100.818596
2402.000000	100.819021
2401.000000	100.819163
2400.000000	100.819313
2399.000000	100.819587
2398.000000	100.819934
2397.000000	100.820317
2396.000000	100.820747
2395.000000	100.821183
2394.000000	100.821516
2393.000000	100.821663
2392.000000	100.821668
2391.000000	100.821667
2390.000000	100.821768
2389.000000	100.821944
2388.000000	100.822087
2387.000000	100.822113
2386.000000	100.822010
2385.000000	100.821825
2384.000000	100.821614
2383.000000	100.821407
2382.000000	100.821202
2381.000000	100.820973
2380.000000	100.820684
2379.000000	100.820296
2378.000000	100.819762
2377.000000	100.819070
2376.000000	100.818250
2375.000000	100.817379
2374.000000	100.816573
2373.000000	100.815924
2372.000000	100.815360
2371.000000	100.814661
2370.000000	100.813703
2369.000000	100.812584
2368.000000	100.811495
2367.000000	100.810514
2366.000000	100.809718
2365.000000	100.809298
2364.000000	100.809267
2363.000000	100.809194
2362.000000	100.808615
2361.000000	100.807634
2360.000000	100.806835
2359.000000	100.806517
2358.000000	100.806374
2357.000000	100.805871
2356.000000	100.804578
2355.000000	100.802319
2354.000000	100.799316
2353.000000	100.796418
2352.000000	100.794830
2351.000000	100.795264
2350.000000	100.797416
2349.000000	100.800042
2348.000000	100.801769
2347.000000	100.801886
2346.000000	100.800835
2345.000000	100.800017
2344.000000	100.800146
2343.000000	100.800502
2342.000000	100.800411
2341.000000	100.800595
2340.000000	100.801522
2339.000000	100.801333
2338.000000	100.797594
2337.000000	100.790857
2336.000000	100.785007
2335.000000	100.783103
2334.000000	100.784996
2333.000000	100.789274
2332.000000	100.795627
2331.000000	100.803514
2330.000000	100.810318
2329.000000	100.813348
2328.000000	100.813230
2327.000000	100.813045
2326.000000	100.814588
2325.000000	100.817217
2324.000000	100.819592
2323.000000	100.821210
2322.000000	100.821417
2321.000000	100.819361
2320.000000	100.815260
2319.000000	100.810690
2318.000000	100.807072
2317.000000	100.804739
2316.000000	100.803849
2315.000000	100.804590
2314.000000	100.806357
2313.000000	100.807655
2312.000000	100.807936
2311.000000	100.808355
2310.000000	100.809807
2309.000000	100.811237
2308.000000	100.811283
2307.000000	100.810802
2306.000000	100.811924
2305.000000	100.814980
2304.000000	100.817900
2303.000000	100.819087
2302.000000	100.819168
2301.000000	100.819442
2300.000000	100.820007
2299.000000	100.820457
2298.000000	100.821256
2297.000000	100.822786
2296.000000	100.823567
2295.000000	100.821326
2294.000000	100.815939
2293.000000	100.809744
2292.000000	100.805068
2291.000000	100.802365
2290.000000	100.801056
2289.000000	100.800981
2288.000000	100.802034
2287.000000	100.803341
2286.000000	100.803729
2285.000000	100.802949
2284.000000	100.801655
2283.000000	100.800497
2282.000000	100.799813
2281.000000	100.799878
2280.000000	100.800688
2279.000000	100.801488
2278.000000	100.801190
2277.000000	100.799561
2276.000000	100.797606
2275.000000	100.796467
2274.000000	100.796215
2273.000000	100.796097
2272.000000	100.795654
2271.000000	100.795112
2270.000000	100.794790
2269.000000	100.794662
2268.000000	100.794528
2267.000000	100.794205
2266.000000	100.793495
2265.000000	100.792261
2264.000000	100.790658
2263.000000	100.789113
2262.000000	100.787994
2261.000000	100.787391
2260.000000	100.787228
2259.000000	100.787369
2258.000000	100.787583
2257.000000	100.787569
2256.000000	100.787177
2255.000000	100.786502
2254.000000	100.785751
2253.000000	100.785054
2252.000000	100.784441
2251.000000	100.783939
2250.000000	100.783560
2249.000000	100.783203
2248.000000	100.782700
2247.000000	100.781993
2246.000000	100.781235
2245.000000	100.780666
2244.000000	100.780378
2243.000000	100.780243
2242.000000	100.780070
2241.000000	100.779811
2240.000000	100.779567
2239.000000	100.779432
2238.000000	100.779393
2237.000000	100.779364
2236.000000	100.779297
2235.000000	100.779226
2234.000000	100.779201
2233.000000	100.779206
2232.000000	100.779172
2231.000000	100.779065
2230.000000	100.778915
2229.000000	100.778777
2228.000000	100.778687
2227.000000	100.778649
2226.000000	100.778648
2225.000000	100.778658
2224.000000	100.778665
2223.000000	100.778668
2222.000000	100.778680
2221.000000	100.778720
2220.000000	100.778802
2219.000000	100.778920
2218.000000	100.779055
2217.000000	100.779197
2216.000000	100.779361
2215.000000	100.779564
2214.000000	100.779792
2213.000000	100.780011
2212.000000	100.780229
2211.000000	100.780512
2210.000000	100.780935
2209.000000	100.781485
2208.000000	100.782028
2207.000000	100.782417
2206.000000	100.782637
2205.000000	100.782841
2204.000000	100.783137
2203.000000	100.783403
2202.000000	100.783440
2201.000000	100.783289
2200.000000	100.783252
2199.000000	100.783629
2198.000000	100.784504
2197.000000	100.785726
2196.000000	100.786959
2195.000000	100.787801
2194.000000	100.788011
2193.000000	100.787713
2192.000000	100.787171
2191.000000	100.786393
2190.000000	100.785258
2189.000000	100.784103
2188.000000	100.783760
2187.000000	100.784703
2186.000000	100.786529
2185.000000	100.788375
2184.000000	100.789720
2183.000000	100.790570
2182.000000	100.791094
2181.000000	100.791477
2180.000000	100.791919
2179.000000	100.792406
2178.000000	100.792609
2177.000000	100.792295
2176.000000	100.791712
2175.000000	100.791311
2174.000000	100.791217
2173.000000	100.791251
2172.000000	100.791313
2171.000000	100.791418
2170.000000	100.791446
2169.000000	100.791180
2168.000000	100.790571
2167.000000	100.789753
2166.000000	100.788822
2165.000000	100.787947
2164.000000	100.787661
2163.000000	100.788599
2162.000000	100.790831
2161.000000	100.793524
2160.000000	100.795400
2159.000000	100.795753
2158.000000	100.794802
2157.000000	100.793378
2156.000000	100.792206
2155.000000	100.791361
2154.000000	100.790573
2153.000000	100.789977
2152.000000	100.790238
2151.000000	100.791714
2150.000000	100.793788
2149.000000	100.795361
2148.000000	100.796023
2147.000000	100.796267
2146.000000	100.796650
2145.000000	100.797166
2144.000000	100.797564
2143.000000	100.797861
2142.000000	100.798208
2141.000000	100.798521
2140.000000	100.798660
2139.000000	100.798855
2138.000000	100.799590
2137.000000	100.801034
2136.000000	100.802853
2135.000000	100.804537
2134.000000	100.805796
2133.000000	100.806640
2132.000000	100.807267
2131.000000	100.807908
2130.000000	100.808630
2129.000000	100.809277
2128.000000	100.809698
2127.000000	100.810008
2126.000000	100.810539
2125.000000	100.811508
2124.000000	100.812800
2123.000000	100.814064
2122.000000	100.814991
2121.000000	100.815512
2120.000000	100.815834
2119.000000	100.816317
2118.000000	100.817195
2117.000000	100.818464
2116.000000	100.819948
2115.000000	100.821456
2114.000000	100.822811
2113.000000	100.823819
2112.000000	100.824364
2111.000000	100.824518
2110.000000	100.824496
2109.000000	100.824551
2108.000000	100.824889
2107.000000	100.825580
2106.000000	100.826458
2105.000000	100.827181
2104.000000	100.827606
2103.000000	100.828065
2102.000000	100.829032
2101.000000	100.830537
2100.000000	100.832042
2099.000000	100.832968
2098.000000	100.833188
2097.000000	100.833002
2096.000000	100.832859
2095.000000	100.833167
2094.000000	100.834101
2093.000000	100.835316
2092.000000	100.836091
2091.000000	100.836063
2090.000000	100.835720
2089.000000	100.835857
2088.000000	100.836701
2087.000000	100.837911
2086.000000	100.839257
2085.000000	100.840824
2084.000000	100.842567
2083.000000	100.844152
2082.000000	100.845319
2081.000000	100.845964
2080.000000	100.845785
2079.000000	100.844490
2078.000000	100.842584
2077.000000	100.841284
2076.000000	100.841159
2075.000000	100.841305
2074.000000	100.840441
2073.000000	100.838651
2072.000000	100.837507
2071.000000	100.838365
2070.000000	100.840940
2069.000000	100.843620
2068.000000	100.845077
2067.000000	100.845335
2066.000000	100.845343
2065.000000	100.845650
2064.000000	100.845651
2063.000000	100.844382
2062.000000	100.841899
2061.000000	100.839508
2060.000000	100.838387
2059.000000	100.838282
2058.000000	100.837992
2057.000000	100.836941
2056.000000	100.835716
2055.000000	100.835020
2054.000000	100.834613
2053.000000	100.833630
2052.000000	100.831590
2051.000000	100.828761
2050.000000	100.825819
2049.000000	100.823476
2048.000000	100.822190
2047.000000	100.821839
2046.000000	100.821743
2045.000000	100.821331
2044.000000	100.820777
2043.000000	100.820625
2042.000000	100.820816
2041.000000	100.820526
2040.000000	100.819163
2039.000000	100.817106
2038.000000	100.815175
2037.000000	100.813573
2036.000000	100.811795
2035.000000	100.809571
2034.000000	100.807500
2033.000000	100.806391
2032.000000	100.806199
2031.000000	100.805966
2030.000000	100.804920
2029.000000	100.803394
2028.000000	100.802411
2027.000000	100.802444
2026.000000	100.802809
2025.000000	100.802352
2024.000000	100.800562
2023.000000	100.797842
2022.000000	100.794936
2021.000000	100.792322
2020.000000	100.790106
2019.000000	100.788290
2018.000000	100.786966
2017.000000	100.786248
2016.000000	100.785994
2015.000000	100.785598
2014.000000	100.784204
2013.000000	100.781347
2012.000000	100.777564
2011.000000	100.774257
2010.000000	100.772583
2009.000000	100.772528
2008.000000	100.773056
2007.000000	100.773194
2006.000000	100.772835
2005.000000	100.772423
2004.000000	100.772254
2003.000000	100.772270
2002.000000	100.772269
2001.000000	100.772016
2000.000000	100.771223
1999.000000	100.769760
1998.000000	100.768034
1997.000000	100.766863
1996.000000	100.766745
1995.000000	100.767374
1994.000000	100.767935
1993.000000	100.767818
1992.000000	100.767049
1991.000000	100.766132
1990.000000	100.765594
1989.000000	100.765667
1988.000000	100.766178
1987.000000	100.766698
1986.000000	100.767071
1985.000000	100.767708
1984.000000	100.768933
1983.000000	100.770218
1982.000000	100.770597
1981.000000	100.769899
1980.000000	100.769053
1979.000000	100.768974
1978.000000	100.769562
1977.000000	100.770193
1976.000000	100.770855
1975.000000	100.772062
1974.000000	100.773734
1973.000000	100.774969
1972.000000	100.775206
1971.000000	100.775034
1970.000000	100.775496
1969.000000	100.776787
1968.000000	100.778135
1967.000000	100.778775
1966.000000	100.778713
1965.000000	100.778461
1964.000000	100.778436
1963.000000	100.778759
1962.000000	100.779438
1961.000000	100.780496
1960.000000	100.781878
1959.000000	100.783323
1958.000000	100.784449
1957.000000	100.784986
1956.000000	100.784882
1955.000000	100.784259
1954.000000	100.783373
1953.000000	100.782658
1952.000000	100.782591
1951.000000	100.783261
1950.000000	100.784132
1949.000000	100.784527
1948.000000	100.784320
1947.000000	100.783870
1946.000000	100.783260
1945.000000	100.782051
1944.000000	100.780087
1943.000000	100.778272
1942.000000	100.777940
1941.000000	100.779294
1940.000000	100.781262
1939.000000	100.782933
1938.000000	100.784182
1937.000000	100.784800
1936.000000	100.783996
1935.000000	100.781292
1934.000000	100.777542
1933.000000	100.774427
1932.000000	100.772776
1931.000000	100.771950
1930.000000	100.771197
1929.000000	100.771050
1928.000000	100.772597
1927.000000	100.775513
1926.000000	100.777642
1925.000000	100.777056
1924.000000	100.773891
1923.000000	100.769945
1922.000000	100.766728
1921.000000	100.764436
1920.000000	100.763057
1919.000000	100.763137
1918.000000	100.764549
1917.000000	100.765408
1916.000000	100.763627
1915.000000	100.759197
1914.000000	100.753878
1913.000000	100.749031
1912.000000	100.744454
1911.000000	100.739365
1910.000000	100.734069
1909.000000	100.730139
1908.000000	100.728662
1907.000000	100.728723
1906.000000	100.727969
1905.000000	100.724742
1904.000000	100.719646
1903.000000	100.714892
1902.000000	100.712095
1901.000000	100.710855
1900.000000	100.709539
1899.000000	100.707261
1898.000000	100.704638
1897.000000	100.702821
1896.000000	100.702305
1895.000000	100.702536
1894.000000	100.702245
1893.000000	100.700213
1892.000000	100.696243
1891.000000	100.691474
1890.000000	100.687645
1889.000000	100.685776
1888.000000	100.685076
1887.000000	100.683768
1886.000000	100.681028
1885.000000	100.677434
1884.000000	100.674548
1883.000000	100.674162
1882.000000	100.676523
1881.000000	100.678911
1880.000000	100.677375
1879.000000	100.670880
1878.000000	100.662797
1877.000000	100.657541
1876.000000	100.656622
1875.000000	100.658599
1874.000000	100.661607
1873.000000	100.664733
1872.000000	100.667379
1871.000000	100.668627
1870.000000	100.667954
1869.000000	100.666686
1868.000000	100.667241
1867.000000	100.670141
1866.000000	100.673906
1865.000000	100.677436
1864.000000	100.680413
1863.000000	100.682538
1862.000000	100.683846
1861.000000	100.685462
1860.000000	100.689191
1859.000000	100.696004
1858.000000	100.704939
1857.000000	100.713654
1856.000000	100.720624
1855.000000	100.726690
1854.000000	100.733631
1853.000000	100.741258
1852.000000	100.747071
1851.000000	100.749596
1850.000000	100.750547
1849.000000	100.752726
1848.000000	100.756695
1847.000000	100.760390
1846.000000	100.761434
1845.000000	100.759604
1844.000000	100.757925
1843.000000	100.759595
1842.000000	100.764794
1841.000000	100.772240
1840.000000	100.779922
1839.000000	100.784888
1838.000000	100.785382
1837.000000	100.782831
1836.000000	100.780735
1835.000000	100.781146
1834.000000	100.783204
1833.000000	100.784956
1832.000000	100.785388
1831.000000	100.784786
1830.000000	100.784133
1829.000000	100.784177
1828.000000	100.784778
1827.000000	100.785906
1826.000000	100.787812
1825.000000	100.789462
1824.000000	100.789027
1823.000000	100.786149
1822.000000	100.782688
1821.000000	100.781062
1820.000000	100.782151
1819.000000	100.784868
1818.000000	100.787285
1817.000000	100.788322
1816.000000	100.788465
1815.000000	100.788715
1814.000000	100.789073
1813.000000	100.788430
1812.000000	100.786306
1811.000000	100.784413
1810.000000	100.785195
1809.000000	100.788746
1808.000000	100.792444
1807.000000	100.793825
1806.000000	100.792742
1805.000000	100.790461
1804.000000	100.787658
1803.000000	100.784042
1802.000000	100.779940
1801.000000	100.777154
1800.000000	100.777121
1799.000000	100.778973
1798.000000	100.780731
1797.000000	100.781685
1796.000000	100.782401
1795.000000	100.783337
1794.000000	100.784327
1793.000000	100.785321
1792.000000	100.787066
1791.000000	100.789944
1790.000000	100.792921
1789.000000	100.795011
1788.000000	100.796325
1787.000000	100.797328
1786.000000	100.798273
1785.000000	100.799082
1784.000000	100.799231
1783.000000	100.798406
1782.000000	100.797594
1781.000000	100.798313
1780.000000	100.800680
1779.000000	100.802968
1778.000000	100.803538
1777.000000	100.802619
1776.000000	100.801254
1775.000000	100.799870
1774.000000	100.798689
1773.000000	100.799139
1772.000000	100.803683
1771.000000	100.812330
1770.000000	100.821366
1769.000000	100.827505
1768.000000	100.830121
1767.000000	100.830133
1766.000000	100.829292
1765.000000	100.829712
1764.000000	100.832757
1763.000000	100.837836
1762.000000	100.842974
1761.000000	100.846354
1760.000000	100.847253
1759.000000	100.846453
1758.000000	100.845424
1757.000000	100.844796
1756.000000	100.843721
1755.000000	100.840741
1754.000000	100.836211
1753.000000	100.832805
1752.000000	100.833283
1751.000000	100.837507
1750.000000	100.841185
1749.000000	100.840747
1748.000000	100.837473
1747.000000	100.834419
1746.000000	100.832480
1745.000000	100.830787
1744.000000	100.829100
1743.000000	100.828259
1742.000000	100.828536
1741.000000	100.828866
1740.000000	100.827876
1739.000000	100.824959
1738.000000	100.820547
1737.000000	100.816265
1736.000000	100.813366
1735.000000	100.811511
1734.000000	100.810278
1733.000000	100.808825
1732.000000	100.806487
1731.000000	100.805119
1730.000000	100.805229
1729.000000	100.804705
1728.000000	100.802598
1727.000000	100.799949
1726.000000	100.798097
1725.000000	100.796956
1724.000000	100.795475
1723.000000	100.792857
1722.000000	100.789118
1721.000000	100.785101
1720.000000	100.781606
1719.000000	100.778582
1718.000000	100.775579
1717.000000	100.772655
1716.000000	100.769788
1715.000000	100.766516
1714.000000	100.762303
1713.000000	100.756556
1712.000000	100.749534
1711.000000	100.742644
1710.000000	100.737217
1709.000000	100.733647
1708.000000	100.731563
1707.000000	100.729924
1706.000000	100.726605
1705.000000	100.719992
1704.000000	100.710808
1703.000000	100.701796
1702.000000	100.695448
1701.000000	100.693340
1700.000000	100.694027
1699.000000	100.692152
1698.000000	100.687361
1697.000000	100.684207
1696.000000	100.681987
1695.000000	100.675405
1694.000000	100.662260
1693.000000	100.646697
1692.000000	100.633616
1691.000000	100.623911
1690.000000	100.616623
1689.000000	100.610643
1688.000000	100.605305
1687.000000	100.600452
1686.000000	100.595810
1685.000000	100.589623
1684.000000	100.580358
1683.000000	100.569684
1682.000000	100.558221
1681.000000	100.546531
1680.000000	100.537174
1679.000000	100.531325
1678.000000	100.528494
1677.000000	100.527197
1676.000000	100.525714
1675.000000	100.522489
1674.000000	100.516445
1673.000000	100.508113
1672.000000	100.499534
1671.000000	100.491592
1670.000000	100.483821
1669.000000	100.476530
1668.000000	100.470206
1667.000000	100.464933
1666.000000	100.461233
1665.000000	100.459075
1664.000000	100.456974
1663.000000	100.453324
1662.000000	100.447895
1661.000000	100.440660
1660.000000	100.431093
1659.000000	100.419712
1658.000000	100.408713
1657.000000	100.400438
1656.000000	100.395800
1655.000000	100.394154
1654.000000	100.394968
1653.000000	100.399208
1652.000000	100.400542
1651.000000	100.391228
1650.000000	100.378277
1649.000000	100.367622
1648.000000	100.357512
1647.000000	100.351179
1646.000000	100.353380
1645.000000	100.359744
1644.000000	100.363513
1643.000000	100.365611
1642.000000	100.368151
1641.000000	100.370365
1640.000000	100.370279
1639.000000	100.366934
1638.000000	100.361418
1637.000000	100.356818
1636.000000	100.357573
1635.000000	100.364512
1634.000000	100.370700
1633.000000	100.372606
1632.000000	100.374674
1631.000000	100.378966
1630.000000	100.382584
1629.000000	100.382061
1628.000000	100.377811
1627.000000	100.373940
1626.000000	100.373313
1625.000000	100.375609
1624.000000	100.379596
1623.000000	100.384747
1622.000000	100.390130
1621.000000	100.394047
1620.000000	100.396675
1619.000000	100.399907
1618.000000	100.405004
1617.000000	100.411706
1616.000000	100.418203
1615.000000	100.422800
1614.000000	100.425714
1613.000000	100.427940
1612.000000	100.429914
1611.000000	100.432469
1610.000000	100.436739
1609.000000	100.442434
1608.000000	100.448028
1607.000000	100.453158
1606.000000	100.459160
1605.000000	100.466641
1604.000000	100.474303
1603.000000	100.480264
1602.000000	100.484130
1601.000000	100.487032
1600.000000	100.490442
1599.000000	100.495001
1598.000000	100.500219
1597.000000	100.505004
1596.000000	100.508782
1595.000000	100.512132
1594.000000	100.516096
1593.000000	100.520940
1592.000000	100.526071
1591.000000	100.530963
1590.000000	100.535657
1589.000000	100.540421
1588.000000	100.545261
1587.000000	100.549924
1586.000000	100.554266
1585.000000	100.558398
1584.000000	100.562496
1583.000000	100.566666
1582.000000	100.570889
1581.000000	100.575118
1580.000000	100.579324
1579.000000	100.583490
1578.000000	100.587606
1577.000000	100.591667
1576.000000	100.595679
1575.000000	100.599646
1574.000000	100.603568
1573.000000	100.607439
1572.000000	100.611246
1571.000000	100.614979
1570.000000	100.618635
1569.000000	100.622217
1568.000000	100.625715
1567.000000	100.629120
1566.000000	100.632433
1565.000000	100.635668
1564.000000	100.638832
1563.000000	100.641919
1562.000000	100.644908
1561.000000	100.647784
1560.000000	100.650552
1559.000000	100.653248
1558.000000	100.655934
1557.000000	100.658623
1556.000000	100.661305
1555.000000	100.663984
1554.000000	100.666662
1553.000000	100.669321
1552.000000	100.671938
1551.000000	100.674504
1550.000000	100.677034
1549.000000	100.679555
1548.000000	100.682095
1547.000000	100.684672
1546.000000	100.687293
1545.000000	100.689955
1544.000000	100.692646
1543.000000	100.695334
1542.000000	100.697980
1541.000000	100.700564
1540.000000	100.703105
1539.000000	100.705643
1538.000000	100.708191
1537.000000	100.710743
1536.000000	100.713303
1535.000000	100.715874
1534.000000	100.718457
1533.000000	100.721052
1532.000000	100.723648
1531.000000	100.726207
1530.000000	100.728720
1529.000000	100.731242
1528.000000	100.733807
1527.000000	100.736317
1526.000000	100.738698
1525.000000	100.741117
1524.000000	100.743846
1523.000000	100.746930
1522.000000	100.749989
1521.000000	100.752679
1520.000000	100.755216
1519.000000	100.758079
1518.000000	100.761641
1517.000000	100.765599
1516.000000	100.769084
1515.000000	100.771735
1514.000000	100.774011
1513.000000	100.776460
1512.000000	100.778936
1511.000000	100.781117
1510.000000	100.783692
1509.000000	100.787902
1508.000000	100.793927
1507.000000	100.800068
1506.000000	100.805692
1505.000000	100.809280
1504.000000	100.810175
1503.000000	100.811253
1502.000000	100.813283
1501.000000	100.815266
1500.000000	100.817227
1499.000000	100.819482
1498.000000	100.821471
1497.000000	100.822318
1496.000000	100.822269
1495.000000	100.822436
1494.000000	100.823645
1493.000000	100.826057
1492.000000	100.829026
1491.000000	100.831453
1490.000000	100.832831
1489.000000	100.833644
1488.000000	100.834127
1487.000000	100.833979
1486.000000	100.833467
1485.000000	100.833422
1484.000000	100.834292
1483.000000	100.835800
1482.000000	100.837201
1481.000000	100.837889
1480.000000	100.837897
1479.000000	100.837669
1478.000000	100.837522
1477.000000	100.837412
1476.000000	100.837139
1475.000000	100.836652
1474.000000	100.836097
1473.000000	100.835626
1472.000000	100.835185
1471.000000	100.834562
1470.000000	100.833687
1469.000000	100.832656
1468.000000	100.831581
1467.000000	100.830536
1466.000000	100.829564
1465.000000	100.828623
1464.000000	100.827553
1463.000000	100.826222
1462.000000	100.824648
1461.000000	100.822992
1460.000000	100.821417
1459.000000	100.820048
1458.000000	100.819013
1457.000000	100.818340
1456.000000	100.817541
1455.000000	100.815993
1454.000000	100.813964
1453.000000	100.812135
1452.000000	100.810444
1451.000000	100.808441
1450.000000	100.805947
1449.000000	100.803323
1448.000000	100.801134
1447.000000	100.799541
1446.000000	100.798238
1445.000000	100.797038
1444.000000	100.796101
1443.000000	100.795361
1442.000000	100.794121
1441.000000	100.791679
1440.000000	100.788198
1439.000000	100.784652
1438.000000	100.782020
1437.000000	100.780963
1436.000000	100.781285
1435.000000	100.781451
1434.000000	100.780700
1433.000000	100.779716
1432.000000	100.778424
1431.000000	100.775668
1430.000000	100.771059
1429.000000	100.766310
1428.000000	100.763712
1427.000000	100.763795
1426.000000	100.765711
1425.000000	100.768750
1424.000000	100.772907
1423.000000	100.778011
1422.000000	100.782772
1421.000000	100.785380
1420.000000	100.784357
1419.000000	100.780057
1418.000000	100.775310
1417.000000	100.772344
1416.000000	100.771755
1415.000000	100.773817
1414.000000	100.778235
1413.000000	100.783770
1412.000000	100.788607
1411.000000	100.791312
1410.000000	100.791619
1409.000000	100.790578
1408.000000	100.789784
1407.000000	100.790071
1406.000000	100.791188
1405.000000	100.792761
1404.000000	100.795080
1403.000000	100.798434
1402.000000	100.802412
1401.000000	100.806214
1400.000000	100.808950
1399.000000	100.810231
1398.000000	100.810436
1397.000000	100.810128
1396.000000	100.809943
1395.000000	100.811032
1394.000000	100.814459
1393.000000	100.819775
1392.000000	100.825473
1391.000000	100.830367
1390.000000	100.833641
1389.000000	100.834750
1388.000000	100.833777
1387.000000	100.831650
1386.000000	100.829713
1385.000000	100.828999
1384.000000	100.830044
1383.000000	100.832705
1382.000000	100.835947
1381.000000	100.838591
1380.000000	100.840220
1379.000000	100.840997
1378.000000	100.840904
1377.000000	100.839607
1376.000000	100.837096
1375.000000	100.834312
1374.000000	100.832984
1373.000000	100.834008
1372.000000	100.836538
1371.000000	100.839248
1370.000000	100.841534
1369.000000	100.843274
1368.000000	100.844517
1367.000000	100.845396
1366.000000	100.845865
1365.000000	100.845580
1364.000000	100.844217
1363.000000	100.842299
1362.000000	100.841259
1361.000000	100.841800
1360.000000	100.843146
1359.000000	100.844315
1358.000000	100.844974
1357.000000	100.845246
1356.000000	100.845375
1355.000000	100.845489
1354.000000	100.845397
1353.000000	100.844639
1352.000000	100.843085
1351.000000	100.841547
1350.000000	100.841462
1349.000000	100.843431
1348.000000	100.846226
1347.000000	100.847758
1346.000000	100.846962
1345.000000	100.844383
1344.000000	100.841157
1343.000000	100.838033
1342.000000	100.835692
1341.000000	100.835414
1340.000000	100.838446
1339.000000	100.844199
1338.000000	100.849693
1337.000000	100.852144
1336.000000	100.851269
1335.000000	100.848583
1334.000000	100.845589
1333.000000	100.843237
1332.000000	100.842516
1331.000000	100.844153
1330.000000	100.847137
1329.000000	100.848565
1328.000000	100.846098
1327.000000	100.840363
1326.000000	100.834520
1325.000000	100.831351
1324.000000	100.831489
1323.000000	100.834280
1322.000000	100.838935
1321.000000	100.844318
1320.000000	100.848529
1319.000000	100.849915
1318.000000	100.848511
1317.000000	100.845746
1316.000000	100.842832
1315.000000	100.840299
1314.000000	100.838873
1313.000000	100.839604
1312.000000	100.842534
1311.000000	100.845775
1310.000000	100.846734
1309.000000	100.844308
1308.000000	100.839700
1307.000000	100.835186
1306.000000	100.832041
1305.000000	100.829869
1304.000000	100.828111
1303.000000	100.827611
1302.000000	100.829633
1301.000000	100.833092
1300.000000	100.833996
1299.000000	100.828942
1298.000000	100.818829
1297.000000	100.808327
1296.000000	100.801265
1295.000000	100.797634
1294.000000	100.795505
1293.000000	100.794049
1292.000000	100.793235
1291.000000	100.791559
1290.000000	100.786333
1289.000000	100.776958
1288.000000	100.766506
1287.000000	100.758609
1286.000000	100.753214
1285.000000	100.747194
1284.000000	100.739232
1283.000000	100.732143
1282.000000	100.729101
1281.000000	100.728666
1280.000000	100.725730
1279.000000	100.717696
1278.000000	100.707530
1277.000000	100.699383
1276.000000	100.692991
1275.000000	100.685113
1274.000000	100.675700
1273.000000	100.669132
1272.000000	100.668184
1271.000000	100.669601
1270.000000	100.668149
1269.000000	100.663292
1268.000000	100.658591
1267.000000	100.655131
1266.000000	100.648896
1265.000000	100.635764
1264.000000	100.617116
1263.000000	100.599109
1262.000000	100.587020
1261.000000	100.581090
1260.000000	100.577638
1259.000000	100.573293
1258.000000	100.567247
1257.000000	100.559179
1256.000000	100.546809
1255.000000	100.528520
1254.000000	100.508504
1253.000000	100.495244
1252.000000	100.492053
1251.000000	100.491763
1250.000000	100.484557
1249.000000	100.469171
1248.000000	100.451646
1247.000000	100.434226
1246.000000	100.411771
1245.000000	100.380966
1244.000000	100.347786
1243.000000	100.322123
1242.000000	100.307723
1241.000000	100.300515
1240.000000	100.294242
1239.000000	100.284214
1238.000000	100.267650
1237.000000	100.244304
1236.000000	100.216557
1235.000000	100.186961
1234.000000	100.156587
1233.000000	100.127012
1232.000000	100.101343
1231.000000	100.080282
1230.000000	100.059034
1229.000000	100.031712
1228.000000	99.997810
1227.000000	99.961262
1226.000000	99.924148
1225.000000	99.884760
1224.000000	99.841446
1223.000000	99.794722
1222.000000	99.744948
1221.000000	99.690340
1220.000000	99.627841
1219.000000	99.554925
1218.000000	99.471937
1217.000000	99.384804
1216.000000	99.303439
1215.000000	99.233040
1214.000000	99.167232
1213.000000	99.094084
1212.000000	99.009013
1211.000000	98.918197
1210.000000	98.829453
1209.000000	98.744164
1208.000000	98.659270
1207.000000	98.572799
1206.000000	98.485584
1205.000000	98.400564
1204.000000	98.321180
1203.000000	98.247735
1202.000000	98.175297
1201.000000	98.098202
1200.000000	98.016300
1199.000000	97.933646
1198.000000	97.852017
1197.000000	97.770030
1196.000000	97.687964
1195.000000	97.608281
1194.000000	97.531059
1193.000000	97.453604
1192.000000	97.375147
1191.000000	97.297538
1190.000000	97.220819
1189.000000	97.142388
1188.000000	97.060958
1187.000000	96.977103
1186.000000	96.890007
1185.000000	96.798741
1184.000000	96.707144
1183.000000	96.621837
1182.000000	96.543788
1181.000000	96.466383
1180.000000	96.382798
1179.000000	96.290511
1178.000000	96.188008
1177.000000	96.073122
1176.000000	95.947313
1175.000000	95.817484
1174.000000	95.691312
1173.000000	95.573499
1172.000000	95.466269
1171.000000	95.368177
1170.000000	95.271605
1169.000000	95.166976
1168.000000	95.051141
1167.000000	94.928299
1166.000000	94.804955
1165.000000	94.691082
1164.000000	94.604805
1163.000000	94.565621
1162.000000	94.579088
1161.000000	94.632494
1160.000000	94.704830
1159.000000	94.774464
1158.000000	94.819477
1157.000000	94.822901
1156.000000	94.782805
1155.000000	94.712411
1154.000000	94.628224
1153.000000	94.541171
1152.000000	94.457185
1151.000000	94.377071
1150.000000	94.293820
1149.000000	94.198614
1148.000000	94.092158
1147.000000	93.982984
1146.000000	93.873464
1145.000000	93.756718
1144.000000	93.630441
1143.000000	93.504746
1142.000000	93.391872
1141.000000	93.295051
1140.000000	93.210362
1139.000000	93.130974
1138.000000	93.046024
1137.000000	92.944195
1136.000000	92.824039
1135.000000	92.695417
1134.000000	92.567925
1133.000000	92.444168
1132.000000	92.326087
1131.000000	92.218542
1130.000000	92.122066
1129.000000	92.029071
1128.000000	91.930929
1127.000000	91.823135
1126.000000	91.702948
1125.000000	91.570430
1124.000000	91.433569
1123.000000	91.303488
1122.000000	91.182111
1121.000000	91.062971
1120.000000	90.945507
1119.000000	90.838027
1118.000000	90.743776
1117.000000	90.654703
1116.000000	90.562228
1115.000000	90.464370
1114.000000	90.359756
1113.000000	90.245763
1112.000000	90.126563
1111.000000	90.012768
1110.000000	89.909092
1109.000000	89.811556
1108.000000	89.718870
1107.000000	89.634289
1106.000000	89.552155
1105.000000	89.455918
1104.000000	89.336765
1103.000000	89.204273
1102.000000	89.073428
1101.000000	88.951481
1100.000000	88.842181
1099.000000	88.750820
1098.000000	88.677844
1097.000000	88.616025
1096.000000	88.557889
1095.000000	88.496743
1094.000000	88.419843
1093.000000	88.315267
1092.000000	88.190127
1091.000000	88.068745
1090.000000	87.967556
1089.000000	87.883822
1088.000000	87.812076
1087.000000	87.756040
1086.000000	87.717180
1085.000000	87.684788
1084.000000	87.645422
1083.000000	87.592811
1082.000000	87.525151
1081.000000	87.444601
1080.000000	87.363200
1079.000000	87.296585
1078.000000	87.247089
1077.000000	87.204576
1076.000000	87.165865
1075.000000	87.137618
1074.000000	87.115465
1073.000000	87.076598
1072.000000	87.000900
1071.000000	86.887393
1070.000000	86.745514
1069.000000	86.582690
1068.000000	86.406033
1067.000000	86.224090
1066.000000	86.039870
1065.000000	85.851674
1064.000000	85.663950
1063.000000	85.485301
1062.000000	85.313363
1061.000000	85.136110
1060.000000	84.951572
1059.000000	84.771522
1058.000000	84.602529
1057.000000	84.439506
1056.000000	84.282283
1055.000000	84.141497
1054.000000	84.020753
1053.000000	83.906558
1052.000000	83.781610
1051.000000	83.634439
1050.000000	83.453653
1049.000000	83.232699
1048.000000	82.987033
1047.000000	82.748127
1046.000000	82.533875
1045.000000	82.339636
1044.000000	82.157000
1043.000000	81.980379
1042.000000	81.794205
1041.000000	81.578271
1040.000000	81.335082
1039.000000	81.093158
1038.000000	80.874760
1037.000000	80.677651
1036.000000	80.494512
1035.000000	80.329980
1034.000000	80.188990
1033.000000	80.066025
1032.000000	79.956046
1031.000000	79.862007
1030.000000	79.784578
1029.000000	79.717673
1028.000000	79.657890
1027.000000	79.604636
1026.000000	79.550454
1025.000000	79.488467
1024.000000	79.429757
1023.000000	79.393783
1022.000000	79.379923
1021.000000	79.367942
1020.000000	79.347931
1019.000000	79.327951
1018.000000	79.308964
1017.000000	79.275240
1016.000000	79.216661
1015.000000	79.141948
1014.000000	79.064303
1013.000000	78.991120
1012.000000	78.930943
1011.000000	78.891571
1010.000000	78.866728
1009.000000	78.841290
1008.000000	78.811036
1007.000000	78.779789
1006.000000	78.739977
1005.000000	78.680682
1004.000000	78.616802
1003.000000	78.584846
1002.000000	78.603672
1001.000000	78.659312
1000.000000	78.730085
999.000000	78.803377
998.000000	78.864300
997.000000	78.895204
996.000000	78.898630
995.000000	78.901768
994.000000	78.928714
993.000000	78.983491
992.000000	79.062863
991.000000	79.164825
990.000000	79.278197
989.000000	79.383557
988.000000	79.472704
987.000000	79.552736
986.000000	79.628772
985.000000	79.701063
984.000000	79.781312
983.000000	79.890309
982.000000	80.033479
981.000000	80.197435
980.000000	80.375170
979.000000	80.574651
978.000000	80.797011
977.000000	81.027281
976.000000	81.255949
975.000000	81.492629
974.000000	81.749080
973.000000	82.022197
972.000000	82.300511
971.000000	82.575950
970.000000	82.845194
969.000000	83.110965
968.000000	83.384241
967.000000	83.673785
966.000000	83.972641
965.000000	84.265893
964.000000	84.548910
963.000000	84.824207
962.000000	85.085071
961.000000	85.321283
960.000000	85.540007
959.000000	85.761865
958.000000	85.994281
957.000000	86.225997
956.000000	86.449321
955.000000	86.668109
954.000000	86.879851
953.000000	87.069610
952.000000	87.229297
951.000000	87.367661
950.000000	87.494836
949.000000	87.611177
948.000000	87.718775
947.000000	87.829698
946.000000	87.952498
945.000000	88.079740
944.000000	88.196608
943.000000	88.294622
942.000000	88.373178
941.000000	88.436783
940.000000	88.495244
939.000000	88.558800
938.000000	88.629434
937.000000	88.703064
936.000000	88.779203
935.000000	88.858666
934.000000	88.933943
933.000000	88.995818
932.000000	89.050215
931.000000	89.114369
930.000000	89.193816
929.000000	89.276760
928.000000	89.353629
927.000000	89.426914
926.000000	89.497230
925.000000	89.556003
924.000000	89.601518
923.000000	89.650139
922.000000	89.720359
921.000000	89.811384
920.000000	89.903896
919.000000	89.976821
918.000000	90.020476
917.000000	90.040126
916.000000	90.050332
915.000000	90.062240
914.000000	90.077627
913.000000	90.101132
912.000000	90.152311
911.000000	90.251055
910.000000	90.391706
909.000000	90.547078
908.000000	90.702402
907.000000	90.869636
906.000000	91.061717
905.000000	91.269580
904.000000	91.475271
903.000000	91.677037
902.000000	91.889668
901.000000	92.123992
900.000000	92.373579
899.000000	92.619970
898.000000	92.846882
897.000000	93.048867
896.000000	93.227651
895.000000	93.384168
894.000000	93.521103
893.000000	93.653292
892.000000	93.803057
891.000000	93.976175
890.000000	94.152117
889.000000	94.311127
888.000000	94.462978
887.000000	94.632180
886.000000	94.819019
885.000000	94.995144
884.000000	95.140287
883.000000	95.264329
882.000000	95.385608
881.000000	95.503836
880.000000	95.608708
879.000000	95.706409
878.000000	95.821701
877.000000	95.971913
876.000000	96.146245
875.000000	96.313415
874.000000	96.448832
873.000000	96.553595
872.000000	96.645992
871.000000	96.737940
870.000000	96.828685
869.000000	96.923910
868.000000	97.047211
867.000000	97.217430
866.000000	97.418391
865.000000	97.606762
864.000000	97.752392
863.000000	97.858319
862.000000	97.939518
861.000000	97.999080
860.000000	98.038023
859.000000	98.078525
858.000000	98.158068
857.000000	98.294423
856.000000	98.463832
855.000000	98.619075
854.000000	98.727171
853.000000	98.785798
852.000000	98.806187
851.000000	98.793645
850.000000	98.756915
849.000000	98.729566
848.000000	98.760137
847.000000	98.868658
846.000000	99.020918
845.000000	99.157129
844.000000	99.240387
843.000000	99.266507
842.000000	99.238538
841.000000	99.155548
840.000000	99.029927
839.000000	98.896918
838.000000	98.794646
837.000000	98.740056
836.000000	98.727569
835.000000	98.740356
834.000000	98.756380
833.000000	98.753748
832.000000	98.721681
831.000000	98.666555
830.000000	98.604898
829.000000	98.552610
828.000000	98.520600
827.000000	98.514436
826.000000	98.535049
825.000000	98.581795
824.000000	98.650773
823.000000	98.723306
822.000000	98.764937
821.000000	98.751533
820.000000	98.691701
819.000000	98.609306
818.000000	98.509829
817.000000	98.381829
816.000000	98.230352
815.000000	98.086978
814.000000	97.974729
813.000000	97.874741
812.000000	97.738762
811.000000	97.524939
810.000000	97.211074
809.000000	96.784421
808.000000	96.239306
807.000000	95.590706
806.000000	94.882779
805.000000	94.179553
804.000000	93.544138
803.000000	93.013306
802.000000	92.578815
801.000000	92.199538
800.000000	91.843999
799.000000	91.518503
798.000000	91.252014
797.000000	91.069790
796.000000	90.991855
795.000000	91.038358
794.000000	91.211880
793.000000	91.473700
792.000000	91.750712
791.000000	91.972906
790.000000	92.105739
789.000000	92.150561
788.000000	92.121393
787.000000	92.026972
786.000000	91.874706
785.000000	91.683844
784.000000	91.482224
783.000000	91.284574
782.000000	91.083093
781.000000	90.871586
780.000000	90.674575
779.000000	90.537766
778.000000	90.490654
777.000000	90.532368
776.000000	90.651774
775.000000	90.841680
774.000000	91.088508
773.000000	91.365874
772.000000	91.648874
771.000000	91.925640
770.000000	92.189846
769.000000	92.432005
768.000000	92.643548
767.000000	92.821131
766.000000	92.962713
765.000000	93.067224
764.000000	93.142066
763.000000	93.204060
762.000000	93.269912
761.000000	93.351313
760.000000	93.457730
759.000000	93.591333
758.000000	93.735583
757.000000	93.861465
756.000000	93.953032
755.000000	94.019768
754.000000	94.080294
753.000000	94.144309
752.000000	94.216899
751.000000	94.309140
750.000000	94.431275
749.000000	94.578147
748.000000	94.730545
747.000000	94.870892
746.000000	94.992956
745.000000	95.098674
744.000000	95.192877
743.000000	95.283397
742.000000	95.382753
741.000000	95.505100
740.000000	95.657388
739.000000	95.830987
738.000000	96.003451
737.000000	96.151967
736.000000	96.265274
735.000000	96.342538
734.000000	96.387785
733.000000	96.412653
732.000000	96.440592
731.000000	96.496239
730.000000	96.584100
729.000000	96.681427
728.000000	96.757936
727.000000	96.804652
726.000000	96.843550
725.000000	96.907114
724.000000	97.004134
723.000000	97.105582
722.000000	97.170247
721.000000	97.188832
720.000000	97.197738
719.000000	97.238681
718.000000	97.313329
717.000000	97.395418
716.000000	97.473755
715.000000	97.559806
714.000000	97.654127
713.000000	97.725301
712.000000	97.735541
711.000000	97.681236
710.000000	97.599008
709.000000	97.534265
708.000000	97.512156
707.000000	97.533159
706.000000	97.583270
705.000000	97.639064
704.000000	97.662150
703.000000	97.600364
702.000000	97.414135
701.000000	97.110498
700.000000	96.742639
699.000000	96.368653
698.000000	96.018905
697.000000	95.711779
696.000000	95.484598
695.000000	95.381159
694.000000	95.406687
693.000000	95.514151
692.000000	95.645016
691.000000	95.777927
690.000000	95.931317
689.000000	96.128521
688.000000	96.369768
687.000000	96.632320
686.000000	96.886968
685.000000	97.108973
684.000000	97.277804
683.000000	97.379441
682.000000	97.420398
681.000000	97.437900
680.000000	97.480269
679.000000	97.566486
678.000000	97.673285
677.000000	97.768823
676.000000	97.846730
675.000000	97.912420
674.000000	97.953092
673.000000	97.949864
672.000000	97.910188
671.000000	97.868599
670.000000	97.868745
669.000000	97.973439
668.000000	98.202563
667.000000	98.433897
666.000000	98.585174
665.000000	98.667658
664.000000	98.689529
663.000000	98.659945
662.000000	98.615440
661.000000	98.610029
660.000000	98.674826
659.000000	98.793632
658.000000	98.917533
657.000000	99.007697
656.000000	99.058824
655.000000	99.080274
654.000000	99.076108
653.000000	99.053021
652.000000	99.033022
651.000000	99.049023
650.000000	99.120561
