4000.000000	99.525701
3999.000000	99.525141
3998.000000	99.524527
3997.000000	99.523828
3996.000000	99.523048
3995.000000	99.522214
3994.000000	99.521348
3993.000000	99.520464
3992.000000	99.519573
3991.000000	99.518694
3990.000000	99.517856
3989.000000	99.517091
3988.000000	99.516432
3987.000000	99.515902
3986.000000	99.515498
3985.000000	99.515179
3984.000000	99.514885
3983.000000	99.514557
3982.000000	99.514173
3981.000000	99.513750
3980.000000	99.513333
3979.000000	99.512967
3978.000000	99.512678
3977.000000	99.512464
3976.000000	99.512302
3975.000000	99.512165
3974.000000	99.512033
3973.000000	99.511910
3972.000000	99.511826
3971.000000	99.511817
3970.000000	99.511913
3969.000000	99.512121
3968.000000	99.512435
3967.000000	99.512842
3966.000000	99.513326
3965.000000	99.513877
3964.000000	99.514487
3963.000000	99.515146
3962.000000	99.515837
3961.000000	99.516530
3960.000000	99.517191
3959.000000	99.517802
3958.000000	99.518375
3957.000000	99.518944
3956.000000	99.519546
3955.000000	99.520195
3954.000000	99.520876
3953.000000	99.521560
3952.000000	99.522226
3951.000000	99.522876
3950.000000	99.523527
3949.000000	99.524189
3948.000000	99.524842
3947.000000	99.525442
3946.000000	99.525936
3945.000000	99.526289
3944.000000	99.526509
3943.000000	99.526641
3942.000000	99.526734
3941.000000	99.526822
3940.000000	99.526903
3939.000000	99.526963
3938.000000	99.526991
3937.000000	99.526993
3936.000000	99.526987
3935.000000	99.526983
3934.000000	99.526967
3933.000000	99.526888
3932.000000	99.526685
3931.000000	99.526317
3930.000000	99.525778
3929.000000	99.525079
3928.000000	99.524211
3927.000000	99.523135
3926.000000	99.521791
3925.000000	99.520149
3924.000000	99.518237
3923.000000	99.516135
3922.000000	99.513930
3921.000000	99.511670
3920.000000	99.509346
3919.000000	99.506912
3918.000000	99.504322
3917.000000	99.501566
3916.000000	99.498672
3915.000000	99.495682
3914.000000	99.492624
3913.000000	99.489495
3912.000000	99.486286
3911.000000	99.483012
3910.000000	99.479723
3909.000000	99.476491
3908.000000	99.473361
3907.000000	99.470329
3906.000000	99.467344
3905.000000	99.464349
3904.000000	99.461329
3903.000000	99.458333
3902.000000	99.455440
3901.000000	99.452702
3900.000000	99.450122
3899.000000	99.447682
3898.000000	99.445349
3897.000000	99.443117
3896.000000	99.441054
3895.000000	99.439302
3894.000000	99.437992
3893.000000	99.437153
3892.000000	99.436574
3891.000000	99.435914
3890.000000	99.434955
3889.000000	99.433772
3888.000000	99.432833
3887.000000	99.432649
3886.000000	99.433174
3885.000000	99.433700
3884.000000	99.433762
3883.000000	99.433806
3882.000000	99.434971
3881.000000	99.438337
3880.000000	99.443956
3879.000000	99.450063
3878.000000	99.454103
3877.000000	99.454725
3876.000000	99.452567
3875.000000	99.450309
3874.000000	99.450756
3873.000000	99.454389
3872.000000	99.459286
3871.000000	99.463297
3870.000000	99.466380
3869.000000	99.470231
3868.000000	99.475827
3867.000000	99.482505
3866.000000	99.488640
3865.000000	99.492390
3864.000000	99.493178
3863.000000	99.492807
3862.000000	99.494258
3861.000000	99.499379
3860.000000	99.507042
3859.000000	99.513444
3858.000000	99.514952
3857.000000	99.511747
3856.000000	99.509472
3855.000000	99.514098
3854.000000	99.523473
3853.000000	99.529169
3852.000000	99.527667
3851.000000	99.523467
3850.000000	99.522443
3849.000000	99.526342
3848.000000	99.532664
3847.000000	99.537078
3846.000000	99.535725
3845.000000	99.526756
3844.000000	99.511916
3843.000000	99.496642
3842.000000	99.486816
3841.000000	99.484428
3840.000000	99.485842
3839.000000	99.484698
3838.000000	99.478623
3837.000000	99.472048
3836.000000	99.470791
3835.000000	99.475480
3834.000000	99.481071
3833.000000	99.481323
3832.000000	99.473419
3831.000000	99.459579
3830.000000	99.445400
3829.000000	99.436051
3828.000000	99.433195
3827.000000	99.433912
3826.000000	99.432314
3825.000000	99.424417
3824.000000	99.412200
3823.000000	99.402916
3822.000000	99.403329
3821.000000	99.413983
3820.000000	99.428013
3819.000000	99.437077
3818.000000	99.437720
3817.000000	99.430851
3816.000000	99.420185
3815.000000	99.411042
3814.000000	99.406790
3813.000000	99.406473
3812.000000	99.406224
3811.000000	99.402948
3810.000000	99.398070
3809.000000	99.397380
3808.000000	99.405519
3807.000000	99.420460
3806.000000	99.434578
3805.000000	99.442267
3804.000000	99.443800
3803.000000	99.442398
3802.000000	99.440920
3801.000000	99.441940
3800.000000	99.447453
3799.000000	99.457310
3798.000000	99.468953
3797.000000	99.478481
3796.000000	99.483920
3795.000000	99.487508
3794.000000	99.493154
3793.000000	99.501780
3792.000000	99.510083
3791.000000	99.513884
3790.000000	99.512192
3789.000000	99.508283
3788.000000	99.507160
3787.000000	99.511830
3786.000000	99.521334
3785.000000	99.531284
3784.000000	99.536837
3783.000000	99.536216
3782.000000	99.531523
3781.000000	99.525888
3780.000000	99.520379
3779.000000	99.514947
3778.000000	99.510636
3777.000000	99.509534
3776.000000	99.512833
3775.000000	99.519164
3774.000000	99.525330
3773.000000	99.528744
3772.000000	99.528205
3771.000000	99.523377
3770.000000	99.515200
3769.000000	99.505910
3768.000000	99.496858
3767.000000	99.487338
3766.000000	99.476675
3765.000000	99.466860
3764.000000	99.462159
3763.000000	99.466051
3762.000000	99.478078
3761.000000	99.492244
3760.000000	99.499584
3759.000000	99.494719
3758.000000	99.478699
3757.000000	99.456601
3756.000000	99.434675
3755.000000	99.418530
3754.000000	99.411461
3753.000000	99.411993
3752.000000	99.414733
3751.000000	99.417341
3750.000000	99.422023
3749.000000	99.429074
3748.000000	99.435900
3747.000000	99.441550
3746.000000	99.445921
3745.000000	99.444949
3744.000000	99.436472
3743.000000	99.426581
3742.000000	99.422072
3741.000000	99.424345
3740.000000	99.430543
3739.000000	99.436839
3738.000000	99.441061
3737.000000	99.442739
3736.000000	99.443583
3735.000000	99.446506
3734.000000	99.451146
3733.000000	99.452784
3732.000000	99.447868
3731.000000	99.438547
3730.000000	99.430854
3729.000000	99.429267
3728.000000	99.433021
3727.000000	99.436793
3726.000000	99.435992
3725.000000	99.431135
3724.000000	99.425964
3723.000000	99.422582
3722.000000	99.420102
3721.000000	99.417211
3720.000000	99.413709
3719.000000	99.409750
3718.000000	99.405118
3717.000000	99.399960
3716.000000	99.395967
3715.000000	99.395341
3714.000000	99.398223
3713.000000	99.401553
3712.000000	99.401671
3711.000000	99.398421
3710.000000	99.394238
3709.000000	99.390869
3708.000000	99.388472
3707.000000	99.386657
3706.000000	99.385153
3705.000000	99.383705
3704.000000	99.381926
3703.000000	99.379659
3702.000000	99.377498
3701.000000	99.376267
3700.000000	99.375785
3699.000000	99.374888
3698.000000	99.372610
3697.000000	99.369003
3696.000000	99.365094
3695.000000	99.362152
3694.000000	99.360741
3693.000000	99.360525
3692.000000	99.360611
3691.000000	99.360101
3690.000000	99.358538
3689.000000	99.355987
3688.000000	99.352924
3687.000000	99.349981
3686.000000	99.347522
3685.000000	99.345358
3684.000000	99.342904
3683.000000	99.339772
3682.000000	99.336207
3681.000000	99.332835
3680.000000	99.330068
3679.000000	99.327812
3678.000000	99.325644
3677.000000	99.322918
3676.000000	99.319227
3675.000000	99.315065
3674.000000	99.311362
3673.000000	99.308481
3672.000000	99.306329
3671.000000	99.304261
3670.000000	99.301312
3669.000000	99.297089
3668.000000	99.292029
3667.000000	99.286917
3666.000000	99.282293
3665.000000	99.278376
3664.000000	99.275069
3663.000000	99.271868
3662.000000	99.268053
3661.000000	99.263290
3660.000000	99.258214
3659.000000	99.254136
3658.000000	99.251881
3657.000000	99.250588
3656.000000	99.248199
3655.000000	99.243687
3654.000000	99.238073
3653.000000	99.233544
3652.000000	99.231386
3651.000000	99.230138
3650.000000	99.227439
3649.000000	99.223992
3648.000000	99.222230
3647.000000	99.222638
3646.000000	99.223938
3645.000000	99.224827
3644.000000	99.224345
3643.000000	99.221754
3642.000000	99.217062
3641.000000	99.211268
3640.000000	99.205532
3639.000000	99.200204
3638.000000	99.195185
3637.000000	99.191000
3636.000000	99.188711
3635.000000	99.188249
3634.000000	99.187676
3633.000000	99.185120
3632.000000	99.181041
3631.000000	99.177658
3630.000000	99.175820
3629.000000	99.175062
3628.000000	99.175733
3627.000000	99.177931
3626.000000	99.180370
3625.000000	99.181336
3624.000000	99.180097
3623.000000	99.177850
3622.000000	99.177207
3621.000000	99.179872
3620.000000	99.184915
3619.000000	99.189617
3618.000000	99.192190
3617.000000	99.193155
3616.000000	99.194173
3615.000000	99.196453
3614.000000	99.200004
3613.000000	99.204016
3612.000000	99.207572
3611.000000	99.210275
3610.000000	99.212335
3609.000000	99.214239
3608.000000	99.216474
3607.000000	99.219141
3606.000000	99.222014
3605.000000	99.224852
3604.000000	99.227567
3603.000000	99.230212
3602.000000	99.232854
3601.000000	99.235534
3600.000000	99.238265
3599.000000	99.241032
3598.000000	99.243774
3597.000000	99.246416
3596.000000	99.248914
3595.000000	99.251281
3594.000000	99.253578
3593.000000	99.255861
3592.000000	99.258141
3591.000000	99.260377
3590.000000	99.262509
3589.000000	99.264497
3588.000000	99.266356
3587.000000	99.268137
3586.000000	99.269874
3585.000000	99.271546
3584.000000	99.273090
3583.000000	99.274456
3582.000000	99.275634
3581.000000	99.276660
3580.000000	99.277580
3579.000000	99.278418
3578.000000	99.279166
3577.000000	99.279798
3576.000000	99.280306
3575.000000	99.280712
3574.000000	99.281058
3573.000000	99.281375
3572.000000	99.281655
3571.000000	99.281849
3570.000000	99.281899
3569.000000	99.281781
3568.000000	99.281526
3567.000000	99.281203
3566.000000	99.280876
3565.000000	99.280555
3564.000000	99.280210
3563.000000	99.279810
3562.000000	99.279360
3561.000000	99.278903
3560.000000	99.278490
3559.000000	99.278139
3558.000000	99.277824
3557.000000	99.277499
3556.000000	99.277141
3555.000000	99.276782
3554.000000	99.276492
3553.000000	99.276327
3552.000000	99.276284
3551.000000	99.276307
3550.000000	99.276331
3549.000000	99.276342
3548.000000	99.276381
3547.000000	99.276512
3546.000000	99.276764
3545.000000	99.277103
3544.000000	99.277454
3543.000000	99.277764
3542.000000	99.278039
3541.000000	99.278340
3540.000000	99.278734
3539.000000	99.279250
3538.000000	99.279859
3537.000000	99.280501
3536.000000	99.281129
3535.000000	99.281749
3534.000000	99.282409
3533.000000	99.283153
3532.000000	99.283982
3531.000000	99.284843
3530.000000	99.285677
3529.000000	99.286466
3528.000000	99.287255
3527.000000	99.288121
3526.000000	99.289110
3525.000000	99.290200
3524.000000	99.291315
3523.000000	99.292390
3522.000000	99.293417
3521.000000	99.294447
3520.000000	99.295540
3519.000000	99.296716
3518.000000	99.297939
3517.000000	99.299146
3516.000000	99.300289
3515.000000	99.301367
3514.000000	99.302413
3513.000000	99.303460
3512.000000	99.304505
3511.000000	99.305505
3510.000000	99.306409
3509.000000	99.307207
3508.000000	99.307943
3507.000000	99.308681
3506.000000	99.309454
3505.000000	99.310236
3504.000000	99.310969
3503.000000	99.311607
3502.000000	99.312156
3501.000000	99.312666
3500.000000	99.313196
3499.000000	99.313777
3498.000000	99.314402
3497.000000	99.315033
3496.000000	99.315638
3495.000000	99.316211
3494.000000	99.316774
3493.000000	99.317352
3492.000000	99.317944
3491.000000	99.318516
3490.000000	99.319053
3489.000000	99.319539
3488.000000	99.319990
3487.000000	99.320499
3486.000000	99.321140
3485.000000	99.321832
3484.000000	99.322415
3483.000000	99.322868
3482.000000	99.323401
3481.000000	99.324263
3480.000000	99.325514
3479.000000	99.326939
3478.000000	99.328122
3477.000000	99.328565
3476.000000	99.328085
3475.000000	99.327103
3474.000000	99.326301
3473.000000	99.326050
3472.000000	99.326205
3471.000000	99.326336
3470.000000	99.326163
3469.000000	99.325812
3468.000000	99.325655
3467.000000	99.325930
3466.000000	99.326551
3465.000000	99.327170
3464.000000	99.327472
3463.000000	99.327411
3462.000000	99.327198
3461.000000	99.327068
3460.000000	99.327089
3459.000000	99.327185
3458.000000	99.327266
3457.000000	99.327308
3456.000000	99.327280
3455.000000	99.327181
3454.000000	99.327045
3453.000000	99.326922
3452.000000	99.326838
3451.000000	99.326785
3450.000000	99.326735
3449.000000	99.326661
3448.000000	99.326554
3447.000000	99.326422
3446.000000	99.326280
3445.000000	99.326131
3444.000000	99.325968
3443.000000	99.325782
3442.000000	99.325572
3441.000000	99.325344
3440.000000	99.325112
3439.000000	99.324891
3438.000000	99.324694
3437.000000	99.324527
3436.000000	99.324394
3435.000000	99.324296
3434.000000	99.324245
3433.000000	99.324255
3432.000000	99.324343
3431.000000	99.324519
3430.000000	99.324782
3429.000000	99.325118
3428.000000	99.325507
3427.000000	99.325930
3426.000000	99.326374
3425.000000	99.326834
3424.000000	99.327303
3423.000000	99.327775
3422.000000	99.328251
3421.000000	99.328741
3420.000000	99.329261
3419.000000	99.329819
3418.000000	99.330404
3417.000000	99.330998
3416.000000	99.331595
3415.000000	99.332209
3414.000000	99.332865
3413.000000	99.333576
3412.000000	99.334327
3411.000000	99.335082
3410.000000	99.335800
3409.000000	99.336461
3408.000000	99.337068
3407.000000	99.337646
3406.000000	99.338223
3405.000000	99.338811
3404.000000	99.339396
3403.000000	99.339947
3402.000000	99.340440
3401.000000	99.340878
3400.000000	99.341294
3399.000000	99.341726
3398.000000	99.342187
3397.000000	99.342652
3396.000000	99.343067
3395.000000	99.343383
3394.000000	99.343582
3393.000000	99.343689
3392.000000	99.343749
3391.000000	99.343795
3390.000000	99.343820
3389.000000	99.343785
3388.000000	99.343639
3387.000000	99.343368
3386.000000	99.342999
3385.000000	99.342589
3384.000000	99.342182
3383.000000	99.341780
3382.000000	99.341349
3381.000000	99.340851
3380.000000	99.340273
3379.000000	99.339638
3378.000000	99.338988
3377.000000	99.338355
3376.000000	99.337738
3375.000000	99.337108
3374.000000	99.336423
3373.000000	99.335661
3372.000000	99.334834
3371.000000	99.333977
3370.000000	99.333131
3369.000000	99.332306
3368.000000	99.331484
3367.000000	99.330633
3366.000000	99.329740
3365.000000	99.328824
3364.000000	99.327924
3363.000000	99.327077
3362.000000	99.326295
3361.000000	99.325560
3360.000000	99.324843
3359.000000	99.324116
3358.000000	99.323371
3357.000000	99.322620
3356.000000	99.321888
3355.000000	99.321201
3354.000000	99.320580
3353.000000	99.320037
3352.000000	99.319573
3351.000000	99.319180
3350.000000	99.318848
3349.000000	99.318566
3348.000000	99.318326
3347.000000	99.318113
3346.000000	99.317919
3345.000000	99.317735
3344.000000	99.317563
3343.000000	99.317406
3342.000000	99.317272
3341.000000	99.317162
3340.000000	99.317074
3339.000000	99.317000
3338.000000	99.316936
3337.000000	99.316883
3336.000000	99.316853
3335.000000	99.316862
3334.000000	99.316919
3333.000000	99.317025
3332.000000	99.317177
3331.000000	99.317371
3330.000000	99.317601
3329.000000	99.317858
3328.000000	99.318123
3327.000000	99.318383
3326.000000	99.318631
3325.000000	99.318876
3324.000000	99.319127
3323.000000	99.319383
3322.000000	99.319626
3321.000000	99.319834
3320.000000	99.319992
3319.000000	99.320107
3318.000000	99.320206
3317.000000	99.320321
3316.000000	99.320469
3315.000000	99.320642
3314.000000	99.320802
3313.000000	99.320904
3312.000000	99.320913
3311.000000	99.320823
3310.000000	99.320656
3309.000000	99.320436
3308.000000	99.320174
3307.000000	99.319858
3306.000000	99.319468
3305.000000	99.319005
3304.000000	99.318495
3303.000000	99.317977
3302.000000	99.317480
3301.000000	99.316994
3300.000000	99.316483
3299.000000	99.315909
3298.000000	99.315265
3297.000000	99.314585
3296.000000	99.313920
3295.000000	99.313303
3294.000000	99.312715
3293.000000	99.312094
3292.000000	99.311378
3291.000000	99.310549
3290.000000	99.309645
3289.000000	99.308722
3288.000000	99.307815
3287.000000	99.306910
3286.000000	99.305965
3285.000000	99.304946
3284.000000	99.303860
3283.000000	99.302754
3282.000000	99.301687
3281.000000	99.300696
3280.000000	99.299778
3279.000000	99.298896
3278.000000	99.298008
3277.000000	99.297096
3276.000000	99.296174
3275.000000	99.295269
3274.000000	99.294398
3273.000000	99.293554
3272.000000	99.292713
3271.000000	99.291864
3270.000000	99.291024
3269.000000	99.290231
3268.000000	99.289527
3267.000000	99.288923
3266.000000	99.288395
3265.000000	99.287900
3264.000000	99.287403
3263.000000	99.286903
3262.000000	99.286425
3261.000000	99.285998
3260.000000	99.285633
3259.000000	99.285319
3258.000000	99.285041
3257.000000	99.284796
3256.000000	99.284593
3255.000000	99.284442
3254.000000	99.284340
3253.000000	99.284270
3252.000000	99.284214
3251.000000	99.284168
3250.000000	99.284150
3249.000000	99.284181
3248.000000	99.284276
3247.000000	99.284433
3246.000000	99.284643
3245.000000	99.284898
3244.000000	99.285199
3243.000000	99.285553
3242.000000	99.285961
3241.000000	99.286418
3240.000000	99.286901
3239.000000	99.287385
3238.000000	99.287851
3237.000000	99.288300
3236.000000	99.288752
3235.000000	99.289228
3234.000000	99.289738
3233.000000	99.290269
3232.000000	99.290797
3231.000000	99.291302
3230.000000	99.291783
3229.000000	99.292259
3228.000000	99.292752
3227.000000	99.293263
3226.000000	99.293768
3225.000000	99.294232
3224.000000	99.294638
3223.000000	99.295012
3222.000000	99.295410
3221.000000	99.295882
3220.000000	99.296436
3219.000000	99.297033
3218.000000	99.297613
3217.000000	99.298131
3216.000000	99.298575
3215.000000	99.298962
3214.000000	99.299315
3213.000000	99.299642
3212.000000	99.299927
3211.000000	99.300147
3210.000000	99.300286
3209.000000	99.300353
3208.000000	99.300375
3207.000000	99.300382
3206.000000	99.300375
3205.000000	99.300330
3204.000000	99.300206
3203.000000	99.299980
3202.000000	99.299662
3201.000000	99.299292
3200.000000	99.298913
3199.000000	99.298542
3198.000000	99.298156
3197.000000	99.297722
3196.000000	99.297220
3195.000000	99.296660
3194.000000	99.296067
3193.000000	99.295464
3192.000000	99.294853
3191.000000	99.294222
3190.000000	99.293557
3189.000000	99.292866
3188.000000	99.292171
3187.000000	99.291495
3186.000000	99.290846
3185.000000	99.290205
3184.000000	99.289549
3183.000000	99.288864
3182.000000	99.288156
3181.000000	99.287446
3180.000000	99.286747
3179.000000	99.286052
3178.000000	99.285340
3177.000000	99.284594
3176.000000	99.283820
3175.000000	99.283044
3174.000000	99.282300
3173.000000	99.281615
3172.000000	99.280994
3171.000000	99.280434
3170.000000	99.279924
3169.000000	99.279462
3168.000000	99.279061
3167.000000	99.278743
3166.000000	99.278524
3165.000000	99.278393
3164.000000	99.278321
3163.000000	99.278277
3162.000000	99.278255
3161.000000	99.278267
3160.000000	99.278334
3159.000000	99.278459
3158.000000	99.278629
3157.000000	99.278821
3156.000000	99.279025
3155.000000	99.279248
3154.000000	99.279507
3153.000000	99.279813
3152.000000	99.280161
3151.000000	99.280537
3150.000000	99.280921
3149.000000	99.281305
3148.000000	99.281689
3147.000000	99.282085
3146.000000	99.282504
3145.000000	99.282953
3144.000000	99.283430
3143.000000	99.283933
3142.000000	99.284458
3141.000000	99.285006
3140.000000	99.285584
3139.000000	99.286192
3138.000000	99.286822
3137.000000	99.287453
3136.000000	99.288066
3135.000000	99.288655
3134.000000	99.289228
3133.000000	99.289799
3132.000000	99.290381
3131.000000	99.290975
3130.000000	99.291567
3129.000000	99.292133
3128.000000	99.292651
3127.000000	99.293109
3126.000000	99.293507
3125.000000	99.293844
3124.000000	99.294117
3123.000000	99.294320
3122.000000	99.294457
3121.000000	99.294546
3120.000000	99.294611
3119.000000	99.294672
3118.000000	99.294736
3117.000000	99.294803
3116.000000	99.294863
3115.000000	99.294904
3114.000000	99.294915
3113.000000	99.294896
3112.000000	99.294852
3111.000000	99.294798
3110.000000	99.294753
3109.000000	99.294728
3108.000000	99.294725
3107.000000	99.294738
3106.000000	99.294758
3105.000000	99.294779
3104.000000	99.294793
3103.000000	99.294792
3102.000000	99.294767
3101.000000	99.294713
3100.000000	99.294629
3099.000000	99.294523
3098.000000	99.294402
3097.000000	99.294272
3096.000000	99.294142
3095.000000	99.294021
3094.000000	99.293914
3093.000000	99.293820
3092.000000	99.293734
3091.000000	99.293645
3090.000000	99.293548
3089.000000	99.293447
3088.000000	99.293352
3087.000000	99.293274
3086.000000	99.293217
3085.000000	99.293185
3084.000000	99.293176
3083.000000	99.293198
3082.000000	99.293259
3081.000000	99.293369
3080.000000	99.293530
3079.000000	99.293735
3078.000000	99.293972
3077.000000	99.294228
3076.000000	99.294500
3075.000000	99.294795
3074.000000	99.295117
3073.000000	99.295470
3072.000000	99.295852
3071.000000	99.296261
3070.000000	99.296698
3069.000000	99.297159
3068.000000	99.297641
3067.000000	99.298130
3066.000000	99.298613
3065.000000	99.299078
3064.000000	99.299526
3063.000000	99.299967
3062.000000	99.300414
3061.000000	99.300878
3060.000000	99.301366
3059.000000	99.301881
3058.000000	99.302418
3057.000000	99.302970
3056.000000	99.303532
3055.000000	99.304109
3054.000000	99.304714
3053.000000	99.305351
3052.000000	99.306020
3051.000000	99.306713
3050.000000	99.307431
3049.000000	99.308182
3048.000000	99.308971
3047.000000	99.309792
3046.000000	99.310625
3045.000000	99.311449
3044.000000	99.312249
3043.000000	99.313028
3042.000000	99.313799
3041.000000	99.314582
3040.000000	99.315386
3039.000000	99.316211
3038.000000	99.317043
3037.000000	99.317867
3036.000000	99.318675
3035.000000	99.319468
3034.000000	99.320248
3033.000000	99.321013
3032.000000	99.321754
3031.000000	99.322464
3030.000000	99.323147
3029.000000	99.323816
3028.000000	99.324488
3027.000000	99.325168
3026.000000	99.325854
3025.000000	99.326540
3024.000000	99.327228
3023.000000	99.327930
3022.000000	99.328668
3021.000000	99.329461
3020.000000	99.330316
3019.000000	99.331232
3018.000000	99.332198
3017.000000	99.333205
3016.000000	99.334252
3015.000000	99.335344
3014.000000	99.336486
3013.000000	99.337672
3012.000000	99.338878
3011.000000	99.340068
3010.000000	99.341217
3009.000000	99.342316
3008.000000	99.343384
3007.000000	99.344439
3006.000000	99.345482
3005.000000	99.346544
3004.000000	99.347655
3003.000000	99.348752
3002.000000	99.349703
3001.000000	99.350476
3000.000000	99.351278
2999.000000	99.352402
2998.000000	99.353949
2997.000000	99.355625
2996.000000	99.356906
2995.000000	99.357470
2994.000000	99.357551
2993.000000	99.357860
2992.000000	99.359008
2991.000000	99.361021
2990.000000	99.363278
2989.000000	99.364913
2988.000000	99.365424
2987.000000	99.365195
2986.000000	99.365459
2985.000000	99.367372
2984.000000	99.370885
2983.000000	99.374568
2982.000000	99.376760
2981.000000	99.376987
2980.000000	99.376459
2979.000000	99.377308
2978.000000	99.381072
2977.000000	99.387343
2976.000000	99.393562
2975.000000	99.396663
2974.000000	99.395372
2973.000000	99.391059
2972.000000	99.386463
2971.000000	99.383545
2970.000000	99.382466
2969.000000	99.382045
2968.000000	99.380850
2967.000000	99.378303
2966.000000	99.375273
2965.000000	99.373473
2964.000000	99.373961
2963.000000	99.375988
2962.000000	99.377202
2961.000000	99.375152
2960.000000	99.368966
2959.000000	99.360206
2958.000000	99.351961
2957.000000	99.346623
2956.000000	99.344419
2955.000000	99.344161
2954.000000	99.345230
2953.000000	99.347892
2952.000000	99.351789
2951.000000	99.355492
2950.000000	99.357894
2949.000000	99.358970
2948.000000	99.358696
2947.000000	99.356301
2946.000000	99.351806
2945.000000	99.347650
2944.000000	99.347101
2943.000000	99.350936
2942.000000	99.356631
2941.000000	99.360994
2940.000000	99.362987
2939.000000	99.363441
2938.000000	99.363238
2937.000000	99.362713
2936.000000	99.362152
2935.000000	99.361766
2934.000000	99.361217
2933.000000	99.360006
2932.000000	99.358487
2931.000000	99.357953
2930.000000	99.359436
2929.000000	99.362674
2928.000000	99.366126
2927.000000	99.368142
2926.000000	99.368222
2925.000000	99.367043
2924.000000	99.365755
2923.000000	99.365122
2922.000000	99.365280
2921.000000	99.366037
2920.000000	99.367175
2919.000000	99.368514
2918.000000	99.369894
2917.000000	99.371199
2916.000000	99.372331
2915.000000	99.373162
2914.000000	99.373624
2913.000000	99.373850
2912.000000	99.374070
2911.000000	99.374394
2910.000000	99.374754
2909.000000	99.375064
2908.000000	99.375380
2907.000000	99.375844
2906.000000	99.376480
2905.000000	99.377153
2904.000000	99.377724
2903.000000	99.378181
2902.000000	99.378559
2901.000000	99.378833
2900.000000	99.378941
2899.000000	99.378893
2898.000000	99.378767
2897.000000	99.378650
2896.000000	99.378599
2895.000000	99.378678
2894.000000	99.378924
2893.000000	99.379299
2892.000000	99.379690
2891.000000	99.379965
2890.000000	99.380063
2889.000000	99.379995
2888.000000	99.379833
2887.000000	99.379671
2886.000000	99.379551
2885.000000	99.379465
2884.000000	99.379383
2883.000000	99.379284
2882.000000	99.379165
2881.000000	99.379039
2880.000000	99.378917
2879.000000	99.378797
2878.000000	99.378665
2877.000000	99.378504
2876.000000	99.378302
2875.000000	99.378054
2874.000000	99.377774
2873.000000	99.377486
2872.000000	99.377219
2871.000000	99.376990
2870.000000	99.376796
2869.000000	99.376615
2868.000000	99.376420
2867.000000	99.376200
2866.000000	99.375957
2865.000000	99.375702
2864.000000	99.375442
2863.000000	99.375182
2862.000000	99.374928
2861.000000	99.374696
2860.000000	99.374503
2859.000000	99.374359
2858.000000	99.374266
2857.000000	99.374208
2856.000000	99.374152
2855.000000	99.374068
2854.000000	99.373945
2853.000000	99.373794
2852.000000	99.373636
2851.000000	99.373488
2850.000000	99.373357
2849.000000	99.373253
2848.000000	99.373188
2847.000000	99.373171
2846.000000	99.373207
2845.000000	99.373285
2844.000000	99.373379
2843.000000	99.373454
2842.000000	99.373486
2841.000000	99.373469
2840.000000	99.373424
2839.000000	99.373378
2838.000000	99.373353
2837.000000	99.373348
2836.000000	99.373350
2835.000000	99.373346
2834.000000	99.373340
2833.000000	99.373350
2832.000000	99.373399
2831.000000	99.373495
2830.000000	99.373626
2829.000000	99.373767
2828.000000	99.373894
2827.000000	99.374000
2826.000000	99.374100
2825.000000	99.374220
2824.000000	99.374380
2823.000000	99.374587
2822.000000	99.374833
2821.000000	99.375107
2820.000000	99.375400
2819.000000	99.375708
2818.000000	99.376023
2817.000000	99.376339
2816.000000	99.376647
2815.000000	99.376939
2814.000000	99.377214
2813.000000	99.377484
2812.000000	99.377770
2811.000000	99.378086
2810.000000	99.378439
2809.000000	99.378821
2808.000000	99.379219
2807.000000	99.379619
2806.000000	99.380010
2805.000000	99.380390
2804.000000	99.380767
2803.000000	99.381147
2802.000000	99.381538
2801.000000	99.381951
2800.000000	99.382395
2799.000000	99.382885
2798.000000	99.383431
2797.000000	99.384034
2796.000000	99.384690
2795.000000	99.385389
2794.000000	99.386123
2793.000000	99.386882
2792.000000	99.387663
2791.000000	99.388462
2790.000000	99.389279
2789.000000	99.390111
2788.000000	99.390947
2787.000000	99.391769
2786.000000	99.392562
2785.000000	99.393327
2784.000000	99.394084
2783.000000	99.394863
2782.000000	99.395680
2781.000000	99.396522
2780.000000	99.397350
2779.000000	99.398120
2778.000000	99.398814
2777.000000	99.399452
2776.000000	99.400077
2775.000000	99.400730
2774.000000	99.401427
2773.000000	99.402158
2772.000000	99.402897
2771.000000	99.403629
2770.000000	99.404359
2769.000000	99.405100
2768.000000	99.405856
2767.000000	99.406604
2766.000000	99.407309
2765.000000	99.407947
2764.000000	99.408526
2763.000000	99.409083
2762.000000	99.409664
2761.000000	99.410296
2760.000000	99.410975
2759.000000	99.411669
2758.000000	99.412338
2757.000000	99.412960
2756.000000	99.413531
2755.000000	99.414067
2754.000000	99.414574
2753.000000	99.415046
2752.000000	99.415461
2751.000000	99.415805
2750.000000	99.416086
2749.000000	99.416336
2748.000000	99.416595
2747.000000	99.416882
2746.000000	99.417184
2745.000000	99.417471
2744.000000	99.417719
2743.000000	99.417936
2742.000000	99.418153
2741.000000	99.418393
2740.000000	99.418656
2739.000000	99.418917
2738.000000	99.419155
2737.000000	99.419372
2736.000000	99.419599
2735.000000	99.419874
2734.000000	99.420216
2733.000000	99.420604
2732.000000	99.420988
2731.000000	99.421318
2730.000000	99.421573
2729.000000	99.421778
2728.000000	99.421977
2727.000000	99.422208
2726.000000	99.422477
2725.000000	99.422758
2724.000000	99.423023
2723.000000	99.423255
2722.000000	99.423466
2721.000000	99.423683
2720.000000	99.423922
2719.000000	99.424177
2718.000000	99.424424
2717.000000	99.424638
2716.000000	99.424822
2715.000000	99.425005
2714.000000	99.425228
2713.000000	99.425512
2712.000000	99.425840
2711.000000	99.426164
2710.000000	99.426446
2709.000000	99.426683
2708.000000	99.426919
2707.000000	99.427204
2706.000000	99.427556
2705.000000	99.427941
2704.000000	99.428302
2703.000000	99.428597
2702.000000	99.428832
2701.000000	99.429041
2700.000000	99.429259
2699.000000	99.429490
2698.000000	99.429700
2697.000000	99.429851
2696.000000	99.429927
2695.000000	99.429956
2694.000000	99.429986
2693.000000	99.430049
2692.000000	99.430130
2691.000000	99.430169
2690.000000	99.430101
2689.000000	99.429909
2688.000000	99.429638
2687.000000	99.429367
2686.000000	99.429148
2685.000000	99.428977
2684.000000	99.428802
2683.000000	99.428574
2682.000000	99.428291
2681.000000	99.427997
2680.000000	99.427743
2679.000000	99.427542
2678.000000	99.427345
2677.000000	99.427064
2676.000000	99.426633
2675.000000	99.426051
2674.000000	99.425387
2673.000000	99.424727
2672.000000	99.424123
2671.000000	99.423562
2670.000000	99.422996
2669.000000	99.422396
2668.000000	99.421784
2667.000000	99.421214
2666.000000	99.420719
2665.000000	99.420272
2664.000000	99.419797
2663.000000	99.419229
2662.000000	99.418562
2661.000000	99.417865
2660.000000	99.417239
2659.000000	99.416753
2658.000000	99.416408
2657.000000	99.416148
2656.000000	99.415906
2655.000000	99.415652
2654.000000	99.415403
2653.000000	99.415195
2652.000000	99.415030
2651.000000	99.414871
2650.000000	99.414671
2649.000000	99.414421
2648.000000	99.414178
2647.000000	99.414032
2646.000000	99.414039
2645.000000	99.414178
2644.000000	99.414367
2643.000000	99.414520
2642.000000	99.414599
2641.000000	99.414622
2640.000000	99.414638
2639.000000	99.414680
2638.000000	99.414745
2637.000000	99.414813
2636.000000	99.414877
2635.000000	99.414969
2634.000000	99.415149
2633.000000	99.415457
2632.000000	99.415873
2631.000000	99.416321
2630.000000	99.416718
2629.000000	99.417027
2628.000000	99.417274
2627.000000	99.417515
2626.000000	99.417780
2625.000000	99.418053
2624.000000	99.418291
2623.000000	99.418472
2622.000000	99.418627
2621.000000	99.418816
2620.000000	99.419078
2619.000000	99.419393
2618.000000	99.419684
2617.000000	99.419868
2616.000000	99.419919
2615.000000	99.419879
2614.000000	99.419824
2613.000000	99.419803
2612.000000	99.419808
2611.000000	99.419794
2610.000000	99.419739
2609.000000	99.419682
2608.000000	99.419706
2607.000000	99.419870
2606.000000	99.420148
2605.000000	99.420441
2604.000000	99.420636
2603.000000	99.420694
2602.000000	99.420668
2601.000000	99.420662
2600.000000	99.420750
2599.000000	99.420921
2598.000000	99.421103
2597.000000	99.421226
2596.000000	99.421292
2595.000000	99.421379
2594.000000	99.421582
2593.000000	99.421935
2592.000000	99.422380
2591.000000	99.422799
2590.000000	99.423097
2589.000000	99.423271
2588.000000	99.423404
2587.000000	99.423595
2586.000000	99.423876
2585.000000	99.424194
2584.000000	99.424465
2583.000000	99.424658
2582.000000	99.424824
2581.000000	99.425071
2580.000000	99.425478
2579.000000	99.426038
2578.000000	99.426668
2577.000000	99.427261
2576.000000	99.427763
2575.000000	99.428204
2574.000000	99.428665
2573.000000	99.429209
2572.000000	99.429834
2571.000000	99.430488
2570.000000	99.431118
2569.000000	99.431722
2568.000000	99.432341
2567.000000	99.433018
2566.000000	99.433749
2565.000000	99.434481
2564.000000	99.435147
2563.000000	99.435719
2562.000000	99.436226
2561.000000	99.436731
2560.000000	99.437290
2559.000000	99.437916
2558.000000	99.438585
2557.000000	99.439260
2556.000000	99.439927
2555.000000	99.440603
2554.000000	99.441306
2553.000000	99.442029
2552.000000	99.442724
2551.000000	99.443328
2550.000000	99.443811
2549.000000	99.444199
2548.000000	99.444563
2547.000000	99.444974
2546.000000	99.445461
2545.000000	99.446008
2544.000000	99.446583
2543.000000	99.447169
2542.000000	99.447777
2541.000000	99.448422
2540.000000	99.449096
2539.000000	99.449749
2538.000000	99.450316
2537.000000	99.450751
2536.000000	99.451058
2535.000000	99.451295
2534.000000	99.451544
2533.000000	99.451864
2532.000000	99.452261
2531.000000	99.452692
2530.000000	99.453105
2529.000000	99.453471
2528.000000	99.453794
2527.000000	99.454092
2526.000000	99.454373
2525.000000	99.454623
2524.000000	99.454820
2523.000000	99.454959
2522.000000	99.455058
2521.000000	99.455156
2520.000000	99.455289
2519.000000	99.455471
2518.000000	99.455685
2517.000000	99.455892
2516.000000	99.456051
2515.000000	99.456139
2514.000000	99.456165
2513.000000	99.456156
2512.000000	99.456130
2511.000000	99.456102
2510.000000	99.456081
2509.000000	99.456074
2508.000000	99.456089
2507.000000	99.456140
2506.000000	99.456261
2505.000000	99.456488
2504.000000	99.456816
2503.000000	99.457194
2502.000000	99.457563
2501.000000	99.457883
2500.000000	99.458147
2499.000000	99.458365
2498.000000	99.458555
2497.000000	99.458745
2496.000000	99.458963
2495.000000	99.459227
2494.000000	99.459543
2493.000000	99.459901
2492.000000	99.460295
2491.000000	99.460718
2490.000000	99.461161
2489.000000	99.461613
2488.000000	99.462052
2487.000000	99.462462
2486.000000	99.462839
2485.000000	99.463199
2484.000000	99.463570
2483.000000	99.463976
2482.000000	99.464420
2481.000000	99.464887
2480.000000	99.465352
2479.000000	99.465800
2478.000000	99.466233
2477.000000	99.466667
2476.000000	99.467116
2475.000000	99.467583
2474.000000	99.468062
2473.000000	99.468545
2472.000000	99.469035
2471.000000	99.469547
2470.000000	99.470096
2469.000000	99.470690
2468.000000	99.471315
2467.000000	99.471936
2466.000000	99.472520
2465.000000	99.473046
2464.000000	99.473515
2463.000000	99.473942
2462.000000	99.474342
2461.000000	99.474717
2460.000000	99.475060
2459.000000	99.475370
2458.000000	99.475664
2457.000000	99.475973
2456.000000	99.476319
2455.000000	99.476700
2454.000000	99.477087
2453.000000	99.477432
2452.000000	99.477701
2451.000000	99.477892
2450.000000	99.478030
2449.000000	99.478148
2448.000000	99.478263
2447.000000	99.478374
2446.000000	99.478483
2445.000000	99.478602
2444.000000	99.478756
2443.000000	99.478961
2442.000000	99.479209
2441.000000	99.479471
2440.000000	99.479711
2439.000000	99.479908
2438.000000	99.480073
2437.000000	99.480235
2436.000000	99.480418
2435.000000	99.480629
2434.000000	99.480854
2433.000000	99.481074
2432.000000	99.481279
2431.000000	99.481474
2430.000000	99.481669
2429.000000	99.481866
2428.000000	99.482051
2427.000000	99.482199
2426.000000	99.482288
2425.000000	99.482317
2424.000000	99.482306
2423.000000	99.482286
2422.000000	99.482273
2421.000000	99.482256
2420.000000	99.482199
2419.000000	99.482070
2418.000000	99.481860
2417.000000	99.481587
2416.000000	99.481278
2415.000000	99.480945
2414.000000	99.480578
2413.000000	99.480160
2412.000000	99.479687
2411.000000	99.479172
2410.000000	99.478645
2409.000000	99.478132
2408.000000	99.477637
2407.000000	99.477137
2406.000000	99.476597
2405.000000	99.475983
2404.000000	99.475275
2403.000000	99.474470
2402.000000	99.473579
2401.000000	99.472622
2400.000000	99.471619
2399.000000	99.470582
2398.000000	99.469522
2397.000000	99.468444
2396.000000	99.467356
2395.000000	99.466259
2394.000000	99.465146
2393.000000	99.464006
2392.000000	99.462826
2391.000000	99.461597
2390.000000	99.460314
2389.000000	99.458983
2388.000000	99.457616
2387.000000	99.456216
2386.000000	99.454782
2385.000000	99.453307
2384.000000	99.451800
2383.000000	99.450277
2382.000000	99.448759
2381.000000	99.447255
2380.000000	99.445763
2379.000000	99.444274
2378.000000	99.442794
2377.000000	99.441347
2376.000000	99.439959
2375.000000	99.438641
2374.000000	99.437383
2373.000000	99.436158
2372.000000	99.434946
2371.000000	99.433740
2370.000000	99.432550
2369.000000	99.431390
2368.000000	99.430270
2367.000000	99.429191
2366.000000	99.428139
2365.000000	99.427096
2364.000000	99.426052
2363.000000	99.425022
2362.000000	99.424050
2361.000000	99.423177
2360.000000	99.422415
2359.000000	99.421726
2358.000000	99.421050
2357.000000	99.420340
2356.000000	99.419589
2355.000000	99.418818
2354.000000	99.418054
2353.000000	99.417306
2352.000000	99.416564
2351.000000	99.415808
2350.000000	99.415028
2349.000000	99.414232
2348.000000	99.413443
2347.000000	99.412689
2346.000000	99.411983
2345.000000	99.411329
2344.000000	99.410738
2343.000000	99.410233
2342.000000	99.409828
2341.000000	99.409520
2340.000000	99.409286
2339.000000	99.409108
2338.000000	99.408980
2337.000000	99.408907
2336.000000	99.408890
2335.000000	99.408919
2334.000000	99.408976
2333.000000	99.409050
2332.000000	99.409141
2331.000000	99.409257
2330.000000	99.409408
2329.000000	99.409604
2328.000000	99.409863
2327.000000	99.410167
2326.000000	99.410451
2325.000000	99.410704
2324.000000	99.411021
2323.000000	99.411559
2322.000000	99.412323
2321.000000	99.413119
2320.000000	99.413652
2319.000000	99.413550
2318.000000	99.412795
2317.000000	99.411696
2316.000000	99.410941
2315.000000	99.410835
2314.000000	99.411905
2313.000000	99.414121
2312.000000	99.417322
2311.000000	99.420344
2310.000000	99.422088
2309.000000	99.422216
2308.000000	99.421868
2307.000000	99.422452
2306.000000	99.424680
2305.000000	99.427930
2304.000000	99.431114
2303.000000	99.433474
2302.000000	99.435329
2301.000000	99.437324
2300.000000	99.439875
2299.000000	99.442571
2298.000000	99.444873
2297.000000	99.446326
2296.000000	99.446865
2295.000000	99.446638
2294.000000	99.446203
2293.000000	99.446390
2292.000000	99.447705
2291.000000	99.449788
2290.000000	99.451718
2289.000000	99.452900
2288.000000	99.453518
2287.000000	99.454236
2286.000000	99.455594
2285.000000	99.457687
2284.000000	99.460034
2283.000000	99.461820
2282.000000	99.462533
2281.000000	99.462447
2280.000000	99.462417
2279.000000	99.463063
2278.000000	99.464264
2277.000000	99.465490
2276.000000	99.466386
2275.000000	99.466968
2274.000000	99.467442
2273.000000	99.468011
2272.000000	99.468800
2271.000000	99.469805
2270.000000	99.470854
2269.000000	99.471692
2268.000000	99.472178
2267.000000	99.472362
2266.000000	99.472402
2265.000000	99.472397
2264.000000	99.472375
2263.000000	99.472387
2262.000000	99.472483
2261.000000	99.472702
2260.000000	99.473049
2259.000000	99.473464
2258.000000	99.473820
2257.000000	99.474006
2256.000000	99.474036
2255.000000	99.473990
2254.000000	99.473900
2253.000000	99.473726
2252.000000	99.473496
2251.000000	99.473431
2250.000000	99.473748
2249.000000	99.474338
2248.000000	99.474822
2247.000000	99.474970
2246.000000	99.474899
2245.000000	99.474891
2244.000000	99.475084
2243.000000	99.475375
2242.000000	99.475590
2241.000000	99.475694
2240.000000	99.475767
2239.000000	99.475843
2238.000000	99.475871
2237.000000	99.475806
2236.000000	99.475666
2235.000000	99.475515
2234.000000	99.475397
2233.000000	99.475341
2232.000000	99.475353
2231.000000	99.475407
2230.000000	99.475456
2229.000000	99.475463
2228.000000	99.475424
2227.000000	99.475351
2226.000000	99.475266
2225.000000	99.475198
2224.000000	99.475185
2223.000000	99.475234
2222.000000	99.475317
2221.000000	99.475380
2220.000000	99.475393
2219.000000	99.475362
2218.000000	99.475310
2217.000000	99.475258
2216.000000	99.475205
2215.000000	99.475140
2214.000000	99.475060
2213.000000	99.474993
2212.000000	99.474981
2211.000000	99.475031
2210.000000	99.475114
2209.000000	99.475187
2208.000000	99.475220
2207.000000	99.475207
2206.000000	99.475156
2205.000000	99.475100
2204.000000	99.475079
2203.000000	99.475114
2202.000000	99.475194
2201.000000	99.475289
2200.000000	99.475384
2199.000000	99.475492
2198.000000	99.475622
2197.000000	99.475760
2196.000000	99.475880
2195.000000	99.475969
2194.000000	99.476029
2193.000000	99.476073
2192.000000	99.476107
2191.000000	99.476135
2190.000000	99.476160
2189.000000	99.476185
2188.000000	99.476210
2187.000000	99.476227
2186.000000	99.476233
2185.000000	99.476231
2184.000000	99.476229
2183.000000	99.476237
2182.000000	99.476255
2181.000000	99.476279
2180.000000	99.476306
2179.000000	99.476337
2178.000000	99.476382
2177.000000	99.476449
2176.000000	99.476544
2175.000000	99.476661
2174.000000	99.476788
2173.000000	99.476915
2172.000000	99.477036
2171.000000	99.477151
2170.000000	99.477263
2169.000000	99.477368
2168.000000	99.477463
2167.000000	99.477544
2166.000000	99.477609
2165.000000	99.477662
2164.000000	99.477715
2163.000000	99.477781
2162.000000	99.477865
2161.000000	99.477962
2160.000000	99.478062
2159.000000	99.478154
2158.000000	99.478234
2157.000000	99.478304
2156.000000	99.478374
2155.000000	99.478457
2154.000000	99.478564
2153.000000	99.478699
2152.000000	99.478865
2151.000000	99.479060
2150.000000	99.479284
2149.000000	99.479531
2148.000000	99.479790
2147.000000	99.480048
2146.000000	99.480303
2145.000000	99.480562
2144.000000	99.480846
2143.000000	99.481167
2142.000000	99.481526
2141.000000	99.481914
2140.000000	99.482318
2139.000000	99.482731
2138.000000	99.483149
2137.000000	99.483570
2136.000000	99.483997
2135.000000	99.484431
2134.000000	99.484877
2133.000000	99.485336
2132.000000	99.485810
2131.000000	99.486299
2130.000000	99.486804
2129.000000	99.487326
2128.000000	99.487868
2127.000000	99.488426
2126.000000	99.489002
2125.000000	99.489604
2124.000000	99.490245
2123.000000	99.490928
2122.000000	99.491629
2121.000000	99.492314
2120.000000	99.492967
2119.000000	99.493597
2118.000000	99.494213
2117.000000	99.494819
2116.000000	99.495463
2115.000000	99.496225
2114.000000	99.497110
2113.000000	99.498035
2112.000000	99.498930
2111.000000	99.499784
2110.000000	99.500600
2109.000000	99.501359
2108.000000	99.502053
2107.000000	99.502719
2106.000000	99.503427
2105.000000	99.504219
2104.000000	99.505101
2103.000000	99.506052
2102.000000	99.507021
2101.000000	99.507942
2100.000000	99.508774
2099.000000	99.509537
2098.000000	99.510288
2097.000000	99.511072
2096.000000	99.511884
2095.000000	99.512698
2094.000000	99.513495
2093.000000	99.514264
2092.000000	99.514994
2091.000000	99.515677
2090.000000	99.516333
2089.000000	99.516989
2088.000000	99.517657
2087.000000	99.518325
2086.000000	99.518972
2085.000000	99.519584
2084.000000	99.520167
2083.000000	99.520731
2082.000000	99.521278
2081.000000	99.521802
2080.000000	99.522304
2079.000000	99.522789
2078.000000	99.523253
2077.000000	99.523680
2076.000000	99.524056
2075.000000	99.524388
2074.000000	99.524689
2073.000000	99.524974
2072.000000	99.525247
2071.000000	99.525502
2070.000000	99.525731
2069.000000	99.525924
2068.000000	99.526077
2067.000000	99.526194
2066.000000	99.526280
2065.000000	99.526341
2064.000000	99.526385
2063.000000	99.526414
2062.000000	99.526423
2061.000000	99.526402
2060.000000	99.526339
2059.000000	99.526229
2058.000000	99.526076
2057.000000	99.525886
2056.000000	99.525664
2055.000000	99.525414
2054.000000	99.525135
2053.000000	99.524828
2052.000000	99.524488
2051.000000	99.524116
2050.000000	99.523714
2049.000000	99.523289
2048.000000	99.522842
2047.000000	99.522373
2046.000000	99.521878
2045.000000	99.521361
2044.000000	99.520828
2043.000000	99.520284
2042.000000	99.519730
2041.000000	99.519162
2040.000000	99.518571
2039.000000	99.517949
2038.000000	99.517289
2037.000000	99.516596
2036.000000	99.515882
2035.000000	99.515161
2034.000000	99.514447
2033.000000	99.513742
2032.000000	99.513035
2031.000000	99.512315
2030.000000	99.511573
2029.000000	99.510811
2028.000000	99.510033
2027.000000	99.509248
2026.000000	99.508456
2025.000000	99.507656
2024.000000	99.506846
2023.000000	99.506025
2022.000000	99.505190
2021.000000	99.504340
2020.000000	99.503477
2019.000000	99.502613
2018.000000	99.501769
2017.000000	99.500956
2016.000000	99.500175
2015.000000	99.499416
2014.000000	99.498672
2013.000000	99.497941
2012.000000	99.497219
2011.000000	99.496497
2010.000000	99.495767
2009.000000	99.495024
2008.000000	99.494275
2007.000000	99.493530
2006.000000	99.492797
2005.000000	99.492082
2004.000000	99.491386
2003.000000	99.490709
2002.000000	99.490043
2001.000000	99.489382
2000.000000	99.488722
1999.000000	99.488064
1998.000000	99.487417
1997.000000	99.486793
1996.000000	99.486206
1995.000000	99.485662
1994.000000	99.485138
1993.000000	99.484603
1992.000000	99.484042
1991.000000	99.483479
1990.000000	99.482960
1989.000000	99.482518
1988.000000	99.482138
1987.000000	99.481723
1986.000000	99.481147
1985.000000	99.480391
1984.000000	99.479635
1983.000000	99.479105
1982.000000	99.478850
1981.000000	99.478728
1980.000000	99.478612
1979.000000	99.478530
1978.000000	99.478574
1977.000000	99.478722
1976.000000	99.478783
1975.000000	99.478518
1974.000000	99.477823
1973.000000	99.476849
1972.000000	99.475881
1971.000000	99.475062
1970.000000	99.474252
1969.000000	99.473323
1968.000000	99.472563
1967.000000	99.472524
1966.000000	99.473391
1965.000000	99.474714
1964.000000	99.475808
1963.000000	99.476251
1962.000000	99.475982
1961.000000	99.475212
1960.000000	99.474346
1959.000000	99.473800
1958.000000	99.473774
1957.000000	99.474204
1956.000000	99.474878
1955.000000	99.475531
1954.000000	99.475915
1953.000000	99.475962
1952.000000	99.475890
1951.000000	99.475922
1950.000000	99.475879
1949.000000	99.475335
1948.000000	99.474161
1947.000000	99.472710
1946.000000	99.471445
1945.000000	99.470627
1944.000000	99.470467
1943.000000	99.471168
1942.000000	99.472477
1941.000000	99.473613
1940.000000	99.474021
1939.000000	99.473841
1938.000000	99.473463
1937.000000	99.472943
1936.000000	99.472203
1935.000000	99.471609
1934.000000	99.471814
1933.000000	99.472814
1932.000000	99.473677
1931.000000	99.473526
1930.000000	99.472589
1929.000000	99.471968
1928.000000	99.472186
1927.000000	99.472465
1926.000000	99.471537
1925.000000	99.468955
1924.000000	99.465521
1923.000000	99.462622
1922.000000	99.460975
1921.000000	99.460390
1920.000000	99.460386
1919.000000	99.460625
1918.000000	99.460803
1917.000000	99.460689
1916.000000	99.460391
1915.000000	99.460150
1914.000000	99.459860
1913.000000	99.459024
1912.000000	99.457358
1911.000000	99.455277
1910.000000	99.453524
1909.000000	99.452454
1908.000000	99.451810
1907.000000	99.451295
1906.000000	99.450708
1905.000000	99.449714
1904.000000	99.447965
1903.000000	99.445422
1902.000000	99.442553
1901.000000	99.440030
1900.000000	99.438088
1899.000000	99.436511
1898.000000	99.435021
1897.000000	99.433546
1896.000000	99.432181
1895.000000	99.430918
1894.000000	99.429674
1893.000000	99.428621
1892.000000	99.428169
1891.000000	99.428465
1890.000000	99.428777
1889.000000	99.427648
1888.000000	99.424309
1887.000000	99.419758
1886.000000	99.416128
1885.000000	99.415080
1884.000000	99.416629
1883.000000	99.419193
1882.000000	99.420870
1881.000000	99.420724
1880.000000	99.418857
1879.000000	99.416055
1878.000000	99.413412
1877.000000	99.411768
1876.000000	99.411313
1875.000000	99.411542
1874.000000	99.411552
1873.000000	99.410608
1872.000000	99.408618
1871.000000	99.406490
1870.000000	99.406121
1869.000000	99.409048
1868.000000	99.414385
1867.000000	99.419314
1866.000000	99.422294
1865.000000	99.424075
1864.000000	99.425870
1863.000000	99.427746
1862.000000	99.428888
1861.000000	99.428949
1860.000000	99.428550
1859.000000	99.428504
1858.000000	99.429170
1857.000000	99.430657
1856.000000	99.432936
1855.000000	99.435481
1854.000000	99.437230
1853.000000	99.437541
1852.000000	99.436833
1851.000000	99.436348
1850.000000	99.437204
1849.000000	99.439602
1848.000000	99.442854
1847.000000	99.445902
1846.000000	99.447952
1845.000000	99.448751
1844.000000	99.448652
1843.000000	99.448414
1842.000000	99.448501
1841.000000	99.448857
1840.000000	99.449292
1839.000000	99.449816
1838.000000	99.450611
1837.000000	99.451861
1836.000000	99.453525
1835.000000	99.455256
1834.000000	99.456622
1833.000000	99.457452
1832.000000	99.457867
1831.000000	99.458170
1830.000000	99.458623
1829.000000	99.459246
1828.000000	99.459916
1827.000000	99.460510
1826.000000	99.460921
1825.000000	99.461088
1824.000000	99.461103
1823.000000	99.461198
1822.000000	99.461521
1821.000000	99.462007
1820.000000	99.462433
1819.000000	99.462622
1818.000000	99.462542
1817.000000	99.462261
1816.000000	99.461936
1815.000000	99.461768
1814.000000	99.461882
1813.000000	99.462138
1812.000000	99.462152
1811.000000	99.461699
1810.000000	99.461056
1809.000000	99.460864
1808.000000	99.461517
1807.000000	99.462789
1806.000000	99.463991
1805.000000	99.464610
1804.000000	99.464647
1803.000000	99.464281
1802.000000	99.463574
1801.000000	99.462486
1800.000000	99.461249
1799.000000	99.460360
1798.000000	99.460088
1797.000000	99.460365
1796.000000	99.461065
1795.000000	99.462108
1794.000000	99.463370
1793.000000	99.464493
1792.000000	99.465190
1791.000000	99.465565
1790.000000	99.465743
1789.000000	99.465583
1788.000000	99.464961
1787.000000	99.463974
1786.000000	99.462762
1785.000000	99.461264
1784.000000	99.459450
1783.000000	99.457557
1782.000000	99.456504
1781.000000	99.456984
1780.000000	99.458566
1779.000000	99.460310
1778.000000	99.461915
1777.000000	99.463836
1776.000000	99.466096
1775.000000	99.468106
1774.000000	99.469478
1773.000000	99.470206
1772.000000	99.470416
1771.000000	99.470611
1770.000000	99.470984
1769.000000	99.471147
1768.000000	99.471323
1767.000000	99.472648
1766.000000	99.475955
1765.000000	99.480180
1764.000000	99.482926
1763.000000	99.482413
1762.000000	99.479594
1761.000000	99.477452
1760.000000	99.477410
1759.000000	99.477969
1758.000000	99.477507
1757.000000	99.476575
1756.000000	99.476753
1755.000000	99.478640
1754.000000	99.481439
1753.000000	99.484245
1752.000000	99.486613
1751.000000	99.488646
1750.000000	99.490487
1749.000000	99.491804
1748.000000	99.492007
1747.000000	99.490859
1746.000000	99.488906
1745.000000	99.486522
1744.000000	99.483758
1743.000000	99.480895
1742.000000	99.478415
1741.000000	99.476729
1740.000000	99.476378
1739.000000	99.477494
1738.000000	99.479355
1737.000000	99.481021
1736.000000	99.482288
1735.000000	99.483275
1734.000000	99.483323
1733.000000	99.481739
1732.000000	99.478867
1731.000000	99.475203
1730.000000	99.471631
1729.000000	99.469568
1728.000000	99.469755
1727.000000	99.471912
1726.000000	99.475151
1725.000000	99.478064
1724.000000	99.479505
1723.000000	99.479432
1722.000000	99.478846
1721.000000	99.478804
1720.000000	99.479427
1719.000000	99.479670
1718.000000	99.477650
1717.000000	99.472866
1716.000000	99.467990
1715.000000	99.465106
1714.000000	99.463766
1713.000000	99.463221
1712.000000	99.463349
1711.000000	99.463805
1710.000000	99.463735
1709.000000	99.462699
1708.000000	99.461284
1707.000000	99.460521
1706.000000	99.460355
1705.000000	99.459252
1704.000000	99.456305
1703.000000	99.452216
1702.000000	99.448290
1701.000000	99.445475
1700.000000	99.443785
1699.000000	99.442314
1698.000000	99.440181
1697.000000	99.437562
1696.000000	99.435131
1695.000000	99.432986
1694.000000	99.430941
1693.000000	99.428738
1692.000000	99.426130
1691.000000	99.422876
1690.000000	99.418728
1689.000000	99.413997
1688.000000	99.409497
1687.000000	99.405887
1686.000000	99.403137
1685.000000	99.400284
1684.000000	99.396211
1683.000000	99.391278
1682.000000	99.386771
1681.000000	99.383114
1680.000000	99.380075
1679.000000	99.377224
1678.000000	99.374184
1677.000000	99.370843
1676.000000	99.367332
1675.000000	99.363910
1674.000000	99.360742
1673.000000	99.357698
1672.000000	99.354562
1671.000000	99.351220
1670.000000	99.347699
1669.000000	99.344187
1668.000000	99.340910
1667.000000	99.337915
1666.000000	99.335109
1665.000000	99.332353
1664.000000	99.329553
1663.000000	99.326691
1662.000000	99.323814
1661.000000	99.320987
1660.000000	99.318245
1659.000000	99.315603
1658.000000	99.313058
1657.000000	99.310598
1656.000000	99.308212
1655.000000	99.305897
1654.000000	99.303655
1653.000000	99.301485
1652.000000	99.299389
1651.000000	99.297374
1650.000000	99.295449
1649.000000	99.293624
1648.000000	99.291913
1647.000000	99.290328
1646.000000	99.288856
1645.000000	99.287463
1644.000000	99.286124
1643.000000	99.284833
1642.000000	99.283607
1641.000000	99.282462
1640.000000	99.281401
1639.000000	99.280412
1638.000000	99.279482
1637.000000	99.278608
1636.000000	99.277800
1635.000000	99.277071
1634.000000	99.276424
1633.000000	99.275848
1632.000000	99.275325
1631.000000	99.274843
1630.000000	99.274402
1629.000000	99.274015
1628.000000	99.273701
1627.000000	99.273481
1626.000000	99.273356
1625.000000	99.273310
1624.000000	99.273323
1623.000000	99.273383
1622.000000	99.273500
1621.000000	99.273696
1620.000000	99.273988
1619.000000	99.274374
1618.000000	99.274846
1617.000000	99.275385
1616.000000	99.275961
1615.000000	99.276548
1614.000000	99.277152
1613.000000	99.277786
1612.000000	99.278488
1611.000000	99.279322
1610.000000	99.280303
1609.000000	99.281346
1608.000000	99.282332
1607.000000	99.283278
1606.000000	99.284359
1605.000000	99.285717
1604.000000	99.287311
1603.000000	99.288978
1602.000000	99.290589
1601.000000	99.292066
1600.000000	99.293417
1599.000000	99.294839
1598.000000	99.296650
1597.000000	99.298961
1596.000000	99.301486
1595.000000	99.303715
1594.000000	99.305365
1593.000000	99.306626
1592.000000	99.308023
1591.000000	99.309939
1590.000000	99.312283
1589.000000	99.314683
1588.000000	99.316980
1587.000000	99.319428
1586.000000	99.322250
1585.000000	99.325225
1584.000000	99.327803
1583.000000	99.329744
1582.000000	99.331405
1581.000000	99.333239
1580.000000	99.335269
1579.000000	99.337311
1578.000000	99.339416
1577.000000	99.341798
1576.000000	99.344365
1575.000000	99.346749
1574.000000	99.348825
1573.000000	99.350598
1572.000000	99.352059
1571.000000	99.353286
1570.000000	99.354592
1569.000000	99.356318
1568.000000	99.358393
1567.000000	99.360520
1566.000000	99.362508
1565.000000	99.364348
1564.000000	99.366062
1563.000000	99.367694
1562.000000	99.369284
1561.000000	99.370907
1560.000000	99.372432
1559.000000	99.373940
1558.000000	99.375424
1557.000000	99.376850
1556.000000	99.378291
1555.000000	99.379806
1554.000000	99.381395
1553.000000	99.382898
1552.000000	99.384140
1551.000000	99.385174
1550.000000	99.386163
1549.000000	99.387200
1548.000000	99.388294
1547.000000	99.389391
1546.000000	99.390412
1545.000000	99.391313
1544.000000	99.392129
1543.000000	99.392955
1542.000000	99.393857
1541.000000	99.394846
1540.000000	99.395896
1539.000000	99.396943
1538.000000	99.397962
1537.000000	99.398952
1536.000000	99.399909
1535.000000	99.400848
1534.000000	99.401824
1533.000000	99.402895
1532.000000	99.404063
1531.000000	99.405293
1530.000000	99.406562
1529.000000	99.407864
1528.000000	99.409195
1527.000000	99.410543
1526.000000	99.411893
1525.000000	99.413239
1524.000000	99.414583
1523.000000	99.415936
1522.000000	99.417312
1521.000000	99.418721
1520.000000	99.420154
1519.000000	99.421600
1518.000000	99.423054
1517.000000	99.424524
1516.000000	99.426024
1515.000000	99.427572
1514.000000	99.429182
1513.000000	99.430852
1512.000000	99.432567
1511.000000	99.434306
1510.000000	99.436054
1509.000000	99.437814
1508.000000	99.439608
1507.000000	99.441466
1506.000000	99.443405
1505.000000	99.445422
1504.000000	99.447479
1503.000000	99.449531
1502.000000	99.451552
1501.000000	99.453560
1500.000000	99.455606
1499.000000	99.457747
1498.000000	99.459969
1497.000000	99.462139
1496.000000	99.464080
1495.000000	99.465742
1494.000000	99.467258
1493.000000	99.468794
1492.000000	99.470445
1491.000000	99.472159
1490.000000	99.473712
1489.000000	99.474942
1488.000000	99.476109
1487.000000	99.477681
1486.000000	99.479723
1485.000000	99.481870
1484.000000	99.483759
1483.000000	99.485470
1482.000000	99.487346
1481.000000	99.489292
1480.000000	99.490772
1479.000000	99.491626
1478.000000	99.492391
1477.000000	99.493507
1476.000000	99.494635
1475.000000	99.495065
1474.000000	99.494988
1473.000000	99.495514
1472.000000	99.496780
1471.000000	99.497608
1470.000000	99.497502
1469.000000	99.497106
1468.000000	99.497243
1467.000000	99.498305
1466.000000	99.500114
1465.000000	99.501780
1464.000000	99.501712
1463.000000	99.499363
1462.000000	99.495647
1461.000000	99.491394
1460.000000	99.487157
1459.000000	99.483990
1458.000000	99.483821
1457.000000	99.486857
1456.000000	99.489911
1455.000000	99.491345
1454.000000	99.492249
1453.000000	99.492980
1452.000000	99.492638
1451.000000	99.490362
1450.000000	99.486544
1449.000000	99.482353
1448.000000	99.478634
1447.000000	99.475619
1446.000000	99.473826
1445.000000	99.473836
1444.000000	99.475238
1443.000000	99.476781
1442.000000	99.477386
1441.000000	99.477060
1440.000000	99.476530
1439.000000	99.476505
1438.000000	99.477062
1437.000000	99.477305
1436.000000	99.475910
1435.000000	99.472751
1434.000000	99.469069
1433.000000	99.466279
1432.000000	99.465292
1431.000000	99.466124
1430.000000	99.467797
1429.000000	99.469119
1428.000000	99.469753
1427.000000	99.469977
1426.000000	99.470145
1425.000000	99.470471
1424.000000	99.470852
1423.000000	99.471020
1422.000000	99.470687
1421.000000	99.469605
1420.000000	99.467512
1419.000000	99.464962
1418.000000	99.463367
1417.000000	99.463388
1416.000000	99.464729
1415.000000	99.466814
1414.000000	99.468960
1413.000000	99.470706
1412.000000	99.472116
1411.000000	99.473596
1410.000000	99.475322
1409.000000	99.476957
1408.000000	99.477993
1407.000000	99.477953
1406.000000	99.476687
1405.000000	99.474897
1404.000000	99.474092
1403.000000	99.475318
1402.000000	99.478196
1401.000000	99.481394
1400.000000	99.483626
1399.000000	99.484542
1398.000000	99.484735
1397.000000	99.484771
1396.000000	99.484596
1395.000000	99.483900
1394.000000	99.482729
1393.000000	99.481538
1392.000000	99.480828
1391.000000	99.480988
1390.000000	99.482219
1389.000000	99.484344
1388.000000	99.486854
1387.000000	99.489088
1386.000000	99.490522
1385.000000	99.491193
1384.000000	99.491752
1383.000000	99.493068
1382.000000	99.495488
1381.000000	99.498360
1380.000000	99.500460
1379.000000	99.501089
1378.000000	99.500591
1377.000000	99.499891
1376.000000	99.499702
1375.000000	99.500195
1374.000000	99.501183
1373.000000	99.502330
1372.000000	99.503452
1371.000000	99.504691
1370.000000	99.506336
1369.000000	99.508437
1368.000000	99.510590
1367.000000	99.512219
1366.000000	99.512996
1365.000000	99.512902
1364.000000	99.512186
1363.000000	99.511530
1362.000000	99.511800
1361.000000	99.513265
1360.000000	99.515387
1359.000000	99.517356
1358.000000	99.518789
1357.000000	99.519861
1356.000000	99.520957
1355.000000	99.522247
1354.000000	99.523524
1353.000000	99.524355
1352.000000	99.524382
1351.000000	99.523480
1350.000000	99.521896
1349.000000	99.520336
1348.000000	99.519660
1347.000000	99.520323
1346.000000	99.522083
1345.000000	99.524068
1344.000000	99.525405
1343.000000	99.525865
1342.000000	99.525843
1341.000000	99.525946
1340.000000	99.526461
1339.000000	99.527126
1338.000000	99.527427
1337.000000	99.527128
1336.000000	99.526442
1335.000000	99.525875
1334.000000	99.525883
1333.000000	99.526533
1332.000000	99.527397
1331.000000	99.527815
1330.000000	99.527497
1329.000000	99.526778
1328.000000	99.526344
1327.000000	99.526592
1326.000000	99.527337
1325.000000	99.528000
1324.000000	99.528115
1323.000000	99.527661
1322.000000	99.527007
1321.000000	99.526589
1320.000000	99.526590
1319.000000	99.526868
1318.000000	99.527068
1317.000000	99.526909
1316.000000	99.526423
1315.000000	99.525935
1314.000000	99.525758
1313.000000	99.525870
1312.000000	99.525914
1311.000000	99.525527
1310.000000	99.524666
1309.000000	99.523554
1308.000000	99.522500
1307.000000	99.521647
1306.000000	99.520952
1305.000000	99.520288
1304.000000	99.519488
1303.000000	99.518408
1302.000000	99.517059
1301.000000	99.515694
1300.000000	99.514627
1299.000000	99.513905
1298.000000	99.513225
1297.000000	99.512203
1296.000000	99.510724
1295.000000	99.508955
1294.000000	99.507091
1293.000000	99.505211
1292.000000	99.503410
1291.000000	99.501817
1290.000000	99.500282
1289.000000	99.498330
1288.000000	99.495709
1287.000000	99.492914
1286.000000	99.490799
1285.000000	99.489614
1284.000000	99.488563
1283.000000	99.486591
1282.000000	99.483569
1281.000000	99.480475
1280.000000	99.478328
1279.000000	99.477040
1278.000000	99.475612
1277.000000	99.473465
1276.000000	99.471079
1275.000000	99.468997
1274.000000	99.466838
1273.000000	99.464233
1272.000000	99.462360
1271.000000	99.462640
1270.000000	99.463238
1269.000000	99.459650
1268.000000	99.450767
1267.000000	99.442259
1266.000000	99.440833
1265.000000	99.445606
1264.000000	99.448576
1263.000000	99.444147
1262.000000	99.434737
1261.000000	99.426064
1260.000000	99.420178
1259.000000	99.415715
1258.000000	99.412270
1257.000000	99.410536
1256.000000	99.408721
1255.000000	99.402315
1254.000000	99.388765
1253.000000	99.370807
1252.000000	99.353825
1251.000000	99.340517
1250.000000	99.329665
1249.000000	99.320400
1248.000000	99.315799
1247.000000	99.319697
1246.000000	99.329802
1245.000000	99.336865
1244.000000	99.332922
1243.000000	99.318973
1242.000000	99.302698
1241.000000	99.289755
1240.000000	99.279715
1239.000000	99.269675
1238.000000	99.258482
1237.000000	99.247113
1236.000000	99.237844
1235.000000	99.234024
1234.000000	99.237899
1233.000000	99.246489
1232.000000	99.250737
1231.000000	99.240988
1230.000000	99.214697
1229.000000	99.179788
1228.000000	99.150509
1227.000000	99.137348
1226.000000	99.138175
1225.000000	99.139619
1224.000000	99.128807
1223.000000	99.103139
1222.000000	99.068590
1221.000000	99.031735
1220.000000	98.996448
1219.000000	98.965334
1218.000000	98.937964
1217.000000	98.907856
1216.000000	98.867407
1215.000000	98.817876
1214.000000	98.769971
1213.000000	98.731779
1212.000000	98.699845
1211.000000	98.664999
1210.000000	98.623408
1209.000000	98.578499
1208.000000	98.534984
1207.000000	98.495220
1206.000000	98.459931
1205.000000	98.428107
1204.000000	98.395530
1203.000000	98.356490
1202.000000	98.309379
1201.000000	98.260276
1200.000000	98.219491
1199.000000	98.193052
1198.000000	98.176695
1197.000000	98.158591
1196.000000	98.129358
1195.000000	98.089306
1194.000000	98.045969
1193.000000	98.006201
1192.000000	97.971839
1191.000000	97.940884
1190.000000	97.909387
1189.000000	97.873059
1188.000000	97.831331
1187.000000	97.790969
1186.000000	97.761708
1185.000000	97.745646
1184.000000	97.732894
1183.000000	97.710125
1182.000000	97.672510
1181.000000	97.625519
1180.000000	97.576712
1179.000000	97.528314
1178.000000	97.478043
1177.000000	97.424657
1176.000000	97.370448
1175.000000	97.318265
1174.000000	97.267829
1173.000000	97.217031
1172.000000	97.166540
1171.000000	97.120000
1170.000000	97.077935
1169.000000	97.034731
1168.000000	96.985608
1167.000000	96.935069
1166.000000	96.893756
1165.000000	96.867098
1164.000000	96.851698
1163.000000	96.843159
1162.000000	96.842824
1161.000000	96.853534
1160.000000	96.871338
1159.000000	96.885891
1158.000000	96.888819
1157.000000	96.878045
1156.000000	96.853686
1155.000000	96.814311
1154.000000	96.760680
1153.000000	96.701390
1152.000000	96.649703
1151.000000	96.611561
1150.000000	96.578540
1149.000000	96.536452
1148.000000	96.481091
1147.000000	96.422486
1146.000000	96.372877
1145.000000	96.333575
1144.000000	96.296523
1143.000000	96.255606
1142.000000	96.211679
1141.000000	96.167801
1140.000000	96.125329
1139.000000	96.086038
1138.000000	96.052585
1137.000000	96.023264
1136.000000	95.989834
1135.000000	95.945315
1134.000000	95.892399
1133.000000	95.839615
1132.000000	95.789839
1131.000000	95.737877
1130.000000	95.680868
1129.000000	95.625269
1128.000000	95.578596
1127.000000	95.538038
1126.000000	95.494350
1125.000000	95.446565
1124.000000	95.404524
1123.000000	95.373172
1122.000000	95.340981
1121.000000	95.291190
1120.000000	95.221833
1119.000000	95.147963
1118.000000	95.084019
1117.000000	95.030062
1116.000000	94.977449
1115.000000	94.922098
1114.000000	94.868198
1113.000000	94.822335
1112.000000	94.788518
1111.000000	94.767090
1110.000000	94.753908
1109.000000	94.739925
1108.000000	94.714052
1107.000000	94.669150
1106.000000	94.607813
1105.000000	94.543342
1104.000000	94.492370
1103.000000	94.462304
1102.000000	94.444902
1101.000000	94.424746
1100.000000	94.395257
1099.000000	94.364012
1098.000000	94.343003
1097.000000	94.337411
1096.000000	94.342709
1095.000000	94.346745
1094.000000	94.333928
1093.000000	94.294792
1092.000000	94.236707
1091.000000	94.181835
1090.000000	94.148041
1089.000000	94.131557
1088.000000	94.111729
1087.000000	94.073365
1086.000000	94.023239
1085.000000	93.984486
1084.000000	93.975410
1083.000000	93.993021
1082.000000	94.015482
1081.000000	94.020474
1080.000000	94.000198
1079.000000	93.960223
1078.000000	93.910418
1077.000000	93.860942
1076.000000	93.822137
1075.000000	93.799376
1074.000000	93.786586
1073.000000	93.771008
1072.000000	93.745907
1071.000000	93.713244
1070.000000	93.673021
1069.000000	93.616990
1068.000000	93.537032
1067.000000	93.435358
1066.000000	93.322505
1065.000000	93.208629
1064.000000	93.100836
1063.000000	93.005046
1062.000000	92.923219
1061.000000	92.849095
1060.000000	92.772811
1059.000000	92.692472
1058.000000	92.618483
1057.000000	92.562756
1056.000000	92.522767
1055.000000	92.478786
1054.000000	92.411494
1053.000000	92.323581
1052.000000	92.238260
1051.000000	92.171135
1050.000000	92.108409
1049.000000	92.021535
1048.000000	91.899228
1047.000000	91.755766
1046.000000	91.613154
1045.000000	91.487369
1044.000000	91.389530
1043.000000	91.324052
1042.000000	91.278201
1041.000000	91.222754
1040.000000	91.133533
1039.000000	91.012667
1038.000000	90.885632
1037.000000	90.778233
1036.000000	90.697544
1035.000000	90.631593
1034.000000	90.564744
1033.000000	90.495078
1032.000000	90.436260
1031.000000	90.401657
1030.000000	90.390719
1029.000000	90.393344
1028.000000	90.401130
1027.000000	90.407838
1026.000000	90.405767
1025.000000	90.392752
1024.000000	90.379108
1023.000000	90.376030
1022.000000	90.378225
1021.000000	90.368880
1020.000000	90.341572
1019.000000	90.306167
1018.000000	90.272754
1017.000000	90.242259
1016.000000	90.216280
1015.000000	90.203898
1014.000000	90.210913
1013.000000	90.228926
1012.000000	90.241036
1011.000000	90.235398
1010.000000	90.211940
1009.000000	90.180497
1008.000000	90.153467
1007.000000	90.135772
1006.000000	90.121869
1005.000000	90.106850
1004.000000	90.098131
1003.000000	90.108888
1002.000000	90.141470
1001.000000	90.185385
1000.000000	90.230159
999.000000	90.270957
998.000000	90.303281
997.000000	90.324519
996.000000	90.342893
995.000000	90.373337
994.000000	90.419358
993.000000	90.467463
992.000000	90.504777
991.000000	90.535228
990.000000	90.573090
989.000000	90.626653
988.000000	90.693326
987.000000	90.765913
986.000000	90.838645
985.000000	90.909229
984.000000	90.978347
983.000000	91.046920
982.000000	91.114078
981.000000	91.179497
980.000000	91.246222
979.000000	91.318781
978.000000	91.401281
977.000000	91.500375
976.000000	91.625063
975.000000	91.776012
974.000000	91.936957
973.000000	92.084721
972.000000	92.208535
971.000000	92.314928
970.000000	92.416533
969.000000	92.522690
968.000000	92.638514
967.000000	92.764320
966.000000	92.894430
965.000000	93.022024
964.000000	93.145671
963.000000	93.267189
962.000000	93.385442
961.000000	93.498606
960.000000	93.610649
959.000000	93.727796
958.000000	93.848495
957.000000	93.964094
956.000000	94.069931
955.000000	94.168380
954.000000	94.259588
953.000000	94.336604
952.000000	94.393481
951.000000	94.433815
950.000000	94.468009
949.000000	94.504860
948.000000	94.548406
947.000000	94.599687
946.000000	94.658136
945.000000	94.722765
944.000000	94.793136
943.000000	94.866862
942.000000	94.935941
941.000000	94.989234
940.000000	95.020588
939.000000	95.033126
938.000000	95.034914
937.000000	95.032024
936.000000	95.026955
935.000000	95.022597
934.000000	95.025811
933.000000	95.045655
932.000000	95.085971
931.000000	95.138566
930.000000	95.186962
929.000000	95.220762
928.000000	95.244579
927.000000	95.269331
926.000000	95.297381
925.000000	95.321730
924.000000	95.338467
923.000000	95.352693
922.000000	95.369975
921.000000	95.387466
920.000000	95.397229
919.000000	95.395732
918.000000	95.388051
917.000000	95.385551
916.000000	95.401183
915.000000	95.442569
914.000000	95.504244
913.000000	95.567362
912.000000	95.612125
911.000000	95.634425
910.000000	95.651015
909.000000	95.686494
908.000000	95.752537
907.000000	95.837734
906.000000	95.918284
905.000000	95.982552
904.000000	96.044471
903.000000	96.129100
902.000000	96.245620
901.000000	96.377224
900.000000	96.497302
899.000000	96.592013
898.000000	96.664444
897.000000	96.721773
896.000000	96.766793
895.000000	96.804361
894.000000	96.848773
893.000000	96.915568
892.000000	97.005271
891.000000	97.101516
890.000000	97.188196
889.000000	97.263338
888.000000	97.332145
887.000000	97.393106
886.000000	97.439934
885.000000	97.474154
884.000000	97.505107
883.000000	97.536180
882.000000	97.560883
881.000000	97.577444
880.000000	97.599136
879.000000	97.641703
878.000000	97.704269
877.000000	97.770626
876.000000	97.827877
875.000000	97.876719
874.000000	97.923478
873.000000	97.969616
872.000000	98.013138
871.000000	98.056212
870.000000	98.105067
869.000000	98.160315
868.000000	98.210758
867.000000	98.242510
866.000000	98.256426
865.000000	98.271908
864.000000	98.307724
863.000000	98.360899
862.000000	98.411367
861.000000	98.447863
860.000000	98.481642
859.000000	98.532046
858.000000	98.605130
857.000000	98.690469
856.000000	98.772135
855.000000	98.835412
854.000000	98.867911
853.000000	98.865100
852.000000	98.836833
851.000000	98.803063
850.000000	98.780374
849.000000	98.774827
848.000000	98.786424
847.000000	98.813381
846.000000	98.849271
845.000000	98.881339
844.000000	98.897870
843.000000	98.898752
842.000000	98.896991
841.000000	98.906350
840.000000	98.924487
839.000000	98.928941
838.000000	98.894067
837.000000	98.814552
836.000000	98.710977
835.000000	98.612760
834.000000	98.540069
833.000000	98.502838
832.000000	98.506704
831.000000	98.548016
830.000000	98.605902
829.000000	98.653131
828.000000	98.679263
827.000000	98.693886
826.000000	98.703536
825.000000	98.697537
824.000000	98.665992
823.000000	98.622083
822.000000	98.592140
821.000000	98.586744
820.000000	98.594774
819.000000	98.604714
818.000000	98.618773
817.000000	98.641357
816.000000	98.661255
815.000000	98.654705
814.000000	98.608241
813.000000	98.532616
812.000000	98.448014
811.000000	98.356157
810.000000	98.232782
809.000000	98.050295
808.000000	97.804680
807.000000	97.518816
806.000000	97.223925
805.000000	96.943087
804.000000	96.689499
803.000000	96.467749
802.000000	96.270581
801.000000	96.084279
800.000000	95.908435
799.000000	95.766946
798.000000	95.689190
797.000000	95.680519
796.000000	95.717324
795.000000	95.769707
794.000000	95.823344
793.000000	95.878902
792.000000	95.938807
791.000000	96.003084
790.000000	96.074503
789.000000	96.154900
788.000000	96.229360
787.000000	96.261512
786.000000	96.218300
785.000000	96.102939
784.000000	95.955889
783.000000	95.819452
782.000000	95.706482
781.000000	95.606795
780.000000	95.516722
779.000000	95.453106
778.000000	95.438742
777.000000	95.482369
776.000000	95.575582
775.000000	95.702631
774.000000	95.848720
773.000000	96.001338
772.000000	96.148020
771.000000	96.275898
770.000000	96.374877
769.000000	96.441003
768.000000	96.477581
767.000000	96.496588
766.000000	96.518981
765.000000	96.564759
764.000000	96.634171
763.000000	96.703012
762.000000	96.748154
761.000000	96.777801
760.000000	96.824310
759.000000	96.903840
758.000000	96.995228
757.000000	97.065561
756.000000	97.105136
755.000000	97.126346
754.000000	97.138094
753.000000	97.137842
752.000000	97.127669
751.000000	97.122414
750.000000	97.134819
749.000000	97.159737
748.000000	97.180604
747.000000	97.191026
746.000000	97.205608
745.000000	97.247162
744.000000	97.323487
743.000000	97.417173
742.000000	97.499386
741.000000	97.552972
740.000000	97.578528
739.000000	97.582919
738.000000	97.573539
737.000000	97.565106
736.000000	97.578293
735.000000	97.620751
734.000000	97.675158
733.000000	97.717314
732.000000	97.745276
731.000000	97.779392
730.000000	97.833298
729.000000	97.897549
728.000000	97.954807
727.000000	97.997226
726.000000	98.021463
725.000000	98.020135
724.000000	97.992898
723.000000	97.961676
722.000000	97.961405
721.000000	98.010079
720.000000	98.089713
719.000000	98.161848
718.000000	98.203967
717.000000	98.225220
716.000000	98.250474
715.000000	98.296475
714.000000	98.360737
713.000000	98.426505
712.000000	98.472616
711.000000	98.480757
710.000000	98.446229
709.000000	98.390652
708.000000	98.355833
707.000000	98.369645
706.000000	98.415414
705.000000	98.445632
704.000000	98.430017
703.000000	98.380233
702.000000	98.322919
701.000000	98.259957
700.000000	98.166539
699.000000	98.022988
698.000000	97.839176
697.000000	97.650031
696.000000	97.494719
695.000000	97.399764
694.000000	97.372945
693.000000	97.405558
692.000000	97.479923
691.000000	97.577671
690.000000	97.682982
689.000000	97.780503
688.000000	97.853982
687.000000	97.890440
686.000000	97.890284
685.000000	97.875575
684.000000	97.882257
683.000000	97.933360
682.000000	98.016415
681.000000	98.091603
680.000000	98.126726
679.000000	98.122787
678.000000	98.103593
677.000000	98.091999
676.000000	98.102028
675.000000	98.143484
674.000000	98.220674
673.000000	98.319505
672.000000	98.409252
671.000000	98.466793
670.000000	98.492089
669.000000	98.503789
668.000000	98.529465
667.000000	98.579399
666.000000	98.636621
665.000000	98.685738
664.000000	98.720699
663.000000	98.735481
662.000000	98.727189
661.000000	98.705382
660.000000	98.691187
659.000000	98.703848
658.000000	98.745911
657.000000	98.801489
656.000000	98.853551
655.000000	98.899163
654.000000	98.945315
653.000000	98.992296
652.000000	99.027978
651.000000	99.039638
650.000000	99.025429
