4000.000000	100.666146
3999.000000	100.647119
3998.000000	100.634052
3997.000000	100.629837
3996.000000	100.635382
3995.000000	100.648408
3994.000000	100.663924
3993.000000	100.676674
3992.000000	100.683091
3991.000000	100.681295
3990.000000	100.670508
3989.000000	100.651373
3988.000000	100.627046
3987.000000	100.603084
3986.000000	100.584787
3985.000000	100.574322
3984.000000	100.570612
3983.000000	100.571616
3982.000000	100.576072
3981.000000	100.583042
3980.000000	100.590908
3979.000000	100.598225
3978.000000	100.605640
3977.000000	100.615776
3976.000000	100.630146
3975.000000	100.646243
3974.000000	100.658395
3973.000000	100.661941
3972.000000	100.656444
3971.000000	100.645086
3970.000000	100.631721
3969.000000	100.618617
3968.000000	100.606668
3967.000000	100.597007
3966.000000	100.591788
3965.000000	100.593364
3964.000000	100.602755
3963.000000	100.618467
3962.000000	100.636402
3961.000000	100.651514
3960.000000	100.660496
3959.000000	100.663328
3958.000000	100.662439
3957.000000	100.660071
3956.000000	100.656364
3955.000000	100.649980
3954.000000	100.640089
3953.000000	100.627345
3952.000000	100.613334
3951.000000	100.599932
3950.000000	100.589133
3949.000000	100.582454
3948.000000	100.580073
3947.000000	100.581274
3946.000000	100.586183
3945.000000	100.596459
3944.000000	100.613442
3943.000000	100.635083
3942.000000	100.655023
3941.000000	100.666208
3940.000000	100.665518
3939.000000	100.654732
3938.000000	100.638618
3937.000000	100.622330
3936.000000	100.609833
3935.000000	100.603503
3934.000000	100.603729
3933.000000	100.608436
3932.000000	100.613706
3931.000000	100.616330
3930.000000	100.616288
3929.000000	100.616381
3928.000000	100.619465
3927.000000	100.625768
3926.000000	100.632388
3925.000000	100.635144
3924.000000	100.630649
3923.000000	100.617501
3922.000000	100.597049
3921.000000	100.573327
3920.000000	100.551382
3919.000000	100.534966
3918.000000	100.525807
3917.000000	100.524699
3916.000000	100.532073
3915.000000	100.546993
3914.000000	100.566199
3913.000000	100.584947
3912.000000	100.599351
3911.000000	100.608142
3910.000000	100.612470
3909.000000	100.613833
3908.000000	100.612405
3907.000000	100.607594
3906.000000	100.599881
3905.000000	100.591416
3904.000000	100.583466
3903.000000	100.574166
3902.000000	100.562512
3901.000000	100.553033
3900.000000	100.552073
3899.000000	100.559156
3898.000000	100.565410
3897.000000	100.562598
3896.000000	100.550906
3895.000000	100.536628
3894.000000	100.525177
3893.000000	100.516657
3892.000000	100.506996
3891.000000	100.492211
3890.000000	100.471868
3889.000000	100.449679
3888.000000	100.431165
3887.000000	100.421118
3886.000000	100.422440
3885.000000	100.434452
3884.000000	100.453049
3883.000000	100.475332
3882.000000	100.501830
3881.000000	100.532474
3880.000000	100.562419
3879.000000	100.583643
3878.000000	100.591625
3877.000000	100.588916
3876.000000	100.582895
3875.000000	100.582068
3874.000000	100.592108
3873.000000	100.611992
3872.000000	100.635463
3871.000000	100.657427
3870.000000	100.677034
3869.000000	100.692664
3868.000000	100.697623
3867.000000	100.685004
3866.000000	100.654963
3865.000000	100.618207
3864.000000	100.590560
3863.000000	100.580564
3862.000000	100.584378
3861.000000	100.593078
3860.000000	100.600623
3859.000000	100.605825
3858.000000	100.609041
3857.000000	100.607433
3856.000000	100.592313
3855.000000	100.554741
3854.000000	100.502745
3853.000000	100.464611
3852.000000	100.455085
3851.000000	100.464452
3850.000000	100.480334
3849.000000	100.495652
3848.000000	100.506053
3847.000000	100.509346
3846.000000	100.506218
3845.000000	100.499088
3844.000000	100.489628
3843.000000	100.478230
3842.000000	100.465426
3841.000000	100.452893
3840.000000	100.444313
3839.000000	100.444644
3838.000000	100.456255
3837.000000	100.476401
3836.000000	100.499740
3835.000000	100.522315
3834.000000	100.541936
3833.000000	100.556552
3832.000000	100.564503
3831.000000	100.565718
3830.000000	100.561435
3829.000000	100.553379
3828.000000	100.543444
3827.000000	100.533893
3826.000000	100.526749
3825.000000	100.521702
3824.000000	100.515611
3823.000000	100.506262
3822.000000	100.497908
3821.000000	100.499924
3820.000000	100.514732
3819.000000	100.533247
3818.000000	100.545054
3817.000000	100.546649
3816.000000	100.542187
3815.000000	100.538030
3814.000000	100.535128
3813.000000	100.530547
3812.000000	100.523841
3811.000000	100.517533
3810.000000	100.513696
3809.000000	100.512030
3808.000000	100.510843
3807.000000	100.509942
3806.000000	100.510496
3805.000000	100.512506
3804.000000	100.514527
3803.000000	100.515297
3802.000000	100.515728
3801.000000	100.518629
3800.000000	100.524156
3799.000000	100.529399
3798.000000	100.532784
3797.000000	100.535094
3796.000000	100.538046
3795.000000	100.542578
3794.000000	100.547672
3793.000000	100.551056
3792.000000	100.550960
3791.000000	100.547365
3790.000000	100.542107
3789.000000	100.537553
3788.000000	100.535003
3787.000000	100.534513
3786.000000	100.535804
3785.000000	100.538732
3784.000000	100.542731
3783.000000	100.546250
3782.000000	100.547397
3781.000000	100.545402
3780.000000	100.541418
3779.000000	100.537583
3778.000000	100.534979
3777.000000	100.533271
3776.000000	100.532237
3775.000000	100.532549
3774.000000	100.534805
3773.000000	100.538384
3772.000000	100.541458
3771.000000	100.542347
3770.000000	100.540750
3769.000000	100.537281
3768.000000	100.532422
3767.000000	100.526727
3766.000000	100.521470
3765.000000	100.518329
3764.000000	100.518378
3763.000000	100.521833
3762.000000	100.528468
3761.000000	100.537321
3760.000000	100.545763
3759.000000	100.549610
3758.000000	100.545696
3757.000000	100.534650
3756.000000	100.520333
3755.000000	100.506513
3754.000000	100.494831
3753.000000	100.486118
3752.000000	100.483164
3751.000000	100.489218
3750.000000	100.501914
3749.000000	100.513754
3748.000000	100.520386
3747.000000	100.521525
3746.000000	100.516624
3745.000000	100.506950
3744.000000	100.497019
3743.000000	100.487419
3742.000000	100.476303
3741.000000	100.466748
3740.000000	100.463598
3739.000000	100.467972
3738.000000	100.477087
3737.000000	100.487192
3736.000000	100.495965
3735.000000	100.502727
3734.000000	100.507211
3733.000000	100.510343
3732.000000	100.514562
3731.000000	100.521310
3730.000000	100.530124
3729.000000	100.539217
3728.000000	100.545611
3727.000000	100.545635
3726.000000	100.536993
3725.000000	100.521116
3724.000000	100.503220
3723.000000	100.489526
3722.000000	100.482633
3721.000000	100.480558
3720.000000	100.480571
3719.000000	100.480818
3718.000000	100.478921
3717.000000	100.472379
3716.000000	100.460286
3715.000000	100.443948
3714.000000	100.425678
3713.000000	100.406689
3712.000000	100.386375
3711.000000	100.363974
3710.000000	100.340683
3709.000000	100.319051
3708.000000	100.301064
3707.000000	100.287475
3706.000000	100.278095
3705.000000	100.272210
3704.000000	100.269070
3703.000000	100.268390
3702.000000	100.269995
3701.000000	100.272151
3700.000000	100.271309
3699.000000	100.264810
3698.000000	100.252788
3697.000000	100.237847
3696.000000	100.223362
3695.000000	100.211658
3694.000000	100.204056
3693.000000	100.202020
3692.000000	100.207051
3691.000000	100.219551
3690.000000	100.237625
3689.000000	100.255785
3688.000000	100.266236
3687.000000	100.264797
3686.000000	100.254286
3685.000000	100.240837
3684.000000	100.228732
3683.000000	100.218510
3682.000000	100.208497
3681.000000	100.197448
3680.000000	100.185431
3679.000000	100.171721
3678.000000	100.152578
3677.000000	100.125685
3676.000000	100.099316
3675.000000	100.085525
3674.000000	100.081854
3673.000000	100.077198
3672.000000	100.067600
3671.000000	100.057507
3670.000000	100.052553
3669.000000	100.050500
3668.000000	100.042142
3667.000000	100.024886
3666.000000	100.006488
3665.000000	99.995783
3664.000000	99.995436
3663.000000	100.001562
3662.000000	100.008240
3661.000000	100.012228
3660.000000	100.013435
3659.000000	100.012213
3658.000000	100.007749
3657.000000	99.999796
3656.000000	99.990629
3655.000000	99.983080
3654.000000	99.978815
3653.000000	99.977961
3652.000000	99.977359
3651.000000	99.971859
3650.000000	99.960582
3649.000000	99.949184
3648.000000	99.941100
3647.000000	99.933072
3646.000000	99.921223
3645.000000	99.904919
3644.000000	99.885701
3643.000000	99.865453
3642.000000	99.846154
3641.000000	99.829342
3640.000000	99.814974
3639.000000	99.801489
3638.000000	99.787087
3637.000000	99.770254
3636.000000	99.749265
3635.000000	99.722895
3634.000000	99.692876
3633.000000	99.665010
3632.000000	99.647018
3631.000000	99.645055
3630.000000	99.660617
3629.000000	99.686096
3628.000000	99.703792
3627.000000	99.701680
3626.000000	99.687242
3625.000000	99.676050
3624.000000	99.675664
3623.000000	99.684135
3622.000000	99.696684
3621.000000	99.710983
3620.000000	99.726671
3619.000000	99.740691
3618.000000	99.747133
3617.000000	99.744932
3616.000000	99.740510
3615.000000	99.740817
3614.000000	99.746994
3613.000000	99.755337
3612.000000	99.762703
3611.000000	99.769498
3610.000000	99.777256
3609.000000	99.784789
3608.000000	99.787889
3607.000000	99.782324
3606.000000	99.766932
3605.000000	99.744213
3604.000000	99.718436
3603.000000	99.693685
3602.000000	99.672528
3601.000000	99.656102
3600.000000	99.645337
3599.000000	99.641852
3598.000000	99.647566
3597.000000	99.663525
3596.000000	99.688322
3595.000000	99.717971
3594.000000	99.746833
3593.000000	99.768847
3592.000000	99.780462
3591.000000	99.782535
3590.000000	99.780088
3589.000000	99.780967
3588.000000	99.792279
3587.000000	99.812852
3586.000000	99.832555
3585.000000	99.843331
3584.000000	99.845746
3583.000000	99.843771
3582.000000	99.838791
3581.000000	99.829986
3580.000000	99.817728
3579.000000	99.804295
3578.000000	99.791495
3577.000000	99.779117
3576.000000	99.766613
3575.000000	99.755037
3574.000000	99.746146
3573.000000	99.739612
3572.000000	99.732748
3571.000000	99.723399
3570.000000	99.711730
3569.000000	99.699883
3568.000000	99.691361
3567.000000	99.689011
3566.000000	99.692115
3565.000000	99.698462
3564.000000	99.708822
3563.000000	99.725076
3562.000000	99.745580
3561.000000	99.764563
3560.000000	99.776006
3559.000000	99.777640
3558.000000	99.771692
3557.000000	99.762710
3556.000000	99.755716
3555.000000	99.755662
3554.000000	99.766307
3553.000000	99.787289
3552.000000	99.812313
3551.000000	99.833012
3550.000000	99.845335
3549.000000	99.850640
3548.000000	99.851773
3547.000000	99.849750
3546.000000	99.844330
3545.000000	99.835808
3544.000000	99.825080
3543.000000	99.812800
3542.000000	99.799734
3541.000000	99.787421
3540.000000	99.777328
3539.000000	99.769098
3538.000000	99.760373
3537.000000	99.749161
3536.000000	99.736290
3535.000000	99.725311
3534.000000	99.719924
3533.000000	99.721498
3532.000000	99.728330
3531.000000	99.736240
3530.000000	99.740455
3529.000000	99.738199
3528.000000	99.730457
3527.000000	99.721192
3526.000000	99.713919
3525.000000	99.708881
3524.000000	99.703924
3523.000000	99.698450
3522.000000	99.695933
3521.000000	99.701383
3520.000000	99.716277
3519.000000	99.736416
3518.000000	99.754510
3517.000000	99.765151
3516.000000	99.766995
3515.000000	99.761184
3514.000000	99.749569
3513.000000	99.734726
3512.000000	99.720577
3511.000000	99.711407
3510.000000	99.709326
3509.000000	99.712907
3508.000000	99.718536
3507.000000	99.723202
3506.000000	99.725957
3505.000000	99.727140
3504.000000	99.727201
3503.000000	99.726449
3502.000000	99.725360
3501.000000	99.724504
3500.000000	99.724084
3499.000000	99.723859
3498.000000	99.723735
3497.000000	99.724266
3496.000000	99.726024
3495.000000	99.728376
3494.000000	99.729341
3493.000000	99.727020
3492.000000	99.721131
3491.000000	99.713326
3490.000000	99.706291
3489.000000	99.702263
3488.000000	99.702006
3487.000000	99.704743
3486.000000	99.708938
3485.000000	99.713315
3484.000000	99.717082
3483.000000	99.719445
3482.000000	99.719512
3481.000000	99.716865
3480.000000	99.711967
3479.000000	99.705848
3478.000000	99.699676
3477.000000	99.694784
3476.000000	99.692725
3475.000000	99.694748
3474.000000	99.700909
3473.000000	99.709709
3472.000000	99.718531
3471.000000	99.724483
3470.000000	99.725607
3469.000000	99.722043
3468.000000	99.716329
3467.000000	99.711779
3466.000000	99.709547
3465.000000	99.707718
3464.000000	99.703567
3463.000000	99.696411
3462.000000	99.688054
3461.000000	99.680678
3460.000000	99.674745
3459.000000	99.669035
3458.000000	99.662417
3457.000000	99.655206
3456.000000	99.648813
3455.000000	99.644396
3454.000000	99.642004
3453.000000	99.641050
3452.000000	99.641370
3451.000000	99.643601
3450.000000	99.648528
3449.000000	99.656017
3448.000000	99.664346
3447.000000	99.670497
3446.000000	99.671784
3445.000000	99.668017
3444.000000	99.662039
3443.000000	99.657705
3442.000000	99.656957
3441.000000	99.658773
3440.000000	99.660868
3439.000000	99.662062
3438.000000	99.662845
3437.000000	99.664047
3436.000000	99.665466
3435.000000	99.665764
3434.000000	99.663247
3433.000000	99.656834
3432.000000	99.646875
3431.000000	99.635676
3430.000000	99.626929
3429.000000	99.623594
3428.000000	99.625925
3427.000000	99.631219
3426.000000	99.635602
3425.000000	99.636882
3424.000000	99.635869
3423.000000	99.635160
3422.000000	99.636671
3421.000000	99.640109
3420.000000	99.643647
3419.000000	99.645950
3418.000000	99.647366
3417.000000	99.649180
3416.000000	99.652071
3415.000000	99.655425
3414.000000	99.657917
3413.000000	99.658463
3412.000000	99.656698
3411.000000	99.653005
3410.000000	99.648495
3409.000000	99.644817
3408.000000	99.643478
3407.000000	99.644908
3406.000000	99.647968
3405.000000	99.650411
3404.000000	99.650074
3403.000000	99.645910
3402.000000	99.638393
3401.000000	99.629428
3400.000000	99.621694
3399.000000	99.617488
3398.000000	99.617705
3397.000000	99.621747
3396.000000	99.628303
3395.000000	99.636110
3394.000000	99.643810
3393.000000	99.649372
3392.000000	99.650441
3391.000000	99.646009
3390.000000	99.638147
3389.000000	99.631783
3388.000000	99.631793
3387.000000	99.639609
3386.000000	99.652004
3385.000000	99.663418
3384.000000	99.670095
3383.000000	99.671903
3382.000000	99.670713
3381.000000	99.668001
3380.000000	99.664217
3379.000000	99.659511
3378.000000	99.653992
3377.000000	99.647480
3376.000000	99.640124
3375.000000	99.633344
3374.000000	99.629103
3373.000000	99.627641
3372.000000	99.626471
3371.000000	99.622240
3370.000000	99.613517
3369.000000	99.601660
3368.000000	99.589485
3367.000000	99.579661
3366.000000	99.574283
3365.000000	99.575239
3364.000000	99.584286
3363.000000	99.602182
3362.000000	99.627297
3361.000000	99.655256
3360.000000	99.680872
3359.000000	99.701001
3358.000000	99.715398
3357.000000	99.725034
3356.000000	99.730521
3355.000000	99.732534
3354.000000	99.732837
3353.000000	99.733628
3352.000000	99.735589
3351.000000	99.736811
3350.000000	99.733617
3349.000000	99.722499
3348.000000	99.702188
3347.000000	99.675138
3346.000000	99.647099
3345.000000	99.624049
3344.000000	99.608270
3343.000000	99.597257
3342.000000	99.586722
3341.000000	99.574610
3340.000000	99.562373
3339.000000	99.553208
3338.000000	99.550062
3337.000000	99.555104
3336.000000	99.569440
3335.000000	99.591807
3334.000000	99.617748
3333.000000	99.641812
3332.000000	99.661769
3331.000000	99.680248
3330.000000	99.701356
3329.000000	99.725886
3328.000000	99.750439
3327.000000	99.770928
3326.000000	99.785516
3325.000000	99.793781
3324.000000	99.794618
3323.000000	99.786574
3322.000000	99.769978
3321.000000	99.747507
3320.000000	99.722693
3319.000000	99.698857
3318.000000	99.679556
3317.000000	99.668350
3316.000000	99.666331
3315.000000	99.669802
3314.000000	99.671677
3313.000000	99.666429
3312.000000	99.654057
3311.000000	99.639369
3310.000000	99.627643
3309.000000	99.621004
3308.000000	99.618521
3307.000000	99.618889
3306.000000	99.622452
3305.000000	99.630490
3304.000000	99.642666
3303.000000	99.655597
3302.000000	99.664824
3301.000000	99.669124
3300.000000	99.672646
3299.000000	99.681508
3298.000000	99.697714
3297.000000	99.717144
3296.000000	99.734181
3295.000000	99.747208
3294.000000	99.758086
3293.000000	99.767396
3292.000000	99.773051
3291.000000	99.774226
3290.000000	99.773891
3289.000000	99.775210
3288.000000	99.776834
3287.000000	99.774508
3286.000000	99.767287
3285.000000	99.759681
3284.000000	99.756526
3283.000000	99.757058
3282.000000	99.755594
3281.000000	99.747576
3280.000000	99.733530
3279.000000	99.717165
3278.000000	99.701039
3277.000000	99.685303
3276.000000	99.670293
3275.000000	99.658523
3274.000000	99.652824
3273.000000	99.653198
3272.000000	99.657071
3271.000000	99.662658
3270.000000	99.670350
3269.000000	99.680058
3268.000000	99.689016
3267.000000	99.694223
3266.000000	99.696593
3265.000000	99.700832
3264.000000	99.710676
3263.000000	99.725169
3262.000000	99.739987
3261.000000	99.751579
3260.000000	99.759495
3259.000000	99.765364
3258.000000	99.770573
3257.000000	99.775114
3256.000000	99.778193
3255.000000	99.779250
3254.000000	99.777940
3253.000000	99.773571
3252.000000	99.765699
3251.000000	99.755576
3250.000000	99.745826
3249.000000	99.737692
3248.000000	99.729372
3247.000000	99.718347
3246.000000	99.705028
3245.000000	99.692669
3244.000000	99.683576
3243.000000	99.677009
3242.000000	99.671539
3241.000000	99.668214
3240.000000	99.670109
3239.000000	99.679054
3238.000000	99.693353
3237.000000	99.708574
3236.000000	99.720469
3235.000000	99.727391
3234.000000	99.730487
3233.000000	99.732124
3232.000000	99.734474
3231.000000	99.739410
3230.000000	99.748416
3229.000000	99.761051
3228.000000	99.773620
3227.000000	99.781017
3226.000000	99.780842
3225.000000	99.775397
3224.000000	99.769687
3223.000000	99.767994
3222.000000	99.772143
3221.000000	99.781328
3220.000000	99.792343
3219.000000	99.800923
3218.000000	99.804259
3217.000000	99.802288
3216.000000	99.796307
3215.000000	99.787295
3214.000000	99.776437
3213.000000	99.766282
3212.000000	99.759567
3211.000000	99.756635
3210.000000	99.755055
3209.000000	99.752202
3208.000000	99.747726
3207.000000	99.743230
3206.000000	99.739957
3205.000000	99.737128
3204.000000	99.732573
3203.000000	99.725235
3202.000000	99.717117
3201.000000	99.712106
3200.000000	99.712576
3199.000000	99.717988
3198.000000	99.727407
3197.000000	99.742394
3196.000000	99.765560
3195.000000	99.795979
3194.000000	99.827368
3193.000000	99.852001
3192.000000	99.866456
3191.000000	99.873303
3190.000000	99.877779
3189.000000	99.883196
3188.000000	99.889359
3187.000000	99.894819
3186.000000	99.899553
3185.000000	99.904515
3184.000000	99.909014
3183.000000	99.910301
3182.000000	99.906637
3181.000000	99.899443
3180.000000	99.891106
3179.000000	99.881540
3178.000000	99.868889
3177.000000	99.853623
3176.000000	99.839774
3175.000000	99.831153
3174.000000	99.827622
3173.000000	99.825911
3172.000000	99.823087
3171.000000	99.818509
3170.000000	99.813362
3169.000000	99.809625
3168.000000	99.809366
3167.000000	99.814080
3166.000000	99.824214
3165.000000	99.839034
3164.000000	99.856433
3163.000000	99.872987
3162.000000	99.885210
3161.000000	99.891412
3160.000000	99.892066
3159.000000	99.888614
3158.000000	99.883024
3157.000000	99.878581
3156.000000	99.879154
3155.000000	99.886177
3154.000000	99.897133
3153.000000	99.908229
3152.000000	99.918047
3151.000000	99.927175
3150.000000	99.935176
3149.000000	99.940178
3148.000000	99.941409
3147.000000	99.939923
3146.000000	99.936484
3145.000000	99.930858
3144.000000	99.923885
3143.000000	99.918012
3142.000000	99.914274
3141.000000	99.910520
3140.000000	99.904614
3139.000000	99.898325
3138.000000	99.895841
3137.000000	99.898650
3136.000000	99.903997
3135.000000	99.908641
3134.000000	99.912554
3133.000000	99.917947
3132.000000	99.925894
3131.000000	99.935047
3130.000000	99.942935
3129.000000	99.947607
3128.000000	99.948586
3127.000000	99.947301
3126.000000	99.946491
3125.000000	99.948333
3124.000000	99.952998
3123.000000	99.959046
3122.000000	99.964884
3121.000000	99.969675
3120.000000	99.973347
3119.000000	99.976353
3118.000000	99.979255
3117.000000	99.981970
3116.000000	99.983510
3115.000000	99.982987
3114.000000	99.980772
3113.000000	99.978302
3112.000000	99.976879
3111.000000	99.977213
3110.000000	99.979981
3109.000000	99.985708
3108.000000	99.993722
3107.000000	100.001817
3106.000000	100.007693
3105.000000	100.010736
3104.000000	100.012029
3103.000000	100.013171
3102.000000	100.015115
3101.000000	100.017923
3100.000000	100.021241
3099.000000	100.024713
3098.000000	100.028099
3097.000000	100.031267
3096.000000	100.034189
3095.000000	100.036910
3094.000000	100.039453
3093.000000	100.041732
3092.000000	100.043615
3091.000000	100.045193
3090.000000	100.047047
3089.000000	100.050028
3088.000000	100.054552
3087.000000	100.060045
3086.000000	100.065144
3085.000000	100.068658
3084.000000	100.070264
3083.000000	100.070339
3082.000000	100.069551
3081.000000	100.068715
3080.000000	100.068752
3079.000000	100.070366
3078.000000	100.073605
3077.000000	100.077780
3076.000000	100.081985
3075.000000	100.085787
3074.000000	100.089332
3073.000000	100.092756
3072.000000	100.095545
3071.000000	100.096758
3070.000000	100.096030
3069.000000	100.094304
3068.000000	100.093361
3067.000000	100.094430
3066.000000	100.097445
3065.000000	100.101504
3064.000000	100.105765
3063.000000	100.109653
3062.000000	100.112534
3061.000000	100.113917
3060.000000	100.113983
3059.000000	100.113491
3058.000000	100.112943
3057.000000	100.112218
3056.000000	100.111226
3055.000000	100.110459
3054.000000	100.110453
3053.000000	100.111066
3052.000000	100.111842
3051.000000	100.112946
3050.000000	100.115093
3049.000000	100.118383
3048.000000	100.121691
3047.000000	100.123574
3046.000000	100.123609
3045.000000	100.122813
3044.000000	100.122898
3043.000000	100.125017
3042.000000	100.129021
3041.000000	100.133577
3040.000000	100.137221
3039.000000	100.139449
3038.000000	100.140694
3037.000000	100.141498
3036.000000	100.142060
3035.000000	100.142691
3034.000000	100.144210
3033.000000	100.147427
3032.000000	100.152334
3031.000000	100.158028
3030.000000	100.163387
3029.000000	100.167647
3028.000000	100.170363
3027.000000	100.171293
3026.000000	100.170616
3025.000000	100.169248
3024.000000	100.168689
3023.000000	100.170181
3022.000000	100.173884
3021.000000	100.178790
3020.000000	100.183547
3019.000000	100.187557
3018.000000	100.191021
3017.000000	100.193956
3016.000000	100.195676
3015.000000	100.195681
3014.000000	100.194814
3013.000000	100.195015
3012.000000	100.197916
3011.000000	100.204007
3010.000000	100.212751
3009.000000	100.222767
3008.000000	100.231947
3007.000000	100.238266
3006.000000	100.241047
3005.000000	100.241338
3004.000000	100.240884
3003.000000	100.240685
3002.000000	100.240610
3001.000000	100.240230
3000.000000	100.239909
2999.000000	100.241043
2998.000000	100.245009
2997.000000	100.251647
2996.000000	100.259047
2995.000000	100.265402
2994.000000	100.270750
2993.000000	100.276117
2992.000000	100.281435
2991.000000	100.285583
2990.000000	100.288496
2989.000000	100.291711
2988.000000	100.296066
2987.000000	100.300005
2986.000000	100.301263
2985.000000	100.299638
2984.000000	100.297276
2983.000000	100.296555
2982.000000	100.298222
2981.000000	100.301200
2980.000000	100.303479
2979.000000	100.303447
2978.000000	100.300937
2977.000000	100.297114
2976.000000	100.293422
2975.000000	100.290925
2974.000000	100.290549
2973.000000	100.293069
2972.000000	100.298229
2971.000000	100.304324
2970.000000	100.309208
2969.000000	100.311485
2968.000000	100.310657
2967.000000	100.307046
2966.000000	100.302207
2965.000000	100.298602
2964.000000	100.297755
2963.000000	100.298785
2962.000000	100.299238
2961.000000	100.297430
2960.000000	100.293766
2959.000000	100.290149
2958.000000	100.288397
2957.000000	100.288937
2956.000000	100.290588
2955.000000	100.291739
2954.000000	100.292125
2953.000000	100.293083
2952.000000	100.295666
2951.000000	100.298999
2950.000000	100.301042
2949.000000	100.300863
2948.000000	100.299578
2947.000000	100.299201
2946.000000	100.300953
2945.000000	100.304640
2944.000000	100.309068
2943.000000	100.312813
2942.000000	100.315024
2941.000000	100.315806
2940.000000	100.315887
2939.000000	100.315837
2938.000000	100.315585
2937.000000	100.314752
2936.000000	100.313388
2935.000000	100.312396
2934.000000	100.313100
2933.000000	100.316242
2932.000000	100.321337
2931.000000	100.326844
2930.000000	100.331196
2929.000000	100.333680
2928.000000	100.334356
2927.000000	100.333664
2926.000000	100.332419
2925.000000	100.331774
2924.000000	100.332589
2923.000000	100.334750
2922.000000	100.337325
2921.000000	100.339557
2920.000000	100.341539
2919.000000	100.343802
2918.000000	100.346564
2917.000000	100.349589
2916.000000	100.352495
2915.000000	100.354951
2914.000000	100.356696
2913.000000	100.357564
2912.000000	100.357506
2911.000000	100.356593
2910.000000	100.355151
2909.000000	100.354004
2908.000000	100.354248
2907.000000	100.356548
2906.000000	100.360590
2905.000000	100.365182
2904.000000	100.368981
2903.000000	100.371186
2902.000000	100.371854
2901.000000	100.371960
2900.000000	100.372691
2899.000000	100.374585
2898.000000	100.377291
2897.000000	100.380307
2896.000000	100.383514
2895.000000	100.386623
2894.000000	100.388636
2893.000000	100.388636
2892.000000	100.386909
2891.000000	100.384787
2890.000000	100.383542
2889.000000	100.383804
2888.000000	100.385763
2887.000000	100.389160
2886.000000	100.393067
2885.000000	100.396370
2884.000000	100.398583
2883.000000	100.399733
2882.000000	100.399665
2881.000000	100.398244
2880.000000	100.396228
2879.000000	100.394965
2878.000000	100.394923
2877.000000	100.395167
2876.000000	100.394592
2875.000000	100.393001
2874.000000	100.390580
2873.000000	100.387204
2872.000000	100.383268
2871.000000	100.380717
2870.000000	100.381861
2869.000000	100.386704
2868.000000	100.392314
2867.000000	100.395514
2866.000000	100.395714
2865.000000	100.394184
2864.000000	100.391165
2863.000000	100.385243
2862.000000	100.376152
2861.000000	100.367022
2860.000000	100.362334
2859.000000	100.363918
2858.000000	100.369787
2857.000000	100.376679
2856.000000	100.383100
2855.000000	100.389680
2854.000000	100.397161
2853.000000	100.404694
2852.000000	100.410122
2851.000000	100.411914
2850.000000	100.410821
2849.000000	100.409722
2848.000000	100.411748
2847.000000	100.418410
2846.000000	100.429006
2845.000000	100.441088
2844.000000	100.451394
2843.000000	100.457063
2842.000000	100.456978
2841.000000	100.452257
2840.000000	100.445401
2839.000000	100.439232
2838.000000	100.436249
2837.000000	100.437743
2836.000000	100.442655
2835.000000	100.447570
2834.000000	100.449017
2833.000000	100.446138
2832.000000	100.440943
2831.000000	100.436267
2830.000000	100.433903
2829.000000	100.434376
2828.000000	100.437206
2827.000000	100.440954
2826.000000	100.443817
2825.000000	100.444975
2824.000000	100.445105
2823.000000	100.445366
2822.000000	100.446189
2821.000000	100.447283
2820.000000	100.448318
2819.000000	100.449156
2818.000000	100.449658
2817.000000	100.449761
2816.000000	100.449766
2815.000000	100.450397
2814.000000	100.452579
2813.000000	100.457002
2812.000000	100.463413
2811.000000	100.470068
2810.000000	100.474505
2809.000000	100.475479
2808.000000	100.473933
2807.000000	100.471758
2806.000000	100.469906
2805.000000	100.468488
2804.000000	100.468263
2803.000000	100.470516
2802.000000	100.474874
2801.000000	100.478212
2800.000000	100.477004
2799.000000	100.470670
2798.000000	100.462381
2797.000000	100.456415
2796.000000	100.454717
2795.000000	100.456597
2794.000000	100.460722
2793.000000	100.466434
2792.000000	100.472842
2791.000000	100.477629
2790.000000	100.478292
2789.000000	100.474740
2788.000000	100.469824
2787.000000	100.466620
2786.000000	100.465779
2785.000000	100.466256
2784.000000	100.467946
2783.000000	100.472354
2782.000000	100.480650
2781.000000	100.492101
2780.000000	100.504562
2779.000000	100.515631
2778.000000	100.523142
2777.000000	100.525738
2776.000000	100.524012
2775.000000	100.520608
2774.000000	100.518207
2773.000000	100.517433
2772.000000	100.517225
2771.000000	100.516729
2770.000000	100.515987
2769.000000	100.515084
2768.000000	100.513609
2767.000000	100.511181
2766.000000	100.507959
2765.000000	100.504495
2764.000000	100.501428
2763.000000	100.499166
2762.000000	100.497451
2761.000000	100.495612
2760.000000	100.493907
2759.000000	100.494108
2758.000000	100.497509
2757.000000	100.502326
2756.000000	100.504360
2755.000000	100.501099
2754.000000	100.494261
2753.000000	100.488014
2752.000000	100.485678
2751.000000	100.488686
2750.000000	100.497126
2749.000000	100.509445
2748.000000	100.522266
2747.000000	100.532434
2746.000000	100.539813
2745.000000	100.546939
2744.000000	100.555474
2743.000000	100.563887
2742.000000	100.569144
2741.000000	100.569965
2740.000000	100.567822
2739.000000	100.565402
2738.000000	100.564890
2737.000000	100.567436
2736.000000	100.573271
2735.000000	100.581758
2734.000000	100.591146
2733.000000	100.598316
2732.000000	100.599207
2731.000000	100.590745
2730.000000	100.573331
2729.000000	100.551196
2728.000000	100.529399
2727.000000	100.510740
2726.000000	100.496118
2725.000000	100.486879
2724.000000	100.484735
2723.000000	100.488922
2722.000000	100.495322
2721.000000	100.500118
2720.000000	100.503530
2719.000000	100.508223
2718.000000	100.514464
2717.000000	100.518959
2716.000000	100.519323
2715.000000	100.518277
2714.000000	100.521604
2713.000000	100.532292
2712.000000	100.547903
2711.000000	100.563582
2710.000000	100.576283
2709.000000	100.585389
2708.000000	100.590633
2707.000000	100.591426
2706.000000	100.588534
2705.000000	100.585183
2704.000000	100.585285
2703.000000	100.590328
2702.000000	100.598082
2701.000000	100.604115
2700.000000	100.604554
2699.000000	100.597885
2698.000000	100.585005
2697.000000	100.568009
2696.000000	100.548876
2695.000000	100.529134
2694.000000	100.510721
2693.000000	100.496794
2692.000000	100.490869
2691.000000	100.494273
2690.000000	100.503966
2689.000000	100.513304
2688.000000	100.516380
2687.000000	100.512275
2686.000000	100.504733
2685.000000	100.497711
2684.000000	100.492430
2683.000000	100.489543
2682.000000	100.492502
2681.000000	100.505745
2680.000000	100.528888
2679.000000	100.554514
2678.000000	100.573541
2677.000000	100.582219
2676.000000	100.582689
2675.000000	100.578377
2674.000000	100.571430
2673.000000	100.564550
2672.000000	100.562226
2671.000000	100.567557
2670.000000	100.578486
2669.000000	100.588973
2668.000000	100.594376
2667.000000	100.594677
2666.000000	100.592331
2665.000000	100.588195
2664.000000	100.580768
2663.000000	100.569275
2662.000000	100.556163
2661.000000	100.545466
2660.000000	100.538937
2659.000000	100.534955
2658.000000	100.531366
2657.000000	100.528025
2656.000000	100.525335
2655.000000	100.521352
2654.000000	100.512530
2653.000000	100.497943
2652.000000	100.481374
2651.000000	100.468344
2650.000000	100.462010
2649.000000	100.462579
2648.000000	100.469373
2647.000000	100.481940
2646.000000	100.499261
2645.000000	100.518866
2644.000000	100.537207
2643.000000	100.550814
2642.000000	100.557751
2641.000000	100.559218
2640.000000	100.559496
2639.000000	100.562860
2638.000000	100.569950
2637.000000	100.577702
2636.000000	100.582984
2635.000000	100.585618
2634.000000	100.587602
2633.000000	100.590012
2632.000000	100.591371
2631.000000	100.588873
2630.000000	100.580559
2629.000000	100.566661
2628.000000	100.549833
2627.000000	100.534227
2626.000000	100.523609
2625.000000	100.519811
2624.000000	100.522341
2623.000000	100.528860
2622.000000	100.535963
2621.000000	100.540137
2620.000000	100.539142
2619.000000	100.533083
2618.000000	100.524036
2617.000000	100.514451
2616.000000	100.506304
2615.000000	100.501839
2614.000000	100.503770
2613.000000	100.513286
2612.000000	100.527924
2611.000000	100.542385
2610.000000	100.552131
2609.000000	100.555742
2608.000000	100.553960
2607.000000	100.547977
2606.000000	100.539444
2605.000000	100.531434
2604.000000	100.527861
2603.000000	100.531163
2602.000000	100.540683
2601.000000	100.553129
2600.000000	100.564534
2599.000000	100.572044
2598.000000	100.574354
2597.000000	100.571280
2596.000000	100.563493
2595.000000	100.552885
2594.000000	100.542934
2593.000000	100.537689
2592.000000	100.539329
2591.000000	100.546602
2590.000000	100.555930
2589.000000	100.564170
2588.000000	100.569755
2587.000000	100.571292
2586.000000	100.566661
2585.000000	100.554783
2584.000000	100.537981
2583.000000	100.521633
2582.000000	100.510920
2581.000000	100.508299
2580.000000	100.513692
2579.000000	100.525562
2578.000000	100.541045
2577.000000	100.555819
2576.000000	100.565431
2575.000000	100.567557
2574.000000	100.563036
2573.000000	100.555038
2572.000000	100.547288
2571.000000	100.542804
2570.000000	100.543611
2569.000000	100.550534
2568.000000	100.562516
2567.000000	100.576248
2566.000000	100.587437
2565.000000	100.593170
2564.000000	100.593042
2563.000000	100.588256
2562.000000	100.580317
2561.000000	100.571035
2560.000000	100.563170
2559.000000	100.559709
2558.000000	100.561939
2557.000000	100.568377
2556.000000	100.575525
2555.000000	100.579847
2554.000000	100.579464
2553.000000	100.574617
2552.000000	100.567145
2551.000000	100.559431
2550.000000	100.553447
2549.000000	100.550432
2548.000000	100.550866
2547.000000	100.554335
2546.000000	100.559439
2545.000000	100.564280
2544.000000	100.567387
2543.000000	100.568197
2542.000000	100.566936
2541.000000	100.564412
2540.000000	100.561721
2539.000000	100.559653
2538.000000	100.558226
2537.000000	100.557122
2536.000000	100.556653
2535.000000	100.557764
2534.000000	100.560657
2533.000000	100.563765
2532.000000	100.564951
2531.000000	100.563843
2530.000000	100.562058
2529.000000	100.561183
2528.000000	100.561364
2527.000000	100.562014
2526.000000	100.563166
2525.000000	100.565394
2524.000000	100.568659
2523.000000	100.571900
2522.000000	100.573977
2521.000000	100.574733
2520.000000	100.574899
2519.000000	100.575125
2518.000000	100.575303
2517.000000	100.574919
2516.000000	100.573972
2515.000000	100.573028
2514.000000	100.572220
2513.000000	100.571038
2512.000000	100.569607
2511.000000	100.569319
2510.000000	100.571228
2509.000000	100.574301
2508.000000	100.576327
2507.000000	100.576535
2506.000000	100.576255
2505.000000	100.576787
2504.000000	100.577861
2503.000000	100.578955
2502.000000	100.580951
2501.000000	100.585177
2500.000000	100.591282
2499.000000	100.597188
2498.000000	100.601228
2497.000000	100.603464
2496.000000	100.604861
2495.000000	100.605964
2494.000000	100.606546
2493.000000	100.606141
2492.000000	100.604797
2491.000000	100.603615
2490.000000	100.604391
2489.000000	100.608149
2488.000000	100.613854
2487.000000	100.618947
2486.000000	100.621454
2485.000000	100.621169
2484.000000	100.618890
2483.000000	100.615301
2482.000000	100.610981
2481.000000	100.607010
2480.000000	100.604806
2479.000000	100.605261
2478.000000	100.608220
2477.000000	100.612538
2476.000000	100.616489
2475.000000	100.618541
2474.000000	100.618182
2473.000000	100.616162
2472.000000	100.613876
2471.000000	100.612458
2470.000000	100.612414
2469.000000	100.613764
2468.000000	100.616226
2467.000000	100.619464
2466.000000	100.623380
2465.000000	100.627863
2464.000000	100.632039
2463.000000	100.634355
2462.000000	100.633963
2461.000000	100.631736
2460.000000	100.629400
2459.000000	100.627770
2458.000000	100.626603
2457.000000	100.625998
2456.000000	100.626816
2455.000000	100.629304
2454.000000	100.632080
2453.000000	100.633179
2452.000000	100.631808
2451.000000	100.628635
2450.000000	100.624831
2449.000000	100.621211
2448.000000	100.618160
2447.000000	100.615962
2446.000000	100.615074
2445.000000	100.616125
2444.000000	100.619384
2443.000000	100.624009
2442.000000	100.628215
2441.000000	100.630780
2440.000000	100.632071
2439.000000	100.633266
2438.000000	100.634792
2437.000000	100.635960
2436.000000	100.636061
2435.000000	100.635292
2434.000000	100.634468
2433.000000	100.634220
2432.000000	100.634570
2431.000000	100.635002
2430.000000	100.634842
2429.000000	100.633758
2428.000000	100.632036
2427.000000	100.630387
2426.000000	100.629532
2425.000000	100.629948
2424.000000	100.631699
2423.000000	100.634301
2422.000000	100.636986
2421.000000	100.639431
2420.000000	100.642003
2419.000000	100.644963
2418.000000	100.647620
2417.000000	100.648667
2416.000000	100.647479
2415.000000	100.644673
2414.000000	100.641514
2413.000000	100.639083
2412.000000	100.638032
2411.000000	100.638716
2410.000000	100.640853
2409.000000	100.643350
2408.000000	100.645014
2407.000000	100.645655
2406.000000	100.646163
2405.000000	100.647422
2404.000000	100.649358
2403.000000	100.651136
2402.000000	100.652072
2401.000000	100.652116
2400.000000	100.651652
2399.000000	100.651127
2398.000000	100.650979
2397.000000	100.651646
2396.000000	100.653310
2395.000000	100.655592
2394.000000	100.657599
2393.000000	100.658530
2392.000000	100.658333
2391.000000	100.657749
2390.000000	100.657664
2389.000000	100.658334
2388.000000	100.659232
2387.000000	100.659530
2386.000000	100.658791
2385.000000	100.657253
2384.000000	100.655572
2383.000000	100.654351
2382.000000	100.653940
2381.000000	100.654588
2380.000000	100.656439
2379.000000	100.659031
2378.000000	100.660993
2377.000000	100.660950
2376.000000	100.659039
2375.000000	100.657127
2374.000000	100.656800
2373.000000	100.657207
2372.000000	100.655955
2371.000000	100.652142
2370.000000	100.647550
2369.000000	100.644595
2368.000000	100.643695
2367.000000	100.643514
2366.000000	100.642972
2365.000000	100.642051
2364.000000	100.640930
2363.000000	100.639707
2362.000000	100.639213
2361.000000	100.640289
2360.000000	100.641912
2359.000000	100.641602
2358.000000	100.637845
2357.000000	100.631486
2356.000000	100.624637
2355.000000	100.618804
2354.000000	100.614625
2353.000000	100.612395
2352.000000	100.612566
2351.000000	100.615052
2350.000000	100.618802
2349.000000	100.622292
2348.000000	100.623993
2347.000000	100.623142
2346.000000	100.620152
2345.000000	100.617209
2344.000000	100.616409
2343.000000	100.616886
2342.000000	100.616473
2341.000000	100.614698
2340.000000	100.612948
2339.000000	100.611724
2338.000000	100.610079
2337.000000	100.607629
2336.000000	100.605434
2335.000000	100.604461
2334.000000	100.604574
2333.000000	100.605371
2332.000000	100.606801
2331.000000	100.608347
2330.000000	100.608877
2329.000000	100.608342
2328.000000	100.607852
2327.000000	100.608304
2326.000000	100.608905
2325.000000	100.608582
2324.000000	100.607497
2323.000000	100.606684
2322.000000	100.606597
2321.000000	100.606672
2320.000000	100.606446
2319.000000	100.606035
2318.000000	100.605750
2317.000000	100.605696
2316.000000	100.605887
2315.000000	100.606322
2314.000000	100.606785
2313.000000	100.607005
2312.000000	100.606937
2311.000000	100.606781
2310.000000	100.606677
2309.000000	100.606639
2308.000000	100.606638
2307.000000	100.606671
2306.000000	100.606766
2305.000000	100.606980
2304.000000	100.607301
2303.000000	100.607615
2302.000000	100.607768
2301.000000	100.607704
2300.000000	100.607566
2299.000000	100.607582
2298.000000	100.607812
2297.000000	100.608049
2296.000000	100.607967
2295.000000	100.607465
2294.000000	100.606743
2293.000000	100.606155
2292.000000	100.605886
2291.000000	100.605900
2290.000000	100.605981
2289.000000	100.605886
2288.000000	100.605528
2287.000000	100.605019
2286.000000	100.604563
2285.000000	100.604268
2284.000000	100.604045
2283.000000	100.603653
2282.000000	100.602910
2281.000000	100.601901
2280.000000	100.600907
2279.000000	100.600072
2278.000000	100.599308
2277.000000	100.598638
2276.000000	100.598430
2275.000000	100.599002
2274.000000	100.600083
2273.000000	100.600944
2272.000000	100.601161
2271.000000	100.601033
2270.000000	100.601211
2269.000000	100.602036
2268.000000	100.603220
2267.000000	100.603935
2266.000000	100.603275
2265.000000	100.600995
2264.000000	100.597850
2263.000000	100.595086
2262.000000	100.593335
2261.000000	100.592320
2260.000000	100.591624
2259.000000	100.591330
2258.000000	100.591646
2257.000000	100.592243
2256.000000	100.592495
2255.000000	100.592217
2254.000000	100.591677
2253.000000	100.590920
2252.000000	100.589637
2251.000000	100.587832
2250.000000	100.586091
2249.000000	100.584950
2248.000000	100.584242
2247.000000	100.583615
2246.000000	100.583234
2245.000000	100.583530
2244.000000	100.584342
2243.000000	100.584815
2242.000000	100.584297
2241.000000	100.583171
2240.000000	100.582538
2239.000000	100.583089
2238.000000	100.584496
2237.000000	100.585811
2236.000000	100.586403
2235.000000	100.586401
2234.000000	100.586258
2233.000000	100.586114
2232.000000	100.585699
2231.000000	100.584789
2230.000000	100.583592
2229.000000	100.582666
2228.000000	100.582522
2227.000000	100.583340
2226.000000	100.584865
2225.000000	100.586472
2224.000000	100.587533
2223.000000	100.587834
2222.000000	100.587602
2221.000000	100.587116
2220.000000	100.586407
2219.000000	100.585528
2218.000000	100.584895
2217.000000	100.584974
2216.000000	100.585656
2215.000000	100.586249
2214.000000	100.586243
2213.000000	100.585806
2212.000000	100.585437
2211.000000	100.585386
2210.000000	100.585587
2209.000000	100.585932
2208.000000	100.586407
2207.000000	100.587065
2206.000000	100.587948
2205.000000	100.588923
2204.000000	100.589547
2203.000000	100.589333
2202.000000	100.588331
2201.000000	100.587348
2200.000000	100.587334
2199.000000	100.588582
2198.000000	100.590612
2197.000000	100.592611
2196.000000	100.593877
2195.000000	100.594026
2194.000000	100.593104
2193.000000	100.591490
2192.000000	100.589488
2191.000000	100.587113
2190.000000	100.584507
2189.000000	100.582381
2188.000000	100.581616
2187.000000	100.582482
2186.000000	100.584551
2185.000000	100.587214
2184.000000	100.589925
2183.000000	100.592060
2182.000000	100.593041
2181.000000	100.592764
2180.000000	100.591717
2179.000000	100.590679
2178.000000	100.590406
2177.000000	100.591409
2176.000000	100.593548
2175.000000	100.595763
2174.000000	100.596767
2173.000000	100.596332
2172.000000	100.595629
2171.000000	100.596049
2170.000000	100.597777
2169.000000	100.599751
2168.000000	100.600804
2167.000000	100.600638
2166.000000	100.599808
2165.000000	100.599199
2164.000000	100.599527
2163.000000	100.601098
2162.000000	100.603723
2161.000000	100.606628
2160.000000	100.608566
2159.000000	100.608445
2158.000000	100.606168
2157.000000	100.602937
2156.000000	100.600432
2155.000000	100.599341
2154.000000	100.599142
2153.000000	100.599173
2152.000000	100.599451
2151.000000	100.600259
2150.000000	100.601434
2149.000000	100.602566
2148.000000	100.603633
2147.000000	100.604864
2146.000000	100.606114
2145.000000	100.606944
2144.000000	100.607316
2143.000000	100.607739
2142.000000	100.608522
2141.000000	100.609284
2140.000000	100.609499
2139.000000	100.609362
2138.000000	100.609730
2137.000000	100.611110
2136.000000	100.613006
2135.000000	100.614459
2134.000000	100.615203
2133.000000	100.616028
2132.000000	100.617822
2131.000000	100.620416
2130.000000	100.622646
2129.000000	100.623657
2128.000000	100.623704
2127.000000	100.623670
2126.000000	100.624087
2125.000000	100.624913
2124.000000	100.625979
2123.000000	100.627176
2122.000000	100.628308
2121.000000	100.629127
2120.000000	100.629621
2119.000000	100.630095
2118.000000	100.630918
2117.000000	100.632288
2116.000000	100.634173
2115.000000	100.636289
2114.000000	100.638199
2113.000000	100.639612
2112.000000	100.640606
2111.000000	100.641450
2110.000000	100.642253
2109.000000	100.642963
2108.000000	100.643624
2107.000000	100.644383
2106.000000	100.645266
2105.000000	100.646124
2104.000000	100.646827
2103.000000	100.647436
2102.000000	100.648120
2101.000000	100.648960
2100.000000	100.649878
2099.000000	100.650715
2098.000000	100.651367
2097.000000	100.651856
2096.000000	100.652321
2095.000000	100.652913
2094.000000	100.653671
2093.000000	100.654473
2092.000000	100.655104
2091.000000	100.655466
2090.000000	100.655624
2089.000000	100.655706
2088.000000	100.655777
2087.000000	100.655884
2086.000000	100.656134
2085.000000	100.656603
2084.000000	100.657208
2083.000000	100.657748
2082.000000	100.658091
2081.000000	100.658254
2080.000000	100.658313
2079.000000	100.658308
2078.000000	100.658261
2077.000000	100.658206
2076.000000	100.658151
2075.000000	100.658042
2074.000000	100.657818
2073.000000	100.657537
2072.000000	100.657425
2071.000000	100.657702
2070.000000	100.658304
2069.000000	100.658818
2068.000000	100.658857
2067.000000	100.658469
2066.000000	100.658113
2065.000000	100.658117
2064.000000	100.658283
2063.000000	100.658174
2062.000000	100.657608
2061.000000	100.656689
2060.000000	100.655592
2059.000000	100.654520
2058.000000	100.653772
2057.000000	100.653569
2056.000000	100.653797
2055.000000	100.654080
2054.000000	100.654092
2053.000000	100.653699
2052.000000	100.652817
2051.000000	100.651468
2050.000000	100.649920
2049.000000	100.648606
2048.000000	100.647786
2047.000000	100.647376
2046.000000	100.647197
2045.000000	100.647188
2044.000000	100.647293
2043.000000	100.647279
2042.000000	100.646866
2041.000000	100.646019
2040.000000	100.644969
2039.000000	100.643956
2038.000000	100.642999
2037.000000	100.641952
2036.000000	100.640740
2035.000000	100.639512
2034.000000	100.638536
2033.000000	100.637917
2032.000000	100.637462
2031.000000	100.636823
2030.000000	100.635844
2029.000000	100.634674
2028.000000	100.633575
2027.000000	100.632658
2026.000000	100.631848
2025.000000	100.631027
2024.000000	100.630132
2023.000000	100.629156
2022.000000	100.628160
2021.000000	100.627268
2020.000000	100.626537
2019.000000	100.625814
2018.000000	100.624858
2017.000000	100.623646
2016.000000	100.622475
2015.000000	100.621604
2014.000000	100.620902
2013.000000	100.619978
2012.000000	100.618608
2011.000000	100.616964
2010.000000	100.615468
2009.000000	100.614441
2008.000000	100.613913
2007.000000	100.613683
2006.000000	100.613513
2005.000000	100.613302
2004.000000	100.613035
2003.000000	100.612629
2002.000000	100.611939
2001.000000	100.610948
2000.000000	100.609847
1999.000000	100.608870
1998.000000	100.608115
1997.000000	100.607625
1996.000000	100.607487
1995.000000	100.607697
1994.000000	100.607989
1993.000000	100.607993
1992.000000	100.607574
1991.000000	100.606840
1990.000000	100.605881
1989.000000	100.604757
1988.000000	100.603703
1987.000000	100.603103
1986.000000	100.603131
1985.000000	100.603627
1984.000000	100.604279
1983.000000	100.604787
1982.000000	100.604921
1981.000000	100.604591
1980.000000	100.604018
1979.000000	100.603575
1978.000000	100.603307
1977.000000	100.602849
1976.000000	100.602081
1975.000000	100.601468
1974.000000	100.601391
1973.000000	100.601551
1972.000000	100.601484
1971.000000	100.601409
1970.000000	100.601997
1969.000000	100.603349
1968.000000	100.604755
1967.000000	100.605516
1966.000000	100.605630
1965.000000	100.605458
1964.000000	100.605092
1963.000000	100.604312
1962.000000	100.603120
1961.000000	100.602072
1960.000000	100.601877
1959.000000	100.602677
1958.000000	100.603854
1957.000000	100.604598
1956.000000	100.604521
1955.000000	100.603693
1954.000000	100.602416
1953.000000	100.601161
1952.000000	100.600297
1951.000000	100.599593
1950.000000	100.598382
1949.000000	100.596697
1948.000000	100.595779
1947.000000	100.596814
1946.000000	100.599419
1945.000000	100.601947
1944.000000	100.603286
1943.000000	100.603735
1942.000000	100.603957
1941.000000	100.603856
1940.000000	100.603137
1939.000000	100.601877
1938.000000	100.599857
1937.000000	100.596338
1936.000000	100.591130
1935.000000	100.585494
1934.000000	100.581356
1933.000000	100.579657
1932.000000	100.579744
1931.000000	100.580265
1930.000000	100.580551
1929.000000	100.581103
1928.000000	100.582678
1927.000000	100.584907
1926.000000	100.586159
1925.000000	100.584802
1924.000000	100.580862
1923.000000	100.576281
1922.000000	100.573166
1921.000000	100.571901
1920.000000	100.571720
1919.000000	100.572103
1918.000000	100.572816
1917.000000	100.572920
1916.000000	100.571148
1915.000000	100.567327
1914.000000	100.562435
1913.000000	100.557399
1912.000000	100.552365
1911.000000	100.547429
1910.000000	100.543596
1909.000000	100.541986
1908.000000	100.542156
1907.000000	100.542219
1906.000000	100.540886
1905.000000	100.538349
1904.000000	100.535484
1903.000000	100.532651
1902.000000	100.529478
1901.000000	100.525401
1900.000000	100.520491
1899.000000	100.515981
1898.000000	100.513784
1897.000000	100.514912
1896.000000	100.518582
1895.000000	100.522959
1894.000000	100.526574
1893.000000	100.528549
1892.000000	100.527978
1891.000000	100.524403
1890.000000	100.519280
1889.000000	100.515380
1888.000000	100.513529
1887.000000	100.512147
1886.000000	100.509884
1885.000000	100.506987
1884.000000	100.504521
1883.000000	100.503180
1882.000000	100.502849
1881.000000	100.502494
1880.000000	100.500585
1879.000000	100.496560
1878.000000	100.491896
1877.000000	100.488780
1876.000000	100.487761
1875.000000	100.487831
1874.000000	100.488698
1873.000000	100.491400
1872.000000	100.496197
1871.000000	100.501236
1870.000000	100.504286
1869.000000	100.505308
1868.000000	100.505573
1867.000000	100.505177
1866.000000	100.504132
1865.000000	100.503526
1864.000000	100.504474
1863.000000	100.507204
1862.000000	100.511427
1861.000000	100.516875
1860.000000	100.522820
1859.000000	100.527771
1858.000000	100.530789
1857.000000	100.532828
1856.000000	100.536036
1855.000000	100.541784
1854.000000	100.549342
1853.000000	100.556174
1852.000000	100.560027
1851.000000	100.560529
1850.000000	100.559379
1849.000000	100.558768
1848.000000	100.559304
1847.000000	100.559579
1846.000000	100.558177
1845.000000	100.556040
1844.000000	100.556134
1843.000000	100.560032
1842.000000	100.566470
1841.000000	100.573334
1840.000000	100.579346
1839.000000	100.584006
1838.000000	100.586682
1837.000000	100.586654
1836.000000	100.584455
1835.000000	100.582097
1834.000000	100.581396
1833.000000	100.582583
1832.000000	100.585005
1831.000000	100.588279
1830.000000	100.592244
1829.000000	100.595689
1828.000000	100.597038
1827.000000	100.596209
1826.000000	100.594347
1825.000000	100.592796
1824.000000	100.592051
1823.000000	100.591682
1822.000000	100.591469
1821.000000	100.591749
1820.000000	100.592755
1819.000000	100.594115
1818.000000	100.595311
1817.000000	100.596367
1816.000000	100.597606
1815.000000	100.598794
1814.000000	100.599127
1813.000000	100.598237
1812.000000	100.596947
1811.000000	100.596786
1810.000000	100.598485
1809.000000	100.601400
1808.000000	100.604005
1807.000000	100.605207
1806.000000	100.605136
1805.000000	100.604691
1804.000000	100.604494
1803.000000	100.604346
1802.000000	100.603796
1801.000000	100.603070
1800.000000	100.602797
1799.000000	100.603223
1798.000000	100.604425
1797.000000	100.606533
1796.000000	100.609147
1795.000000	100.611271
1794.000000	100.612202
1793.000000	100.612433
1792.000000	100.613233
1791.000000	100.614971
1790.000000	100.617018
1789.000000	100.619106
1788.000000	100.621151
1787.000000	100.622794
1786.000000	100.623821
1785.000000	100.624648
1784.000000	100.625604
1783.000000	100.626225
1782.000000	100.625971
1781.000000	100.625536
1780.000000	100.625980
1779.000000	100.627096
1778.000000	100.627894
1777.000000	100.628139
1776.000000	100.628131
1775.000000	100.627605
1774.000000	100.626066
1773.000000	100.624663
1772.000000	100.626591
1771.000000	100.632821
1770.000000	100.639752
1769.000000	100.643518
1768.000000	100.643758
1767.000000	100.643404
1766.000000	100.645472
1765.000000	100.650362
1764.000000	100.656104
1763.000000	100.660309
1762.000000	100.661827
1761.000000	100.661561
1760.000000	100.660997
1759.000000	100.660240
1758.000000	100.658091
1757.000000	100.654586
1756.000000	100.651859
1755.000000	100.651309
1754.000000	100.651725
1753.000000	100.651109
1752.000000	100.649467
1751.000000	100.649070
1750.000000	100.651275
1749.000000	100.654285
1748.000000	100.656044
1747.000000	100.656204
1746.000000	100.655250
1745.000000	100.653857
1744.000000	100.653039
1743.000000	100.653579
1742.000000	100.654054
1741.000000	100.651520
1740.000000	100.645285
1739.000000	100.638858
1738.000000	100.635426
1737.000000	100.633626
1736.000000	100.629835
1735.000000	100.622754
1734.000000	100.616013
1733.000000	100.614226
1732.000000	100.616963
1731.000000	100.621038
1730.000000	100.623408
1729.000000	100.623010
1728.000000	100.620291
1727.000000	100.616201
1726.000000	100.611916
1725.000000	100.608704
1724.000000	100.606983
1723.000000	100.606088
1722.000000	100.604949
1721.000000	100.603068
1720.000000	100.600309
1719.000000	100.596643
1718.000000	100.592633
1717.000000	100.589673
1716.000000	100.587400
1715.000000	100.583232
1714.000000	100.575705
1713.000000	100.566072
1712.000000	100.556933
1711.000000	100.549706
1710.000000	100.544310
1709.000000	100.540842
1708.000000	100.539653
1707.000000	100.539396
1706.000000	100.537660
1705.000000	100.533532
1704.000000	100.527802
1703.000000	100.520554
1702.000000	100.511085
1701.000000	100.500321
1700.000000	100.491684
1699.000000	100.486792
1698.000000	100.484086
1697.000000	100.481526
1696.000000	100.476573
1695.000000	100.466958
1694.000000	100.454553
1693.000000	100.443176
1692.000000	100.433426
1691.000000	100.424934
1690.000000	100.417829
1689.000000	100.412042
1688.000000	100.406994
1687.000000	100.401943
1686.000000	100.396751
1685.000000	100.391150
1684.000000	100.384578
1683.000000	100.376535
1682.000000	100.367140
1681.000000	100.357707
1680.000000	100.349480
1679.000000	100.343319
1678.000000	100.338681
1677.000000	100.334114
1676.000000	100.328729
1675.000000	100.322851
1674.000000	100.317007
1673.000000	100.311442
1672.000000	100.305761
1671.000000	100.298957
1670.000000	100.290186
1669.000000	100.279416
1668.000000	100.268046
1667.000000	100.258534
1666.000000	100.252061
1665.000000	100.248089
1664.000000	100.245603
1663.000000	100.243541
1662.000000	100.240122
1661.000000	100.233646
1660.000000	100.223935
1659.000000	100.212669
1658.000000	100.202758
1657.000000	100.196039
1656.000000	100.191639
1655.000000	100.187913
1654.000000	100.184687
1653.000000	100.179536
1652.000000	100.168230
1651.000000	100.159080
1650.000000	100.155789
1649.000000	100.148961
1648.000000	100.135286
1647.000000	100.123303
1646.000000	100.119855
1645.000000	100.119572
1644.000000	100.118900
1643.000000	100.119037
1642.000000	100.120299
1641.000000	100.122004
1640.000000	100.122133
1639.000000	100.118236
1638.000000	100.110223
1637.000000	100.102522
1636.000000	100.102201
1635.000000	100.107893
1634.000000	100.110221
1633.000000	100.108345
1632.000000	100.106804
1631.000000	100.108443
1630.000000	100.113188
1629.000000	100.117325
1628.000000	100.117034
1627.000000	100.113103
1626.000000	100.109179
1625.000000	100.107437
1624.000000	100.107997
1623.000000	100.110753
1622.000000	100.114419
1621.000000	100.116358
1620.000000	100.114794
1619.000000	100.110011
1618.000000	100.106250
1617.000000	100.109743
1616.000000	100.121009
1615.000000	100.134462
1614.000000	100.145075
1613.000000	100.149902
1612.000000	100.149704
1611.000000	100.149229
1610.000000	100.152790
1609.000000	100.160169
1608.000000	100.168529
1607.000000	100.177117
1606.000000	100.186845
1605.000000	100.197565
1604.000000	100.207742
1603.000000	100.216195
1602.000000	100.222399
1601.000000	100.225986
1600.000000	100.228008
1599.000000	100.231359
1598.000000	100.237868
1597.000000	100.246027
1596.000000	100.253302
1595.000000	100.259635
1594.000000	100.266560
1593.000000	100.273701
1592.000000	100.279088
1591.000000	100.282512
1590.000000	100.286186
1589.000000	100.291885
1588.000000	100.299200
1587.000000	100.306880
1586.000000	100.314003
1585.000000	100.319622
1584.000000	100.323045
1583.000000	100.324720
1582.000000	100.326358
1581.000000	100.329449
1580.000000	100.334038
1579.000000	100.339208
1578.000000	100.344271
1577.000000	100.349061
1576.000000	100.353725
1575.000000	100.358594
1574.000000	100.363677
1573.000000	100.368535
1572.000000	100.372885
1571.000000	100.376860
1570.000000	100.380764
1569.000000	100.384743
1568.000000	100.388719
1567.000000	100.392631
1566.000000	100.396471
1565.000000	100.400241
1564.000000	100.403942
1563.000000	100.407574
1562.000000	100.411134
1561.000000	100.414617
1560.000000	100.418031
1559.000000	100.421400
1558.000000	100.424760
1557.000000	100.428113
1556.000000	100.431457
1555.000000	100.434795
1554.000000	100.438122
1553.000000	100.441425
1552.000000	100.444684
1551.000000	100.447892
1550.000000	100.451061
1549.000000	100.454214
1548.000000	100.457362
1547.000000	100.460504
1546.000000	100.463643
1545.000000	100.466790
1544.000000	100.469950
1543.000000	100.473111
1542.000000	100.476248
1541.000000	100.479347
1540.000000	100.482419
1539.000000	100.485484
1538.000000	100.488548
1537.000000	100.491607
1536.000000	100.494651
1535.000000	100.497676
1534.000000	100.500686
1533.000000	100.503686
1532.000000	100.506680
1531.000000	100.509680
1530.000000	100.512705
1529.000000	100.515765
1528.000000	100.518845
1527.000000	100.521925
1526.000000	100.524995
1525.000000	100.528051
1524.000000	100.531103
1523.000000	100.534179
1522.000000	100.537283
1521.000000	100.540412
1520.000000	100.543589
1519.000000	100.546880
1518.000000	100.550292
1517.000000	100.553695
1516.000000	100.556948
1515.000000	100.559953
1514.000000	100.562799
1513.000000	100.565602
1512.000000	100.568388
1511.000000	100.571244
1510.000000	100.574290
1509.000000	100.577557
1508.000000	100.580892
1507.000000	100.584142
1506.000000	100.586207
1505.000000	100.586841
1504.000000	100.588820
1503.000000	100.592470
1502.000000	100.595836
1501.000000	100.597884
1500.000000	100.598995
1499.000000	100.599738
1498.000000	100.599938
1497.000000	100.599468
1496.000000	100.599144
1495.000000	100.600062
1494.000000	100.602731
1493.000000	100.607129
1492.000000	100.612935
1491.000000	100.619406
1490.000000	100.625036
1489.000000	100.628383
1488.000000	100.628752
1487.000000	100.626431
1486.000000	100.623051
1485.000000	100.620832
1484.000000	100.621146
1483.000000	100.623773
1482.000000	100.627241
1481.000000	100.629943
1480.000000	100.631482
1479.000000	100.632481
1478.000000	100.633358
1477.000000	100.633698
1476.000000	100.632876
1475.000000	100.630813
1474.000000	100.628317
1473.000000	100.626769
1472.000000	100.626298
1471.000000	100.625150
1470.000000	100.622885
1469.000000	100.620731
1468.000000	100.619693
1467.000000	100.620249
1466.000000	100.622407
1465.000000	100.625550
1464.000000	100.627517
1463.000000	100.626511
1462.000000	100.623720
1461.000000	100.621377
1460.000000	100.620016
1459.000000	100.618740
1458.000000	100.617676
1457.000000	100.618779
1456.000000	100.621236
1455.000000	100.622682
1454.000000	100.622607
1453.000000	100.619736
1452.000000	100.614201
1451.000000	100.608117
1450.000000	100.603338
1449.000000	100.600644
1448.000000	100.599986
1447.000000	100.599838
1446.000000	100.598161
1445.000000	100.595386
1444.000000	100.593058
1443.000000	100.591295
1442.000000	100.588742
1441.000000	100.584634
1440.000000	100.580020
1439.000000	100.576463
1438.000000	100.574536
1437.000000	100.574279
1436.000000	100.576033
1435.000000	100.579110
1434.000000	100.581783
1433.000000	100.582304
1432.000000	100.579543
1431.000000	100.574121
1430.000000	100.568075
1429.000000	100.563548
1428.000000	100.561927
1427.000000	100.563292
1426.000000	100.566382
1425.000000	100.569981
1424.000000	100.574292
1423.000000	100.579971
1422.000000	100.585946
1421.000000	100.590075
1420.000000	100.590508
1419.000000	100.587150
1418.000000	100.582300
1417.000000	100.578477
1416.000000	100.577240
1415.000000	100.579208
1414.000000	100.583942
1413.000000	100.589761
1412.000000	100.594673
1411.000000	100.597733
1410.000000	100.599197
1409.000000	100.599930
1408.000000	100.600757
1407.000000	100.601948
1406.000000	100.603356
1405.000000	100.605142
1404.000000	100.607735
1403.000000	100.610943
1402.000000	100.613868
1401.000000	100.615822
1400.000000	100.616932
1399.000000	100.617992
1398.000000	100.619192
1397.000000	100.619833
1396.000000	100.619761
1395.000000	100.620035
1394.000000	100.621753
1393.000000	100.624765
1392.000000	100.628202
1391.000000	100.631158
1390.000000	100.632970
1389.000000	100.633496
1388.000000	100.633226
1387.000000	100.633052
1386.000000	100.633544
1385.000000	100.634653
1384.000000	100.636149
1383.000000	100.637865
1382.000000	100.639633
1381.000000	100.641245
1380.000000	100.642522
1379.000000	100.643431
1378.000000	100.644082
1377.000000	100.644590
1376.000000	100.645009
1375.000000	100.645523
1374.000000	100.646474
1373.000000	100.647857
1372.000000	100.649189
1371.000000	100.650217
1370.000000	100.651230
1369.000000	100.652545
1368.000000	100.653980
1367.000000	100.655038
1366.000000	100.655583
1365.000000	100.655967
1364.000000	100.656568
1363.000000	100.657526
1362.000000	100.658700
1361.000000	100.659557
1360.000000	100.659554
1359.000000	100.658667
1358.000000	100.657498
1357.000000	100.656866
1356.000000	100.657047
1355.000000	100.657412
1354.000000	100.657024
1353.000000	100.655652
1352.000000	100.654043
1351.000000	100.653368
1350.000000	100.654550
1349.000000	100.657477
1348.000000	100.660739
1347.000000	100.662501
1346.000000	100.661857
1345.000000	100.659294
1344.000000	100.656074
1343.000000	100.653413
1342.000000	100.652326
1341.000000	100.653705
1340.000000	100.657801
1339.000000	100.663155
1338.000000	100.666871
1337.000000	100.667046
1336.000000	100.664179
1335.000000	100.660231
1334.000000	100.656933
1333.000000	100.655050
1332.000000	100.654786
1331.000000	100.656061
1330.000000	100.658017
1329.000000	100.658763
1328.000000	100.656664
1327.000000	100.652209
1326.000000	100.648136
1325.000000	100.647004
1324.000000	100.649198
1323.000000	100.653330
1322.000000	100.657818
1321.000000	100.661637
1320.000000	100.663985
1319.000000	100.664251
1318.000000	100.662648
1317.000000	100.660310
1316.000000	100.658200
1315.000000	100.656261
1314.000000	100.654184
1313.000000	100.652823
1312.000000	100.653865
1311.000000	100.657624
1310.000000	100.661965
1309.000000	100.664181
1308.000000	100.663483
1307.000000	100.660948
1306.000000	100.657526
1305.000000	100.653269
1304.000000	100.649185
1303.000000	100.647904
1302.000000	100.650934
1301.000000	100.656084
1300.000000	100.659188
1299.000000	100.658358
1298.000000	100.655316
1297.000000	100.652521
1296.000000	100.650310
1295.000000	100.647771
1294.000000	100.645261
1293.000000	100.644494
1292.000000	100.645952
1291.000000	100.647021
1290.000000	100.643589
1289.000000	100.633762
1288.000000	100.619858
1287.000000	100.606560
1286.000000	100.596626
1285.000000	100.589187
1284.000000	100.582494
1283.000000	100.577001
1282.000000	100.574376
1281.000000	100.574033
1280.000000	100.572738
1279.000000	100.568572
1278.000000	100.563545
1277.000000	100.560595
1276.000000	100.559071
1275.000000	100.555757
1274.000000	100.550295
1273.000000	100.546578
1272.000000	100.547137
1271.000000	100.548468
1270.000000	100.545143
1269.000000	100.537605
1268.000000	100.531865
1267.000000	100.530605
1266.000000	100.528222
1265.000000	100.517704
1264.000000	100.500126
1263.000000	100.483984
1262.000000	100.475988
1261.000000	100.475739
1260.000000	100.479049
1259.000000	100.482371
1258.000000	100.482369
1257.000000	100.474916
1256.000000	100.458305
1255.000000	100.437099
1254.000000	100.420090
1253.000000	100.412905
1252.000000	100.413083
1251.000000	100.412931
1250.000000	100.407160
1249.000000	100.397357
1248.000000	100.388453
1247.000000	100.381335
1246.000000	100.370759
1245.000000	100.351692
1244.000000	100.326064
1243.000000	100.301541
1242.000000	100.284539
1241.000000	100.276130
1240.000000	100.273104
1239.000000	100.269639
1238.000000	100.258867
1237.000000	100.237141
1236.000000	100.208092
1235.000000	100.180116
1234.000000	100.158747
1233.000000	100.143259
1232.000000	100.130573
1231.000000	100.119046
1230.000000	100.107604
1229.000000	100.094687
1228.000000	100.079743
1227.000000	100.063158
1226.000000	100.043546
1225.000000	100.018110
1224.000000	99.987437
1223.000000	99.956831
1222.000000	99.930103
1221.000000	99.904034
1220.000000	99.871474
1219.000000	99.828419
1218.000000	99.776382
1217.000000	99.720016
1216.000000	99.664867
1215.000000	99.615197
1214.000000	99.570322
1213.000000	99.523991
1212.000000	99.470368
1211.000000	99.410338
1210.000000	99.349964
1209.000000	99.293211
1208.000000	99.238410
1207.000000	99.181693
1206.000000	99.121875
1205.000000	99.061464
1204.000000	99.003457
1203.000000	98.947676
1202.000000	98.891097
1201.000000	98.832128
1200.000000	98.772941
1199.000000	98.715855
1198.000000	98.658778
1197.000000	98.597277
1196.000000	98.530483
1195.000000	98.461549
1194.000000	98.392698
1193.000000	98.323579
1192.000000	98.254665
1191.000000	98.187919
1190.000000	98.122752
1189.000000	98.055020
1188.000000	97.981732
1187.000000	97.903994
1186.000000	97.824409
1185.000000	97.744703
1184.000000	97.666882
1183.000000	97.593066
1182.000000	97.522434
1181.000000	97.450967
1180.000000	97.375185
1179.000000	97.293358
1178.000000	97.202904
1177.000000	97.100823
1176.000000	96.988501
1175.000000	96.873093
1174.000000	96.762504
1173.000000	96.660910
1172.000000	96.568967
1171.000000	96.484391
1170.000000	96.401656
1169.000000	96.315200
1168.000000	96.223945
1167.000000	96.130264
1166.000000	96.036717
1165.000000	95.949268
1164.000000	95.881876
1163.000000	95.849863
1162.000000	95.856877
1161.000000	95.892460
1160.000000	95.940702
1159.000000	95.984996
1158.000000	96.007297
1157.000000	95.994584
1156.000000	95.949465
1155.000000	95.887606
1154.000000	95.821860
1153.000000	95.754410
1152.000000	95.685457
1151.000000	95.619728
1150.000000	95.559250
1149.000000	95.497411
1148.000000	95.426305
1147.000000	95.344705
1146.000000	95.254679
1145.000000	95.156718
1144.000000	95.054006
1143.000000	94.956512
1142.000000	94.874238
1141.000000	94.808574
1140.000000	94.753658
1139.000000	94.702127
1138.000000	94.646218
1137.000000	94.578119
1136.000000	94.494533
1135.000000	94.399424
1134.000000	94.299967
1133.000000	94.202325
1132.000000	94.112566
1131.000000	94.036502
1130.000000	93.974889
1129.000000	93.921404
1128.000000	93.867098
1127.000000	93.804416
1126.000000	93.727839
1125.000000	93.636396
1124.000000	93.537111
1123.000000	93.441136
1122.000000	93.354019
1121.000000	93.273005
1120.000000	93.194487
1119.000000	93.119584
1118.000000	93.051031
1117.000000	92.988764
1116.000000	92.929919
1115.000000	92.869169
1114.000000	92.798856
1113.000000	92.714604
1112.000000	92.622195
1111.000000	92.533621
1110.000000	92.455086
1109.000000	92.384647
1108.000000	92.321331
1107.000000	92.266548
1106.000000	92.213981
1105.000000	92.148656
1104.000000	92.061863
1103.000000	91.960272
1102.000000	91.857033
1101.000000	91.760882
1100.000000	91.676868
1099.000000	91.608045
1098.000000	91.552916
1097.000000	91.506787
1096.000000	91.467057
1095.000000	91.428951
1094.000000	91.377239
1093.000000	91.295903
1092.000000	91.189929
1091.000000	91.086239
1090.000000	91.008004
1089.000000	90.957285
1088.000000	90.925014
1087.000000	90.904526
1086.000000	90.889159
1085.000000	90.868126
1084.000000	90.832782
1083.000000	90.780667
1082.000000	90.710966
1081.000000	90.625273
1080.000000	90.535310
1079.000000	90.458457
1078.000000	90.400623
1077.000000	90.353450
1076.000000	90.311259
1075.000000	90.276798
1074.000000	90.244286
1073.000000	90.191286
1072.000000	90.098247
1071.000000	89.968241
1070.000000	89.820479
1069.000000	89.670524
1068.000000	89.522491
1067.000000	89.373365
1066.000000	89.217663
1065.000000	89.052882
1064.000000	88.884697
1063.000000	88.721550
1062.000000	88.562482
1061.000000	88.398105
1060.000000	88.224659
1059.000000	88.047813
1058.000000	87.872146
1057.000000	87.698122
1056.000000	87.531009
1055.000000	87.380120
1054.000000	87.245098
1053.000000	87.113479
1052.000000	86.974396
1051.000000	86.822976
1050.000000	86.650852
1049.000000	86.450436
1048.000000	86.233460
1047.000000	86.028071
1046.000000	85.851850
1045.000000	85.700928
1044.000000	85.564651
1043.000000	85.432999
1042.000000	85.288786
1041.000000	85.113750
1040.000000	84.911041
1039.000000	84.706429
1038.000000	84.519685
1037.000000	84.348899
1036.000000	84.188220
1035.000000	84.043948
1034.000000	83.923897
1033.000000	83.824690
1032.000000	83.738705
1031.000000	83.662645
1030.000000	83.592791
1029.000000	83.522557
1028.000000	83.450162
1027.000000	83.379482
1026.000000	83.311209
1025.000000	83.243726
1024.000000	83.182705
1023.000000	83.136240
1022.000000	83.099966
1021.000000	83.061715
1020.000000	83.021665
1019.000000	82.991254
1018.000000	82.969477
1017.000000	82.936934
1016.000000	82.878737
1015.000000	82.800581
1014.000000	82.718817
1013.000000	82.646612
1012.000000	82.591457
1011.000000	82.553134
1010.000000	82.521867
1009.000000	82.489438
1008.000000	82.460291
1007.000000	82.439198
1006.000000	82.413810
1005.000000	82.368538
1004.000000	82.313705
1003.000000	82.280960
1002.000000	82.289505
1001.000000	82.333994
1000.000000	82.402171
999.000000	82.481854
998.000000	82.550070
997.000000	82.581138
996.000000	82.575145
995.000000	82.561619
994.000000	82.569005
993.000000	82.605095
992.000000	82.668152
991.000000	82.756366
990.000000	82.859564
989.000000	82.958732
988.000000	83.041920
987.000000	83.109680
986.000000	83.164186
985.000000	83.208686
984.000000	83.258895
983.000000	83.336436
982.000000	83.445789
981.000000	83.572513
980.000000	83.707053
979.000000	83.853685
978.000000	84.012506
977.000000	84.171620
976.000000	84.325145
975.000000	84.483666
974.000000	84.658148
973.000000	84.844757
972.000000	85.032119
971.000000	85.214341
970.000000	85.392349
969.000000	85.570857
968.000000	85.757107
967.000000	85.955319
966.000000	86.161479
965.000000	86.369675
964.000000	86.579433
963.000000	86.787561
962.000000	86.979519
961.000000	87.143833
960.000000	87.291439
959.000000	87.445587
958.000000	87.614302
957.000000	87.787601
956.000000	87.959225
955.000000	88.131881
954.000000	88.299713
953.000000	88.445154
952.000000	88.559461
951.000000	88.652602
950.000000	88.738207
949.000000	88.820973
948.000000	88.904165
947.000000	88.996627
946.000000	89.103804
945.000000	89.219335
944.000000	89.331117
943.000000	89.430148
942.000000	89.512166
941.000000	89.578063
940.000000	89.634143
939.000000	89.686530
938.000000	89.736911
937.000000	89.789546
936.000000	89.856114
935.000000	89.941567
934.000000	90.029670
933.000000	90.097744
932.000000	90.144667
931.000000	90.190660
930.000000	90.250217
929.000000	90.319668
928.000000	90.391410
927.000000	90.463361
926.000000	90.530592
925.000000	90.583355
924.000000	90.620752
923.000000	90.656006
922.000000	90.702579
921.000000	90.762743
920.000000	90.831274
919.000000	90.900149
918.000000	90.957795
917.000000	90.994459
916.000000	91.011769
915.000000	91.020679
914.000000	91.031897
913.000000	91.057157
912.000000	91.114500
911.000000	91.215574
910.000000	91.347002
909.000000	91.480473
908.000000	91.605777
907.000000	91.737267
906.000000	91.883874
905.000000	92.033145
904.000000	92.174180
903.000000	92.320031
902.000000	92.493159
901.000000	92.696377
900.000000	92.908237
899.000000	93.103375
898.000000	93.271227
897.000000	93.416634
896.000000	93.548193
895.000000	93.668682
894.000000	93.778036
893.000000	93.884131
892.000000	94.002036
891.000000	94.136275
890.000000	94.271647
889.000000	94.393128
888.000000	94.509533
887.000000	94.643120
886.000000	94.797443
885.000000	94.950651
884.000000	95.083017
883.000000	95.196131
882.000000	95.299249
881.000000	95.391030
880.000000	95.467578
879.000000	95.541728
878.000000	95.640006
877.000000	95.776706
876.000000	95.935703
875.000000	96.081109
874.000000	96.188109
873.000000	96.263202
872.000000	96.331681
871.000000	96.407867
870.000000	96.487228
869.000000	96.570039
868.000000	96.677323
867.000000	96.827991
866.000000	97.006325
865.000000	97.169557
864.000000	97.289404
863.000000	97.371745
862.000000	97.434285
861.000000	97.482380
860.000000	97.517964
859.000000	97.560339
858.000000	97.640519
857.000000	97.772571
856.000000	97.937183
855.000000	98.094758
854.000000	98.212975
853.000000	98.282908
852.000000	98.312402
851.000000	98.311340
850.000000	98.291834
849.000000	98.281217
848.000000	98.318517
847.000000	98.422906
846.000000	98.568621
845.000000	98.704346
844.000000	98.796599
843.000000	98.841801
842.000000	98.841629
841.000000	98.789829
840.000000	98.692530
839.000000	98.585069
838.000000	98.512255
837.000000	98.494776
836.000000	98.521776
835.000000	98.568605
834.000000	98.612558
833.000000	98.637059
832.000000	98.632964
831.000000	98.601224
830.000000	98.553421
829.000000	98.507851
828.000000	98.481225
827.000000	98.479225
826.000000	98.495915
825.000000	98.526005
824.000000	98.571849
823.000000	98.628723
822.000000	98.671127
821.000000	98.670947
820.000000	98.625331
819.000000	98.550919
818.000000	98.455098
817.000000	98.332036
816.000000	98.189354
815.000000	98.058972
814.000000	97.967296
813.000000	97.901784
812.000000	97.817216
811.000000	97.669513
810.000000	97.436242
809.000000	97.112561
808.000000	96.702860
807.000000	96.222969
806.000000	95.707302
805.000000	95.207756
804.000000	94.775793
803.000000	94.432246
802.000000	94.150646
801.000000	93.881490
800.000000	93.599679
799.000000	93.320130
798.000000	93.069438
797.000000	92.864415
796.000000	92.725066
795.000000	92.682171
794.000000	92.748605
793.000000	92.890804
792.000000	93.044776
791.000000	93.159989
790.000000	93.220934
789.000000	93.232284
788.000000	93.197461
787.000000	93.116205
786.000000	92.996361
785.000000	92.859742
784.000000	92.730239
783.000000	92.613672
782.000000	92.493784
781.000000	92.355154
780.000000	92.207175
779.000000	92.076638
778.000000	91.981492
777.000000	91.925736
776.000000	91.917479
775.000000	91.972941
774.000000	92.096048
773.000000	92.266918
772.000000	92.456936
771.000000	92.646338
770.000000	92.824530
769.000000	92.984685
768.000000	93.123562
767.000000	93.239843
766.000000	93.330808
765.000000	93.397362
764.000000	93.450731
763.000000	93.504320
762.000000	93.561187
761.000000	93.621972
760.000000	93.701705
759.000000	93.818701
758.000000	93.962040
757.000000	94.089224
756.000000	94.167823
755.000000	94.207375
754.000000	94.241838
753.000000	94.293828
752.000000	94.367271
751.000000	94.462327
750.000000	94.579238
749.000000	94.709068
748.000000	94.833372
747.000000	94.936857
746.000000	95.017154
745.000000	95.083349
744.000000	95.148320
743.000000	95.222023
742.000000	95.310749
741.000000	95.421028
740.000000	95.557549
739.000000	95.710922
738.000000	95.853030
737.000000	95.956700
736.000000	96.020407
735.000000	96.064406
734.000000	96.104144
733.000000	96.139731
732.000000	96.172843
731.000000	96.217758
730.000000	96.285196
729.000000	96.364920
728.000000	96.435968
727.000000	96.490714
726.000000	96.541198
725.000000	96.603564
724.000000	96.680188
723.000000	96.754686
722.000000	96.803485
721.000000	96.818979
720.000000	96.823958
719.000000	96.852248
718.000000	96.911863
717.000000	96.982169
716.000000	97.046897
715.000000	97.111988
714.000000	97.183410
713.000000	97.240142
712.000000	97.247033
711.000000	97.194643
710.000000	97.114209
709.000000	97.050690
708.000000	97.031077
707.000000	97.057335
706.000000	97.116973
705.000000	97.188901
704.000000	97.238613
703.000000	97.219737
702.000000	97.097244
701.000000	96.876582
700.000000	96.603495
699.000000	96.328143
698.000000	96.073470
697.000000	95.844841
696.000000	95.659986
695.000000	95.548073
694.000000	95.516344
693.000000	95.535651
692.000000	95.571501
691.000000	95.622417
690.000000	95.715275
689.000000	95.868436
688.000000	96.071782
687.000000	96.301612
686.000000	96.539877
685.000000	96.767729
684.000000	96.950836
683.000000	97.053088
682.000000	97.073824
681.000000	97.062238
680.000000	97.080465
679.000000	97.149180
678.000000	97.239353
677.000000	97.316069
676.000000	97.374478
675.000000	97.423943
674.000000	97.458185
673.000000	97.463085
672.000000	97.444419
671.000000	97.428250
670.000000	97.448699
669.000000	97.552930
668.000000	97.753964
667.000000	97.946710
666.000000	98.066235
665.000000	98.134051
664.000000	98.164580
663.000000	98.163538
662.000000	98.152186
661.000000	98.166449
660.000000	98.230628
659.000000	98.336599
658.000000	98.451187
657.000000	98.546951
656.000000	98.617613
655.000000	98.664881
654.000000	98.688309
653.000000	98.693469
652.000000	98.699346
651.000000	98.731225
650.000000	98.801839
