4000.000000	100.283797
3999.000000	100.265128
3998.000000	100.251201
3997.000000	100.245651
3996.000000	100.249953
3995.000000	100.262030
3994.000000	100.277109
3993.000000	100.290277
3992.000000	100.298019
3991.000000	100.297864
3990.000000	100.287970
3989.000000	100.268156
3988.000000	100.241582
3987.000000	100.214476
3986.000000	100.192624
3985.000000	100.178178
3984.000000	100.169954
3983.000000	100.165931
3982.000000	100.165258
3981.000000	100.168232
3980.000000	100.175029
3979.000000	100.185097
3978.000000	100.197715
3977.000000	100.212528
3976.000000	100.229011
3975.000000	100.245274
3974.000000	100.257766
3973.000000	100.262888
3972.000000	100.259300
3971.000000	100.248646
3970.000000	100.234368
3969.000000	100.219967
3968.000000	100.208267
3967.000000	100.201530
3966.000000	100.201219
3965.000000	100.207242
3964.000000	100.217482
3963.000000	100.228358
3962.000000	100.236438
3961.000000	100.240163
3960.000000	100.240447
3959.000000	100.239587
3958.000000	100.239157
3957.000000	100.238567
3956.000000	100.235822
3955.000000	100.229690
3954.000000	100.221015
3953.000000	100.212026
3952.000000	100.204665
3951.000000	100.199634
3950.000000	100.196369
3949.000000	100.193431
3948.000000	100.189519
3947.000000	100.185228
3946.000000	100.183970
3945.000000	100.190120
3944.000000	100.205301
3943.000000	100.225877
3942.000000	100.244247
3941.000000	100.253943
3940.000000	100.253044
3939.000000	100.243350
3938.000000	100.228485
3937.000000	100.212834
3936.000000	100.201007
3935.000000	100.196409
3934.000000	100.199096
3933.000000	100.205276
3932.000000	100.209954
3931.000000	100.211003
3930.000000	100.210165
3929.000000	100.210390
3928.000000	100.212960
3927.000000	100.216454
3926.000000	100.217648
3925.000000	100.213559
3924.000000	100.203298
3923.000000	100.188689
3922.000000	100.172885
3921.000000	100.157914
3920.000000	100.143683
3919.000000	100.129778
3918.000000	100.118211
3917.000000	100.113269
3916.000000	100.118442
3915.000000	100.133854
3914.000000	100.156314
3913.000000	100.180825
3912.000000	100.202913
3911.000000	100.220290
3910.000000	100.233067
3909.000000	100.241638
3908.000000	100.245451
3907.000000	100.243904
3906.000000	100.237671
3905.000000	100.228492
3904.000000	100.216285
3903.000000	100.198476
3902.000000	100.175468
3901.000000	100.154435
3900.000000	100.143745
3899.000000	100.143932
3898.000000	100.147216
3897.000000	100.146015
3896.000000	100.138747
3895.000000	100.127433
3894.000000	100.114295
3893.000000	100.100190
3892.000000	100.085017
3891.000000	100.067296
3890.000000	100.046493
3889.000000	100.027037
3888.000000	100.015246
3887.000000	100.013129
3886.000000	100.018062
3885.000000	100.027296
3884.000000	100.042020
3883.000000	100.065840
3882.000000	100.098598
3881.000000	100.134228
3880.000000	100.164431
3879.000000	100.183190
3878.000000	100.191105
3877.000000	100.193679
3876.000000	100.194826
3875.000000	100.195744
3874.000000	100.198996
3873.000000	100.209474
3872.000000	100.230649
3871.000000	100.260121
3870.000000	100.289079
3869.000000	100.307594
3868.000000	100.311733
3867.000000	100.302724
3866.000000	100.281484
3865.000000	100.251623
3864.000000	100.224812
3863.000000	100.213636
3862.000000	100.218410
3861.000000	100.227609
3860.000000	100.230662
3859.000000	100.225662
3858.000000	100.216330
3857.000000	100.204728
3856.000000	100.186045
3855.000000	100.149479
3854.000000	100.090907
3853.000000	100.030341
3852.000000	99.995289
3851.000000	99.993648
3850.000000	100.015734
3849.000000	100.044583
3848.000000	100.066842
3847.000000	100.078779
3846.000000	100.083705
3845.000000	100.085471
3844.000000	100.084877
3843.000000	100.080793
3842.000000	100.072991
3841.000000	100.063218
3840.000000	100.055036
3839.000000	100.052381
3838.000000	100.057564
3837.000000	100.069927
3836.000000	100.087247
3835.000000	100.107919
3834.000000	100.130250
3833.000000	100.150896
3832.000000	100.165063
3831.000000	100.169116
3830.000000	100.163964
3829.000000	100.154640
3828.000000	100.145518
3827.000000	100.136630
3826.000000	100.125230
3825.000000	100.110177
3824.000000	100.094068
3823.000000	100.081494
3822.000000	100.076642
3821.000000	100.080446
3820.000000	100.088278
3819.000000	100.094718
3818.000000	100.098953
3817.000000	100.102574
3816.000000	100.106007
3815.000000	100.107976
3814.000000	100.107711
3813.000000	100.106000
3812.000000	100.103446
3811.000000	100.100954
3810.000000	100.100784
3809.000000	100.104459
3808.000000	100.109660
3807.000000	100.111615
3806.000000	100.108393
3805.000000	100.103044
3804.000000	100.099173
3803.000000	100.096600
3802.000000	100.093869
3801.000000	100.091711
3800.000000	100.092464
3799.000000	100.097995
3798.000000	100.107409
3797.000000	100.117197
3796.000000	100.124467
3795.000000	100.128888
3794.000000	100.131549
3793.000000	100.133027
3792.000000	100.132700
3791.000000	100.130075
3790.000000	100.125931
3789.000000	100.121648
3788.000000	100.118320
3787.000000	100.116816
3786.000000	100.118035
3785.000000	100.122390
3784.000000	100.128925
3783.000000	100.135371
3782.000000	100.139397
3781.000000	100.139728
3780.000000	100.136782
3779.000000	100.132524
3778.000000	100.128975
3777.000000	100.126970
3776.000000	100.126555
3775.000000	100.127635
3774.000000	100.130348
3773.000000	100.135039
3772.000000	100.141286
3771.000000	100.146786
3770.000000	100.148273
3769.000000	100.144325
3768.000000	100.137114
3767.000000	100.130807
3766.000000	100.127783
3765.000000	100.127112
3764.000000	100.126733
3763.000000	100.126538
3762.000000	100.128156
3761.000000	100.131952
3760.000000	100.135649
3759.000000	100.136002
3758.000000	100.131528
3757.000000	100.123215
3756.000000	100.113554
3755.000000	100.104965
3754.000000	100.098640
3753.000000	100.095123
3752.000000	100.096009
3751.000000	100.103030
3750.000000	100.112794
3749.000000	100.117185
3748.000000	100.112988
3747.000000	100.104083
3746.000000	100.096368
3745.000000	100.093571
3744.000000	100.091953
3743.000000	100.084997
3742.000000	100.076143
3741.000000	100.071823
3740.000000	100.071839
3739.000000	100.073570
3738.000000	100.076643
3737.000000	100.081171
3736.000000	100.085825
3735.000000	100.091163
3734.000000	100.099675
3733.000000	100.111230
3732.000000	100.121645
3731.000000	100.127424
3730.000000	100.130309
3729.000000	100.134097
3728.000000	100.138680
3727.000000	100.139458
3726.000000	100.132578
3725.000000	100.120166
3724.000000	100.108503
3723.000000	100.101790
3722.000000	100.098795
3721.000000	100.096012
3720.000000	100.092638
3719.000000	100.090230
3718.000000	100.089603
3717.000000	100.089474
3716.000000	100.088148
3715.000000	100.084927
3714.000000	100.078945
3713.000000	100.069004
3712.000000	100.055754
3711.000000	100.042852
3710.000000	100.032767
3709.000000	100.023772
3708.000000	100.013879
3707.000000	100.003991
3706.000000	99.996717
3705.000000	99.994039
3704.000000	99.996173
3703.000000	100.001652
3702.000000	100.007662
3701.000000	100.010497
3700.000000	100.007826
3699.000000	100.000761
3698.000000	99.991937
3697.000000	99.982219
3696.000000	99.971792
3695.000000	99.963695
3694.000000	99.962826
3693.000000	99.970556
3692.000000	99.981782
3691.000000	99.989966
3690.000000	99.995377
3689.000000	100.003703
3688.000000	100.014729
3687.000000	100.022242
3686.000000	100.023521
3685.000000	100.019052
3684.000000	100.009370
3683.000000	99.996325
3682.000000	99.983494
3681.000000	99.972886
3680.000000	99.962444
3679.000000	99.948411
3678.000000	99.928911
3677.000000	99.906580
3676.000000	99.888844
3675.000000	99.880213
3674.000000	99.875313
3673.000000	99.870049
3672.000000	99.867008
3671.000000	99.868050
3670.000000	99.870962
3669.000000	99.870774
3668.000000	99.863514
3667.000000	99.851858
3666.000000	99.843511
3665.000000	99.843987
3664.000000	99.852817
3663.000000	99.864889
3662.000000	99.874841
3661.000000	99.880636
3660.000000	99.883700
3659.000000	99.886897
3658.000000	99.891717
3657.000000	99.897140
3656.000000	99.900233
3655.000000	99.900174
3654.000000	99.901781
3653.000000	99.910549
3652.000000	99.924088
3651.000000	99.932123
3650.000000	99.925877
3649.000000	99.906685
3648.000000	99.881444
3647.000000	99.854173
3646.000000	99.827542
3645.000000	99.805734
3644.000000	99.792493
3643.000000	99.788008
3642.000000	99.788855
3641.000000	99.790021
3640.000000	99.787106
3639.000000	99.777671
3638.000000	99.761701
3637.000000	99.741425
3636.000000	99.719275
3635.000000	99.696131
3634.000000	99.672518
3633.000000	99.652061
3632.000000	99.641858
3631.000000	99.647663
3630.000000	99.668475
3629.000000	99.694079
3628.000000	99.709870
3627.000000	99.710100
3626.000000	99.703624
3625.000000	99.701012
3624.000000	99.705281
3623.000000	99.715251
3622.000000	99.729150
3621.000000	99.744058
3620.000000	99.755190
3619.000000	99.758271
3618.000000	99.752648
3617.000000	99.742465
3616.000000	99.734327
3615.000000	99.732482
3614.000000	99.736285
3613.000000	99.742286
3612.000000	99.747747
3611.000000	99.752158
3610.000000	99.755735
3609.000000	99.757399
3608.000000	99.755404
3607.000000	99.749108
3606.000000	99.739221
3605.000000	99.726672
3604.000000	99.711627
3603.000000	99.693959
3602.000000	99.674876
3601.000000	99.658360
3600.000000	99.649412
3599.000000	99.650666
3598.000000	99.660898
3597.000000	99.677041
3596.000000	99.696635
3595.000000	99.718845
3594.000000	99.741809
3593.000000	99.760919
3592.000000	99.771905
3591.000000	99.774540
3590.000000	99.773054
3589.000000	99.774095
3588.000000	99.783213
3587.000000	99.799141
3586.000000	99.813158
3585.000000	99.818469
3584.000000	99.816602
3583.000000	99.812149
3582.000000	99.806591
3581.000000	99.798744
3580.000000	99.788475
3579.000000	99.778016
3578.000000	99.769610
3577.000000	99.763506
3576.000000	99.759073
3575.000000	99.756766
3574.000000	99.757304
3573.000000	99.758731
3572.000000	99.756134
3571.000000	99.745082
3570.000000	99.724768
3569.000000	99.699178
3568.000000	99.676903
3567.000000	99.667228
3566.000000	99.672667
3565.000000	99.688045
3564.000000	99.707547
3563.000000	99.728127
3562.000000	99.747803
3561.000000	99.764659
3560.000000	99.777040
3559.000000	99.783420
3558.000000	99.783243
3557.000000	99.778669
3556.000000	99.775043
3555.000000	99.778341
3554.000000	99.791387
3553.000000	99.811748
3552.000000	99.832893
3551.000000	99.848220
3550.000000	99.854373
3549.000000	99.851178
3548.000000	99.840160
3547.000000	99.824259
3546.000000	99.808359
3545.000000	99.797427
3544.000000	99.793184
3543.000000	99.793090
3542.000000	99.792899
3541.000000	99.790317
3540.000000	99.786452
3539.000000	99.783553
3538.000000	99.781518
3537.000000	99.777485
3536.000000	99.769328
3535.000000	99.758952
3534.000000	99.751042
3533.000000	99.749003
3532.000000	99.752721
3531.000000	99.759749
3530.000000	99.767501
3529.000000	99.774046
3528.000000	99.777664
3527.000000	99.776999
3526.000000	99.772042
3525.000000	99.764472
3524.000000	99.756819
3523.000000	99.751302
3522.000000	99.749488
3521.000000	99.752495
3520.000000	99.760643
3519.000000	99.772553
3518.000000	99.784999
3517.000000	99.794396
3516.000000	99.798537
3515.000000	99.796971
3514.000000	99.790555
3513.000000	99.781284
3512.000000	99.772166
3511.000000	99.766196
3510.000000	99.764705
3509.000000	99.766974
3508.000000	99.771348
3507.000000	99.776424
3506.000000	99.781108
3505.000000	99.784107
3504.000000	99.784314
3503.000000	99.782036
3502.000000	99.779324
3501.000000	99.778444
3500.000000	99.780065
3499.000000	99.783070
3498.000000	99.785675
3497.000000	99.786882
3496.000000	99.787163
3495.000000	99.787762
3494.000000	99.789211
3493.000000	99.790604
3492.000000	99.790553
3491.000000	99.788758
3490.000000	99.786377
3489.000000	99.784805
3488.000000	99.784429
3487.000000	99.784867
3486.000000	99.786085
3485.000000	99.788747
3484.000000	99.793295
3483.000000	99.798896
3482.000000	99.803342
3481.000000	99.804133
3480.000000	99.800123
3479.000000	99.792782
3478.000000	99.785787
3477.000000	99.782713
3476.000000	99.784900
3475.000000	99.791323
3474.000000	99.800120
3473.000000	99.809811
3472.000000	99.819367
3471.000000	99.828022
3470.000000	99.835215
3469.000000	99.840149
3468.000000	99.841485
3467.000000	99.838372
3466.000000	99.832080
3465.000000	99.825750
3464.000000	99.821761
3463.000000	99.819333
3462.000000	99.815034
3461.000000	99.805688
3460.000000	99.790878
3459.000000	99.773384
3458.000000	99.757706
3457.000000	99.747526
3456.000000	99.743763
3455.000000	99.744807
3454.000000	99.748485
3453.000000	99.753691
3452.000000	99.759978
3451.000000	99.766571
3450.000000	99.772786
3449.000000	99.778978
3448.000000	99.785832
3447.000000	99.792493
3446.000000	99.796615
3445.000000	99.797272
3444.000000	99.796820
3443.000000	99.798515
3442.000000	99.802525
3441.000000	99.805452
3440.000000	99.804290
3439.000000	99.799986
3438.000000	99.796583
3437.000000	99.797151
3436.000000	99.800859
3435.000000	99.803909
3434.000000	99.802635
3433.000000	99.795901
3432.000000	99.785431
3431.000000	99.774799
3430.000000	99.767783
3429.000000	99.766402
3428.000000	99.769864
3427.000000	99.775439
3426.000000	99.780576
3425.000000	99.784360
3424.000000	99.787127
3423.000000	99.789180
3422.000000	99.790281
3421.000000	99.790277
3420.000000	99.789762
3419.000000	99.789898
3418.000000	99.791699
3417.000000	99.795486
3416.000000	99.800675
3415.000000	99.805810
3414.000000	99.809049
3413.000000	99.809168
3412.000000	99.806365
3411.000000	99.802117
3410.000000	99.798215
3409.000000	99.795896
3408.000000	99.795658
3407.000000	99.797392
3406.000000	99.800313
3405.000000	99.802849
3404.000000	99.803000
3403.000000	99.799180
3402.000000	99.791118
3401.000000	99.780487
3400.000000	99.770651
3399.000000	99.765052
3398.000000	99.765177
3397.000000	99.769894
3396.000000	99.776823
3395.000000	99.784621
3394.000000	99.793374
3393.000000	99.802585
3392.000000	99.809497
3391.000000	99.810397
3390.000000	99.804059
3389.000000	99.793862
3388.000000	99.786083
3387.000000	99.785505
3386.000000	99.792409
3385.000000	99.803144
3384.000000	99.813401
3383.000000	99.820996
3382.000000	99.825818
3381.000000	99.828082
3380.000000	99.827357
3379.000000	99.823162
3378.000000	99.815903
3377.000000	99.806948
3376.000000	99.798066
3375.000000	99.791010
3374.000000	99.787214
3373.000000	99.787011
3372.000000	99.788556
3371.000000	99.787902
3370.000000	99.781257
3369.000000	99.768061
3368.000000	99.751827
3367.000000	99.737673
3366.000000	99.729295
3365.000000	99.728531
3364.000000	99.736724
3363.000000	99.754534
3362.000000	99.779904
3361.000000	99.807698
3360.000000	99.832862
3359.000000	99.853703
3358.000000	99.871291
3357.000000	99.886347
3356.000000	99.897943
3355.000000	99.904903
3354.000000	99.906983
3353.000000	99.904421
3352.000000	99.897530
3351.000000	99.887146
3350.000000	99.874460
3349.000000	99.859792
3348.000000	99.842373
3347.000000	99.822145
3346.000000	99.801240
3345.000000	99.782755
3344.000000	99.767867
3343.000000	99.754693
3342.000000	99.740522
3341.000000	99.725079
3340.000000	99.711229
3339.000000	99.702446
3338.000000	99.700028
3337.000000	99.703029
3336.000000	99.710326
3335.000000	99.721765
3334.000000	99.737123
3333.000000	99.755245
3332.000000	99.775165
3331.000000	99.797377
3330.000000	99.822652
3329.000000	99.849526
3328.000000	99.873899
3327.000000	99.891665
3326.000000	99.901457
3325.000000	99.904912
3324.000000	99.904794
3323.000000	99.902735
3322.000000	99.898122
3321.000000	99.889221
3320.000000	99.875939
3319.000000	99.861161
3318.000000	99.848309
3317.000000	99.837548
3316.000000	99.825596
3315.000000	99.809759
3314.000000	99.791360
3313.000000	99.774602
3312.000000	99.762557
3311.000000	99.754794
3310.000000	99.748460
3309.000000	99.741222
3308.000000	99.733680
3307.000000	99.729412
3306.000000	99.732344
3305.000000	99.743404
3304.000000	99.759393
3303.000000	99.775040
3302.000000	99.786370
3301.000000	99.792786
3300.000000	99.797004
3299.000000	99.803275
3298.000000	99.814681
3297.000000	99.831288
3296.000000	99.850733
3295.000000	99.870185
3294.000000	99.886968
3293.000000	99.897850
3292.000000	99.900031
3291.000000	99.894148
3290.000000	99.885055
3289.000000	99.877852
3288.000000	99.873527
3287.000000	99.869964
3286.000000	99.866505
3285.000000	99.865249
3284.000000	99.867446
3283.000000	99.870606
3282.000000	99.870474
3281.000000	99.864958
3280.000000	99.854870
3279.000000	99.841407
3278.000000	99.824487
3277.000000	99.804214
3276.000000	99.783333
3275.000000	99.767257
3274.000000	99.760836
3273.000000	99.764652
3272.000000	99.774185
3271.000000	99.783007
3270.000000	99.787704
3269.000000	99.789958
3268.000000	99.793889
3267.000000	99.801716
3266.000000	99.812140
3265.000000	99.822362
3264.000000	99.830730
3263.000000	99.837139
3262.000000	99.841972
3261.000000	99.846019
3260.000000	99.851172
3259.000000	99.859468
3258.000000	99.870440
3257.000000	99.880441
3256.000000	99.885884
3255.000000	99.886577
3254.000000	99.884569
3253.000000	99.880285
3252.000000	99.871972
3251.000000	99.859414
3250.000000	99.845760
3249.000000	99.833990
3248.000000	99.823128
3247.000000	99.810306
3246.000000	99.796204
3245.000000	99.785946
3244.000000	99.783571
3243.000000	99.787177
3242.000000	99.790655
3241.000000	99.789860
3240.000000	99.786496
3239.000000	99.785919
3238.000000	99.791515
3237.000000	99.801224
3236.000000	99.809511
3235.000000	99.812946
3234.000000	99.813374
3233.000000	99.815170
3232.000000	99.820341
3231.000000	99.827521
3230.000000	99.835098
3229.000000	99.843175
3228.000000	99.851934
3227.000000	99.860189
3226.000000	99.866864
3225.000000	99.872416
3224.000000	99.877374
3223.000000	99.880661
3222.000000	99.881034
3221.000000	99.879380
3220.000000	99.877742
3219.000000	99.876459
3218.000000	99.874155
3217.000000	99.870346
3216.000000	99.865929
3215.000000	99.861028
3214.000000	99.854825
3213.000000	99.848263
3212.000000	99.844311
3211.000000	99.843683
3210.000000	99.842098
3209.000000	99.834371
3208.000000	99.820744
3207.000000	99.806888
3206.000000	99.797507
3205.000000	99.791949
3204.000000	99.786637
3203.000000	99.780115
3202.000000	99.774502
3201.000000	99.772819
3200.000000	99.776337
3199.000000	99.784435
3198.000000	99.795876
3197.000000	99.809782
3196.000000	99.825617
3195.000000	99.842503
3194.000000	99.859136
3193.000000	99.874841
3192.000000	99.890354
3191.000000	99.906547
3190.000000	99.921975
3189.000000	99.932780
3188.000000	99.936229
3187.000000	99.933987
3186.000000	99.930887
3185.000000	99.930069
3184.000000	99.930103
3183.000000	99.927499
3182.000000	99.921247
3181.000000	99.913757
3180.000000	99.907421
3179.000000	99.901246
3178.000000	99.891745
3177.000000	99.877276
3176.000000	99.860987
3175.000000	99.848751
3174.000000	99.843750
3173.000000	99.843291
3172.000000	99.841339
3171.000000	99.834444
3170.000000	99.824918
3169.000000	99.818205
3168.000000	99.818006
3167.000000	99.824560
3166.000000	99.836380
3165.000000	99.851728
3164.000000	99.868162
3163.000000	99.882191
3162.000000	99.890773
3161.000000	99.893045
3160.000000	99.890218
3159.000000	99.884519
3158.000000	99.878900
3157.000000	99.876842
3156.000000	99.880656
3155.000000	99.889389
3154.000000	99.899084
3153.000000	99.905851
3152.000000	99.908708
3151.000000	99.909455
3150.000000	99.910354
3149.000000	99.912002
3148.000000	99.912878
3147.000000	99.910792
3146.000000	99.905269
3145.000000	99.898836
3144.000000	99.895269
3143.000000	99.895883
3142.000000	99.897992
3141.000000	99.897477
3140.000000	99.892592
3139.000000	99.884996
3138.000000	99.877789
3137.000000	99.873261
3136.000000	99.872235
3135.000000	99.874447
3134.000000	99.878974
3133.000000	99.884696
3132.000000	99.890666
3131.000000	99.895955
3130.000000	99.899493
3129.000000	99.900661
3128.000000	99.899988
3127.000000	99.898743
3126.000000	99.897814
3125.000000	99.897530
3124.000000	99.898469
3123.000000	99.901456
3122.000000	99.906263
3121.000000	99.911137
3120.000000	99.914485
3119.000000	99.916574
3118.000000	99.918730
3117.000000	99.921033
3116.000000	99.921812
3115.000000	99.919655
3114.000000	99.915115
3113.000000	99.910289
3112.000000	99.907105
3111.000000	99.906384
3110.000000	99.908205
3109.000000	99.912249
3108.000000	99.917594
3107.000000	99.922668
3106.000000	99.926040
3105.000000	99.927393
3104.000000	99.927656
3103.000000	99.928167
3102.000000	99.929561
3101.000000	99.931510
3100.000000	99.933448
3099.000000	99.935245
3098.000000	99.937044
3097.000000	99.938789
3096.000000	99.940301
3095.000000	99.941681
3094.000000	99.943259
3093.000000	99.945098
3092.000000	99.946862
3091.000000	99.948290
3090.000000	99.949630
3089.000000	99.951429
3088.000000	99.953925
3087.000000	99.956714
3086.000000	99.958966
3085.000000	99.959977
3084.000000	99.959544
3083.000000	99.958072
3082.000000	99.956457
3081.000000	99.955709
3080.000000	99.956450
3079.000000	99.958673
3078.000000	99.961770
3077.000000	99.964821
3076.000000	99.967059
3075.000000	99.968195
3074.000000	99.968452
3073.000000	99.968390
3072.000000	99.968536
3071.000000	99.969041
3070.000000	99.969660
3069.000000	99.970066
3068.000000	99.970248
3067.000000	99.970628
3066.000000	99.971761
3065.000000	99.973869
3064.000000	99.976501
3063.000000	99.978609
3062.000000	99.979230
3061.000000	99.978217
3060.000000	99.976432
3059.000000	99.975028
3058.000000	99.974360
3057.000000	99.973891
3056.000000	99.973183
3055.000000	99.972650
3054.000000	99.972999
3053.000000	99.974173
3052.000000	99.975328
3051.000000	99.975876
3050.000000	99.975959
3049.000000	99.975684
3048.000000	99.974591
3047.000000	99.972481
3046.000000	99.970376
3045.000000	99.969852
3044.000000	99.971477
3043.000000	99.974351
3042.000000	99.977034
3041.000000	99.978738
3040.000000	99.979614
3039.000000	99.980169
3038.000000	99.980477
3037.000000	99.979932
3036.000000	99.978074
3035.000000	99.975810
3034.000000	99.975261
3033.000000	99.977853
3032.000000	99.982843
3031.000000	99.988187
3030.000000	99.992796
3029.000000	99.997125
3028.000000	100.001532
3027.000000	100.004899
3026.000000	100.005384
3025.000000	100.002254
3024.000000	99.996870
3023.000000	99.992074
3022.000000	99.990393
3021.000000	99.992456
3020.000000	99.996701
3019.000000	100.000645
3018.000000	100.002692
3017.000000	100.002666
3016.000000	100.001135
3015.000000	99.999022
3014.000000	99.997786
3013.000000	99.998950
3012.000000	100.003049
3011.000000	100.009535
3010.000000	100.017675
3009.000000	100.026646
3008.000000	100.034564
3007.000000	100.038850
3006.000000	100.038820
3005.000000	100.037411
3004.000000	100.038972
3003.000000	100.044964
3002.000000	100.052695
3001.000000	100.058504
3000.000000	100.061693
2999.000000	100.064760
2998.000000	100.070163
2997.000000	100.077479
2996.000000	100.083925
2995.000000	100.087305
2994.000000	100.087971
2993.000000	100.087894
2992.000000	100.088346
2991.000000	100.089024
2990.000000	100.089352
2989.000000	100.089820
2988.000000	100.091401
2987.000000	100.093922
2986.000000	100.095692
2985.000000	100.095263
2984.000000	100.093583
2983.000000	100.093898
2982.000000	100.098917
2981.000000	100.107782
2980.000000	100.115973
2979.000000	100.118669
2978.000000	100.114359
2977.000000	100.105521
2976.000000	100.096615
2975.000000	100.091459
2974.000000	100.091379
2973.000000	100.094667
2972.000000	100.097661
2971.000000	100.097220
2970.000000	100.092629
2969.000000	100.085108
2968.000000	100.075901
2967.000000	100.065529
2966.000000	100.054879
2965.000000	100.045786
2964.000000	100.039628
2963.000000	100.035619
2962.000000	100.031183
2961.000000	100.024412
2960.000000	100.016193
2959.000000	100.009782
2958.000000	100.007966
2957.000000	100.010505
2956.000000	100.014466
2955.000000	100.017052
2954.000000	100.017767
2953.000000	100.017543
2952.000000	100.016621
2951.000000	100.014169
2950.000000	100.009666
2949.000000	100.003812
2948.000000	99.998266
2947.000000	99.995236
2946.000000	99.996889
2945.000000	100.003714
2944.000000	100.012929
2943.000000	100.019622
2942.000000	100.020632
2941.000000	100.016948
2940.000000	100.012121
2939.000000	100.008718
2938.000000	100.006451
2937.000000	100.003248
2936.000000	99.997634
2935.000000	99.990577
2934.000000	99.985318
2933.000000	99.984804
2932.000000	99.988912
2931.000000	99.994527
2930.000000	99.998566
2929.000000	100.000087
2928.000000	99.999035
2927.000000	99.994770
2926.000000	99.987513
2925.000000	99.980247
2924.000000	99.976845
2923.000000	99.978298
2922.000000	99.982427
2921.000000	99.987346
2920.000000	99.993562
2919.000000	100.002047
2918.000000	100.011762
2917.000000	100.020098
2916.000000	100.025095
2915.000000	100.026623
2914.000000	100.025981
2913.000000	100.024769
2912.000000	100.023696
2911.000000	100.022414
2910.000000	100.020912
2909.000000	100.020793
2908.000000	100.024192
2907.000000	100.031361
2906.000000	100.040080
2905.000000	100.047544
2904.000000	100.052001
2903.000000	100.052863
2902.000000	100.050935
2901.000000	100.049077
2900.000000	100.050835
2899.000000	100.057631
2898.000000	100.067769
2897.000000	100.078572
2896.000000	100.088272
2895.000000	100.095382
2894.000000	100.098247
2893.000000	100.096850
2892.000000	100.093732
2891.000000	100.091439
2890.000000	100.090018
2889.000000	100.088530
2888.000000	100.087650
2887.000000	100.088714
2886.000000	100.091077
2885.000000	100.092645
2884.000000	100.092827
2883.000000	100.092944
2882.000000	100.093778
2881.000000	100.094693
2880.000000	100.095410
2879.000000	100.096624
2878.000000	100.098166
2877.000000	100.098127
2876.000000	100.094745
2875.000000	100.088212
2874.000000	100.080157
2873.000000	100.072481
2872.000000	100.067267
2871.000000	100.066321
2870.000000	100.069533
2869.000000	100.074233
2868.000000	100.077333
2867.000000	100.077772
2866.000000	100.076024
2865.000000	100.071561
2864.000000	100.062178
2863.000000	100.046645
2862.000000	100.027855
2861.000000	100.012462
2860.000000	100.006249
2859.000000	100.009685
2858.000000	100.017932
2857.000000	100.025479
2856.000000	100.030899
2855.000000	100.036524
2854.000000	100.044267
2853.000000	100.052879
2852.000000	100.059118
2851.000000	100.060783
2850.000000	100.058613
2849.000000	100.056261
2848.000000	100.058429
2847.000000	100.067811
2846.000000	100.082923
2845.000000	100.099099
2844.000000	100.112123
2843.000000	100.120729
2842.000000	100.125812
2841.000000	100.128391
2840.000000	100.128916
2839.000000	100.128026
2838.000000	100.127161
2837.000000	100.128020
2836.000000	100.131274
2835.000000	100.135500
2834.000000	100.137589
2833.000000	100.134841
2832.000000	100.127055
2831.000000	100.116566
2830.000000	100.106560
2829.000000	100.099699
2828.000000	100.097598
2827.000000	100.100142
2826.000000	100.104991
2825.000000	100.109021
2824.000000	100.111057
2823.000000	100.112512
2822.000000	100.114818
2821.000000	100.117259
2820.000000	100.118212
2819.000000	100.117711
2818.000000	100.117520
2817.000000	100.118859
2816.000000	100.121240
2815.000000	100.123892
2814.000000	100.127446
2813.000000	100.133278
2812.000000	100.141086
2811.000000	100.147796
2810.000000	100.149847
2809.000000	100.146629
2808.000000	100.141253
2807.000000	100.137535
2806.000000	100.136453
2805.000000	100.136515
2804.000000	100.136959
2803.000000	100.138954
2802.000000	100.143045
2801.000000	100.146733
2800.000000	100.146203
2799.000000	100.140286
2798.000000	100.131756
2797.000000	100.124745
2796.000000	100.121337
2795.000000	100.121166
2794.000000	100.123246
2793.000000	100.127147
2792.000000	100.132269
2791.000000	100.136793
2790.000000	100.138259
2789.000000	100.135484
2788.000000	100.129569
2787.000000	100.122739
2786.000000	100.116603
2785.000000	100.112273
2784.000000	100.111747
2783.000000	100.117630
2782.000000	100.130597
2781.000000	100.147626
2780.000000	100.163677
2779.000000	100.175189
2778.000000	100.181413
2777.000000	100.183274
2776.000000	100.182351
2775.000000	100.180519
2774.000000	100.179192
2773.000000	100.178370
2772.000000	100.177071
2771.000000	100.174822
2770.000000	100.172210
2769.000000	100.170023
2768.000000	100.168463
2767.000000	100.167036
2766.000000	100.164575
2765.000000	100.159643
2764.000000	100.151955
2763.000000	100.143473
2762.000000	100.136957
2761.000000	100.133337
2760.000000	100.131465
2759.000000	100.130358
2758.000000	100.130259
2757.000000	100.131132
2756.000000	100.131499
2755.000000	100.129931
2754.000000	100.126968
2753.000000	100.124754
2752.000000	100.125424
2751.000000	100.130220
2750.000000	100.139015
2749.000000	100.149814
2748.000000	100.159716
2747.000000	100.167500
2746.000000	100.174719
2745.000000	100.183277
2744.000000	100.192353
2743.000000	100.198794
2742.000000	100.200412
2741.000000	100.198129
2740.000000	100.195123
2739.000000	100.194602
2738.000000	100.198060
2737.000000	100.204598
2736.000000	100.211620
2735.000000	100.216732
2734.000000	100.219089
2733.000000	100.218676
2732.000000	100.214992
2731.000000	100.207669
2730.000000	100.198076
2729.000000	100.188328
2728.000000	100.177968
2727.000000	100.163736
2726.000000	100.144574
2725.000000	100.126018
2724.000000	100.116721
2723.000000	100.119742
2722.000000	100.129183
2721.000000	100.136291
2720.000000	100.138236
2719.000000	100.138687
2718.000000	100.140742
2717.000000	100.142946
2716.000000	100.143397
2715.000000	100.144795
2714.000000	100.152091
2713.000000	100.165804
2712.000000	100.180570
2711.000000	100.191058
2710.000000	100.197246
2709.000000	100.202550
2708.000000	100.208533
2707.000000	100.213514
2706.000000	100.216022
2705.000000	100.217478
2704.000000	100.220445
2703.000000	100.225089
2702.000000	100.228468
2701.000000	100.227313
2700.000000	100.220897
2699.000000	100.210983
2698.000000	100.199430
2697.000000	100.186486
2696.000000	100.171662
2695.000000	100.155868
2694.000000	100.142167
2693.000000	100.134393
2692.000000	100.135077
2691.000000	100.143936
2690.000000	100.157136
2689.000000	100.168001
2688.000000	100.170311
2687.000000	100.162411
2686.000000	100.148410
2685.000000	100.134950
2684.000000	100.126941
2683.000000	100.126675
2682.000000	100.135625
2681.000000	100.154428
2680.000000	100.180247
2679.000000	100.206141
2678.000000	100.225338
2677.000000	100.235852
2676.000000	100.239767
2675.000000	100.238675
2674.000000	100.232213
2673.000000	100.221911
2672.000000	100.213860
2671.000000	100.214296
2670.000000	100.222751
2669.000000	100.232179
2668.000000	100.236885
2667.000000	100.238130
2666.000000	100.240373
2665.000000	100.243744
2664.000000	100.243153
2663.000000	100.234840
2662.000000	100.221385
2661.000000	100.209178
2660.000000	100.201865
2659.000000	100.197635
2658.000000	100.192440
2657.000000	100.184613
2656.000000	100.175896
2655.000000	100.168430
2654.000000	100.161672
2653.000000	100.153223
2652.000000	100.142562
2651.000000	100.132690
2650.000000	100.127340
2649.000000	100.127513
2648.000000	100.131975
2647.000000	100.140279
2646.000000	100.153241
2645.000000	100.170116
2644.000000	100.187309
2643.000000	100.200827
2642.000000	100.208938
2641.000000	100.212340
2640.000000	100.213169
2639.000000	100.214231
2638.000000	100.217785
2637.000000	100.223925
2636.000000	100.230744
2635.000000	100.236731
2634.000000	100.242137
2633.000000	100.247023
2632.000000	100.248987
2631.000000	100.244442
2630.000000	100.232093
2629.000000	100.214485
2628.000000	100.196363
2627.000000	100.181740
2626.000000	100.172265
2625.000000	100.167803
2624.000000	100.167799
2623.000000	100.171850
2622.000000	100.178851
2621.000000	100.185879
2620.000000	100.189034
2619.000000	100.186201
2618.000000	100.178705
2617.000000	100.169896
2616.000000	100.162635
2615.000000	100.158848
2614.000000	100.160341
2613.000000	100.168013
2612.000000	100.179953
2611.000000	100.191590
2610.000000	100.198809
2609.000000	100.200493
2608.000000	100.197720
2607.000000	100.191691
2606.000000	100.183475
2605.000000	100.175378
2604.000000	100.171123
2603.000000	100.173659
2602.000000	100.182903
2601.000000	100.195666
2600.000000	100.207739
2599.000000	100.216030
2598.000000	100.218967
2597.000000	100.215912
2596.000000	100.207290
2595.000000	100.195511
2594.000000	100.184980
2593.000000	100.179914
2592.000000	100.181678
2591.000000	100.188331
2590.000000	100.196673
2589.000000	100.204508
2588.000000	100.210551
2587.000000	100.212870
2586.000000	100.208892
2585.000000	100.197598
2584.000000	100.181367
2583.000000	100.165238
2582.000000	100.154078
2581.000000	100.150528
2580.000000	100.154917
2579.000000	100.165784
2578.000000	100.179972
2577.000000	100.192930
2576.000000	100.200349
2575.000000	100.200392
2574.000000	100.194604
2573.000000	100.186754
2572.000000	100.180468
2571.000000	100.177752
2570.000000	100.179405
2569.000000	100.185916
2568.000000	100.197219
2567.000000	100.211415
2566.000000	100.224351
2565.000000	100.231515
2564.000000	100.230800
2563.000000	100.223544
2562.000000	100.213322
2561.000000	100.203853
2560.000000	100.197731
2559.000000	100.196209
2558.000000	100.199132
2557.000000	100.204801
2556.000000	100.210426
2555.000000	100.213415
2554.000000	100.212531
2553.000000	100.207992
2552.000000	100.200935
2551.000000	100.193050
2550.000000	100.186534
2549.000000	100.183505
2548.000000	100.184771
2547.000000	100.189181
2546.000000	100.194320
2545.000000	100.198104
2544.000000	100.199746
2543.000000	100.199413
2542.000000	100.197528
2541.000000	100.194619
2540.000000	100.191424
2539.000000	100.188630
2538.000000	100.186426
2537.000000	100.184678
2536.000000	100.183667
2535.000000	100.184225
2534.000000	100.186674
2533.000000	100.189691
2532.000000	100.190996
2531.000000	100.189591
2530.000000	100.186634
2529.000000	100.184038
2528.000000	100.182780
2527.000000	100.182886
2526.000000	100.184475
2525.000000	100.187829
2524.000000	100.192301
2523.000000	100.196034
2522.000000	100.197385
2521.000000	100.196424
2520.000000	100.194711
2519.000000	100.193637
2518.000000	100.193241
2517.000000	100.192694
2516.000000	100.191600
2515.000000	100.190399
2514.000000	100.189531
2513.000000	100.188864
2512.000000	100.188194
2511.000000	100.187868
2510.000000	100.188444
2509.000000	100.189793
2508.000000	100.190977
2507.000000	100.191281
2506.000000	100.191094
2505.000000	100.191436
2504.000000	100.192777
2503.000000	100.194760
2502.000000	100.196973
2501.000000	100.199560
2500.000000	100.202953
2499.000000	100.207201
2498.000000	100.211729
2497.000000	100.215709
2496.000000	100.218579
2495.000000	100.220211
2494.000000	100.220686
2493.000000	100.220067
2492.000000	100.218637
2491.000000	100.217435
2490.000000	100.218090
2489.000000	100.221558
2488.000000	100.226884
2487.000000	100.231525
2486.000000	100.233276
2485.000000	100.231616
2484.000000	100.227459
2483.000000	100.222363
2482.000000	100.218111
2481.000000	100.216263
2480.000000	100.217301
2479.000000	100.220134
2478.000000	100.222914
2477.000000	100.224762
2476.000000	100.226167
2475.000000	100.227659
2474.000000	100.228780
2473.000000	100.228718
2472.000000	100.227559
2471.000000	100.226399
2470.000000	100.226275
2469.000000	100.227351
2468.000000	100.229157
2467.000000	100.231268
2466.000000	100.233538
2465.000000	100.235802
2464.000000	100.237533
2463.000000	100.238000
2462.000000	100.236897
2461.000000	100.234754
2460.000000	100.232606
2459.000000	100.231125
2458.000000	100.230247
2457.000000	100.229723
2456.000000	100.229745
2455.000000	100.230683
2454.000000	100.232226
2453.000000	100.233206
2452.000000	100.232517
2451.000000	100.230030
2450.000000	100.226580
2449.000000	100.223283
2448.000000	100.220961
2447.000000	100.220133
2446.000000	100.221032
2445.000000	100.223397
2444.000000	100.226463
2443.000000	100.229311
2442.000000	100.231334
2441.000000	100.232403
2440.000000	100.232601
2439.000000	100.231999
2438.000000	100.230782
2437.000000	100.229451
2436.000000	100.228611
2435.000000	100.228482
2434.000000	100.228708
2433.000000	100.228718
2432.000000	100.228311
2431.000000	100.227829
2430.000000	100.227746
2429.000000	100.228078
2428.000000	100.228250
2427.000000	100.227682
2426.000000	100.226599
2425.000000	100.226134
2424.000000	100.227352
2423.000000	100.230209
2422.000000	100.233519
2421.000000	100.235989
2420.000000	100.237272
2419.000000	100.237889
2418.000000	100.238444
2417.000000	100.239022
2416.000000	100.239302
2415.000000	100.239076
2414.000000	100.238561
2413.000000	100.238309
2412.000000	100.238845
2411.000000	100.240333
2410.000000	100.242438
2409.000000	100.244564
2408.000000	100.246136
2407.000000	100.247083
2406.000000	100.247800
2405.000000	100.248647
2404.000000	100.249726
2403.000000	100.250982
2402.000000	100.252268
2401.000000	100.253426
2400.000000	100.254504
2399.000000	100.255681
2398.000000	100.257021
2397.000000	100.258485
2396.000000	100.260033
2395.000000	100.261556
2394.000000	100.262798
2393.000000	100.263561
2392.000000	100.264003
2391.000000	100.264564
2390.000000	100.265534
2389.000000	100.266853
2388.000000	100.268382
2387.000000	100.270129
2386.000000	100.272047
2385.000000	100.273779
2384.000000	100.274892
2383.000000	100.275366
2382.000000	100.275658
2381.000000	100.276238
2380.000000	100.277128
2379.000000	100.277947
2378.000000	100.278326
2377.000000	100.278211
2376.000000	100.277893
2375.000000	100.277807
2374.000000	100.278206
2373.000000	100.279008
2372.000000	100.280053
2371.000000	100.281357
2370.000000	100.282653
2369.000000	100.282966
2368.000000	100.281575
2367.000000	100.279735
2366.000000	100.280209
2365.000000	100.284236
2364.000000	100.289909
2363.000000	100.294621
2362.000000	100.297500
2361.000000	100.297957
2360.000000	100.294548
2359.000000	100.286939
2358.000000	100.278521
2357.000000	100.273544
2356.000000	100.272532
2355.000000	100.273655
2354.000000	100.275454
2353.000000	100.277725
2352.000000	100.279415
2351.000000	100.279559
2350.000000	100.279187
2349.000000	100.279464
2348.000000	100.280449
2347.000000	100.280532
2346.000000	100.279075
2345.000000	100.278479
2344.000000	100.280387
2343.000000	100.283316
2342.000000	100.283872
2341.000000	100.282789
2340.000000	100.282289
2339.000000	100.280702
2338.000000	100.274177
2337.000000	100.262763
2336.000000	100.252389
2335.000000	100.247592
2334.000000	100.248114
2333.000000	100.251365
2332.000000	100.257639
2331.000000	100.267025
2330.000000	100.277817
2329.000000	100.284894
2328.000000	100.287966
2327.000000	100.288997
2326.000000	100.290411
2325.000000	100.291862
2324.000000	100.292392
2323.000000	100.292648
2322.000000	100.292556
2321.000000	100.291239
2320.000000	100.287657
2319.000000	100.282127
2318.000000	100.276277
2317.000000	100.271334
2316.000000	100.269404
2315.000000	100.270713
2314.000000	100.274423
2313.000000	100.277001
2312.000000	100.277567
2311.000000	100.276738
2310.000000	100.276325
2309.000000	100.274984
2308.000000	100.271760
2307.000000	100.267360
2306.000000	100.265190
2305.000000	100.266710
2304.000000	100.270969
2303.000000	100.275244
2302.000000	100.278289
2301.000000	100.279678
2300.000000	100.280209
2299.000000	100.280567
2298.000000	100.281956
2297.000000	100.283959
2296.000000	100.284896
2295.000000	100.282581
2294.000000	100.277367
2293.000000	100.271570
2292.000000	100.267495
2291.000000	100.265309
2290.000000	100.263684
2289.000000	100.261576
2288.000000	100.258945
2287.000000	100.256100
2286.000000	100.252912
2285.000000	100.249290
2284.000000	100.245791
2283.000000	100.243674
2282.000000	100.243922
2281.000000	100.246675
2280.000000	100.251064
2279.000000	100.255483
2278.000000	100.258195
2277.000000	100.258428
2276.000000	100.256964
2275.000000	100.255334
2274.000000	100.254356
2273.000000	100.253516
2272.000000	100.252010
2271.000000	100.249825
2270.000000	100.247807
2269.000000	100.246927
2268.000000	100.247640
2267.000000	100.249411
2266.000000	100.250742
2265.000000	100.250219
2264.000000	100.247894
2263.000000	100.245165
2262.000000	100.243157
2261.000000	100.241710
2260.000000	100.240295
2259.000000	100.239274
2258.000000	100.239363
2257.000000	100.240518
2256.000000	100.242021
2255.000000	100.243482
2254.000000	100.244962
2253.000000	100.246261
2252.000000	100.246976
2251.000000	100.247184
2250.000000	100.247358
2249.000000	100.247365
2248.000000	100.246364
2247.000000	100.244037
2246.000000	100.241314
2245.000000	100.239457
2244.000000	100.238720
2243.000000	100.238434
2242.000000	100.238149
2241.000000	100.238233
2240.000000	100.239334
2239.000000	100.241557
2238.000000	100.244147
2237.000000	100.245876
2236.000000	100.245995
2235.000000	100.244828
2234.000000	100.243388
2233.000000	100.242219
2232.000000	100.240873
2231.000000	100.238777
2230.000000	100.236277
2229.000000	100.234546
2228.000000	100.234379
2227.000000	100.235444
2226.000000	100.236604
2225.000000	100.236951
2224.000000	100.236516
2223.000000	100.235926
2222.000000	100.235649
2221.000000	100.235625
2220.000000	100.235568
2219.000000	100.235451
2218.000000	100.235535
2217.000000	100.235954
2216.000000	100.236432
2215.000000	100.236504
2214.000000	100.235952
2213.000000	100.234972
2212.000000	100.234046
2211.000000	100.233668
2210.000000	100.234034
2209.000000	100.234873
2208.000000	100.235633
2207.000000	100.236025
2206.000000	100.236284
2205.000000	100.236741
2204.000000	100.237228
2203.000000	100.237213
2202.000000	100.236546
2201.000000	100.235796
2200.000000	100.235701
2199.000000	100.236510
2198.000000	100.237984
2197.000000	100.239708
2196.000000	100.241207
2195.000000	100.241915
2194.000000	100.241408
2193.000000	100.239820
2192.000000	100.237943
2191.000000	100.236651
2190.000000	100.236268
2189.000000	100.236548
2188.000000	100.237213
2187.000000	100.238346
2186.000000	100.240159
2185.000000	100.242441
2184.000000	100.244508
2183.000000	100.245838
2182.000000	100.246618
2181.000000	100.247514
2180.000000	100.248853
2179.000000	100.250198
2178.000000	100.250860
2177.000000	100.250598
2176.000000	100.249697
2175.000000	100.248616
2174.000000	100.247828
2173.000000	100.247852
2172.000000	100.248908
2171.000000	100.250434
2170.000000	100.251292
2169.000000	100.250758
2168.000000	100.249077
2167.000000	100.247003
2166.000000	100.245086
2165.000000	100.243712
2164.000000	100.243525
2163.000000	100.245121
2162.000000	100.248258
2161.000000	100.251602
2160.000000	100.253695
2159.000000	100.254057
2158.000000	100.253126
2157.000000	100.251589
2156.000000	100.249958
2155.000000	100.248598
2154.000000	100.247726
2153.000000	100.247303
2152.000000	100.247156
2151.000000	100.247275
2150.000000	100.247808
2149.000000	100.248721
2148.000000	100.249665
2147.000000	100.250273
2146.000000	100.250501
2145.000000	100.250633
2144.000000	100.251042
2143.000000	100.251881
2142.000000	100.252866
2141.000000	100.253434
2140.000000	100.253308
2139.000000	100.252908
2138.000000	100.253021
2137.000000	100.253996
2136.000000	100.255434
2135.000000	100.256650
2134.000000	100.257315
2133.000000	100.257567
2132.000000	100.257679
2131.000000	100.257799
2130.000000	100.257975
2129.000000	100.258266
2128.000000	100.258724
2127.000000	100.259343
2126.000000	100.260105
2125.000000	100.260993
2124.000000	100.261871
2123.000000	100.262421
2122.000000	100.262323
2121.000000	100.261587
2120.000000	100.260705
2119.000000	100.260331
2118.000000	100.260754
2117.000000	100.261755
2116.000000	100.262863
2115.000000	100.263754
2114.000000	100.264383
2113.000000	100.264863
2112.000000	100.265294
2111.000000	100.265623
2110.000000	100.265633
2109.000000	100.265193
2108.000000	100.264580
2107.000000	100.264406
2106.000000	100.264982
2105.000000	100.265844
2104.000000	100.266160
2103.000000	100.265710
2102.000000	100.265165
2101.000000	100.265284
2100.000000	100.266126
2099.000000	100.267200
2098.000000	100.268118
2097.000000	100.268910
2096.000000	100.269872
2095.000000	100.271319
2094.000000	100.273304
2093.000000	100.275382
2092.000000	100.276774
2091.000000	100.276942
2090.000000	100.275926
2089.000000	100.274088
2088.000000	100.271836
2087.000000	100.269735
2086.000000	100.268562
2085.000000	100.268797
2084.000000	100.270106
2083.000000	100.271529
2082.000000	100.272330
2081.000000	100.272471
2080.000000	100.272296
2079.000000	100.272047
2078.000000	100.271755
2077.000000	100.271335
2076.000000	100.270624
2075.000000	100.269470
2074.000000	100.268029
2073.000000	100.266980
2072.000000	100.267181
2071.000000	100.268994
2070.000000	100.271863
2069.000000	100.274477
2068.000000	100.275746
2067.000000	100.275625
2066.000000	100.275003
2065.000000	100.274754
2064.000000	100.274804
2063.000000	100.274398
2062.000000	100.273122
2061.000000	100.271393
2060.000000	100.270012
2059.000000	100.269386
2058.000000	100.269292
2057.000000	100.269278
2056.000000	100.269163
2055.000000	100.269125
2054.000000	100.269322
2053.000000	100.269536
2052.000000	100.269279
2051.000000	100.268279
2050.000000	100.266766
2049.000000	100.265298
2048.000000	100.264339
2047.000000	100.264044
2046.000000	100.264347
2045.000000	100.265128
2044.000000	100.266221
2043.000000	100.267319
2042.000000	100.268012
2041.000000	100.268043
2040.000000	100.267563
2039.000000	100.267033
2038.000000	100.266738
2037.000000	100.266464
2036.000000	100.265887
2035.000000	100.265243
2034.000000	100.265260
2033.000000	100.266262
2032.000000	100.267556
2031.000000	100.268010
2030.000000	100.267216
2029.000000	100.265725
2028.000000	100.264428
2027.000000	100.263703
2026.000000	100.263380
2025.000000	100.263176
2024.000000	100.262869
2023.000000	100.262332
2022.000000	100.261683
2021.000000	100.261303
2020.000000	100.261411
2019.000000	100.261691
2018.000000	100.261590
2017.000000	100.260993
2016.000000	100.260307
2015.000000	100.259831
2014.000000	100.259371
2013.000000	100.258650
2012.000000	100.257818
2011.000000	100.257325
2010.000000	100.257408
2009.000000	100.257877
2008.000000	100.258322
2007.000000	100.258495
2006.000000	100.258520
2005.000000	100.258772
2004.000000	100.259496
2003.000000	100.260518
2002.000000	100.261357
2001.000000	100.261657
2000.000000	100.261470
1999.000000	100.261144
1998.000000	100.261053
1997.000000	100.261408
1996.000000	100.262182
1995.000000	100.263022
1994.000000	100.263379
1993.000000	100.262940
1992.000000	100.261937
1991.000000	100.260966
1990.000000	100.260402
1989.000000	100.260233
1988.000000	100.260424
1987.000000	100.261061
1986.000000	100.262124
1985.000000	100.263362
1984.000000	100.264398
1983.000000	100.264982
1982.000000	100.265096
1981.000000	100.264939
1980.000000	100.264867
1979.000000	100.265125
1978.000000	100.265628
1977.000000	100.266076
1976.000000	100.266350
1975.000000	100.266636
1974.000000	100.267042
1973.000000	100.267331
1972.000000	100.267280
1971.000000	100.267126
1970.000000	100.267341
1969.000000	100.268016
1968.000000	100.268768
1967.000000	100.269265
1966.000000	100.269604
1965.000000	100.269960
1964.000000	100.270176
1963.000000	100.270003
1962.000000	100.269560
1961.000000	100.269286
1960.000000	100.269440
1959.000000	100.269880
1958.000000	100.270375
1957.000000	100.270894
1956.000000	100.271490
1955.000000	100.271991
1954.000000	100.272048
1953.000000	100.271554
1952.000000	100.270817
1951.000000	100.270231
1950.000000	100.269881
1949.000000	100.269585
1948.000000	100.269262
1947.000000	100.269001
1946.000000	100.268750
1945.000000	100.268226
1944.000000	100.267414
1943.000000	100.266983
1942.000000	100.267722
1941.000000	100.269577
1940.000000	100.271644
1939.000000	100.273045
1938.000000	100.273414
1937.000000	100.272717
1936.000000	100.271101
1935.000000	100.268932
1934.000000	100.266699
1933.000000	100.264755
1932.000000	100.263183
1931.000000	100.262007
1930.000000	100.261421
1929.000000	100.261685
1928.000000	100.262784
1927.000000	100.264230
1926.000000	100.265211
1925.000000	100.265019
1924.000000	100.263529
1923.000000	100.261389
1922.000000	100.259554
1921.000000	100.258394
1920.000000	100.257683
1919.000000	100.257258
1918.000000	100.257244
1917.000000	100.257461
1916.000000	100.257182
1915.000000	100.255899
1914.000000	100.253800
1913.000000	100.251457
1912.000000	100.249265
1911.000000	100.247368
1910.000000	100.245960
1909.000000	100.245218
1908.000000	100.244918
1907.000000	100.244544
1906.000000	100.243845
1905.000000	100.242931
1904.000000	100.242016
1903.000000	100.241263
1902.000000	100.240753
1901.000000	100.240250
1900.000000	100.239207
1899.000000	100.237413
1898.000000	100.235504
1897.000000	100.234375
1896.000000	100.234129
1895.000000	100.233951
1894.000000	100.233104
1893.000000	100.231561
1892.000000	100.229601
1891.000000	100.227418
1890.000000	100.225432
1889.000000	100.224327
1888.000000	100.224185
1887.000000	100.224211
1886.000000	100.223458
1885.000000	100.221562
1884.000000	100.218990
1883.000000	100.216749
1882.000000	100.215701
1881.000000	100.215900
1880.000000	100.216634
1879.000000	100.217167
1878.000000	100.217288
1877.000000	100.217126
1876.000000	100.216789
1875.000000	100.216444
1874.000000	100.216420
1873.000000	100.216785
1872.000000	100.217018
1871.000000	100.216594
1870.000000	100.215983
1869.000000	100.216396
1868.000000	100.217916
1867.000000	100.219112
1866.000000	100.219092
1865.000000	100.218296
1864.000000	100.217605
1863.000000	100.217735
1862.000000	100.219169
1861.000000	100.221925
1860.000000	100.225179
1859.000000	100.227643
1858.000000	100.228602
1857.000000	100.228314
1856.000000	100.227623
1855.000000	100.227495
1854.000000	100.228645
1853.000000	100.231034
1852.000000	100.233814
1851.000000	100.236150
1850.000000	100.238065
1849.000000	100.239988
1848.000000	100.241665
1847.000000	100.242078
1846.000000	100.240597
1845.000000	100.238103
1844.000000	100.236733
1843.000000	100.237730
1842.000000	100.240657
1841.000000	100.244560
1840.000000	100.248777
1839.000000	100.252838
1838.000000	100.256158
1837.000000	100.258124
1836.000000	100.258598
1835.000000	100.258166
1834.000000	100.257604
1833.000000	100.257048
1832.000000	100.256119
1831.000000	100.254970
1830.000000	100.254891
1829.000000	100.256621
1828.000000	100.258902
1827.000000	100.260068
1826.000000	100.259825
1825.000000	100.259260
1824.000000	100.259242
1823.000000	100.259305
1822.000000	100.258862
1821.000000	100.258254
1820.000000	100.258113
1819.000000	100.258389
1818.000000	100.258740
1817.000000	100.259371
1816.000000	100.260513
1815.000000	100.261384
1814.000000	100.260806
1813.000000	100.258810
1812.000000	100.256876
1811.000000	100.256548
1810.000000	100.258081
1809.000000	100.260570
1808.000000	100.262597
1807.000000	100.263079
1806.000000	100.262003
1805.000000	100.260205
1804.000000	100.258353
1803.000000	100.256435
1802.000000	100.254386
1801.000000	100.252776
1800.000000	100.252040
1799.000000	100.251903
1798.000000	100.252401
1797.000000	100.254122
1796.000000	100.256943
1795.000000	100.259700
1794.000000	100.261416
1793.000000	100.262366
1792.000000	100.263432
1791.000000	100.264581
1790.000000	100.265273
1789.000000	100.265452
1788.000000	100.265061
1787.000000	100.263847
1786.000000	100.262070
1785.000000	100.260799
1784.000000	100.260799
1783.000000	100.261775
1782.000000	100.263129
1781.000000	100.264860
1780.000000	100.266986
1779.000000	100.268890
1778.000000	100.269985
1777.000000	100.270414
1776.000000	100.270524
1775.000000	100.270168
1774.000000	100.269047
1773.000000	100.267859
1772.000000	100.268235
1771.000000	100.270412
1770.000000	100.272697
1769.000000	100.273726
1768.000000	100.273581
1767.000000	100.273117
1766.000000	100.272938
1765.000000	100.273080
1764.000000	100.273407
1763.000000	100.273869
1762.000000	100.274388
1761.000000	100.274801
1760.000000	100.275005
1759.000000	100.274949
1758.000000	100.274531
1757.000000	100.273895
1756.000000	100.273399
1755.000000	100.272976
1754.000000	100.272054
1753.000000	100.270259
1752.000000	100.268122
1751.000000	100.266854
1750.000000	100.266836
1749.000000	100.267229
1748.000000	100.267345
1747.000000	100.267255
1746.000000	100.267063
1745.000000	100.266626
1744.000000	100.266004
1743.000000	100.265537
1742.000000	100.265168
1741.000000	100.264344
1740.000000	100.262881
1739.000000	100.261370
1738.000000	100.260299
1737.000000	100.259371
1736.000000	100.257857
1735.000000	100.255379
1734.000000	100.252672
1733.000000	100.250814
1732.000000	100.249866
1731.000000	100.249395
1730.000000	100.248885
1729.000000	100.247966
1728.000000	100.246575
1727.000000	100.244912
1726.000000	100.243149
1725.000000	100.241285
1724.000000	100.239250
1723.000000	100.237146
1722.000000	100.235217
1721.000000	100.233600
1720.000000	100.232169
1719.000000	100.230663
1718.000000	100.228942
1717.000000	100.227047
1716.000000	100.224837
1715.000000	100.222165
1714.000000	100.219235
1713.000000	100.216371
1712.000000	100.213695
1711.000000	100.211137
1710.000000	100.208687
1709.000000	100.206545
1708.000000	100.204828
1707.000000	100.203117
1706.000000	100.200725
1705.000000	100.197419
1704.000000	100.193543
1703.000000	100.189372
1702.000000	100.184900
1701.000000	100.180599
1700.000000	100.177632
1699.000000	100.176032
1698.000000	100.174948
1697.000000	100.173780
1696.000000	100.171750
1695.000000	100.168069
1694.000000	100.163219
1693.000000	100.158492
1692.000000	100.154231
1691.000000	100.150112
1690.000000	100.145872
1689.000000	100.141665
1688.000000	100.137871
1687.000000	100.134567
1686.000000	100.131427
1685.000000	100.128017
1684.000000	100.124468
1683.000000	100.120715
1682.000000	100.116340
1681.000000	100.111489
1680.000000	100.106751
1679.000000	100.102919
1678.000000	100.100268
1677.000000	100.098339
1676.000000	100.096449
1675.000000	100.094209
1674.000000	100.091427
1673.000000	100.088201
1672.000000	100.084642
1671.000000	100.080557
1670.000000	100.075734
1669.000000	100.070161
1668.000000	100.064388
1667.000000	100.059638
1666.000000	100.056538
1665.000000	100.054623
1664.000000	100.053010
1663.000000	100.051248
1662.000000	100.049145
1661.000000	100.046099
1660.000000	100.041572
1659.000000	100.036074
1658.000000	100.031188
1657.000000	100.028166
1656.000000	100.026303
1655.000000	100.023252
1654.000000	100.017785
1653.000000	100.013356
1652.000000	100.010810
1651.000000	100.008938
1650.000000	100.006927
1649.000000	100.001640
1648.000000	99.993067
1647.000000	99.987066
1646.000000	99.987521
1645.000000	99.990207
1644.000000	99.991299
1643.000000	99.991056
1642.000000	99.990492
1641.000000	99.990058
1640.000000	99.989384
1639.000000	99.987939
1638.000000	99.985986
1637.000000	99.984940
1636.000000	99.986483
1635.000000	99.988960
1634.000000	99.988972
1633.000000	99.987540
1632.000000	99.987012
1631.000000	99.988120
1630.000000	99.990179
1629.000000	99.991732
1628.000000	99.992118
1627.000000	99.992257
1626.000000	99.992903
1625.000000	99.993276
1624.000000	99.992317
1623.000000	99.990872
1622.000000	99.990623
1621.000000	99.991458
1620.000000	99.992172
1619.000000	99.992170
1618.000000	99.992476
1617.000000	99.994944
1616.000000	99.999360
1615.000000	100.003652
1614.000000	100.006635
1613.000000	100.007678
1612.000000	100.006792
1611.000000	100.005397
1610.000000	100.005501
1609.000000	100.007782
1608.000000	100.011445
1607.000000	100.015735
1606.000000	100.020234
1605.000000	100.024468
1604.000000	100.028138
1603.000000	100.031263
1602.000000	100.033853
1601.000000	100.035713
1600.000000	100.037205
1599.000000	100.039099
1598.000000	100.041549
1597.000000	100.043874
1596.000000	100.045574
1595.000000	100.047025
1594.000000	100.048935
1593.000000	100.051359
1592.000000	100.053830
1591.000000	100.056062
1590.000000	100.058139
1589.000000	100.060210
1588.000000	100.062295
1587.000000	100.064341
1586.000000	100.066329
1585.000000	100.068299
1584.000000	100.070298
1583.000000	100.072337
1582.000000	100.074390
1581.000000	100.076444
1580.000000	100.078497
1579.000000	100.080544
1578.000000	100.082583
1577.000000	100.084610
1576.000000	100.086619
1575.000000	100.088610
1574.000000	100.090588
1573.000000	100.092550
1572.000000	100.094489
1571.000000	100.096397
1570.000000	100.098273
1569.000000	100.100116
1568.000000	100.101916
1567.000000	100.103667
1566.000000	100.105378
1565.000000	100.107066
1564.000000	100.108741
1563.000000	100.110398
1562.000000	100.112026
1561.000000	100.113619
1560.000000	100.115184
1559.000000	100.116759
1558.000000	100.118382
1557.000000	100.120049
1556.000000	100.121758
1555.000000	100.123518
1554.000000	100.125328
1553.000000	100.127166
1552.000000	100.128998
1551.000000	100.130806
1550.000000	100.132600
1549.000000	100.134411
1548.000000	100.136266
1547.000000	100.138173
1546.000000	100.140137
1545.000000	100.142161
1544.000000	100.144233
1543.000000	100.146318
1542.000000	100.148373
1541.000000	100.150377
1540.000000	100.152348
1539.000000	100.154314
1538.000000	100.156286
1537.000000	100.158263
1536.000000	100.160240
1535.000000	100.162219
1534.000000	100.164205
1533.000000	100.166202
1532.000000	100.168199
1531.000000	100.170195
1530.000000	100.172201
1529.000000	100.174227
1528.000000	100.176276
1527.000000	100.178336
1526.000000	100.180401
1525.000000	100.182506
1524.000000	100.184693
1523.000000	100.186911
1522.000000	100.189062
1521.000000	100.191214
1520.000000	100.193533
1519.000000	100.196025
1518.000000	100.198498
1517.000000	100.200806
1516.000000	100.203094
1515.000000	100.205564
1514.000000	100.208162
1513.000000	100.210660
1512.000000	100.212817
1511.000000	100.214629
1510.000000	100.216393
1509.000000	100.218527
1508.000000	100.221364
1507.000000	100.225204
1506.000000	100.228848
1505.000000	100.230968
1504.000000	100.233335
1503.000000	100.236271
1502.000000	100.238278
1501.000000	100.239062
1500.000000	100.240274
1499.000000	100.243226
1498.000000	100.246599
1497.000000	100.248045
1496.000000	100.247240
1495.000000	100.246238
1494.000000	100.247039
1493.000000	100.249904
1492.000000	100.253566
1491.000000	100.256352
1490.000000	100.257838
1489.000000	100.259234
1488.000000	100.260483
1487.000000	100.259967
1486.000000	100.257832
1485.000000	100.256385
1484.000000	100.257500
1483.000000	100.260752
1482.000000	100.264166
1481.000000	100.266449
1480.000000	100.268030
1479.000000	100.269752
1478.000000	100.271658
1477.000000	100.273079
1476.000000	100.273129
1475.000000	100.270819
1474.000000	100.266092
1473.000000	100.261221
1472.000000	100.258711
1471.000000	100.257171
1470.000000	100.254467
1469.000000	100.250806
1468.000000	100.247518
1467.000000	100.245860
1466.000000	100.246464
1465.000000	100.248903
1464.000000	100.250891
1463.000000	100.250278
1462.000000	100.247684
1461.000000	100.245117
1460.000000	100.243673
1459.000000	100.242993
1458.000000	100.242188
1457.000000	100.241295
1456.000000	100.240480
1455.000000	100.239619
1454.000000	100.238763
1453.000000	100.237504
1452.000000	100.235558
1451.000000	100.232719
1450.000000	100.228811
1449.000000	100.224465
1448.000000	100.221300
1447.000000	100.220262
1446.000000	100.220645
1445.000000	100.221508
1444.000000	100.222398
1443.000000	100.222748
1442.000000	100.221846
1441.000000	100.219604
1440.000000	100.216818
1439.000000	100.214422
1438.000000	100.212963
1437.000000	100.212865
1436.000000	100.214122
1435.000000	100.215706
1434.000000	100.216737
1433.000000	100.217080
1432.000000	100.216743
1431.000000	100.215702
1430.000000	100.214166
1429.000000	100.212876
1428.000000	100.212654
1427.000000	100.213531
1426.000000	100.214780
1425.000000	100.215894
1424.000000	100.217209
1423.000000	100.219107
1422.000000	100.221028
1421.000000	100.221950
1420.000000	100.221298
1419.000000	100.219625
1418.000000	100.218255
1417.000000	100.217930
1416.000000	100.218825
1415.000000	100.220865
1414.000000	100.223657
1413.000000	100.226604
1412.000000	100.229246
1411.000000	100.231350
1410.000000	100.232776
1409.000000	100.233576
1408.000000	100.234039
1407.000000	100.234407
1406.000000	100.234743
1405.000000	100.235288
1404.000000	100.236597
1403.000000	100.238851
1402.000000	100.241429
1401.000000	100.243429
1400.000000	100.244430
1399.000000	100.244786
1398.000000	100.245046
1397.000000	100.245315
1396.000000	100.245732
1395.000000	100.246951
1394.000000	100.249461
1393.000000	100.252857
1392.000000	100.256359
1391.000000	100.259352
1390.000000	100.261310
1389.000000	100.261873
1388.000000	100.261202
1387.000000	100.260198
1386.000000	100.259835
1385.000000	100.260406
1384.000000	100.261767
1383.000000	100.263687
1382.000000	100.265766
1381.000000	100.267435
1380.000000	100.268317
1379.000000	100.268506
1378.000000	100.268358
1377.000000	100.268019
1376.000000	100.267447
1375.000000	100.266929
1374.000000	100.267147
1373.000000	100.268296
1372.000000	100.269752
1371.000000	100.270899
1370.000000	100.271735
1369.000000	100.272603
1368.000000	100.273642
1367.000000	100.274546
1366.000000	100.274910
1365.000000	100.274633
1364.000000	100.274018
1363.000000	100.273647
1362.000000	100.273900
1361.000000	100.274486
1360.000000	100.274852
1359.000000	100.274834
1358.000000	100.274637
1357.000000	100.274436
1356.000000	100.274115
1355.000000	100.273410
1354.000000	100.272270
1353.000000	100.271045
1352.000000	100.270319
1351.000000	100.270586
1350.000000	100.272002
1349.000000	100.274162
1348.000000	100.276147
1347.000000	100.277068
1346.000000	100.276612
1345.000000	100.275132
1344.000000	100.273332
1343.000000	100.271814
1342.000000	100.270979
1341.000000	100.271176
1340.000000	100.272655
1339.000000	100.275047
1338.000000	100.277133
1337.000000	100.277842
1336.000000	100.277184
1335.000000	100.275950
1334.000000	100.274802
1333.000000	100.273922
1332.000000	100.273458
1331.000000	100.273744
1330.000000	100.274666
1329.000000	100.275184
1328.000000	100.274163
1327.000000	100.271687
1326.000000	100.269207
1325.000000	100.268142
1324.000000	100.268810
1323.000000	100.270718
1322.000000	100.273241
1321.000000	100.275754
1320.000000	100.277471
1319.000000	100.277710
1318.000000	100.276427
1317.000000	100.274223
1316.000000	100.271773
1315.000000	100.269461
1314.000000	100.267583
1313.000000	100.266617
1312.000000	100.266953
1311.000000	100.268278
1310.000000	100.269456
1309.000000	100.269338
1308.000000	100.267732
1307.000000	100.265390
1306.000000	100.263043
1305.000000	100.260812
1304.000000	100.259009
1303.000000	100.258720
1302.000000	100.260609
1301.000000	100.263314
1300.000000	100.264128
1299.000000	100.261654
1298.000000	100.257050
1297.000000	100.252506
1296.000000	100.249027
1295.000000	100.246448
1294.000000	100.244847
1293.000000	100.244710
1292.000000	100.245626
1291.000000	100.245658
1290.000000	100.242662
1289.000000	100.236182
1288.000000	100.228005
1287.000000	100.220615
1286.000000	100.214843
1285.000000	100.209514
1284.000000	100.203684
1283.000000	100.198591
1282.000000	100.196353
1281.000000	100.196766
1280.000000	100.196789
1279.000000	100.193996
1278.000000	100.189295
1277.000000	100.184994
1276.000000	100.181208
1275.000000	100.176323
1274.000000	100.170628
1273.000000	100.166831
1272.000000	100.166087
1271.000000	100.165628
1270.000000	100.162167
1269.000000	100.156457
1268.000000	100.152293
1267.000000	100.151133
1266.000000	100.149510
1265.000000	100.142744
1264.000000	100.130359
1263.000000	100.117085
1262.000000	100.108561
1261.000000	100.106154
1260.000000	100.106114
1259.000000	100.103681
1258.000000	100.097305
1257.000000	100.088222
1256.000000	100.077101
1255.000000	100.063455
1254.000000	100.048665
1253.000000	100.037029
1252.000000	100.031911
1251.000000	100.032139
1250.000000	100.033832
1249.000000	100.034327
1248.000000	100.031951
1247.000000	100.023584
1246.000000	100.006653
1245.000000	99.984207
1244.000000	99.964540
1243.000000	99.953693
1242.000000	99.950179
1241.000000	99.948298
1240.000000	99.944107
1239.000000	99.936304
1238.000000	99.923943
1237.000000	99.906332
1236.000000	99.884460
1235.000000	99.860711
1234.000000	99.837858
1233.000000	99.819345
1232.000000	99.808414
1231.000000	99.804421
1230.000000	99.801508
1229.000000	99.794039
1228.000000	99.782389
1227.000000	99.770481
1226.000000	99.758562
1225.000000	99.742169
1224.000000	99.718752
1223.000000	99.691755
1222.000000	99.666356
1221.000000	99.642950
1220.000000	99.616633
1219.000000	99.582449
1218.000000	99.540400
1217.000000	99.496056
1216.000000	99.456536
1215.000000	99.424902
1214.000000	99.397977
1213.000000	99.369896
1212.000000	99.337058
1211.000000	99.298992
1210.000000	99.256307
1209.000000	99.210203
1208.000000	99.163382
1207.000000	99.119034
1206.000000	99.078747
1205.000000	99.042524
1204.000000	99.009547
1203.000000	98.977072
1202.000000	98.940626
1201.000000	98.898449
1200.000000	98.854420
1199.000000	98.813326
1198.000000	98.774364
1197.000000	98.733049
1196.000000	98.688352
1195.000000	98.643638
1194.000000	98.601059
1193.000000	98.559602
1192.000000	98.518944
1191.000000	98.480332
1190.000000	98.442160
1189.000000	98.399075
1188.000000	98.347916
1187.000000	98.291763
1186.000000	98.236452
1185.000000	98.185722
1184.000000	98.141007
1183.000000	98.102313
1182.000000	98.066629
1181.000000	98.027964
1180.000000	97.981521
1179.000000	97.926670
1178.000000	97.864957
1177.000000	97.797502
1176.000000	97.726134
1175.000000	97.655080
1174.000000	97.589347
1173.000000	97.531974
1172.000000	97.483216
1171.000000	97.440575
1170.000000	97.399124
1169.000000	97.353848
1168.000000	97.302388
1167.000000	97.244688
1166.000000	97.182138
1165.000000	97.120758
1164.000000	97.073643
1163.000000	97.054230
1162.000000	97.065002
1161.000000	97.094707
1160.000000	97.126597
1159.000000	97.147066
1158.000000	97.147782
1157.000000	97.125965
1156.000000	97.085408
1155.000000	97.034256
1154.000000	96.979871
1153.000000	96.927258
1152.000000	96.880904
1151.000000	96.842534
1150.000000	96.806336
1149.000000	96.762373
1148.000000	96.706830
1147.000000	96.644500
1146.000000	96.580154
1145.000000	96.513264
1144.000000	96.444211
1143.000000	96.379924
1142.000000	96.328487
1141.000000	96.291105
1140.000000	96.262438
1139.000000	96.235292
1138.000000	96.202149
1137.000000	96.156185
1136.000000	96.095437
1135.000000	96.024977
1134.000000	95.952616
1133.000000	95.883965
1132.000000	95.823009
1131.000000	95.773533
1130.000000	95.736214
1129.000000	95.705864
1128.000000	95.674000
1127.000000	95.633593
1126.000000	95.581320
1125.000000	95.518026
1124.000000	95.448576
1123.000000	95.379179
1122.000000	95.313393
1121.000000	95.252134
1120.000000	95.197478
1119.000000	95.152909
1118.000000	95.118488
1117.000000	95.088752
1116.000000	95.056905
1115.000000	95.018797
1114.000000	94.971998
1113.000000	94.915076
1112.000000	94.850700
1111.000000	94.786901
1110.000000	94.731942
1109.000000	94.689065
1108.000000	94.657178
1107.000000	94.632322
1106.000000	94.606081
1105.000000	94.567537
1104.000000	94.511453
1103.000000	94.442630
1102.000000	94.370298
1101.000000	94.301451
1100.000000	94.241845
1099.000000	94.197633
1098.000000	94.171778
1097.000000	94.160610
1096.000000	94.156154
1095.000000	94.148223
1094.000000	94.123974
1093.000000	94.073382
1092.000000	94.000527
1091.000000	93.925450
1090.000000	93.869293
1089.000000	93.838785
1088.000000	93.826826
1087.000000	93.823093
1086.000000	93.820101
1085.000000	93.812278
1084.000000	93.793826
1083.000000	93.758694
1082.000000	93.704253
1081.000000	93.637581
1080.000000	93.575563
1079.000000	93.532171
1078.000000	93.505277
1077.000000	93.482583
1076.000000	93.460007
1075.000000	93.444498
1074.000000	93.436213
1073.000000	93.418220
1072.000000	93.370593
1071.000000	93.288879
1070.000000	93.184670
1069.000000	93.073359
1068.000000	92.965483
1067.000000	92.864734
1066.000000	92.768179
1065.000000	92.670636
1064.000000	92.571743
1063.000000	92.475692
1062.000000	92.382987
1061.000000	92.287785
1060.000000	92.185019
1059.000000	92.074566
1058.000000	91.958070
1057.000000	91.839518
1056.000000	91.730562
1055.000000	91.645282
1054.000000	91.583176
1053.000000	91.523496
1052.000000	91.442508
1051.000000	91.332206
1050.000000	91.198965
1049.000000	91.051870
1048.000000	90.899572
1047.000000	90.752492
1046.000000	90.619837
1045.000000	90.505842
1044.000000	90.409656
1043.000000	90.323197
1042.000000	90.229426
1041.000000	90.112505
1040.000000	89.973853
1039.000000	89.831606
1038.000000	89.701595
1037.000000	89.585909
1036.000000	89.481518
1035.000000	89.390209
1034.000000	89.315169
1033.000000	89.255147
1032.000000	89.206923
1031.000000	89.168561
1030.000000	89.137703
1029.000000	89.111317
1028.000000	89.087350
1027.000000	89.061931
1026.000000	89.028102
1025.000000	88.985810
1024.000000	88.950222
1023.000000	88.938502
1022.000000	88.948350
1021.000000	88.960322
1020.000000	88.961766
1019.000000	88.956496
1018.000000	88.949233
1017.000000	88.933936
1016.000000	88.903600
1015.000000	88.862823
1014.000000	88.825055
1013.000000	88.802372
1012.000000	88.799463
1011.000000	88.811116
1010.000000	88.824864
1009.000000	88.832624
1008.000000	88.838401
1007.000000	88.847493
1006.000000	88.852705
1005.000000	88.843722
1004.000000	88.828665
1003.000000	88.832431
1002.000000	88.871434
1001.000000	88.940406
1000.000000	89.023698
999.000000	89.106752
998.000000	89.174938
997.000000	89.216012
996.000000	89.231729
995.000000	89.239409
994.000000	89.257453
993.000000	89.295339
992.000000	89.357791
991.000000	89.446952
990.000000	89.555238
989.000000	89.664547
988.000000	89.758170
987.000000	89.829674
986.000000	89.880868
985.000000	89.919795
984.000000	89.961870
983.000000	90.023139
982.000000	90.107774
981.000000	90.208032
980.000000	90.317618
979.000000	90.436905
978.000000	90.563697
977.000000	90.689289
976.000000	90.808995
975.000000	90.929388
974.000000	91.059560
973.000000	91.199379
972.000000	91.339729
971.000000	91.471018
970.000000	91.589937
969.000000	91.701549
968.000000	91.815931
967.000000	91.939900
966.000000	92.071951
965.000000	92.207298
964.000000	92.344195
963.000000	92.480230
962.000000	92.607173
961.000000	92.718620
960.000000	92.820917
959.000000	92.927241
958.000000	93.040783
957.000000	93.152561
956.000000	93.256464
955.000000	93.356448
954.000000	93.455957
953.000000	93.549125
952.000000	93.627114
951.000000	93.687166
950.000000	93.732159
949.000000	93.767184
948.000000	93.801496
947.000000	93.848576
946.000000	93.916699
945.000000	93.999769
944.000000	94.081009
943.000000	94.145651
942.000000	94.189790
941.000000	94.219756
940.000000	94.245090
939.000000	94.271429
938.000000	94.299310
937.000000	94.329272
936.000000	94.364886
935.000000	94.407324
934.000000	94.449543
933.000000	94.481826
932.000000	94.503554
931.000000	94.525039
930.000000	94.557062
929.000000	94.602094
928.000000	94.655438
927.000000	94.709271
926.000000	94.753955
925.000000	94.781405
924.000000	94.792570
923.000000	94.800867
922.000000	94.824301
921.000000	94.871235
920.000000	94.932368
919.000000	94.986685
918.000000	95.018245
917.000000	95.028309
916.000000	95.029040
915.000000	95.027323
914.000000	95.022413
913.000000	95.021534
912.000000	95.046731
911.000000	95.114931
910.000000	95.214847
909.000000	95.314684
908.000000	95.395676
907.000000	95.467472
906.000000	95.547590
905.000000	95.638301
904.000000	95.730287
903.000000	95.820589
902.000000	95.917119
901.000000	96.026592
900.000000	96.144616
899.000000	96.259243
898.000000	96.360822
897.000000	96.445519
896.000000	96.512121
895.000000	96.561075
894.000000	96.599126
893.000000	96.640872
892.000000	96.699037
891.000000	96.772150
890.000000	96.847120
889.000000	96.917003
888.000000	96.990825
887.000000	97.080403
886.000000	97.181635
885.000000	97.276327
884.000000	97.351728
883.000000	97.410454
882.000000	97.459657
881.000000	97.498831
880.000000	97.525925
879.000000	97.551811
878.000000	97.598053
877.000000	97.675471
876.000000	97.769310
875.000000	97.851018
874.000000	97.905160
873.000000	97.939859
872.000000	97.970412
871.000000	98.000434
870.000000	98.026152
869.000000	98.054534
868.000000	98.104920
867.000000	98.187942
866.000000	98.289174
865.000000	98.380283
864.000000	98.444675
863.000000	98.485555
862.000000	98.511218
861.000000	98.522177
860.000000	98.519005
859.000000	98.517789
858.000000	98.546711
857.000000	98.621520
856.000000	98.726927
855.000000	98.826407
854.000000	98.891453
853.000000	98.917818
852.000000	98.914453
851.000000	98.887198
850.000000	98.843004
849.000000	98.804771
848.000000	98.805955
847.000000	98.863145
846.000000	98.959332
845.000000	99.059213
844.000000	99.136153
843.000000	99.177908
842.000000	99.175363
841.000000	99.122440
840.000000	99.031242
839.000000	98.937425
838.000000	98.880354
837.000000	98.875778
836.000000	98.908779
835.000000	98.950999
834.000000	98.983061
833.000000	99.001829
832.000000	99.009393
831.000000	99.000675
830.000000	98.967411
829.000000	98.913404
828.000000	98.858260
827.000000	98.822237
826.000000	98.812864
825.000000	98.830124
824.000000	98.874883
823.000000	98.939684
822.000000	98.997652
821.000000	99.017429
820.000000	98.989237
819.000000	98.925932
818.000000	98.841784
817.000000	98.743069
816.000000	98.641290
815.000000	98.561292
814.000000	98.522841
813.000000	98.515714
812.000000	98.502015
811.000000	98.444250
810.000000	98.325734
809.000000	98.144309
808.000000	97.897886
807.000000	97.588465
806.000000	97.240591
805.000000	96.904746
804.000000	96.631995
803.000000	96.442132
802.000000	96.315361
801.000000	96.212729
800.000000	96.103297
799.000000	95.974671
798.000000	95.830014
797.000000	95.688125
796.000000	95.584443
795.000000	95.557327
794.000000	95.621861
793.000000	95.754247
792.000000	95.902067
791.000000	96.013059
790.000000	96.061170
789.000000	96.050990
788.000000	96.000922
787.000000	95.926493
786.000000	95.841431
785.000000	95.765982
784.000000	95.718756
783.000000	95.695075
782.000000	95.663930
781.000000	95.597840
780.000000	95.502757
779.000000	95.411012
778.000000	95.350359
777.000000	95.329562
776.000000	95.348729
775.000000	95.408445
774.000000	95.505040
773.000000	95.625948
772.000000	95.754392
771.000000	95.875622
770.000000	95.979590
769.000000	96.062757
768.000000	96.127172
767.000000	96.175153
766.000000	96.207283
765.000000	96.227992
764.000000	96.247298
763.000000	96.271230
762.000000	96.296277
761.000000	96.321355
760.000000	96.359429
759.000000	96.424864
758.000000	96.510242
757.000000	96.587424
756.000000	96.634306
755.000000	96.652431
754.000000	96.657911
753.000000	96.665507
752.000000	96.685692
751.000000	96.727580
750.000000	96.794851
749.000000	96.879831
748.000000	96.966309
747.000000	97.039343
746.000000	97.092515
745.000000	97.127830
744.000000	97.150946
743.000000	97.167407
742.000000	97.184320
741.000000	97.213882
740.000000	97.268658
739.000000	97.348814
738.000000	97.436489
737.000000	97.507862
736.000000	97.550836
735.000000	97.568994
734.000000	97.573127
733.000000	97.574257
732.000000	97.582921
731.000000	97.606771
730.000000	97.643668
729.000000	97.680679
728.000000	97.705509
727.000000	97.720274
726.000000	97.742096
725.000000	97.787682
724.000000	97.854797
723.000000	97.919105
722.000000	97.952665
721.000000	97.949438
720.000000	97.932108
719.000000	97.928709
718.000000	97.946167
717.000000	97.975243
716.000000	98.012010
715.000000	98.060326
714.000000	98.114001
713.000000	98.148658
712.000000	98.140189
711.000000	98.090182
710.000000	98.028725
709.000000	97.991503
708.000000	97.996584
707.000000	98.039652
706.000000	98.105220
705.000000	98.176091
704.000000	98.229179
703.000000	98.231109
702.000000	98.155680
701.000000	98.011883
700.000000	97.844216
699.000000	97.696131
698.000000	97.578332
697.000000	97.480549
696.000000	97.404087
695.000000	97.364245
694.000000	97.362536
693.000000	97.374966
692.000000	97.378021
691.000000	97.380422
690.000000	97.416468
689.000000	97.509528
688.000000	97.648918
687.000000	97.802311
686.000000	97.944533
685.000000	98.065703
684.000000	98.156262
683.000000	98.201659
682.000000	98.199778
681.000000	98.174889
680.000000	98.161718
679.000000	98.174552
678.000000	98.201599
677.000000	98.229024
676.000000	98.257058
675.000000	98.287596
674.000000	98.310803
673.000000	98.316144
672.000000	98.308155
671.000000	98.302054
670.000000	98.315360
669.000000	98.369816
668.000000	98.464948
667.000000	98.549568
666.000000	98.602537
665.000000	98.632612
664.000000	98.644387
663.000000	98.644395
662.000000	98.645923
661.000000	98.663522
660.000000	98.704533
659.000000	98.763322
658.000000	98.825070
657.000000	98.878883
656.000000	98.923362
655.000000	98.959372
654.000000	98.983604
653.000000	98.993039
652.000000	98.994422
651.000000	99.006591
650.000000	99.045788
