4000.000000	100.676063
3999.000000	100.676227
3998.000000	100.676334
3997.000000	100.676323
3996.000000	100.676225
3995.000000	100.676062
3994.000000	100.675817
3993.000000	100.675498
3992.000000	100.675189
3991.000000	100.675050
3990.000000	100.675187
3989.000000	100.675528
3988.000000	100.675793
3987.000000	100.675743
3986.000000	100.675369
3985.000000	100.674909
3984.000000	100.674661
3983.000000	100.674736
3982.000000	100.675011
3981.000000	100.675152
3980.000000	100.674939
3979.000000	100.674433
3978.000000	100.673917
3977.000000	100.673607
3976.000000	100.673462
3975.000000	100.673338
3974.000000	100.673278
3973.000000	100.673529
3972.000000	100.674198
3971.000000	100.674919
3970.000000	100.675070
3969.000000	100.674385
3968.000000	100.673101
3967.000000	100.671675
3966.000000	100.670402
3965.000000	100.669412
3964.000000	100.668819
3963.000000	100.668630
3962.000000	100.668539
3961.000000	100.668023
3960.000000	100.666803
3959.000000	100.665174
3958.000000	100.663884
3957.000000	100.663450
3956.000000	100.663767
3955.000000	100.664205
3954.000000	100.664228
3953.000000	100.663879
3952.000000	100.663569
3951.000000	100.663496
3950.000000	100.663319
3949.000000	100.662505
3948.000000	100.660963
3947.000000	100.659182
3946.000000	100.657667
3945.000000	100.656374
3944.000000	100.654958
3943.000000	100.653550
3942.000000	100.652874
3941.000000	100.653360
3940.000000	100.654423
3939.000000	100.654964
3938.000000	100.654598
3937.000000	100.653869
3936.000000	100.653436
3935.000000	100.653309
3934.000000	100.652997
3933.000000	100.652185
3932.000000	100.651080
3931.000000	100.650086
3930.000000	100.649452
3929.000000	100.649128
3928.000000	100.648924
3927.000000	100.648686
3926.000000	100.648383
3925.000000	100.648087
3924.000000	100.647837
3923.000000	100.647624
3922.000000	100.647416
3921.000000	100.647194
3920.000000	100.646967
3919.000000	100.646749
3918.000000	100.646542
3917.000000	100.646333
3916.000000	100.646112
3915.000000	100.645892
3914.000000	100.645698
3913.000000	100.645550
3912.000000	100.645450
3911.000000	100.645386
3910.000000	100.645347
3909.000000	100.645326
3908.000000	100.645312
3907.000000	100.645295
3906.000000	100.645275
3905.000000	100.645260
3904.000000	100.645264
3903.000000	100.645292
3902.000000	100.645342
3901.000000	100.645404
3900.000000	100.645472
3899.000000	100.645555
3898.000000	100.645676
3897.000000	100.645846
3896.000000	100.646057
3895.000000	100.646275
3894.000000	100.646481
3893.000000	100.646687
3892.000000	100.646934
3891.000000	100.647261
3890.000000	100.647683
3889.000000	100.648178
3888.000000	100.648703
3887.000000	100.649234
3886.000000	100.649781
3885.000000	100.650377
3884.000000	100.651034
3883.000000	100.651728
3882.000000	100.652422
3881.000000	100.653098
3880.000000	100.653770
3879.000000	100.654456
3878.000000	100.655158
3877.000000	100.655855
3876.000000	100.656528
3875.000000	100.657182
3874.000000	100.657833
3873.000000	100.658498
3872.000000	100.659172
3871.000000	100.659846
3870.000000	100.660525
3869.000000	100.661222
3868.000000	100.661940
3867.000000	100.662660
3866.000000	100.663370
3865.000000	100.664087
3864.000000	100.664831
3863.000000	100.665596
3862.000000	100.666353
3861.000000	100.667084
3860.000000	100.667791
3859.000000	100.668487
3858.000000	100.669181
3857.000000	100.669874
3856.000000	100.670565
3855.000000	100.671241
3854.000000	100.671889
3853.000000	100.672521
3852.000000	100.673162
3851.000000	100.673812
3850.000000	100.674425
3849.000000	100.674960
3848.000000	100.675403
3847.000000	100.675762
3846.000000	100.676049
3845.000000	100.676269
3844.000000	100.676417
3843.000000	100.676480
3842.000000	100.676458
3841.000000	100.676370
3840.000000	100.676237
3839.000000	100.676071
3838.000000	100.675880
3837.000000	100.675677
3836.000000	100.675479
3835.000000	100.675301
3834.000000	100.675155
3833.000000	100.675047
3832.000000	100.674983
3831.000000	100.674957
3830.000000	100.674954
3829.000000	100.674949
3828.000000	100.674915
3827.000000	100.674833
3826.000000	100.674704
3825.000000	100.674550
3824.000000	100.674396
3823.000000	100.674247
3822.000000	100.674097
3821.000000	100.673948
3820.000000	100.673822
3819.000000	100.673722
3818.000000	100.673626
3817.000000	100.673508
3816.000000	100.673366
3815.000000	100.673213
3814.000000	100.673047
3813.000000	100.672846
3812.000000	100.672600
3811.000000	100.672325
3810.000000	100.672042
3809.000000	100.671751
3808.000000	100.671449
3807.000000	100.671150
3806.000000	100.670875
3805.000000	100.670638
3804.000000	100.670430
3803.000000	100.670245
3802.000000	100.670100
3801.000000	100.670027
3800.000000	100.670038
3799.000000	100.670106
3798.000000	100.670185
3797.000000	100.670265
3796.000000	100.670365
3795.000000	100.670498
3794.000000	100.670642
3793.000000	100.670764
3792.000000	100.670848
3791.000000	100.670907
3790.000000	100.670967
3789.000000	100.671044
3788.000000	100.671133
3787.000000	100.671214
3786.000000	100.671274
3785.000000	100.671332
3784.000000	100.671420
3783.000000	100.671544
3782.000000	100.671670
3781.000000	100.671753
3780.000000	100.671777
3779.000000	100.671750
3778.000000	100.671690
3777.000000	100.671607
3776.000000	100.671513
3775.000000	100.671427
3774.000000	100.671359
3773.000000	100.671293
3772.000000	100.671207
3771.000000	100.671096
3770.000000	100.670972
3769.000000	100.670851
3768.000000	100.670724
3767.000000	100.670568
3766.000000	100.670380
3765.000000	100.670181
3764.000000	100.669997
3763.000000	100.669832
3762.000000	100.669677
3761.000000	100.669511
3760.000000	100.669309
3759.000000	100.669030
3758.000000	100.668647
3757.000000	100.668165
3756.000000	100.667623
3755.000000	100.667052
3754.000000	100.666436
3753.000000	100.665731
3752.000000	100.664904
3751.000000	100.663953
3750.000000	100.662903
3749.000000	100.661761
3748.000000	100.660498
3747.000000	100.659057
3746.000000	100.657390
3745.000000	100.655501
3744.000000	100.653441
3743.000000	100.651263
3742.000000	100.648960
3741.000000	100.646496
3740.000000	100.643872
3739.000000	100.641140
3738.000000	100.638346
3737.000000	100.635499
3736.000000	100.632578
3735.000000	100.629560
3734.000000	100.626426
3733.000000	100.623171
3732.000000	100.619764
3731.000000	100.616217
3730.000000	100.612641
3729.000000	100.609121
3728.000000	100.605600
3727.000000	100.602014
3726.000000	100.598411
3725.000000	100.594866
3724.000000	100.591306
3723.000000	100.587623
3722.000000	100.584014
3721.000000	100.580547
3720.000000	100.576560
3719.000000	100.571168
3718.000000	100.564417
3717.000000	100.557750
3716.000000	100.552672
3715.000000	100.549073
3714.000000	100.545135
3713.000000	100.539035
3712.000000	100.530646
3711.000000	100.521942
3710.000000	100.514941
3709.000000	100.509572
3708.000000	100.504373
3707.000000	100.498497
3706.000000	100.492073
3705.000000	100.485491
3704.000000	100.479211
3703.000000	100.473945
3702.000000	100.470000
3701.000000	100.466703
3700.000000	100.462771
3699.000000	100.457171
3698.000000	100.450097
3697.000000	100.443236
3696.000000	100.438344
3695.000000	100.435263
3694.000000	100.431927
3693.000000	100.426701
3692.000000	100.419850
3691.000000	100.412685
3690.000000	100.406130
3689.000000	100.400466
3688.000000	100.395827
3687.000000	100.391962
3686.000000	100.387591
3685.000000	100.381497
3684.000000	100.373999
3683.000000	100.366449
3682.000000	100.359563
3681.000000	100.352955
3680.000000	100.345988
3679.000000	100.338526
3678.000000	100.330721
3677.000000	100.322741
3676.000000	100.314923
3675.000000	100.307645
3674.000000	100.300847
3673.000000	100.294026
3672.000000	100.286829
3671.000000	100.279401
3670.000000	100.272002
3669.000000	100.264776
3668.000000	100.257672
3667.000000	100.250532
3666.000000	100.243274
3665.000000	100.235945
3664.000000	100.228639
3663.000000	100.221423
3662.000000	100.214290
3661.000000	100.207187
3660.000000	100.200073
3659.000000	100.192948
3658.000000	100.185848
3657.000000	100.178839
3656.000000	100.172035
3655.000000	100.165546
3654.000000	100.159267
3653.000000	100.152743
3652.000000	100.145574
3651.000000	100.137951
3650.000000	100.130741
3649.000000	100.124696
3648.000000	100.119531
3647.000000	100.114067
3646.000000	100.107701
3645.000000	100.100818
3644.000000	100.094155
3643.000000	100.088384
3642.000000	100.083881
3641.000000	100.080400
3640.000000	100.077202
3639.000000	100.074015
3638.000000	100.071530
3637.000000	100.070076
3636.000000	100.067703
3635.000000	100.061468
3634.000000	100.051703
3633.000000	100.043167
3632.000000	100.039631
3631.000000	100.039321
3630.000000	100.037478
3629.000000	100.033540
3628.000000	100.032718
3627.000000	100.036365
3626.000000	100.036566
3625.000000	100.029124
3624.000000	100.022097
3623.000000	100.023303
3622.000000	100.030020
3621.000000	100.033156
3620.000000	100.028079
3619.000000	100.019991
3618.000000	100.017101
3617.000000	100.020959
3616.000000	100.026630
3615.000000	100.030131
3614.000000	100.032281
3613.000000	100.036133
3612.000000	100.043355
3611.000000	100.052851
3610.000000	100.062152
3609.000000	100.069701
3608.000000	100.075663
3607.000000	100.081030
3606.000000	100.086177
3605.000000	100.090863
3604.000000	100.095581
3603.000000	100.101161
3602.000000	100.107227
3601.000000	100.112886
3600.000000	100.117996
3599.000000	100.123002
3598.000000	100.128253
3597.000000	100.134651
3596.000000	100.142933
3595.000000	100.151442
3594.000000	100.157567
3593.000000	100.160886
3592.000000	100.162831
3591.000000	100.164063
3590.000000	100.164035
3589.000000	100.162603
3588.000000	100.161667
3587.000000	100.163627
3586.000000	100.168213
3585.000000	100.172264
3584.000000	100.173583
3583.000000	100.173194
3582.000000	100.172733
3581.000000	100.172769
3580.000000	100.174310
3579.000000	100.178833
3578.000000	100.185905
3577.000000	100.192539
3576.000000	100.196458
3575.000000	100.198546
3574.000000	100.201348
3573.000000	100.205684
3572.000000	100.209704
3571.000000	100.211251
3570.000000	100.210233
3569.000000	100.208617
3568.000000	100.208536
3567.000000	100.210079
3566.000000	100.211622
3565.000000	100.212067
3564.000000	100.211848
3563.000000	100.212154
3562.000000	100.213595
3561.000000	100.215712
3560.000000	100.217647
3559.000000	100.219025
3558.000000	100.220062
3557.000000	100.221070
3556.000000	100.222131
3555.000000	100.223157
3554.000000	100.224125
3553.000000	100.225189
3552.000000	100.226503
3551.000000	100.227961
3550.000000	100.229194
3549.000000	100.229912
3548.000000	100.230133
3547.000000	100.230265
3546.000000	100.230797
3545.000000	100.231810
3544.000000	100.232944
3543.000000	100.233869
3542.000000	100.234763
3541.000000	100.236021
3540.000000	100.237725
3539.000000	100.239520
3538.000000	100.240948
3537.000000	100.241873
3536.000000	100.242529
3535.000000	100.243273
3534.000000	100.244280
3533.000000	100.245550
3532.000000	100.247046
3531.000000	100.248674
3530.000000	100.250190
3529.000000	100.251381
3528.000000	100.252386
3527.000000	100.253638
3526.000000	100.255315
3525.000000	100.257070
3524.000000	100.258575
3523.000000	100.260105
3522.000000	100.262114
3521.000000	100.264428
3520.000000	100.266433
3519.000000	100.268104
3518.000000	100.270240
3517.000000	100.273398
3516.000000	100.276984
3515.000000	100.279734
3514.000000	100.280838
3513.000000	100.280218
3512.000000	100.278310
3511.000000	100.276170
3510.000000	100.275316
3509.000000	100.276609
3508.000000	100.279495
3507.000000	100.282567
3506.000000	100.284940
3505.000000	100.286721
3504.000000	100.288278
3503.000000	100.289760
3502.000000	100.291370
3501.000000	100.293439
3500.000000	100.295943
3499.000000	100.298343
3498.000000	100.300131
3497.000000	100.301333
3496.000000	100.302313
3495.000000	100.303240
3494.000000	100.304038
3493.000000	100.304779
3492.000000	100.305795
3491.000000	100.307308
3490.000000	100.309174
3489.000000	100.311120
3488.000000	100.313134
3487.000000	100.315436
3486.000000	100.317964
3485.000000	100.320137
3484.000000	100.321393
3483.000000	100.321808
3482.000000	100.322029
3481.000000	100.322536
3480.000000	100.323247
3479.000000	100.323978
3478.000000	100.324849
3477.000000	100.326064
3476.000000	100.327553
3475.000000	100.329060
3474.000000	100.330444
3473.000000	100.331735
3472.000000	100.332922
3471.000000	100.333921
3470.000000	100.334778
3469.000000	100.335685
3468.000000	100.336766
3467.000000	100.337962
3466.000000	100.339143
3465.000000	100.340238
3464.000000	100.341261
3463.000000	100.342255
3462.000000	100.343260
3461.000000	100.344297
3460.000000	100.345362
3459.000000	100.346443
3458.000000	100.347529
3457.000000	100.348623
3456.000000	100.349730
3455.000000	100.350853
3454.000000	100.351984
3453.000000	100.353110
3452.000000	100.354220
3451.000000	100.355303
3450.000000	100.356354
3449.000000	100.357373
3448.000000	100.358375
3447.000000	100.359387
3446.000000	100.360427
3445.000000	100.361496
3444.000000	100.362588
3443.000000	100.363705
3442.000000	100.364867
3441.000000	100.366096
3440.000000	100.367394
3439.000000	100.368738
3438.000000	100.370094
3437.000000	100.371438
3436.000000	100.372762
3435.000000	100.374068
3434.000000	100.375364
3433.000000	100.376647
3432.000000	100.377916
3431.000000	100.379176
3430.000000	100.380448
3429.000000	100.381766
3428.000000	100.383150
3427.000000	100.384588
3426.000000	100.386040
3425.000000	100.387466
3424.000000	100.388849
3423.000000	100.390202
3422.000000	100.391550
3421.000000	100.392905
3420.000000	100.394259
3419.000000	100.395588
3418.000000	100.396867
3417.000000	100.398085
3416.000000	100.399246
3415.000000	100.400366
3414.000000	100.401453
3413.000000	100.402507
3412.000000	100.403523
3411.000000	100.404504
3410.000000	100.405463
3409.000000	100.406413
3408.000000	100.407356
3407.000000	100.408289
3406.000000	100.409218
3405.000000	100.410145
3404.000000	100.411060
3403.000000	100.411953
3402.000000	100.412849
3401.000000	100.413779
3400.000000	100.414720
3399.000000	100.415578
3398.000000	100.416261
3397.000000	100.416777
3396.000000	100.417272
3395.000000	100.417884
3394.000000	100.418643
3393.000000	100.419434
3392.000000	100.420096
3391.000000	100.420561
3390.000000	100.420914
3389.000000	100.421299
3388.000000	100.421800
3387.000000	100.422392
3386.000000	100.422947
3385.000000	100.423305
3384.000000	100.423416
3383.000000	100.423373
3382.000000	100.423318
3381.000000	100.423342
3380.000000	100.423423
3379.000000	100.423473
3378.000000	100.423427
3377.000000	100.423308
3376.000000	100.423218
3375.000000	100.423271
3374.000000	100.423463
3373.000000	100.423702
3372.000000	100.423905
3371.000000	100.424068
3370.000000	100.424215
3369.000000	100.424364
3368.000000	100.424523
3367.000000	100.424682
3366.000000	100.424823
3365.000000	100.424941
3364.000000	100.425039
3363.000000	100.425121
3362.000000	100.425182
3361.000000	100.425210
3360.000000	100.425192
3359.000000	100.425115
3358.000000	100.424971
3357.000000	100.424764
3356.000000	100.424511
3355.000000	100.424232
3354.000000	100.423930
3353.000000	100.423587
3352.000000	100.423179
3351.000000	100.422702
3350.000000	100.422176
3349.000000	100.421629
3348.000000	100.421067
3347.000000	100.420481
3346.000000	100.419857
3345.000000	100.419195
3344.000000	100.418501
3343.000000	100.417786
3342.000000	100.417057
3341.000000	100.416326
3340.000000	100.415601
3339.000000	100.414885
3338.000000	100.414181
3337.000000	100.413491
3336.000000	100.412822
3335.000000	100.412173
3334.000000	100.411523
3333.000000	100.410841
3332.000000	100.410098
3331.000000	100.409294
3330.000000	100.408452
3329.000000	100.407603
3328.000000	100.406758
3327.000000	100.405902
3326.000000	100.405019
3325.000000	100.404102
3324.000000	100.403126
3323.000000	100.402079
3322.000000	100.400968
3321.000000	100.399793
3320.000000	100.398585
3319.000000	100.397483
3318.000000	100.396623
3317.000000	100.395904
3316.000000	100.395003
3315.000000	100.393776
3314.000000	100.392523
3313.000000	100.391653
3312.000000	100.391189
3311.000000	100.390834
3310.000000	100.390476
3309.000000	100.390227
3308.000000	100.390004
3307.000000	100.389549
3306.000000	100.388866
3305.000000	100.388239
3304.000000	100.387663
3303.000000	100.386726
3302.000000	100.385375
3301.000000	100.384493
3300.000000	100.385098
3299.000000	100.387155
3298.000000	100.389236
3297.000000	100.389816
3296.000000	100.388646
3295.000000	100.386759
3294.000000	100.385365
3293.000000	100.384832
3292.000000	100.384865
3291.000000	100.385068
3290.000000	100.385029
3289.000000	100.384181
3288.000000	100.382112
3287.000000	100.379041
3286.000000	100.375784
3285.000000	100.373207
3284.000000	100.371753
3283.000000	100.371487
3282.000000	100.372178
3281.000000	100.373171
3280.000000	100.373602
3279.000000	100.373040
3278.000000	100.371753
3277.000000	100.370356
3276.000000	100.369399
3275.000000	100.369246
3274.000000	100.369879
3273.000000	100.370503
3272.000000	100.369895
3271.000000	100.367522
3270.000000	100.363988
3269.000000	100.360391
3268.000000	100.357374
3267.000000	100.355147
3266.000000	100.353928
3265.000000	100.353673
3264.000000	100.353667
3263.000000	100.353176
3262.000000	100.352364
3261.000000	100.351842
3260.000000	100.351526
3259.000000	100.350724
3258.000000	100.349340
3257.000000	100.348141
3256.000000	100.347624
3255.000000	100.347385
3254.000000	100.346824
3253.000000	100.345902
3252.000000	100.344906
3251.000000	100.343934
3250.000000	100.342946
3249.000000	100.341998
3248.000000	100.341156
3247.000000	100.340316
3246.000000	100.339314
3245.000000	100.338134
3244.000000	100.336910
3243.000000	100.335787
3242.000000	100.334820
3241.000000	100.333962
3240.000000	100.333114
3239.000000	100.332192
3238.000000	100.331200
3237.000000	100.330198
3236.000000	100.329254
3235.000000	100.328376
3234.000000	100.327533
3233.000000	100.326690
3232.000000	100.325833
3231.000000	100.324959
3230.000000	100.324076
3229.000000	100.323197
3228.000000	100.322329
3227.000000	100.321470
3226.000000	100.320613
3225.000000	100.319744
3224.000000	100.318842
3223.000000	100.317891
3222.000000	100.316890
3221.000000	100.315855
3220.000000	100.314803
3219.000000	100.313742
3218.000000	100.312681
3217.000000	100.311630
3216.000000	100.310599
3215.000000	100.309589
3214.000000	100.308587
3213.000000	100.307585
3212.000000	100.306577
3211.000000	100.305569
3210.000000	100.304566
3209.000000	100.303577
3208.000000	100.302607
3207.000000	100.301657
3206.000000	100.300724
3205.000000	100.299811
3204.000000	100.298931
3203.000000	100.298096
3202.000000	100.297298
3201.000000	100.296519
3200.000000	100.295739
3199.000000	100.294947
3198.000000	100.294152
3197.000000	100.293374
3196.000000	100.292639
3195.000000	100.291962
3194.000000	100.291337
3193.000000	100.290745
3192.000000	100.290173
3191.000000	100.289630
3190.000000	100.289135
3189.000000	100.288701
3188.000000	100.288320
3187.000000	100.287982
3186.000000	100.287671
3185.000000	100.287379
3184.000000	100.287104
3183.000000	100.286853
3182.000000	100.286635
3181.000000	100.286458
3180.000000	100.286328
3179.000000	100.286254
3178.000000	100.286244
3177.000000	100.286298
3176.000000	100.286394
3175.000000	100.286500
3174.000000	100.286592
3173.000000	100.286668
3172.000000	100.286746
3171.000000	100.286851
3170.000000	100.286999
3169.000000	100.287190
3168.000000	100.287415
3167.000000	100.287661
3166.000000	100.287917
3165.000000	100.288180
3164.000000	100.288455
3163.000000	100.288745
3162.000000	100.289038
3161.000000	100.289314
3160.000000	100.289563
3159.000000	100.289796
3158.000000	100.290038
3157.000000	100.290306
3156.000000	100.290598
3155.000000	100.290894
3154.000000	100.291163
3153.000000	100.291385
3152.000000	100.291552
3151.000000	100.291673
3150.000000	100.291758
3149.000000	100.291812
3148.000000	100.291836
3147.000000	100.291832
3146.000000	100.291812
3145.000000	100.291787
3144.000000	100.291765
3143.000000	100.291753
3142.000000	100.291746
3141.000000	100.291732
3140.000000	100.291693
3139.000000	100.291628
3138.000000	100.291550
3137.000000	100.291473
3136.000000	100.291387
3135.000000	100.291273
3134.000000	100.291125
3133.000000	100.290962
3132.000000	100.290820
3131.000000	100.290717
3130.000000	100.290647
3129.000000	100.290588
3128.000000	100.290513
3127.000000	100.290408
3126.000000	100.290272
3125.000000	100.290120
3124.000000	100.289968
3123.000000	100.289830
3122.000000	100.289709
3121.000000	100.289604
3120.000000	100.289522
3119.000000	100.289475
3118.000000	100.289484
3117.000000	100.289553
3116.000000	100.289669
3115.000000	100.289808
3114.000000	100.289950
3113.000000	100.290093
3112.000000	100.290251
3111.000000	100.290453
3110.000000	100.290723
3109.000000	100.291069
3108.000000	100.291477
3107.000000	100.291922
3106.000000	100.292376
3105.000000	100.292826
3104.000000	100.293268
3103.000000	100.293712
3102.000000	100.294164
3101.000000	100.294622
3100.000000	100.295079
3099.000000	100.295535
3098.000000	100.296004
3097.000000	100.296501
3096.000000	100.297030
3095.000000	100.297578
3094.000000	100.298128
3093.000000	100.298669
3092.000000	100.299204
3091.000000	100.299732
3090.000000	100.300252
3089.000000	100.300754
3088.000000	100.301228
3087.000000	100.301670
3086.000000	100.302085
3085.000000	100.302487
3084.000000	100.302893
3083.000000	100.303315
3082.000000	100.303751
3081.000000	100.304192
3080.000000	100.304625
3079.000000	100.305036
3078.000000	100.305418
3077.000000	100.305773
3076.000000	100.306110
3075.000000	100.306433
3074.000000	100.306739
3073.000000	100.307024
3072.000000	100.307291
3071.000000	100.307553
3070.000000	100.307824
3069.000000	100.308103
3068.000000	100.308371
3067.000000	100.308601
3066.000000	100.308782
3065.000000	100.308928
3064.000000	100.309070
3063.000000	100.309233
3062.000000	100.309429
3061.000000	100.309647
3060.000000	100.309876
3059.000000	100.310113
3058.000000	100.310368
3057.000000	100.310653
3056.000000	100.310967
3055.000000	100.311293
3054.000000	100.311611
3053.000000	100.311917
3052.000000	100.312227
3051.000000	100.312573
3050.000000	100.312980
3049.000000	100.313454
3048.000000	100.313982
3047.000000	100.314549
3046.000000	100.315156
3045.000000	100.315800
3044.000000	100.316464
3043.000000	100.317219
3042.000000	100.318153
3041.000000	100.319282
3040.000000	100.320534
3039.000000	100.321738
3038.000000	100.322690
3037.000000	100.323453
3036.000000	100.324565
3035.000000	100.326630
3034.000000	100.329440
3033.000000	100.331740
3032.000000	100.332456
3031.000000	100.332141
3030.000000	100.332679
3029.000000	100.335091
3028.000000	100.338321
3027.000000	100.340497
3026.000000	100.340935
3025.000000	100.340247
3024.000000	100.339041
3023.000000	100.337589
3022.000000	100.336746
3021.000000	100.337941
3020.000000	100.341496
3019.000000	100.345824
3018.000000	100.349320
3017.000000	100.352438
3016.000000	100.356951
3015.000000	100.363371
3014.000000	100.369768
3013.000000	100.373304
3012.000000	100.373044
3011.000000	100.371460
3010.000000	100.372659
3009.000000	100.378375
3008.000000	100.386078
3007.000000	100.391620
3006.000000	100.393363
3005.000000	100.392967
3004.000000	100.393373
3003.000000	100.397582
3002.000000	100.407835
3001.000000	100.422847
3000.000000	100.436163
2999.000000	100.441062
2998.000000	100.438267
2997.000000	100.435589
2996.000000	100.438566
2995.000000	100.444863
2994.000000	100.450113
2993.000000	100.455524
2992.000000	100.465261
2991.000000	100.478744
2990.000000	100.491308
2989.000000	100.502458
2988.000000	100.517774
2987.000000	100.540286
2986.000000	100.564063
2985.000000	100.580261
2984.000000	100.587934
2983.000000	100.595649
2982.000000	100.612433
2981.000000	100.638941
2980.000000	100.667086
2979.000000	100.686768
2978.000000	100.693242
2977.000000	100.689985
2976.000000	100.685153
2975.000000	100.683832
2974.000000	100.683049
2973.000000	100.675368
2972.000000	100.657377
2971.000000	100.633510
2970.000000	100.611612
2969.000000	100.596011
2968.000000	100.585099
2967.000000	100.574057
2966.000000	100.559500
2965.000000	100.542888
2964.000000	100.529993
2963.000000	100.525352
2962.000000	100.526260
2961.000000	100.523726
2960.000000	100.510677
2959.000000	100.488480
2958.000000	100.464943
2957.000000	100.447726
2956.000000	100.440727
2955.000000	100.443800
2954.000000	100.451937
2953.000000	100.456175
2952.000000	100.450267
2951.000000	100.437954
2950.000000	100.430605
2949.000000	100.435829
2948.000000	100.450280
2947.000000	100.463756
2946.000000	100.468590
2945.000000	100.464116
2944.000000	100.454826
2943.000000	100.446963
2942.000000	100.445172
2941.000000	100.449273
2940.000000	100.454194
2939.000000	100.455052
2938.000000	100.452572
2937.000000	100.451825
2936.000000	100.455775
2935.000000	100.461880
2934.000000	100.465253
2933.000000	100.463707
2932.000000	100.459114
2931.000000	100.455044
2930.000000	100.453882
2929.000000	100.455704
2928.000000	100.458962
2927.000000	100.461742
2926.000000	100.462798
2925.000000	100.462042
2924.000000	100.460498
2923.000000	100.459855
2922.000000	100.461384
2921.000000	100.464967
2920.000000	100.469122
2919.000000	100.472192
2918.000000	100.473778
2917.000000	100.474849
2916.000000	100.476695
2915.000000	100.479719
2914.000000	100.483283
2913.000000	100.486463
2912.000000	100.488885
2911.000000	100.490859
2910.000000	100.492944
2909.000000	100.495434
2908.000000	100.498178
2907.000000	100.500894
2906.000000	100.503487
2905.000000	100.506003
2904.000000	100.508370
2903.000000	100.510362
2902.000000	100.511958
2901.000000	100.513500
2900.000000	100.515317
2899.000000	100.517306
2898.000000	100.519044
2897.000000	100.520295
2896.000000	100.521332
2895.000000	100.522694
2894.000000	100.524651
2893.000000	100.526927
2892.000000	100.528879
2891.000000	100.529932
2890.000000	100.529892
2889.000000	100.529135
2888.000000	100.528520
2887.000000	100.528828
2886.000000	100.530091
2885.000000	100.531412
2884.000000	100.531822
2883.000000	100.531334
2882.000000	100.530911
2881.000000	100.531221
2880.000000	100.531821
2879.000000	100.531808
2878.000000	100.530933
2877.000000	100.529692
2876.000000	100.528493
2875.000000	100.527243
2874.000000	100.525859
2873.000000	100.524781
2872.000000	100.524581
2871.000000	100.525154
2870.000000	100.525507
2869.000000	100.524621
2868.000000	100.522450
2867.000000	100.520021
2866.000000	100.518530
2865.000000	100.518172
2864.000000	100.518019
2863.000000	100.516964
2862.000000	100.514793
2861.000000	100.512169
2860.000000	100.509794
2859.000000	100.507794
2858.000000	100.505993
2857.000000	100.504382
2856.000000	100.503005
2855.000000	100.501722
2854.000000	100.500515
2853.000000	100.499778
2852.000000	100.499868
2851.000000	100.500435
2850.000000	100.500625
2849.000000	100.500038
2848.000000	100.499180
2847.000000	100.498902
2846.000000	100.499479
2845.000000	100.500290
2844.000000	100.500353
2843.000000	100.499289
2842.000000	100.497673
2841.000000	100.496559
2840.000000	100.496493
2839.000000	100.497122
2838.000000	100.497679
2837.000000	100.497817
2836.000000	100.497766
2835.000000	100.497791
2834.000000	100.497901
2833.000000	100.498189
2832.000000	100.499031
2831.000000	100.500679
2830.000000	100.502713
2829.000000	100.504212
2828.000000	100.504730
2827.000000	100.504581
2826.000000	100.504404
2825.000000	100.504583
2824.000000	100.505101
2823.000000	100.505814
2822.000000	100.506603
2821.000000	100.507378
2820.000000	100.508102
2819.000000	100.508789
2818.000000	100.509458
2817.000000	100.510129
2816.000000	100.510854
2815.000000	100.511687
2814.000000	100.512604
2813.000000	100.513532
2812.000000	100.514420
2811.000000	100.515260
2810.000000	100.516058
2809.000000	100.516818
2808.000000	100.517550
2807.000000	100.518264
2806.000000	100.518969
2805.000000	100.519668
2804.000000	100.520364
2803.000000	100.521055
2802.000000	100.521743
2801.000000	100.522438
2800.000000	100.523155
2799.000000	100.523904
2798.000000	100.524682
2797.000000	100.525475
2796.000000	100.526271
2795.000000	100.527068
2794.000000	100.527871
2793.000000	100.528676
2792.000000	100.529466
2791.000000	100.530214
2790.000000	100.530904
2789.000000	100.531548
2788.000000	100.532179
2787.000000	100.532829
2786.000000	100.533510
2785.000000	100.534206
2784.000000	100.534894
2783.000000	100.535555
2782.000000	100.536193
2781.000000	100.536816
2780.000000	100.537436
2779.000000	100.538054
2778.000000	100.538665
2777.000000	100.539261
2776.000000	100.539846
2775.000000	100.540429
2774.000000	100.541020
2773.000000	100.541618
2772.000000	100.542211
2771.000000	100.542788
2770.000000	100.543345
2769.000000	100.543884
2768.000000	100.544420
2767.000000	100.544972
2766.000000	100.545563
2765.000000	100.546204
2764.000000	100.546885
2763.000000	100.547585
2762.000000	100.548291
2761.000000	100.549013
2760.000000	100.549773
2759.000000	100.550577
2758.000000	100.551402
2757.000000	100.552199
2756.000000	100.552936
2755.000000	100.553617
2754.000000	100.554269
2753.000000	100.554913
2752.000000	100.555538
2751.000000	100.556123
2750.000000	100.556661
2749.000000	100.557172
2748.000000	100.557692
2747.000000	100.558243
2746.000000	100.558828
2745.000000	100.559426
2744.000000	100.560015
2743.000000	100.560592
2742.000000	100.561175
2741.000000	100.561792
2740.000000	100.562460
2739.000000	100.563167
2738.000000	100.563882
2737.000000	100.564581
2736.000000	100.565266
2735.000000	100.565958
2734.000000	100.566668
2733.000000	100.567378
2732.000000	100.568056
2731.000000	100.568684
2730.000000	100.569268
2729.000000	100.569830
2728.000000	100.570391
2727.000000	100.570957
2726.000000	100.571527
2725.000000	100.572083
2724.000000	100.572598
2723.000000	100.573046
2722.000000	100.573425
2721.000000	100.573758
2720.000000	100.574076
2719.000000	100.574396
2718.000000	100.574709
2717.000000	100.574991
2716.000000	100.575232
2715.000000	100.575449
2714.000000	100.575676
2713.000000	100.575925
2712.000000	100.576175
2711.000000	100.576399
2710.000000	100.576589
2709.000000	100.576764
2708.000000	100.576946
2707.000000	100.577136
2706.000000	100.577319
2705.000000	100.577473
2704.000000	100.577583
2703.000000	100.577648
2702.000000	100.577675
2701.000000	100.577672
2700.000000	100.577639
2699.000000	100.577566
2698.000000	100.577438
2697.000000	100.577254
2696.000000	100.577035
2695.000000	100.576806
2694.000000	100.576582
2693.000000	100.576349
2692.000000	100.576088
2691.000000	100.575795
2690.000000	100.575491
2689.000000	100.575202
2688.000000	100.574945
2687.000000	100.574717
2686.000000	100.574505
2685.000000	100.574295
2684.000000	100.574079
2683.000000	100.573858
2682.000000	100.573638
2681.000000	100.573420
2680.000000	100.573205
2679.000000	100.572994
2678.000000	100.572782
2677.000000	100.572556
2676.000000	100.572296
2675.000000	100.571999
2674.000000	100.571676
2673.000000	100.571349
2672.000000	100.571026
2671.000000	100.570707
2670.000000	100.570391
2669.000000	100.570088
2668.000000	100.569807
2667.000000	100.569554
2666.000000	100.569334
2665.000000	100.569149
2664.000000	100.568998
2663.000000	100.568868
2662.000000	100.568746
2661.000000	100.568629
2660.000000	100.568525
2659.000000	100.568449
2658.000000	100.568407
2657.000000	100.568392
2656.000000	100.568386
2655.000000	100.568376
2654.000000	100.568358
2653.000000	100.568340
2652.000000	100.568324
2651.000000	100.568316
2650.000000	100.568322
2649.000000	100.568350
2648.000000	100.568400
2647.000000	100.568460
2646.000000	100.568506
2645.000000	100.568520
2644.000000	100.568492
2643.000000	100.568431
2642.000000	100.568343
2641.000000	100.568231
2640.000000	100.568096
2639.000000	100.567951
2638.000000	100.567820
2637.000000	100.567712
2636.000000	100.567618
2635.000000	100.567524
2634.000000	100.567431
2633.000000	100.567361
2632.000000	100.567326
2631.000000	100.567320
2630.000000	100.567326
2629.000000	100.567330
2628.000000	100.567328
2627.000000	100.567330
2626.000000	100.567350
2625.000000	100.567401
2624.000000	100.567472
2623.000000	100.567535
2622.000000	100.567567
2621.000000	100.567571
2620.000000	100.567578
2619.000000	100.567610
2618.000000	100.567671
2617.000000	100.567741
2616.000000	100.567803
2615.000000	100.567860
2614.000000	100.567935
2613.000000	100.568058
2612.000000	100.568237
2611.000000	100.568458
2610.000000	100.568696
2609.000000	100.568937
2608.000000	100.569182
2607.000000	100.569438
2606.000000	100.569705
2605.000000	100.569974
2604.000000	100.570239
2603.000000	100.570508
2602.000000	100.570800
2601.000000	100.571134
2600.000000	100.571517
2599.000000	100.571945
2598.000000	100.572408
2597.000000	100.572896
2596.000000	100.573397
2595.000000	100.573906
2594.000000	100.574429
2593.000000	100.574977
2592.000000	100.575556
2591.000000	100.576162
2590.000000	100.576780
2589.000000	100.577397
2588.000000	100.578009
2587.000000	100.578622
2586.000000	100.579242
2585.000000	100.579863
2584.000000	100.580466
2583.000000	100.581027
2582.000000	100.581538
2581.000000	100.582014
2580.000000	100.582481
2579.000000	100.582953
2578.000000	100.583421
2577.000000	100.583870
2576.000000	100.584286
2575.000000	100.584673
2574.000000	100.585043
2573.000000	100.585401
2572.000000	100.585739
2571.000000	100.586042
2570.000000	100.586297
2569.000000	100.586509
2568.000000	100.586694
2567.000000	100.586870
2566.000000	100.587046
2565.000000	100.587219
2564.000000	100.587381
2563.000000	100.587535
2562.000000	100.587695
2561.000000	100.587876
2560.000000	100.588075
2559.000000	100.588275
2558.000000	100.588454
2557.000000	100.588606
2556.000000	100.588748
2555.000000	100.588910
2554.000000	100.589106
2553.000000	100.589325
2552.000000	100.589541
2551.000000	100.589734
2550.000000	100.589905
2549.000000	100.590063
2548.000000	100.590214
2547.000000	100.590358
2546.000000	100.590502
2545.000000	100.590655
2544.000000	100.590822
2543.000000	100.591000
2542.000000	100.591192
2541.000000	100.591406
2540.000000	100.591653
2539.000000	100.591927
2538.000000	100.592222
2537.000000	100.592538
2536.000000	100.592881
2535.000000	100.593256
2534.000000	100.593661
2533.000000	100.594091
2532.000000	100.594543
2531.000000	100.595015
2530.000000	100.595512
2529.000000	100.596041
2528.000000	100.596614
2527.000000	100.597237
2526.000000	100.597909
2525.000000	100.598618
2524.000000	100.599341
2523.000000	100.600060
2522.000000	100.600766
2521.000000	100.601466
2520.000000	100.602170
2519.000000	100.602881
2518.000000	100.603599
2517.000000	100.604328
2516.000000	100.605076
2515.000000	100.605849
2514.000000	100.606645
2513.000000	100.607451
2512.000000	100.608252
2511.000000	100.609041
2510.000000	100.609826
2509.000000	100.610621
2508.000000	100.611430
2507.000000	100.612238
2506.000000	100.613024
2505.000000	100.613783
2504.000000	100.614525
2503.000000	100.615266
2502.000000	100.616015
2501.000000	100.616770
2500.000000	100.617522
2499.000000	100.618261
2498.000000	100.618981
2497.000000	100.619688
2496.000000	100.620394
2495.000000	100.621096
2494.000000	100.621783
2493.000000	100.622441
2492.000000	100.623077
2491.000000	100.623714
2490.000000	100.624372
2489.000000	100.625050
2488.000000	100.625737
2487.000000	100.626418
2486.000000	100.627086
2485.000000	100.627736
2484.000000	100.628360
2483.000000	100.628954
2482.000000	100.629522
2481.000000	100.630081
2480.000000	100.630650
2479.000000	100.631236
2478.000000	100.631831
2477.000000	100.632425
2476.000000	100.633015
2475.000000	100.633603
2474.000000	100.634185
2473.000000	100.634749
2472.000000	100.635286
2471.000000	100.635792
2470.000000	100.636277
2469.000000	100.636751
2468.000000	100.637228
2467.000000	100.637709
2466.000000	100.638187
2465.000000	100.638658
2464.000000	100.639128
2463.000000	100.639618
2462.000000	100.640144
2461.000000	100.640702
2460.000000	100.641267
2459.000000	100.641820
2458.000000	100.642360
2457.000000	100.642902
2456.000000	100.643464
2455.000000	100.644046
2454.000000	100.644635
2453.000000	100.645212
2452.000000	100.645778
2451.000000	100.646353
2450.000000	100.646955
2449.000000	100.647581
2448.000000	100.648202
2447.000000	100.648793
2446.000000	100.649346
2445.000000	100.649872
2444.000000	100.650390
2443.000000	100.650919
2442.000000	100.651473
2441.000000	100.652057
2440.000000	100.652669
2439.000000	100.653295
2438.000000	100.653926
2437.000000	100.654560
2436.000000	100.655206
2435.000000	100.655867
2434.000000	100.656535
2433.000000	100.657189
2432.000000	100.657818
2431.000000	100.658431
2430.000000	100.659050
2429.000000	100.659689
2428.000000	100.660345
2427.000000	100.661005
2426.000000	100.661654
2425.000000	100.662290
2424.000000	100.662923
2423.000000	100.663570
2422.000000	100.664241
2421.000000	100.664922
2420.000000	100.665585
2419.000000	100.666207
2418.000000	100.666795
2417.000000	100.667366
2416.000000	100.667933
2415.000000	100.668497
2414.000000	100.669054
2413.000000	100.669599
2412.000000	100.670122
2411.000000	100.670624
2410.000000	100.671124
2409.000000	100.671642
2408.000000	100.672179
2407.000000	100.672714
2406.000000	100.673237
2405.000000	100.673763
2404.000000	100.674326
2403.000000	100.674945
2402.000000	100.675607
2401.000000	100.676276
2400.000000	100.676911
2399.000000	100.677494
2398.000000	100.678037
2397.000000	100.678566
2396.000000	100.679101
2395.000000	100.679638
2394.000000	100.680165
2393.000000	100.680671
2392.000000	100.681156
2391.000000	100.681634
2390.000000	100.682126
2389.000000	100.682646
2388.000000	100.683191
2387.000000	100.683744
2386.000000	100.684284
2385.000000	100.684804
2384.000000	100.685300
2383.000000	100.685769
2382.000000	100.686212
2381.000000	100.686632
2380.000000	100.687031
2379.000000	100.687405
2378.000000	100.687746
2377.000000	100.688044
2376.000000	100.688295
2375.000000	100.688507
2374.000000	100.688700
2373.000000	100.688896
2372.000000	100.689096
2371.000000	100.689290
2370.000000	100.689475
2369.000000	100.689671
2368.000000	100.689886
2367.000000	100.690090
2366.000000	100.690238
2365.000000	100.690313
2364.000000	100.690336
2363.000000	100.690327
2362.000000	100.690271
2361.000000	100.690125
2360.000000	100.689857
2359.000000	100.689475
2358.000000	100.689022
2357.000000	100.688546
2356.000000	100.688067
2355.000000	100.687575
2354.000000	100.687056
2353.000000	100.686505
2352.000000	100.685924
2351.000000	100.685318
2350.000000	100.684690
2349.000000	100.684035
2348.000000	100.683344
2347.000000	100.682600
2346.000000	100.681784
2345.000000	100.680886
2344.000000	100.679919
2343.000000	100.678903
2342.000000	100.677861
2341.000000	100.676817
2340.000000	100.675783
2339.000000	100.674746
2338.000000	100.673681
2337.000000	100.672579
2336.000000	100.671465
2335.000000	100.670385
2334.000000	100.669370
2333.000000	100.668416
2332.000000	100.667495
2331.000000	100.666575
2330.000000	100.665631
2329.000000	100.664643
2328.000000	100.663601
2327.000000	100.662504
2326.000000	100.661368
2325.000000	100.660208
2324.000000	100.659036
2323.000000	100.657862
2322.000000	100.656699
2321.000000	100.655555
2320.000000	100.654432
2319.000000	100.653344
2318.000000	100.652320
2317.000000	100.651384
2316.000000	100.650558
2315.000000	100.649840
2314.000000	100.649189
2313.000000	100.648566
2312.000000	100.647969
2311.000000	100.647394
2310.000000	100.646812
2309.000000	100.646179
2308.000000	100.645462
2307.000000	100.644680
2306.000000	100.643907
2305.000000	100.643228
2304.000000	100.642661
2303.000000	100.642149
2302.000000	100.641628
2301.000000	100.641113
2300.000000	100.640660
2299.000000	100.640279
2298.000000	100.639936
2297.000000	100.639600
2296.000000	100.639262
2295.000000	100.638867
2294.000000	100.638377
2293.000000	100.637851
2292.000000	100.637369
2291.000000	100.636958
2290.000000	100.636581
2289.000000	100.636197
2288.000000	100.635773
2287.000000	100.635305
2286.000000	100.634827
2285.000000	100.634379
2284.000000	100.633971
2283.000000	100.633582
2282.000000	100.633202
2281.000000	100.632839
2280.000000	100.632493
2279.000000	100.632152
2278.000000	100.631797
2277.000000	100.631410
2276.000000	100.630981
2275.000000	100.630503
2274.000000	100.629967
2273.000000	100.629370
2272.000000	100.628726
2271.000000	100.628051
2270.000000	100.627355
2269.000000	100.626638
2268.000000	100.625903
2267.000000	100.625167
2266.000000	100.624449
2265.000000	100.623752
2264.000000	100.623058
2263.000000	100.622347
2262.000000	100.621620
2261.000000	100.620893
2260.000000	100.620180
2259.000000	100.619477
2258.000000	100.618774
2257.000000	100.618063
2256.000000	100.617343
2255.000000	100.616618
2254.000000	100.615894
2253.000000	100.615186
2252.000000	100.614510
2251.000000	100.613863
2250.000000	100.613231
2249.000000	100.612597
2248.000000	100.611954
2247.000000	100.611307
2246.000000	100.610666
2245.000000	100.610049
2244.000000	100.609467
2243.000000	100.608923
2242.000000	100.608410
2241.000000	100.607923
2240.000000	100.607466
2239.000000	100.607041
2238.000000	100.606648
2237.000000	100.606283
2236.000000	100.605955
2235.000000	100.605680
2234.000000	100.605464
2233.000000	100.605314
2232.000000	100.605233
2231.000000	100.605212
2230.000000	100.605230
2229.000000	100.605272
2228.000000	100.605337
2227.000000	100.605437
2226.000000	100.605600
2225.000000	100.605861
2224.000000	100.606205
2223.000000	100.606547
2222.000000	100.606817
2221.000000	100.607077
2220.000000	100.607467
2219.000000	100.608016
2218.000000	100.608614
2217.000000	100.609151
2216.000000	100.609637
2215.000000	100.610139
2214.000000	100.610683
2213.000000	100.611248
2212.000000	100.611841
2211.000000	100.612496
2210.000000	100.613216
2209.000000	100.613925
2208.000000	100.614529
2207.000000	100.615010
2206.000000	100.615482
2205.000000	100.616107
2204.000000	100.616921
2203.000000	100.617818
2202.000000	100.618671
2201.000000	100.619460
2200.000000	100.620238
2199.000000	100.621027
2198.000000	100.621809
2197.000000	100.622561
2196.000000	100.623281
2195.000000	100.623974
2194.000000	100.624637
2193.000000	100.625256
2192.000000	100.625822
2191.000000	100.626341
2190.000000	100.626826
2189.000000	100.627283
2188.000000	100.627708
2187.000000	100.628098
2186.000000	100.628469
2185.000000	100.628838
2184.000000	100.629212
2183.000000	100.629582
2182.000000	100.629934
2181.000000	100.630262
2180.000000	100.630568
2179.000000	100.630858
2178.000000	100.631141
2177.000000	100.631420
2176.000000	100.631690
2175.000000	100.631943
2174.000000	100.632174
2173.000000	100.632381
2172.000000	100.632571
2171.000000	100.632751
2170.000000	100.632928
2169.000000	100.633096
2168.000000	100.633235
2167.000000	100.633337
2166.000000	100.633415
2165.000000	100.633497
2164.000000	100.633594
2163.000000	100.633691
2162.000000	100.633765
2161.000000	100.633813
2160.000000	100.633856
2159.000000	100.633911
2158.000000	100.633980
2157.000000	100.634056
2156.000000	100.634136
2155.000000	100.634230
2154.000000	100.634349
2153.000000	100.634497
2152.000000	100.634675
2151.000000	100.634888
2150.000000	100.635146
2149.000000	100.635443
2148.000000	100.635765
2147.000000	100.636102
2146.000000	100.636462
2145.000000	100.636864
2144.000000	100.637307
2143.000000	100.637771
2142.000000	100.638234
2141.000000	100.638687
2140.000000	100.639138
2139.000000	100.639593
2138.000000	100.640058
2137.000000	100.640536
2136.000000	100.641028
2135.000000	100.641529
2134.000000	100.642036
2133.000000	100.642557
2132.000000	100.643104
2131.000000	100.643691
2130.000000	100.644318
2129.000000	100.644971
2128.000000	100.645629
2127.000000	100.646285
2126.000000	100.646950
2125.000000	100.647650
2124.000000	100.648389
2123.000000	100.649149
2122.000000	100.649907
2121.000000	100.650665
2120.000000	100.651442
2119.000000	100.652247
2118.000000	100.653071
2117.000000	100.653896
2116.000000	100.654712
2115.000000	100.655517
2114.000000	100.656312
2113.000000	100.657098
2112.000000	100.657883
2111.000000	100.658670
2110.000000	100.659459
2109.000000	100.660248
2108.000000	100.661033
2107.000000	100.661813
2106.000000	100.662589
2105.000000	100.663362
2104.000000	100.664130
2103.000000	100.664886
2102.000000	100.665620
2101.000000	100.666329
2100.000000	100.667014
2099.000000	100.667681
2098.000000	100.668333
2097.000000	100.668976
2096.000000	100.669616
2095.000000	100.670252
2094.000000	100.670875
2093.000000	100.671472
2092.000000	100.672038
2091.000000	100.672574
2090.000000	100.673083
2089.000000	100.673556
2088.000000	100.673980
2087.000000	100.674346
2086.000000	100.674666
2085.000000	100.674967
2084.000000	100.675263
2083.000000	100.675544
2082.000000	100.675794
2081.000000	100.676005
2080.000000	100.676183
2079.000000	100.676331
2078.000000	100.676441
2077.000000	100.676509
2076.000000	100.676539
2075.000000	100.676536
2074.000000	100.676496
2073.000000	100.676414
2072.000000	100.676289
2071.000000	100.676121
2070.000000	100.675899
2069.000000	100.675609
2068.000000	100.675240
2067.000000	100.674796
2066.000000	100.674284
2065.000000	100.673712
2064.000000	100.673083
2063.000000	100.672400
2062.000000	100.671664
2061.000000	100.670878
2060.000000	100.670041
2059.000000	100.669153
2058.000000	100.668209
2057.000000	100.667206
2056.000000	100.666150
2055.000000	100.665047
2054.000000	100.663895
2053.000000	100.662677
2052.000000	100.661379
2051.000000	100.660003
2050.000000	100.658569
2049.000000	100.657091
2048.000000	100.655566
2047.000000	100.653987
2046.000000	100.652361
2045.000000	100.650701
2044.000000	100.649012
2043.000000	100.647278
2042.000000	100.645474
2041.000000	100.643587
2040.000000	100.641620
2039.000000	100.639580
2038.000000	100.637486
2037.000000	100.635365
2036.000000	100.633245
2035.000000	100.631142
2034.000000	100.629047
2033.000000	100.626952
2032.000000	100.624863
2031.000000	100.622792
2030.000000	100.620745
2029.000000	100.618715
2028.000000	100.616703
2027.000000	100.614722
2026.000000	100.612782
2025.000000	100.610876
2024.000000	100.608976
2023.000000	100.607055
2022.000000	100.605111
2021.000000	100.603162
2020.000000	100.601232
2019.000000	100.599328
2018.000000	100.597445
2017.000000	100.595571
2016.000000	100.593710
2015.000000	100.591875
2014.000000	100.590079
2013.000000	100.588320
2012.000000	100.586597
2011.000000	100.584906
2010.000000	100.583263
2009.000000	100.581714
2008.000000	100.580292
2007.000000	100.578973
2006.000000	100.577673
2005.000000	100.576320
2004.000000	100.574915
2003.000000	100.573555
2002.000000	100.572325
2001.000000	100.571185
2000.000000	100.570030
1999.000000	100.568881
1998.000000	100.567912
1997.000000	100.567321
1996.000000	100.567140
1995.000000	100.567200
1994.000000	100.567243
1993.000000	100.567106
1992.000000	100.566801
1991.000000	100.566412
1990.000000	100.565923
1989.000000	100.565310
1988.000000	100.564701
1987.000000	100.564323
1986.000000	100.564235
1985.000000	100.564256
1984.000000	100.564142
1983.000000	100.563850
1982.000000	100.563557
1981.000000	100.563439
1980.000000	100.563506
1979.000000	100.563651
1978.000000	100.563787
1977.000000	100.563883
1976.000000	100.563943
1975.000000	100.564005
1974.000000	100.564117
1973.000000	100.564284
1972.000000	100.564477
1971.000000	100.564670
1970.000000	100.564858
1969.000000	100.565036
1968.000000	100.565194
1967.000000	100.565328
1966.000000	100.565441
1965.000000	100.565547
1964.000000	100.565661
1963.000000	100.565794
1962.000000	100.565946
1961.000000	100.566105
1960.000000	100.566255
1959.000000	100.566376
1958.000000	100.566461
1957.000000	100.566508
1956.000000	100.566511
1955.000000	100.566458
1954.000000	100.566335
1953.000000	100.566144
1952.000000	100.565903
1951.000000	100.565630
1950.000000	100.565331
1949.000000	100.564996
1948.000000	100.564616
1947.000000	100.564181
1946.000000	100.563683
1945.000000	100.563129
1944.000000	100.562550
1943.000000	100.561967
1942.000000	100.561358
1941.000000	100.560675
1940.000000	100.559894
1939.000000	100.559050
1938.000000	100.558204
1937.000000	100.557365
1936.000000	100.556427
1935.000000	100.555297
1934.000000	100.553977
1933.000000	100.552580
1932.000000	100.551201
1931.000000	100.549818
1930.000000	100.548340
1929.000000	100.546760
1928.000000	100.545171
1927.000000	100.543608
1926.000000	100.541994
1925.000000	100.540240
1924.000000	100.538370
1923.000000	100.536509
1922.000000	100.534724
1921.000000	100.532901
1920.000000	100.530831
1919.000000	100.528418
1918.000000	100.525774
1917.000000	100.523154
1916.000000	100.520671
1915.000000	100.518223
1914.000000	100.515651
1913.000000	100.512901
1912.000000	100.510065
1911.000000	100.507313
1910.000000	100.504698
1909.000000	100.502104
1908.000000	100.499403
1907.000000	100.496583
1906.000000	100.493742
1905.000000	100.490974
1904.000000	100.488324
1903.000000	100.485790
1902.000000	100.483268
1901.000000	100.480610
1900.000000	100.477768
1899.000000	100.474914
1898.000000	100.472335
1897.000000	100.470151
1896.000000	100.468197
1895.000000	100.466157
1894.000000	100.463895
1893.000000	100.461533
1892.000000	100.459364
1891.000000	100.457605
1890.000000	100.456257
1889.000000	100.455112
1888.000000	100.453914
1887.000000	100.452572
1886.000000	100.451190
1885.000000	100.449969
1884.000000	100.449038
1883.000000	100.448351
1882.000000	100.447751
1881.000000	100.447168
1880.000000	100.446709
1879.000000	100.446497
1878.000000	100.446529
1877.000000	100.446703
1876.000000	100.446937
1875.000000	100.447241
1874.000000	100.447679
1873.000000	100.448298
1872.000000	100.449130
1871.000000	100.450232
1870.000000	100.451603
1869.000000	100.453097
1868.000000	100.454540
1867.000000	100.455903
1866.000000	100.457298
1865.000000	100.458882
1864.000000	100.460720
1863.000000	100.462756
1862.000000	100.464876
1861.000000	100.466979
1860.000000	100.469044
1859.000000	100.471108
1858.000000	100.473241
1857.000000	100.475489
1856.000000	100.477829
1855.000000	100.480204
1854.000000	100.482558
1853.000000	100.484886
1852.000000	100.487218
1851.000000	100.489583
1850.000000	100.491974
1849.000000	100.494350
1848.000000	100.496672
1847.000000	100.498923
1846.000000	100.501115
1845.000000	100.503275
1844.000000	100.505422
1843.000000	100.507548
1842.000000	100.509621
1841.000000	100.511612
1840.000000	100.513508
1839.000000	100.515321
1838.000000	100.517067
1837.000000	100.518750
1836.000000	100.520362
1835.000000	100.521887
1834.000000	100.523323
1833.000000	100.524680
1832.000000	100.525972
1831.000000	100.527199
1830.000000	100.528352
1829.000000	100.529426
1828.000000	100.530429
1827.000000	100.531374
1826.000000	100.532271
1825.000000	100.533122
1824.000000	100.533924
1823.000000	100.534682
1822.000000	100.535405
1821.000000	100.536098
1820.000000	100.536757
1819.000000	100.537380
1818.000000	100.537980
1817.000000	100.538570
1816.000000	100.539152
1815.000000	100.539713
1814.000000	100.540236
1813.000000	100.540725
1812.000000	100.541203
1811.000000	100.541693
1810.000000	100.542198
1809.000000	100.542700
1808.000000	100.543182
1807.000000	100.543650
1806.000000	100.544128
1805.000000	100.544642
1804.000000	100.545212
1803.000000	100.545839
1802.000000	100.546506
1801.000000	100.547187
1800.000000	100.547868
1799.000000	100.548566
1798.000000	100.549316
1797.000000	100.550141
1796.000000	100.551040
1795.000000	100.551998
1794.000000	100.553011
1793.000000	100.554080
1792.000000	100.555205
1791.000000	100.556377
1790.000000	100.557588
1789.000000	100.558843
1788.000000	100.560152
1787.000000	100.561517
1786.000000	100.562924
1785.000000	100.564358
1784.000000	100.565816
1783.000000	100.567313
1782.000000	100.568856
1781.000000	100.570425
1780.000000	100.571977
1779.000000	100.573468
1778.000000	100.574892
1777.000000	100.576283
1776.000000	100.577692
1775.000000	100.579145
1774.000000	100.580631
1773.000000	100.582108
1772.000000	100.583534
1771.000000	100.584899
1770.000000	100.586225
1769.000000	100.587534
1768.000000	100.588832
1767.000000	100.590100
1766.000000	100.591314
1765.000000	100.592453
1764.000000	100.593518
1763.000000	100.594520
1762.000000	100.595477
1761.000000	100.596384
1760.000000	100.597213
1759.000000	100.597944
1758.000000	100.598590
1757.000000	100.599178
1756.000000	100.599723
1755.000000	100.600211
1754.000000	100.600629
1753.000000	100.600968
1752.000000	100.601222
1751.000000	100.601386
1750.000000	100.601461
1749.000000	100.601454
1748.000000	100.601359
1747.000000	100.601155
1746.000000	100.600825
1745.000000	100.600370
1744.000000	100.599797
1743.000000	100.599107
1742.000000	100.598290
1741.000000	100.597341
1740.000000	100.596263
1739.000000	100.595066
1738.000000	100.593775
1737.000000	100.592434
1736.000000	100.591084
1735.000000	100.589730
1734.000000	100.588324
1733.000000	100.586808
1732.000000	100.585144
1731.000000	100.583339
1730.000000	100.581435
1729.000000	100.579472
1728.000000	100.577458
1727.000000	100.575369
1726.000000	100.573163
1725.000000	100.570824
1724.000000	100.568369
1723.000000	100.565836
1722.000000	100.563255
1721.000000	100.560629
1720.000000	100.557937
1719.000000	100.555154
1718.000000	100.552274
1717.000000	100.549312
1716.000000	100.546284
1715.000000	100.543187
1714.000000	100.540001
1713.000000	100.536713
1712.000000	100.533333
1711.000000	100.529882
1710.000000	100.526378
1709.000000	100.522815
1708.000000	100.519169
1707.000000	100.515414
1706.000000	100.511565
1705.000000	100.507670
1704.000000	100.503770
1703.000000	100.499861
1702.000000	100.495927
1701.000000	100.491967
1700.000000	100.488005
1699.000000	100.484053
1698.000000	100.480094
1697.000000	100.476112
1696.000000	100.472112
1695.000000	100.468092
1694.000000	100.464028
1693.000000	100.459897
1692.000000	100.455698
1691.000000	100.451450
1690.000000	100.447178
1689.000000	100.442908
1688.000000	100.438664
1687.000000	100.434453
1686.000000	100.430268
1685.000000	100.426092
1684.000000	100.421924
1683.000000	100.417795
1682.000000	100.413725
1681.000000	100.409709
1680.000000	100.405729
1679.000000	100.401761
1678.000000	100.397791
1677.000000	100.393825
1676.000000	100.389884
1675.000000	100.385994
1674.000000	100.382177
1673.000000	100.378439
1672.000000	100.374777
1671.000000	100.371179
1670.000000	100.367631
1669.000000	100.364115
1668.000000	100.360616
1667.000000	100.357140
1666.000000	100.353720
1665.000000	100.350392
1664.000000	100.347165
1663.000000	100.344003
1662.000000	100.340860
1661.000000	100.337726
1660.000000	100.334624
1659.000000	100.331575
1658.000000	100.328592
1657.000000	100.325679
1656.000000	100.322836
1655.000000	100.320064
1654.000000	100.317360
1653.000000	100.314739
1652.000000	100.312235
1651.000000	100.309844
1650.000000	100.307541
1649.000000	100.305321
1648.000000	100.303196
1647.000000	100.301177
1646.000000	100.299261
1645.000000	100.297424
1644.000000	100.295643
1643.000000	100.293910
1642.000000	100.292233
1641.000000	100.290620
1640.000000	100.289076
1639.000000	100.287611
1638.000000	100.286232
1637.000000	100.284940
1636.000000	100.283741
1635.000000	100.282656
1634.000000	100.281699
1633.000000	100.280857
1632.000000	100.280108
1631.000000	100.279443
1630.000000	100.278870
1629.000000	100.278403
1628.000000	100.278049
1627.000000	100.277810
1626.000000	100.277694
1625.000000	100.277707
1624.000000	100.277843
1623.000000	100.278086
1622.000000	100.278429
1621.000000	100.278879
1620.000000	100.279455
1619.000000	100.280175
1618.000000	100.281051
1617.000000	100.282082
1616.000000	100.283241
1615.000000	100.284480
1614.000000	100.285767
1613.000000	100.287116
1612.000000	100.288554
1611.000000	100.290095
1610.000000	100.291717
1609.000000	100.293392
1608.000000	100.295114
1607.000000	100.296888
1606.000000	100.298704
1605.000000	100.300559
1604.000000	100.302449
1603.000000	100.304375
1602.000000	100.306345
1601.000000	100.308365
1600.000000	100.310446
1599.000000	100.312598
1598.000000	100.314810
1597.000000	100.317059
1596.000000	100.319333
1595.000000	100.321635
1594.000000	100.323982
1593.000000	100.326378
1592.000000	100.328809
1591.000000	100.331255
1590.000000	100.333704
1589.000000	100.336152
1588.000000	100.338595
1587.000000	100.341027
1586.000000	100.343447
1585.000000	100.345844
1584.000000	100.348199
1583.000000	100.350499
1582.000000	100.352751
1581.000000	100.354971
1580.000000	100.357162
1579.000000	100.359312
1578.000000	100.361421
1577.000000	100.363495
1576.000000	100.365527
1575.000000	100.367494
1574.000000	100.369385
1573.000000	100.371230
1572.000000	100.373075
1571.000000	100.374944
1570.000000	100.376820
1569.000000	100.378667
1568.000000	100.380453
1567.000000	100.382166
1566.000000	100.383818
1565.000000	100.385447
1564.000000	100.387084
1563.000000	100.388731
1562.000000	100.390371
1561.000000	100.391996
1560.000000	100.393616
1559.000000	100.395249
1558.000000	100.396903
1557.000000	100.398562
1556.000000	100.400212
1555.000000	100.401871
1554.000000	100.403550
1553.000000	100.405249
1552.000000	100.406954
1551.000000	100.408655
1550.000000	100.410345
1549.000000	100.412014
1548.000000	100.413664
1547.000000	100.415317
1546.000000	100.416998
1545.000000	100.418708
1544.000000	100.420426
1543.000000	100.422143
1542.000000	100.423893
1541.000000	100.425727
1540.000000	100.427652
1539.000000	100.429635
1538.000000	100.431659
1537.000000	100.433741
1536.000000	100.435900
1535.000000	100.438132
1534.000000	100.440409
1533.000000	100.442707
1532.000000	100.445024
1531.000000	100.447365
1530.000000	100.449743
1529.000000	100.452159
1528.000000	100.454606
1527.000000	100.457077
1526.000000	100.459581
1525.000000	100.462150
1524.000000	100.464815
1523.000000	100.467579
1522.000000	100.470413
1521.000000	100.473290
1520.000000	100.476212
1519.000000	100.479188
1518.000000	100.482217
1517.000000	100.485279
1516.000000	100.488345
1515.000000	100.491393
1514.000000	100.494426
1513.000000	100.497461
1512.000000	100.500512
1511.000000	100.503584
1510.000000	100.506669
1509.000000	100.509744
1508.000000	100.512779
1507.000000	100.515758
1506.000000	100.518699
1505.000000	100.521625
1504.000000	100.524541
1503.000000	100.527447
1502.000000	100.530348
1501.000000	100.533243
1500.000000	100.536108
1499.000000	100.538911
1498.000000	100.541653
1497.000000	100.544366
1496.000000	100.547081
1495.000000	100.549794
1494.000000	100.552472
1493.000000	100.555081
1492.000000	100.557604
1491.000000	100.560053
1490.000000	100.562466
1489.000000	100.564882
1488.000000	100.567289
1487.000000	100.569633
1486.000000	100.571875
1485.000000	100.574023
1484.000000	100.576119
1483.000000	100.578185
1482.000000	100.580201
1481.000000	100.582104
1480.000000	100.583839
1479.000000	100.585393
1478.000000	100.586818
1477.000000	100.588187
1476.000000	100.589536
1475.000000	100.590829
1474.000000	100.592006
1473.000000	100.593051
1472.000000	100.594018
1471.000000	100.594975
1470.000000	100.595936
1469.000000	100.596862
1468.000000	100.597705
1467.000000	100.598441
1466.000000	100.599101
1465.000000	100.599752
1464.000000	100.600441
1463.000000	100.601158
1462.000000	100.601844
1461.000000	100.602448
1460.000000	100.602959
1459.000000	100.603415
1458.000000	100.603877
1457.000000	100.604388
1456.000000	100.604919
1455.000000	100.605373
1454.000000	100.605689
1453.000000	100.605876
1452.000000	100.605978
1451.000000	100.606041
1450.000000	100.606096
1449.000000	100.606162
1448.000000	100.606233
1447.000000	100.606274
1446.000000	100.606251
1445.000000	100.606179
1444.000000	100.606106
1443.000000	100.606070
1442.000000	100.606065
1441.000000	100.606049
1440.000000	100.605989
1439.000000	100.605893
1438.000000	100.605834
1437.000000	100.605906
1436.000000	100.606149
1435.000000	100.606493
1434.000000	100.606832
1433.000000	100.607133
1432.000000	100.607461
1431.000000	100.607896
1430.000000	100.608454
1429.000000	100.609074
1428.000000	100.609684
1427.000000	100.610266
1426.000000	100.610866
1425.000000	100.611551
1424.000000	100.612360
1423.000000	100.613263
1422.000000	100.614191
1421.000000	100.615100
1420.000000	100.616020
1419.000000	100.617030
1418.000000	100.618172
1417.000000	100.619404
1416.000000	100.620642
1415.000000	100.621843
1414.000000	100.623027
1413.000000	100.624256
1412.000000	100.625586
1411.000000	100.627017
1410.000000	100.628515
1409.000000	100.630048
1408.000000	100.631596
1407.000000	100.633144
1406.000000	100.634680
1405.000000	100.636218
1404.000000	100.637791
1403.000000	100.639419
1402.000000	100.641081
1401.000000	100.642738
1400.000000	100.644374
1399.000000	100.646004
1398.000000	100.647661
1397.000000	100.649352
1396.000000	100.651053
1395.000000	100.652722
1394.000000	100.654326
1393.000000	100.655857
1392.000000	100.657332
1391.000000	100.658767
1390.000000	100.660152
1389.000000	100.661468
1388.000000	100.662703
1387.000000	100.663866
1386.000000	100.664980
1385.000000	100.666069
1384.000000	100.667129
1383.000000	100.668123
1382.000000	100.669012
1381.000000	100.669791
1380.000000	100.670508
1379.000000	100.671215
1378.000000	100.671920
1377.000000	100.672581
1376.000000	100.673153
1375.000000	100.673636
1374.000000	100.674063
1373.000000	100.674456
1372.000000	100.674806
1371.000000	100.675101
1370.000000	100.675335
1369.000000	100.675515
1368.000000	100.675653
1367.000000	100.675770
1366.000000	100.675886
1365.000000	100.676007
1364.000000	100.676119
1363.000000	100.676206
1362.000000	100.676266
1361.000000	100.676308
1360.000000	100.676348
1359.000000	100.676400
1358.000000	100.676464
1357.000000	100.676523
1356.000000	100.676551
1355.000000	100.676543
1354.000000	100.676521
1353.000000	100.676516
1352.000000	100.676527
1351.000000	100.676527
1350.000000	100.676500
1349.000000	100.676466
1348.000000	100.676461
1347.000000	100.676499
1346.000000	100.676564
1345.000000	100.676639
1344.000000	100.676709
1343.000000	100.676761
1342.000000	100.676785
1341.000000	100.676796
1340.000000	100.676830
1339.000000	100.676907
1338.000000	100.677002
1337.000000	100.677068
1336.000000	100.677086
1335.000000	100.677071
1334.000000	100.677051
1333.000000	100.677039
1332.000000	100.677043
1331.000000	100.677069
1330.000000	100.677115
1329.000000	100.677161
1328.000000	100.677188
1327.000000	100.677212
1326.000000	100.677264
1325.000000	100.677343
1324.000000	100.677399
1323.000000	100.677389
1322.000000	100.677330
1321.000000	100.677289
1320.000000	100.677307
1319.000000	100.677360
1318.000000	100.677379
1317.000000	100.677307
1316.000000	100.677128
1315.000000	100.676860
1314.000000	100.676537
1313.000000	100.676179
1312.000000	100.675761
1311.000000	100.675220
1310.000000	100.674506
1309.000000	100.673627
1308.000000	100.672623
1307.000000	100.671512
1306.000000	100.670276
1305.000000	100.668891
1304.000000	100.667355
1303.000000	100.665682
1302.000000	100.663881
1301.000000	100.661953
1300.000000	100.659903
1299.000000	100.657743
1298.000000	100.655481
1297.000000	100.653117
1296.000000	100.650647
1295.000000	100.648067
1294.000000	100.645375
1293.000000	100.642576
1292.000000	100.639678
1291.000000	100.636679
1290.000000	100.633560
1289.000000	100.630302
1288.000000	100.626908
1287.000000	100.623410
1286.000000	100.619831
1285.000000	100.616157
1284.000000	100.612357
1283.000000	100.608420
1282.000000	100.604378
1281.000000	100.600264
1280.000000	100.596074
1279.000000	100.591764
1278.000000	100.587294
1277.000000	100.582677
1276.000000	100.577870
1275.000000	100.572933
1274.000000	100.568084
1273.000000	100.563915
1272.000000	100.560745
1271.000000	100.557214
1270.000000	100.551324
1269.000000	100.543962
1268.000000	100.538666
1267.000000	100.535755
1266.000000	100.530650
1265.000000	100.520679
1264.000000	100.509595
1263.000000	100.503171
1262.000000	100.502195
1261.000000	100.501312
1260.000000	100.493768
1259.000000	100.478029
1258.000000	100.461876
1257.000000	100.456968
1256.000000	100.464955
1255.000000	100.471254
1254.000000	100.460496
1253.000000	100.437112
1252.000000	100.420689
1251.000000	100.418575
1250.000000	100.415347
1249.000000	100.396319
1248.000000	100.370415
1247.000000	100.357985
1246.000000	100.361329
1245.000000	100.361138
1244.000000	100.343073
1243.000000	100.315693
1242.000000	100.296893
1241.000000	100.290543
1240.000000	100.285293
1239.000000	100.272386
1238.000000	100.255243
1237.000000	100.240317
1236.000000	100.226009
1235.000000	100.205916
1234.000000	100.178717
1233.000000	100.148905
1232.000000	100.120701
1231.000000	100.098110
1230.000000	100.087862
1229.000000	100.090973
1228.000000	100.090222
1227.000000	100.060493
1226.000000	99.999655
1225.000000	99.938511
1224.000000	99.907942
1223.000000	99.902963
1222.000000	99.893143
1221.000000	99.860790
1220.000000	99.811497
1219.000000	99.753215
1218.000000	99.687422
1217.000000	99.623502
1216.000000	99.578264
1215.000000	99.550172
1214.000000	99.512735
1213.000000	99.448204
1212.000000	99.373035
1211.000000	99.315065
1210.000000	99.275800
1209.000000	99.233542
1208.000000	99.175737
1207.000000	99.108648
1206.000000	99.039992
1205.000000	98.972443
1204.000000	98.914172
1203.000000	98.874506
1202.000000	98.843266
1201.000000	98.793722
1200.000000	98.716224
1199.000000	98.633808
1198.000000	98.573680
1197.000000	98.534448
1196.000000	98.494310
1195.000000	98.440809
1194.000000	98.377016
1193.000000	98.305398
1192.000000	98.224611
1191.000000	98.143714
1190.000000	98.081753
1189.000000	98.043899
1188.000000	98.008170
1187.000000	97.947225
1186.000000	97.859953
1185.000000	97.771376
1184.000000	97.701628
1183.000000	97.645580
1182.000000	97.586859
1181.000000	97.521615
1180.000000	97.457048
1179.000000	97.391024
1178.000000	97.309450
1177.000000	97.207965
1176.000000	97.101862
1175.000000	97.005273
1174.000000	96.912398
1173.000000	96.813112
1172.000000	96.716942
1171.000000	96.641159
1170.000000	96.579254
1169.000000	96.504033
1168.000000	96.406783
1167.000000	96.311074
1166.000000	96.238491
1165.000000	96.183519
1164.000000	96.137011
1163.000000	96.114592
1162.000000	96.135830
1161.000000	96.184628
1160.000000	96.216406
1159.000000	96.209971
1158.000000	96.189426
1157.000000	96.184776
1156.000000	96.188333
1155.000000	96.165649
1154.000000	96.101755
1153.000000	96.018205
1152.000000	95.944405
1151.000000	95.884482
1150.000000	95.819296
1149.000000	95.735960
1148.000000	95.646789
1147.000000	95.576527
1146.000000	95.532819
1145.000000	95.493970
1144.000000	95.430529
1143.000000	95.338276
1142.000000	95.243877
1141.000000	95.174742
1140.000000	95.128850
1139.000000	95.081253
1138.000000	95.015983
1137.000000	94.940475
1136.000000	94.867625
1135.000000	94.797171
1134.000000	94.723441
1133.000000	94.651485
1132.000000	94.591387
1131.000000	94.539989
1130.000000	94.482572
1129.000000	94.414311
1128.000000	94.346683
1127.000000	94.287543
1126.000000	94.227088
1125.000000	94.153009
1124.000000	94.071246
1123.000000	93.999459
1122.000000	93.943142
1121.000000	93.889890
1120.000000	93.828401
1119.000000	93.764604
1118.000000	93.711585
1117.000000	93.668848
1116.000000	93.619363
1115.000000	93.549504
1114.000000	93.468312
1113.000000	93.400977
1112.000000	93.361890
1111.000000	93.337287
1110.000000	93.297590
1109.000000	93.230033
1108.000000	93.150954
1107.000000	93.083746
1106.000000	93.033410
1105.000000	92.989369
1104.000000	92.944505
1103.000000	92.899364
1102.000000	92.852169
1101.000000	92.799312
1100.000000	92.746790
1099.000000	92.708333
1098.000000	92.686156
1097.000000	92.661981
1096.000000	92.615527
1095.000000	92.549518
1094.000000	92.488809
1093.000000	92.451908
1092.000000	92.427717
1091.000000	92.387293
1090.000000	92.320268
1089.000000	92.249983
1088.000000	92.203430
1087.000000	92.175138
1086.000000	92.138167
1085.000000	92.087884
1084.000000	92.049407
1083.000000	92.032578
1082.000000	92.005519
1081.000000	91.936602
1080.000000	91.845970
1079.000000	91.786794
1078.000000	91.778426
1077.000000	91.785434
1076.000000	91.767615
1075.000000	91.725316
1074.000000	91.682215
1073.000000	91.642949
1072.000000	91.588695
1071.000000	91.508639
1070.000000	91.416228
1069.000000	91.329051
1068.000000	91.241925
1067.000000	91.130321
1066.000000	90.981429
1065.000000	90.813404
1064.000000	90.657894
1063.000000	90.529228
1062.000000	90.418628
1061.000000	90.314923
1060.000000	90.217877
1059.000000	90.130408
1058.000000	90.053344
1057.000000	89.991601
1056.000000	89.947700
1055.000000	89.901158
1054.000000	89.815158
1053.000000	89.681164
1052.000000	89.540210
1051.000000	89.435936
1050.000000	89.357974
1049.000000	89.260474
1048.000000	89.125708
1047.000000	88.975341
1046.000000	88.825657
1045.000000	88.668160
1044.000000	88.498957
1043.000000	88.338324
1042.000000	88.206532
1041.000000	88.094331
1040.000000	87.971327
1039.000000	87.821779
1038.000000	87.666509
1037.000000	87.545826
1036.000000	87.477950
1035.000000	87.434562
1034.000000	87.367608
1033.000000	87.265580
1032.000000	87.166110
1031.000000	87.105657
1030.000000	87.078163
1029.000000	87.055128
1028.000000	87.024232
1027.000000	86.986956
1026.000000	86.940391
1025.000000	86.892120
1024.000000	86.874387
1023.000000	86.904281
1022.000000	86.938860
1021.000000	86.913640
1020.000000	86.830668
1019.000000	86.765134
1018.000000	86.771565
1017.000000	86.820006
1016.000000	86.840670
1015.000000	86.805932
1014.000000	86.745379
1013.000000	86.697860
1012.000000	86.675983
1011.000000	86.670727
1010.000000	86.668538
1009.000000	86.661540
1008.000000	86.650102
1007.000000	86.637565
1006.000000	86.623892
1005.000000	86.610178
1004.000000	86.607363
1003.000000	86.628959
1002.000000	86.671471
1001.000000	86.710885
1000.000000	86.724036
999.000000	86.711042
998.000000	86.697407
997.000000	86.716099
996.000000	86.780764
995.000000	86.867911
994.000000	86.931631
993.000000	86.949107
992.000000	86.946641
991.000000	86.970027
990.000000	87.036943
989.000000	87.128827
988.000000	87.217455
987.000000	87.283857
986.000000	87.323708
985.000000	87.355819
984.000000	87.418075
983.000000	87.531902
982.000000	87.670886
981.000000	87.785605
980.000000	87.861499
979.000000	87.930412
978.000000	88.026813
977.000000	88.158098
976.000000	88.317901
975.000000	88.498023
974.000000	88.677007
973.000000	88.824160
972.000000	88.934163
971.000000	89.042856
970.000000	89.190190
969.000000	89.374854
968.000000	89.558874
967.000000	89.713575
966.000000	89.849533
965.000000	89.998396
964.000000	90.172602
963.000000	90.350328
962.000000	90.502201
961.000000	90.627159
960.000000	90.750220
959.000000	90.885400
958.000000	91.018295
957.000000	91.134744
956.000000	91.249356
955.000000	91.385971
954.000000	91.538427
953.000000	91.672009
952.000000	91.762998
951.000000	91.820992
950.000000	91.875629
949.000000	91.955251
948.000000	92.071071
947.000000	92.202090
946.000000	92.299858
945.000000	92.333940
944.000000	92.335632
943.000000	92.372977
942.000000	92.471987
941.000000	92.585149
940.000000	92.651221
939.000000	92.667548
938.000000	92.686418
937.000000	92.751663
936.000000	92.857033
935.000000	92.961699
934.000000	93.030373
933.000000	93.059155
932.000000	93.073754
931.000000	93.106212
930.000000	93.169071
929.000000	93.251436
928.000000	93.336305
927.000000	93.412104
926.000000	93.468065
925.000000	93.496593
924.000000	93.511323
923.000000	93.548113
922.000000	93.628149
921.000000	93.725334
920.000000	93.789099
919.000000	93.802244
918.000000	93.800157
917.000000	93.826687
916.000000	93.886763
915.000000	93.953809
914.000000	94.012257
913.000000	94.075092
912.000000	94.155871
911.000000	94.240291
910.000000	94.301413
909.000000	94.340577
908.000000	94.395356
907.000000	94.497060
906.000000	94.631731
905.000000	94.755465
904.000000	94.847782
903.000000	94.933463
902.000000	95.045483
901.000000	95.183253
900.000000	95.318270
899.000000	95.430857
898.000000	95.527872
897.000000	95.626944
896.000000	95.737580
895.000000	95.858773
894.000000	95.981184
893.000000	96.088379
892.000000	96.168862
891.000000	96.235634
890.000000	96.323810
889.000000	96.455512
888.000000	96.610115
887.000000	96.739590
886.000000	96.817856
885.000000	96.867995
884.000000	96.937787
883.000000	97.051411
882.000000	97.186847
881.000000	97.297819
880.000000	97.357776
879.000000	97.384910
878.000000	97.423106
877.000000	97.494945
876.000000	97.580064
875.000000	97.645913
874.000000	97.692944
873.000000	97.754128
872.000000	97.848352
871.000000	97.953025
870.000000	98.033656
869.000000	98.088245
868.000000	98.144736
867.000000	98.219335
866.000000	98.297141
865.000000	98.359001
864.000000	98.410963
863.000000	98.473916
862.000000	98.553265
861.000000	98.635578
860.000000	98.712596
859.000000	98.788770
858.000000	98.859441
857.000000	98.903605
856.000000	98.919568
855.000000	98.952089
854.000000	99.047305
853.000000	99.178246
852.000000	99.255940
851.000000	99.240654
850.000000	99.207850
849.000000	99.259271
848.000000	99.385351
847.000000	99.472746
846.000000	99.453748
845.000000	99.389994
844.000000	99.377786
843.000000	99.421296
842.000000	99.454322
841.000000	99.456016
840.000000	99.473976
839.000000	99.527373
838.000000	99.550634
837.000000	99.475658
836.000000	99.337733
835.000000	99.250097
834.000000	99.277051
833.000000	99.365748
832.000000	99.410288
831.000000	99.362888
830.000000	99.264282
829.000000	99.178594
828.000000	99.131171
827.000000	99.118836
826.000000	99.146569
825.000000	99.215603
824.000000	99.283638
823.000000	99.283828
822.000000	99.202035
821.000000	99.103653
820.000000	99.065459
819.000000	99.098943
818.000000	99.144414
817.000000	99.123605
816.000000	99.002659
815.000000	98.827554
814.000000	98.693781
813.000000	98.645915
812.000000	98.602614
811.000000	98.422563
810.000000	98.064211
809.000000	97.636503
808.000000	97.265056
807.000000	96.960987
806.000000	96.659101
805.000000	96.324572
804.000000	95.957624
803.000000	95.539963
802.000000	95.077183
801.000000	94.678722
800.000000	94.480725
799.000000	94.467149
798.000000	94.451946
797.000000	94.302762
796.000000	94.116204
795.000000	94.076476
794.000000	94.213666
793.000000	94.388082
792.000000	94.476225
791.000000	94.488605
790.000000	94.492302
789.000000	94.503795
788.000000	94.495052
787.000000	94.451047
786.000000	94.382901
785.000000	94.307480
784.000000	94.235125
783.000000	94.158368
782.000000	94.043540
781.000000	93.864054
780.000000	93.658491
779.000000	93.524480
778.000000	93.527842
777.000000	93.633713
776.000000	93.746135
775.000000	93.817759
774.000000	93.898591
773.000000	94.059520
772.000000	94.288578
771.000000	94.481593
770.000000	94.552241
769.000000	94.543519
768.000000	94.591071
767.000000	94.772621
766.000000	95.021070
765.000000	95.195889
764.000000	95.230893
763.000000	95.188171
762.000000	95.177876
761.000000	95.256806
760.000000	95.400831
759.000000	95.541769
758.000000	95.626979
757.000000	95.662932
756.000000	95.703293
755.000000	95.787120
754.000000	95.897646
753.000000	95.990484
752.000000	96.049695
751.000000	96.097973
750.000000	96.162194
749.000000	96.250852
748.000000	96.357901
747.000000	96.464537
746.000000	96.542490
745.000000	96.581636
744.000000	96.613646
743.000000	96.681791
742.000000	96.787736
741.000000	96.892944
740.000000	96.972649
739.000000	97.041261
738.000000	97.114229
737.000000	97.179290
736.000000	97.225138
735.000000	97.270494
734.000000	97.344674
733.000000	97.442026
732.000000	97.517326
731.000000	97.541040
730.000000	97.539325
729.000000	97.564759
728.000000	97.632121
727.000000	97.709355
726.000000	97.766122
725.000000	97.806336
724.000000	97.844053
723.000000	97.874311
722.000000	97.888408
721.000000	97.900439
720.000000	97.934796
719.000000	97.989581
718.000000	98.035177
717.000000	98.052936
716.000000	98.057420
715.000000	98.075417
714.000000	98.114718
713.000000	98.157207
712.000000	98.179331
711.000000	98.171403
710.000000	98.149110
709.000000	98.140965
708.000000	98.156876
707.000000	98.182241
706.000000	98.194056
705.000000	98.184121
704.000000	98.164239
703.000000	98.151868
702.000000	98.152013
701.000000	98.159463
700.000000	98.168764
699.000000	98.177228
698.000000	98.184505
697.000000	98.192634
696.000000	98.203924
695.000000	98.217583
694.000000	98.233432
693.000000	98.252153
692.000000	98.272438
691.000000	98.293506
690.000000	98.315715
689.000000	98.339887
688.000000	98.366337
687.000000	98.394689
686.000000	98.424372
685.000000	98.454915
684.000000	98.485943
683.000000	98.517357
682.000000	98.549662
681.000000	98.583720
680.000000	98.619816
679.000000	98.657135
678.000000	98.694411
677.000000	98.731085
676.000000	98.767788
675.000000	98.805756
674.000000	98.845737
673.000000	98.887269
672.000000	98.928970
671.000000	98.969650
670.000000	99.009321
669.000000	99.049376
668.000000	99.091699
667.000000	99.136790
666.000000	99.183318
665.000000	99.229623
664.000000	99.274645
663.000000	99.318390
662.000000	99.362113
661.000000	99.407521
660.000000	99.455243
659.000000	99.503849
658.000000	99.550975
657.000000	99.595595
656.000000	99.638826
655.000000	99.682673
654.000000	99.728108
653.000000	99.774081
652.000000	99.818364
651.000000	99.859420
650.000000	99.897489
