4000.000000	100.337335
3999.000000	100.336535
3998.000000	100.335743
3997.000000	100.335064
3996.000000	100.334481
3995.000000	100.333941
3994.000000	100.333405
3993.000000	100.332862
3992.000000	100.332395
3991.000000	100.332125
3990.000000	100.332013
3989.000000	100.331767
3988.000000	100.331069
3987.000000	100.329826
3986.000000	100.328242
3985.000000	100.326802
3984.000000	100.325977
3983.000000	100.325899
3982.000000	100.326236
3981.000000	100.326373
3980.000000	100.325948
3979.000000	100.325118
3978.000000	100.324379
3977.000000	100.324071
3976.000000	100.324092
3975.000000	100.324106
3974.000000	100.323948
3973.000000	100.323733
3972.000000	100.323613
3971.000000	100.323560
3970.000000	100.323412
3969.000000	100.323096
3968.000000	100.322683
3967.000000	100.322208
3966.000000	100.321570
3965.000000	100.320753
3964.000000	100.320016
3963.000000	100.319623
3962.000000	100.319284
3961.000000	100.318175
3960.000000	100.315784
3959.000000	100.312813
3958.000000	100.310944
3957.000000	100.311395
3956.000000	100.314057
3955.000000	100.317583
3954.000000	100.320460
3953.000000	100.322048
3952.000000	100.322503
3951.000000	100.322078
3950.000000	100.320714
3949.000000	100.318315
3948.000000	100.315255
3947.000000	100.312469
3946.000000	100.310996
3945.000000	100.311386
3944.000000	100.313267
3943.000000	100.315323
3942.000000	100.316077
3941.000000	100.314940
3940.000000	100.312690
3939.000000	100.310983
3938.000000	100.311047
3937.000000	100.312732
3936.000000	100.314673
3935.000000	100.315362
3934.000000	100.313921
3933.000000	100.310245
3932.000000	100.305311
3931.000000	100.301135
3930.000000	100.299478
3929.000000	100.300589
3928.000000	100.303412
3927.000000	100.306834
3926.000000	100.310259
3925.000000	100.313434
3924.000000	100.316534
3923.000000	100.319989
3922.000000	100.323750
3921.000000	100.326655
3920.000000	100.327230
3919.000000	100.325155
3918.000000	100.321511
3917.000000	100.317453
3916.000000	100.313475
3915.000000	100.309968
3914.000000	100.307881
3913.000000	100.308227
3912.000000	100.311379
3911.000000	100.316939
3910.000000	100.323590
3909.000000	100.329308
3908.000000	100.332133
3907.000000	100.331487
3906.000000	100.328601
3905.000000	100.325090
3904.000000	100.321342
3903.000000	100.317175
3902.000000	100.313531
3901.000000	100.311828
3900.000000	100.311868
3899.000000	100.311872
3898.000000	100.311313
3897.000000	100.311512
3896.000000	100.313260
3895.000000	100.315104
3894.000000	100.314725
3893.000000	100.311867
3892.000000	100.308979
3891.000000	100.308495
3890.000000	100.309692
3889.000000	100.309810
3888.000000	100.308032
3887.000000	100.306211
3886.000000	100.306065
3885.000000	100.307252
3884.000000	100.308136
3883.000000	100.307843
3882.000000	100.307228
3881.000000	100.307400
3880.000000	100.307852
3879.000000	100.306948
3878.000000	100.303787
3877.000000	100.299338
3876.000000	100.295712
3875.000000	100.293788
3874.000000	100.292189
3873.000000	100.289231
3872.000000	100.285643
3871.000000	100.283541
3870.000000	100.283087
3869.000000	100.282334
3868.000000	100.280184
3867.000000	100.277862
3866.000000	100.276936
3865.000000	100.276900
3864.000000	100.276190
3863.000000	100.274439
3862.000000	100.272635
3861.000000	100.272034
3860.000000	100.273292
3859.000000	100.275779
3858.000000	100.276698
3857.000000	100.273568
3856.000000	100.268606
3855.000000	100.266708
3854.000000	100.269050
3853.000000	100.272560
3852.000000	100.274556
3851.000000	100.275496
3850.000000	100.276992
3849.000000	100.279793
3848.000000	100.283328
3847.000000	100.286125
3846.000000	100.286739
3845.000000	100.284636
3844.000000	100.280509
3843.000000	100.275673
3842.000000	100.271424
3841.000000	100.268617
3840.000000	100.267490
3839.000000	100.267644
3838.000000	100.268173
3837.000000	100.268220
3836.000000	100.267494
3835.000000	100.266377
3834.000000	100.265840
3833.000000	100.266766
3832.000000	100.269039
3831.000000	100.271540
3830.000000	100.273235
3829.000000	100.274119
3828.000000	100.274984
3827.000000	100.276178
3826.000000	100.276882
3825.000000	100.276117
3824.000000	100.274404
3823.000000	100.273551
3822.000000	100.274293
3821.000000	100.275588
3820.000000	100.276147
3819.000000	100.275981
3818.000000	100.276445
3817.000000	100.278536
3816.000000	100.281381
3815.000000	100.283173
3814.000000	100.283489
3813.000000	100.283332
3812.000000	100.283480
3811.000000	100.283550
3810.000000	100.282920
3809.000000	100.281858
3808.000000	100.281249
3807.000000	100.281418
3806.000000	100.281932
3805.000000	100.282255
3804.000000	100.282564
3803.000000	100.283446
3802.000000	100.284820
3801.000000	100.286030
3800.000000	100.286782
3799.000000	100.287406
3798.000000	100.288438
3797.000000	100.290089
3796.000000	100.291989
3795.000000	100.293428
3794.000000	100.293984
3793.000000	100.293739
3792.000000	100.293142
3791.000000	100.292736
3790.000000	100.292786
3789.000000	100.293264
3788.000000	100.293971
3787.000000	100.294668
3786.000000	100.295186
3785.000000	100.295463
3784.000000	100.295533
3783.000000	100.295555
3782.000000	100.295779
3781.000000	100.296308
3780.000000	100.296853
3779.000000	100.296909
3778.000000	100.296248
3777.000000	100.295133
3776.000000	100.294167
3775.000000	100.293772
3774.000000	100.293884
3773.000000	100.294172
3772.000000	100.294482
3771.000000	100.294782
3770.000000	100.294997
3769.000000	100.295008
3768.000000	100.294678
3767.000000	100.293936
3766.000000	100.292840
3765.000000	100.291455
3764.000000	100.289858
3763.000000	100.288351
3762.000000	100.287532
3761.000000	100.287675
3760.000000	100.288029
3759.000000	100.287376
3758.000000	100.285281
3757.000000	100.282422
3756.000000	100.279825
3755.000000	100.278618
3754.000000	100.279795
3753.000000	100.281858
3752.000000	100.281173
3751.000000	100.277939
3750.000000	100.277921
3749.000000	100.284606
3748.000000	100.291986
3747.000000	100.292649
3746.000000	100.289512
3745.000000	100.287744
3744.000000	100.284718
3743.000000	100.277773
3742.000000	100.269512
3741.000000	100.263102
3740.000000	100.257771
3739.000000	100.251893
3738.000000	100.248045
3737.000000	100.249545
3736.000000	100.253476
3735.000000	100.253104
3734.000000	100.246880
3733.000000	100.239400
3732.000000	100.234814
3731.000000	100.232919
3730.000000	100.230965
3729.000000	100.228226
3728.000000	100.226482
3727.000000	100.225417
3726.000000	100.222379
3725.000000	100.217462
3724.000000	100.215022
3723.000000	100.218550
3722.000000	100.226029
3721.000000	100.230878
3720.000000	100.227389
3719.000000	100.215139
3718.000000	100.198083
3717.000000	100.180275
3716.000000	100.163466
3715.000000	100.149336
3714.000000	100.139358
3713.000000	100.129913
3712.000000	100.115513
3711.000000	100.097736
3710.000000	100.083187
3709.000000	100.074964
3708.000000	100.070931
3707.000000	100.067305
3706.000000	100.061704
3705.000000	100.054713
3704.000000	100.049549
3703.000000	100.049286
3702.000000	100.053496
3701.000000	100.056632
3700.000000	100.051814
3699.000000	100.037491
3698.000000	100.019354
3697.000000	100.005108
3696.000000	99.997847
3695.000000	99.994949
3694.000000	99.992078
3693.000000	99.986996
3692.000000	99.979335
3691.000000	99.970216
3690.000000	99.963447
3689.000000	99.961693
3688.000000	99.962866
3687.000000	99.963721
3686.000000	99.963072
3685.000000	99.961073
3684.000000	99.957363
3683.000000	99.952073
3682.000000	99.947836
3681.000000	99.947066
3680.000000	99.946254
3679.000000	99.938472
3678.000000	99.923370
3677.000000	99.907883
3676.000000	99.896570
3675.000000	99.887335
3674.000000	99.876465
3673.000000	99.863636
3672.000000	99.852489
3671.000000	99.844934
3670.000000	99.838853
3669.000000	99.833057
3668.000000	99.828646
3667.000000	99.825649
3666.000000	99.822008
3665.000000	99.815883
3664.000000	99.807735
3663.000000	99.800192
3662.000000	99.795211
3661.000000	99.791637
3660.000000	99.786093
3659.000000	99.776833
3658.000000	99.766441
3657.000000	99.759115
3656.000000	99.755951
3655.000000	99.753601
3654.000000	99.746650
3653.000000	99.733452
3652.000000	99.718823
3651.000000	99.707648
3650.000000	99.701470
3649.000000	99.700189
3648.000000	99.700576
3647.000000	99.697949
3646.000000	99.690777
3645.000000	99.681108
3644.000000	99.672420
3643.000000	99.667071
3642.000000	99.664030
3641.000000	99.660220
3640.000000	99.654500
3639.000000	99.649173
3638.000000	99.646724
3637.000000	99.646536
3636.000000	99.646550
3635.000000	99.646052
3634.000000	99.645054
3633.000000	99.639971
3632.000000	99.626777
3631.000000	99.610537
3630.000000	99.601493
3629.000000	99.602752
3628.000000	99.607737
3627.000000	99.607979
3626.000000	99.601921
3625.000000	99.595659
3624.000000	99.595410
3623.000000	99.601057
3622.000000	99.607145
3621.000000	99.607720
3620.000000	99.601623
3619.000000	99.594780
3618.000000	99.594285
3617.000000	99.601536
3616.000000	99.614140
3615.000000	99.630193
3614.000000	99.647343
3613.000000	99.660688
3612.000000	99.666489
3611.000000	99.667378
3610.000000	99.669799
3609.000000	99.675837
3608.000000	99.681690
3607.000000	99.684764
3606.000000	99.687488
3605.000000	99.693314
3604.000000	99.702207
3603.000000	99.711182
3602.000000	99.717760
3601.000000	99.721884
3600.000000	99.724989
3599.000000	99.728243
3598.000000	99.732271
3597.000000	99.737833
3596.000000	99.745788
3595.000000	99.755893
3594.000000	99.766500
3593.000000	99.775162
3592.000000	99.779538
3591.000000	99.779322
3590.000000	99.777264
3589.000000	99.776920
3588.000000	99.779821
3587.000000	99.785135
3586.000000	99.790969
3585.000000	99.795865
3584.000000	99.799436
3583.000000	99.802170
3582.000000	99.804957
3581.000000	99.808599
3580.000000	99.813478
3579.000000	99.819293
3578.000000	99.825063
3577.000000	99.829717
3576.000000	99.833048
3575.000000	99.835882
3574.000000	99.839258
3573.000000	99.843217
3572.000000	99.846551
3571.000000	99.848201
3570.000000	99.848457
3569.000000	99.848767
3568.000000	99.850347
3567.000000	99.853147
3566.000000	99.856306
3565.000000	99.859075
3564.000000	99.861466
3563.000000	99.863867
3562.000000	99.866492
3561.000000	99.869199
3560.000000	99.871678
3559.000000	99.873763
3558.000000	99.875529
3557.000000	99.877164
3556.000000	99.878838
3555.000000	99.880685
3554.000000	99.882814
3553.000000	99.885271
3552.000000	99.887942
3551.000000	99.890550
3550.000000	99.892822
3549.000000	99.894649
3548.000000	99.896156
3547.000000	99.897659
3546.000000	99.899423
3545.000000	99.901405
3544.000000	99.903332
3543.000000	99.905108
3542.000000	99.906994
3541.000000	99.909288
3540.000000	99.911938
3539.000000	99.914580
3538.000000	99.916932
3537.000000	99.918993
3536.000000	99.920843
3535.000000	99.922406
3534.000000	99.923605
3533.000000	99.924640
3532.000000	99.925933
3531.000000	99.927771
3530.000000	99.930072
3529.000000	99.932537
3528.000000	99.934918
3527.000000	99.937083
3526.000000	99.939061
3525.000000	99.941185
3524.000000	99.943956
3523.000000	99.947528
3522.000000	99.951266
3521.000000	99.954105
3520.000000	99.955676
3519.000000	99.956827
3518.000000	99.958886
3517.000000	99.962224
3516.000000	99.965827
3515.000000	99.968268
3514.000000	99.968878
3513.000000	99.967862
3512.000000	99.965999
3511.000000	99.964523
3510.000000	99.964686
3509.000000	99.966801
3508.000000	99.969851
3507.000000	99.972363
3506.000000	99.973962
3505.000000	99.975422
3504.000000	99.977349
3503.000000	99.979441
3502.000000	99.981256
3501.000000	99.983069
3500.000000	99.985418
3499.000000	99.988142
3498.000000	99.990377
3497.000000	99.991530
3496.000000	99.991969
3495.000000	99.992669
3494.000000	99.994280
3493.000000	99.996575
3492.000000	99.998675
3491.000000	99.999828
3490.000000	100.000146
3489.000000	100.000593
3488.000000	100.002116
3487.000000	100.004668
3486.000000	100.007122
3485.000000	100.008182
3484.000000	100.007418
3483.000000	100.005669
3482.000000	100.004503
3481.000000	100.004799
3480.000000	100.005898
3479.000000	100.006460
3478.000000	100.006234
3477.000000	100.006470
3476.000000	100.008512
3475.000000	100.012600
3474.000000	100.018026
3473.000000	100.023853
3472.000000	100.028943
3471.000000	100.031994
3470.000000	100.032933
3469.000000	100.033807
3468.000000	100.037023
3467.000000	100.042419
3466.000000	100.047109
3465.000000	100.048626
3464.000000	100.047145
3463.000000	100.044681
3462.000000	100.042936
3461.000000	100.042296
3460.000000	100.042322
3459.000000	100.042518
3458.000000	100.042783
3457.000000	100.043364
3456.000000	100.044294
3455.000000	100.045066
3454.000000	100.045385
3453.000000	100.046035
3452.000000	100.048176
3451.000000	100.051583
3450.000000	100.054331
3449.000000	100.054842
3448.000000	100.053920
3447.000000	100.054160
3446.000000	100.057177
3445.000000	100.062035
3444.000000	100.066385
3443.000000	100.068827
3442.000000	100.070004
3441.000000	100.071722
3440.000000	100.075123
3439.000000	100.079649
3438.000000	100.083703
3437.000000	100.086261
3436.000000	100.087701
3435.000000	100.089077
3434.000000	100.090786
3433.000000	100.092064
3432.000000	100.091800
3431.000000	100.089826
3430.000000	100.087518
3429.000000	100.086986
3428.000000	100.089167
3427.000000	100.092714
3426.000000	100.094893
3425.000000	100.094158
3424.000000	100.091497
3423.000000	100.089472
3422.000000	100.089612
3421.000000	100.091372
3420.000000	100.093317
3419.000000	100.094849
3418.000000	100.096505
3417.000000	100.098865
3416.000000	100.101785
3415.000000	100.104634
3414.000000	100.106888
3413.000000	100.108498
3412.000000	100.109812
3411.000000	100.111144
3410.000000	100.112386
3409.000000	100.113173
3408.000000	100.113486
3407.000000	100.113887
3406.000000	100.114967
3405.000000	100.116680
3404.000000	100.118391
3403.000000	100.119540
3402.000000	100.120154
3401.000000	100.120718
3400.000000	100.121636
3399.000000	100.122830
3398.000000	100.123885
3397.000000	100.124566
3396.000000	100.125118
3395.000000	100.125970
3394.000000	100.127276
3393.000000	100.128833
3392.000000	100.130339
3391.000000	100.131624
3390.000000	100.132679
3389.000000	100.133560
3388.000000	100.134339
3387.000000	100.135054
3386.000000	100.135640
3385.000000	100.136003
3384.000000	100.136217
3383.000000	100.136497
3382.000000	100.137004
3381.000000	100.137673
3380.000000	100.138335
3379.000000	100.138868
3378.000000	100.139254
3377.000000	100.139539
3376.000000	100.139770
3375.000000	100.139984
3374.000000	100.140183
3373.000000	100.140352
3372.000000	100.140467
3371.000000	100.140524
3370.000000	100.140537
3369.000000	100.140527
3368.000000	100.140504
3367.000000	100.140459
3366.000000	100.140374
3365.000000	100.140240
3364.000000	100.140063
3363.000000	100.139859
3362.000000	100.139645
3361.000000	100.139424
3360.000000	100.139195
3359.000000	100.138943
3358.000000	100.138651
3357.000000	100.138308
3356.000000	100.137916
3355.000000	100.137488
3354.000000	100.137029
3353.000000	100.136527
3352.000000	100.135963
3351.000000	100.135326
3350.000000	100.134630
3349.000000	100.133897
3348.000000	100.133148
3347.000000	100.132392
3346.000000	100.131635
3345.000000	100.130875
3344.000000	100.130105
3343.000000	100.129316
3342.000000	100.128508
3341.000000	100.127685
3340.000000	100.126852
3339.000000	100.126006
3338.000000	100.125151
3337.000000	100.124298
3336.000000	100.123468
3335.000000	100.122672
3334.000000	100.121904
3333.000000	100.121142
3332.000000	100.120365
3331.000000	100.119567
3330.000000	100.118765
3329.000000	100.117978
3328.000000	100.117206
3327.000000	100.116427
3326.000000	100.115612
3325.000000	100.114746
3324.000000	100.113844
3323.000000	100.112936
3322.000000	100.112044
3321.000000	100.111167
3320.000000	100.110296
3319.000000	100.109418
3318.000000	100.108526
3317.000000	100.107620
3316.000000	100.106711
3315.000000	100.105821
3314.000000	100.104969
3313.000000	100.104156
3312.000000	100.103368
3311.000000	100.102588
3310.000000	100.101814
3309.000000	100.101054
3308.000000	100.100312
3307.000000	100.099587
3306.000000	100.098876
3305.000000	100.098167
3304.000000	100.097444
3303.000000	100.096693
3302.000000	100.095919
3301.000000	100.095145
3300.000000	100.094396
3299.000000	100.093669
3298.000000	100.092944
3297.000000	100.092193
3296.000000	100.091404
3295.000000	100.090578
3294.000000	100.089723
3293.000000	100.088839
3292.000000	100.087925
3291.000000	100.086984
3290.000000	100.086021
3289.000000	100.085041
3288.000000	100.084048
3287.000000	100.083042
3286.000000	100.082023
3285.000000	100.080992
3284.000000	100.079960
3283.000000	100.078941
3282.000000	100.077940
3281.000000	100.076947
3280.000000	100.075940
3279.000000	100.074903
3278.000000	100.073835
3277.000000	100.072745
3276.000000	100.071646
3275.000000	100.070543
3274.000000	100.069433
3273.000000	100.068304
3272.000000	100.067140
3271.000000	100.065932
3270.000000	100.064690
3269.000000	100.063437
3268.000000	100.062192
3267.000000	100.060963
3266.000000	100.059750
3265.000000	100.058538
3264.000000	100.057269
3263.000000	100.055877
3262.000000	100.054352
3261.000000	100.052804
3260.000000	100.051363
3259.000000	100.050065
3258.000000	100.048815
3257.000000	100.047471
3256.000000	100.045971
3255.000000	100.044334
3254.000000	100.042677
3253.000000	100.041190
3252.000000	100.039954
3251.000000	100.038876
3250.000000	100.037811
3249.000000	100.036764
3248.000000	100.035772
3247.000000	100.034695
3246.000000	100.033296
3245.000000	100.031526
3244.000000	100.029573
3243.000000	100.027685
3242.000000	100.026048
3241.000000	100.024747
3240.000000	100.023638
3239.000000	100.022331
3238.000000	100.020575
3237.000000	100.018655
3236.000000	100.017158
3235.000000	100.016323
3234.000000	100.015825
3233.000000	100.015169
3232.000000	100.014202
3231.000000	100.013152
3230.000000	100.012332
3229.000000	100.011823
3228.000000	100.011350
3227.000000	100.010514
3226.000000	100.009169
3225.000000	100.007480
3224.000000	100.005606
3223.000000	100.003570
3222.000000	100.001520
3221.000000	99.999827
3220.000000	99.998675
3219.000000	99.997716
3218.000000	99.996435
3217.000000	99.994826
3216.000000	99.993413
3215.000000	99.992541
3214.000000	99.992090
3213.000000	99.991668
3212.000000	99.990941
3211.000000	99.989828
3210.000000	99.988452
3209.000000	99.987041
3208.000000	99.985739
3207.000000	99.984503
3206.000000	99.983245
3205.000000	99.981973
3204.000000	99.980758
3203.000000	99.979630
3202.000000	99.978559
3201.000000	99.977503
3200.000000	99.976437
3199.000000	99.975354
3198.000000	99.974256
3197.000000	99.973152
3196.000000	99.972055
3195.000000	99.970974
3194.000000	99.969904
3193.000000	99.968830
3192.000000	99.967749
3191.000000	99.966679
3190.000000	99.965652
3189.000000	99.964685
3188.000000	99.963779
3187.000000	99.962925
3186.000000	99.962117
3185.000000	99.961350
3184.000000	99.960624
3183.000000	99.959939
3182.000000	99.959296
3181.000000	99.958701
3180.000000	99.958159
3179.000000	99.957682
3178.000000	99.957280
3177.000000	99.956949
3176.000000	99.956663
3175.000000	99.956380
3174.000000	99.956065
3173.000000	99.955710
3172.000000	99.955336
3171.000000	99.954980
3170.000000	99.954670
3169.000000	99.954417
3168.000000	99.954217
3167.000000	99.954058
3166.000000	99.953929
3165.000000	99.953830
3164.000000	99.953773
3163.000000	99.953767
3162.000000	99.953804
3161.000000	99.953860
3160.000000	99.953914
3159.000000	99.953968
3158.000000	99.954036
3157.000000	99.954131
3156.000000	99.954253
3155.000000	99.954389
3154.000000	99.954522
3153.000000	99.954634
3152.000000	99.954723
3151.000000	99.954802
3150.000000	99.954884
3149.000000	99.954965
3148.000000	99.955025
3147.000000	99.955043
3146.000000	99.955010
3145.000000	99.954938
3144.000000	99.954844
3143.000000	99.954749
3142.000000	99.954661
3141.000000	99.954575
3140.000000	99.954481
3139.000000	99.954374
3138.000000	99.954262
3137.000000	99.954150
3136.000000	99.954027
3135.000000	99.953873
3134.000000	99.953680
3133.000000	99.953471
3132.000000	99.953281
3131.000000	99.953140
3130.000000	99.953052
3129.000000	99.952997
3128.000000	99.952944
3127.000000	99.952868
3126.000000	99.952766
3125.000000	99.952653
3124.000000	99.952545
3123.000000	99.952448
3122.000000	99.952349
3121.000000	99.952233
3120.000000	99.952101
3119.000000	99.951971
3118.000000	99.951866
3117.000000	99.951791
3116.000000	99.951737
3115.000000	99.951681
3114.000000	99.951611
3113.000000	99.951527
3112.000000	99.951444
3111.000000	99.951390
3110.000000	99.951387
3109.000000	99.951446
3108.000000	99.951553
3107.000000	99.951683
3106.000000	99.951824
3105.000000	99.951978
3104.000000	99.952158
3103.000000	99.952373
3102.000000	99.952622
3101.000000	99.952889
3100.000000	99.953155
3099.000000	99.953412
3098.000000	99.953668
3097.000000	99.953942
3096.000000	99.954242
3095.000000	99.954561
3094.000000	99.954883
3093.000000	99.955201
3092.000000	99.955517
3091.000000	99.955829
3090.000000	99.956131
3089.000000	99.956408
3088.000000	99.956644
3087.000000	99.956831
3086.000000	99.956976
3085.000000	99.957099
3084.000000	99.957222
3083.000000	99.957356
3082.000000	99.957501
3081.000000	99.957655
3080.000000	99.957819
3079.000000	99.957990
3078.000000	99.958166
3077.000000	99.958341
3076.000000	99.958514
3075.000000	99.958688
3074.000000	99.958869
3073.000000	99.959061
3072.000000	99.959273
3071.000000	99.959518
3070.000000	99.959804
3069.000000	99.960122
3068.000000	99.960442
3067.000000	99.960733
3066.000000	99.960985
3065.000000	99.961218
3064.000000	99.961462
3063.000000	99.961736
3062.000000	99.962039
3061.000000	99.962359
3060.000000	99.962683
3059.000000	99.963012
3058.000000	99.963359
3057.000000	99.963741
3056.000000	99.964161
3055.000000	99.964610
3054.000000	99.965066
3053.000000	99.965518
3052.000000	99.965973
3051.000000	99.966451
3050.000000	99.966971
3049.000000	99.967541
3048.000000	99.968163
3047.000000	99.968839
3046.000000	99.969583
3045.000000	99.970394
3044.000000	99.971235
3043.000000	99.972154
3042.000000	99.973204
3041.000000	99.974440
3040.000000	99.975881
3039.000000	99.977274
3038.000000	99.978134
3037.000000	99.978451
3036.000000	99.979176
3035.000000	99.981357
3034.000000	99.984758
3033.000000	99.987734
3032.000000	99.989056
3031.000000	99.989410
3030.000000	99.990530
3029.000000	99.992749
3028.000000	99.994350
3027.000000	99.993889
3026.000000	99.992550
3025.000000	99.993146
3024.000000	99.996738
3023.000000	100.001262
3022.000000	100.004099
3021.000000	100.004873
3020.000000	100.004696
3019.000000	100.003933
3018.000000	100.002647
3017.000000	100.002787
3016.000000	100.007519
3015.000000	100.017363
3014.000000	100.028190
3013.000000	100.034437
3012.000000	100.034246
3011.000000	100.030930
3010.000000	100.029667
3009.000000	100.033221
3008.000000	100.040934
3007.000000	100.050727
3006.000000	100.060499
3005.000000	100.067247
3004.000000	100.067419
3003.000000	100.061039
3002.000000	100.054567
3001.000000	100.056071
3000.000000	100.066819
2999.000000	100.080372
2998.000000	100.090812
2997.000000	100.098803
2996.000000	100.107461
2995.000000	100.115989
2994.000000	100.121688
2993.000000	100.126143
2992.000000	100.134110
2991.000000	100.146433
2990.000000	100.159078
2989.000000	100.170613
2988.000000	100.186069
2987.000000	100.210010
2986.000000	100.238429
2985.000000	100.261579
2984.000000	100.274563
2983.000000	100.282295
2982.000000	100.293680
2981.000000	100.312486
2980.000000	100.333853
2979.000000	100.348712
2978.000000	100.351715
2977.000000	100.345914
2976.000000	100.340028
2975.000000	100.339828
2974.000000	100.341913
2973.000000	100.337562
2972.000000	100.322678
2971.000000	100.302345
2970.000000	100.285410
2969.000000	100.275788
2968.000000	100.269430
2967.000000	100.258494
2966.000000	100.238420
2965.000000	100.212712
2964.000000	100.191502
2963.000000	100.183182
2962.000000	100.185982
2961.000000	100.188901
2960.000000	100.182083
2959.000000	100.165473
2958.000000	100.146764
2957.000000	100.133490
2956.000000	100.129170
2955.000000	100.133993
2954.000000	100.144222
2953.000000	100.151889
2952.000000	100.150038
2951.000000	100.139988
2950.000000	100.130645
2949.000000	100.129229
2948.000000	100.134972
2947.000000	100.142254
2946.000000	100.146896
2945.000000	100.147962
2944.000000	100.146495
2943.000000	100.145210
2942.000000	100.147357
2941.000000	100.153041
2940.000000	100.157954
2939.000000	100.158439
2938.000000	100.156846
2937.000000	100.159011
2936.000000	100.166843
2935.000000	100.175944
2934.000000	100.180587
2933.000000	100.179338
2932.000000	100.175262
2931.000000	100.172467
2930.000000	100.172988
2929.000000	100.176282
2928.000000	100.180540
2927.000000	100.184047
2926.000000	100.185927
2925.000000	100.186264
2924.000000	100.185873
2923.000000	100.185956
2922.000000	100.187350
2921.000000	100.189842
2920.000000	100.192393
2919.000000	100.194190
2918.000000	100.195400
2917.000000	100.196764
2916.000000	100.198714
2915.000000	100.200993
2914.000000	100.203176
2913.000000	100.205103
2912.000000	100.206879
2911.000000	100.208615
2910.000000	100.210347
2909.000000	100.212059
2908.000000	100.213723
2907.000000	100.215320
2906.000000	100.216842
2905.000000	100.218286
2904.000000	100.219648
2903.000000	100.220920
2902.000000	100.222096
2901.000000	100.223172
2900.000000	100.224145
2899.000000	100.225004
2898.000000	100.225738
2897.000000	100.226327
2896.000000	100.226768
2895.000000	100.227097
2894.000000	100.227345
2893.000000	100.227493
2892.000000	100.227488
2891.000000	100.227297
2890.000000	100.226950
2889.000000	100.226532
2888.000000	100.226119
2887.000000	100.225750
2886.000000	100.225402
2885.000000	100.225002
2884.000000	100.224495
2883.000000	100.223888
2882.000000	100.223227
2881.000000	100.222540
2880.000000	100.221795
2879.000000	100.220933
2878.000000	100.219935
2877.000000	100.218845
2876.000000	100.217705
2875.000000	100.216526
2874.000000	100.215302
2873.000000	100.214030
2872.000000	100.212709
2871.000000	100.211341
2870.000000	100.209928
2869.000000	100.208464
2868.000000	100.206946
2867.000000	100.205390
2866.000000	100.203825
2865.000000	100.202270
2864.000000	100.200722
2863.000000	100.199164
2862.000000	100.197588
2861.000000	100.196005
2860.000000	100.194434
2859.000000	100.192884
2858.000000	100.191357
2857.000000	100.189856
2856.000000	100.188395
2855.000000	100.186991
2854.000000	100.185653
2853.000000	100.184384
2852.000000	100.183176
2851.000000	100.182018
2850.000000	100.180901
2849.000000	100.179823
2848.000000	100.178795
2847.000000	100.177820
2846.000000	100.176884
2845.000000	100.175962
2844.000000	100.175031
2843.000000	100.174091
2842.000000	100.173166
2841.000000	100.172290
2840.000000	100.171485
2839.000000	100.170758
2838.000000	100.170106
2837.000000	100.169526
2836.000000	100.169020
2835.000000	100.168593
2834.000000	100.168248
2833.000000	100.167986
2832.000000	100.167798
2831.000000	100.167665
2830.000000	100.167558
2829.000000	100.167457
2828.000000	100.167360
2827.000000	100.167283
2826.000000	100.167244
2825.000000	100.167251
2824.000000	100.167292
2823.000000	100.167355
2822.000000	100.167433
2821.000000	100.167531
2820.000000	100.167654
2819.000000	100.167804
2818.000000	100.167973
2817.000000	100.168150
2816.000000	100.168338
2815.000000	100.168547
2814.000000	100.168788
2813.000000	100.169062
2812.000000	100.169356
2811.000000	100.169654
2810.000000	100.169951
2809.000000	100.170254
2808.000000	100.170571
2807.000000	100.170911
2806.000000	100.171272
2805.000000	100.171646
2804.000000	100.172027
2803.000000	100.172413
2802.000000	100.172814
2801.000000	100.173246
2800.000000	100.173722
2799.000000	100.174242
2798.000000	100.174793
2797.000000	100.175349
2796.000000	100.175890
2795.000000	100.176414
2794.000000	100.176933
2793.000000	100.177458
2792.000000	100.177981
2791.000000	100.178485
2790.000000	100.178957
2789.000000	100.179413
2788.000000	100.179884
2787.000000	100.180402
2786.000000	100.180973
2785.000000	100.181580
2784.000000	100.182197
2783.000000	100.182807
2782.000000	100.183406
2781.000000	100.184002
2780.000000	100.184603
2779.000000	100.185214
2778.000000	100.185833
2777.000000	100.186458
2776.000000	100.187093
2775.000000	100.187747
2774.000000	100.188430
2773.000000	100.189140
2772.000000	100.189866
2771.000000	100.190595
2770.000000	100.191326
2769.000000	100.192058
2768.000000	100.192791
2767.000000	100.193530
2766.000000	100.194284
2765.000000	100.195060
2764.000000	100.195855
2763.000000	100.196653
2762.000000	100.197449
2761.000000	100.198256
2760.000000	100.199098
2759.000000	100.199975
2758.000000	100.200857
2757.000000	100.201699
2756.000000	100.202475
2755.000000	100.203201
2754.000000	100.203911
2753.000000	100.204627
2752.000000	100.205334
2751.000000	100.205998
2750.000000	100.206598
2749.000000	100.207141
2748.000000	100.207657
2747.000000	100.208174
2746.000000	100.208697
2745.000000	100.209212
2744.000000	100.209700
2743.000000	100.210159
2742.000000	100.210603
2741.000000	100.211060
2740.000000	100.211545
2739.000000	100.212052
2738.000000	100.212559
2737.000000	100.213049
2736.000000	100.213528
2735.000000	100.214013
2734.000000	100.214513
2733.000000	100.215011
2732.000000	100.215475
2731.000000	100.215885
2730.000000	100.216244
2729.000000	100.216565
2728.000000	100.216860
2727.000000	100.217136
2726.000000	100.217398
2725.000000	100.217647
2724.000000	100.217877
2723.000000	100.218071
2722.000000	100.218219
2721.000000	100.218329
2720.000000	100.218420
2719.000000	100.218508
2718.000000	100.218589
2717.000000	100.218643
2716.000000	100.218666
2715.000000	100.218682
2714.000000	100.218728
2713.000000	100.218816
2712.000000	100.218930
2711.000000	100.219044
2710.000000	100.219150
2709.000000	100.219272
2708.000000	100.219437
2707.000000	100.219656
2706.000000	100.219916
2705.000000	100.220190
2704.000000	100.220454
2703.000000	100.220696
2702.000000	100.220916
2701.000000	100.221124
2700.000000	100.221325
2699.000000	100.221516
2698.000000	100.221685
2697.000000	100.221826
2696.000000	100.221944
2695.000000	100.222051
2694.000000	100.222146
2693.000000	100.222217
2692.000000	100.222250
2691.000000	100.222247
2690.000000	100.222231
2689.000000	100.222229
2688.000000	100.222261
2687.000000	100.222329
2686.000000	100.222420
2685.000000	100.222517
2684.000000	100.222605
2683.000000	100.222677
2682.000000	100.222733
2681.000000	100.222778
2680.000000	100.222824
2679.000000	100.222889
2678.000000	100.222983
2677.000000	100.223096
2676.000000	100.223204
2675.000000	100.223288
2674.000000	100.223352
2673.000000	100.223409
2672.000000	100.223461
2671.000000	100.223499
2670.000000	100.223515
2669.000000	100.223517
2668.000000	100.223513
2667.000000	100.223514
2666.000000	100.223523
2665.000000	100.223540
2664.000000	100.223559
2663.000000	100.223568
2662.000000	100.223555
2661.000000	100.223519
2660.000000	100.223472
2659.000000	100.223434
2658.000000	100.223414
2657.000000	100.223404
2656.000000	100.223383
2655.000000	100.223338
2654.000000	100.223273
2653.000000	100.223202
2652.000000	100.223140
2651.000000	100.223094
2650.000000	100.223064
2649.000000	100.223054
2648.000000	100.223062
2647.000000	100.223080
2646.000000	100.223093
2645.000000	100.223089
2644.000000	100.223068
2643.000000	100.223046
2642.000000	100.223039
2641.000000	100.223056
2640.000000	100.223092
2639.000000	100.223147
2638.000000	100.223222
2637.000000	100.223309
2636.000000	100.223389
2635.000000	100.223446
2634.000000	100.223487
2633.000000	100.223535
2632.000000	100.223603
2631.000000	100.223686
2630.000000	100.223770
2629.000000	100.223849
2628.000000	100.223928
2627.000000	100.224015
2626.000000	100.224120
2625.000000	100.224245
2624.000000	100.224378
2623.000000	100.224495
2622.000000	100.224586
2621.000000	100.224662
2620.000000	100.224751
2619.000000	100.224873
2618.000000	100.225029
2617.000000	100.225198
2616.000000	100.225357
2615.000000	100.225504
2614.000000	100.225661
2613.000000	100.225856
2612.000000	100.226100
2611.000000	100.226375
2610.000000	100.226652
2609.000000	100.226919
2608.000000	100.227183
2607.000000	100.227458
2606.000000	100.227749
2605.000000	100.228043
2604.000000	100.228326
2603.000000	100.228597
2602.000000	100.228863
2601.000000	100.229130
2600.000000	100.229395
2599.000000	100.229652
2598.000000	100.229897
2597.000000	100.230133
2596.000000	100.230368
2595.000000	100.230607
2594.000000	100.230858
2593.000000	100.231132
2592.000000	100.231429
2591.000000	100.231747
2590.000000	100.232079
2589.000000	100.232422
2588.000000	100.232778
2587.000000	100.233150
2586.000000	100.233533
2585.000000	100.233918
2584.000000	100.234286
2583.000000	100.234624
2582.000000	100.234935
2581.000000	100.235234
2580.000000	100.235537
2579.000000	100.235849
2578.000000	100.236164
2577.000000	100.236476
2576.000000	100.236783
2575.000000	100.237092
2574.000000	100.237412
2573.000000	100.237743
2572.000000	100.238071
2571.000000	100.238378
2570.000000	100.238653
2569.000000	100.238908
2568.000000	100.239166
2567.000000	100.239447
2566.000000	100.239758
2565.000000	100.240091
2564.000000	100.240438
2563.000000	100.240793
2562.000000	100.241165
2561.000000	100.241565
2560.000000	100.241994
2559.000000	100.242442
2558.000000	100.242897
2557.000000	100.243357
2556.000000	100.243834
2555.000000	100.244340
2554.000000	100.244872
2553.000000	100.245409
2552.000000	100.245929
2551.000000	100.246423
2550.000000	100.246902
2549.000000	100.247381
2548.000000	100.247860
2547.000000	100.248330
2546.000000	100.248786
2545.000000	100.249234
2544.000000	100.249685
2543.000000	100.250146
2542.000000	100.250624
2541.000000	100.251129
2540.000000	100.251657
2539.000000	100.252195
2538.000000	100.252732
2537.000000	100.253270
2536.000000	100.253822
2535.000000	100.254391
2534.000000	100.254965
2533.000000	100.255530
2532.000000	100.256083
2531.000000	100.256635
2530.000000	100.257205
2529.000000	100.257809
2528.000000	100.258456
2527.000000	100.259140
2526.000000	100.259849
2525.000000	100.260562
2524.000000	100.261250
2523.000000	100.261888
2522.000000	100.262466
2521.000000	100.262994
2520.000000	100.263494
2519.000000	100.263981
2518.000000	100.264456
2517.000000	100.264922
2516.000000	100.265380
2515.000000	100.265836
2514.000000	100.266293
2513.000000	100.266745
2512.000000	100.267189
2511.000000	100.267630
2510.000000	100.268080
2509.000000	100.268550
2508.000000	100.269033
2507.000000	100.269506
2506.000000	100.269946
2505.000000	100.270348
2504.000000	100.270730
2503.000000	100.271114
2502.000000	100.271511
2501.000000	100.271919
2500.000000	100.272330
2499.000000	100.272730
2498.000000	100.273117
2497.000000	100.273499
2496.000000	100.273893
2495.000000	100.274298
2494.000000	100.274696
2493.000000	100.275070
2492.000000	100.275425
2491.000000	100.275783
2490.000000	100.276160
2489.000000	100.276548
2488.000000	100.276923
2487.000000	100.277265
2486.000000	100.277571
2485.000000	100.277846
2484.000000	100.278098
2483.000000	100.278334
2482.000000	100.278568
2481.000000	100.278828
2480.000000	100.279141
2479.000000	100.279512
2478.000000	100.279929
2477.000000	100.280370
2476.000000	100.280829
2475.000000	100.281307
2474.000000	100.281803
2473.000000	100.282304
2472.000000	100.282794
2471.000000	100.283265
2470.000000	100.283721
2469.000000	100.284174
2468.000000	100.284634
2467.000000	100.285100
2466.000000	100.285567
2465.000000	100.286027
2464.000000	100.286490
2463.000000	100.286978
2462.000000	100.287507
2461.000000	100.288066
2460.000000	100.288624
2459.000000	100.289153
2458.000000	100.289645
2457.000000	100.290119
2456.000000	100.290601
2455.000000	100.291106
2454.000000	100.291627
2453.000000	100.292145
2452.000000	100.292659
2451.000000	100.293186
2450.000000	100.293750
2449.000000	100.294350
2448.000000	100.294964
2447.000000	100.295572
2446.000000	100.296172
2445.000000	100.296779
2444.000000	100.297405
2443.000000	100.298057
2442.000000	100.298736
2441.000000	100.299441
2440.000000	100.300162
2439.000000	100.300882
2438.000000	100.301581
2437.000000	100.302253
2436.000000	100.302907
2435.000000	100.303556
2434.000000	100.304196
2433.000000	100.304812
2432.000000	100.305392
2431.000000	100.305944
2430.000000	100.306493
2429.000000	100.307058
2428.000000	100.307640
2427.000000	100.308224
2426.000000	100.308789
2425.000000	100.309324
2424.000000	100.309833
2423.000000	100.310336
2422.000000	100.310850
2421.000000	100.311370
2420.000000	100.311873
2419.000000	100.312342
2418.000000	100.312779
2417.000000	100.313199
2416.000000	100.313613
2415.000000	100.314024
2414.000000	100.314417
2413.000000	100.314772
2412.000000	100.315065
2411.000000	100.315297
2410.000000	100.315499
2409.000000	100.315706
2408.000000	100.315914
2407.000000	100.316087
2406.000000	100.316193
2405.000000	100.316235
2404.000000	100.316241
2403.000000	100.316240
2402.000000	100.316234
2401.000000	100.316194
2400.000000	100.316081
2399.000000	100.315876
2398.000000	100.315597
2397.000000	100.315287
2396.000000	100.314977
2395.000000	100.314676
2394.000000	100.314366
2393.000000	100.314024
2392.000000	100.313631
2391.000000	100.313192
2390.000000	100.312728
2389.000000	100.312260
2388.000000	100.311790
2387.000000	100.311302
2386.000000	100.310770
2385.000000	100.310179
2384.000000	100.309524
2383.000000	100.308814
2382.000000	100.308066
2381.000000	100.307308
2380.000000	100.306557
2379.000000	100.305817
2378.000000	100.305074
2377.000000	100.304317
2376.000000	100.303542
2375.000000	100.302763
2374.000000	100.302011
2373.000000	100.301309
2372.000000	100.300655
2371.000000	100.300039
2370.000000	100.299471
2369.000000	100.298975
2368.000000	100.298547
2367.000000	100.298141
2366.000000	100.297707
2365.000000	100.297250
2364.000000	100.296827
2363.000000	100.296492
2362.000000	100.296246
2361.000000	100.296044
2360.000000	100.295824
2359.000000	100.295567
2358.000000	100.295314
2357.000000	100.295127
2356.000000	100.295031
2355.000000	100.294989
2354.000000	100.294942
2353.000000	100.294856
2352.000000	100.294735
2351.000000	100.294610
2350.000000	100.294521
2349.000000	100.294494
2348.000000	100.294526
2347.000000	100.294591
2346.000000	100.294655
2345.000000	100.294705
2344.000000	100.294758
2343.000000	100.294841
2342.000000	100.294981
2341.000000	100.295205
2340.000000	100.295518
2339.000000	100.295891
2338.000000	100.296268
2337.000000	100.296605
2336.000000	100.296903
2335.000000	100.297192
2334.000000	100.297498
2333.000000	100.297826
2332.000000	100.298156
2331.000000	100.298465
2330.000000	100.298738
2329.000000	100.298965
2328.000000	100.299138
2327.000000	100.299248
2326.000000	100.299296
2325.000000	100.299290
2324.000000	100.299237
2323.000000	100.299133
2322.000000	100.298971
2321.000000	100.298740
2320.000000	100.298432
2319.000000	100.298051
2318.000000	100.297632
2317.000000	100.297226
2316.000000	100.296858
2315.000000	100.296506
2314.000000	100.296132
2313.000000	100.295725
2312.000000	100.295314
2311.000000	100.294930
2310.000000	100.294576
2309.000000	100.294228
2308.000000	100.293857
2307.000000	100.293445
2306.000000	100.292996
2305.000000	100.292524
2304.000000	100.292041
2303.000000	100.291549
2302.000000	100.291049
2301.000000	100.290544
2300.000000	100.290035
2299.000000	100.289514
2298.000000	100.288969
2297.000000	100.288392
2296.000000	100.287791
2295.000000	100.287182
2294.000000	100.286581
2293.000000	100.285991
2292.000000	100.285406
2291.000000	100.284815
2290.000000	100.284208
2289.000000	100.283575
2288.000000	100.282908
2287.000000	100.282209
2286.000000	100.281494
2285.000000	100.280778
2284.000000	100.280071
2283.000000	100.279373
2282.000000	100.278693
2281.000000	100.278050
2280.000000	100.277463
2279.000000	100.276929
2278.000000	100.276427
2277.000000	100.275941
2276.000000	100.275461
2275.000000	100.274978
2274.000000	100.274473
2273.000000	100.273936
2272.000000	100.273371
2271.000000	100.272788
2270.000000	100.272185
2269.000000	100.271549
2268.000000	100.270875
2267.000000	100.270178
2266.000000	100.269481
2265.000000	100.268792
2264.000000	100.268101
2263.000000	100.267399
2262.000000	100.266688
2261.000000	100.265987
2260.000000	100.265306
2259.000000	100.264642
2258.000000	100.263980
2257.000000	100.263308
2256.000000	100.262626
2255.000000	100.261928
2254.000000	100.261208
2253.000000	100.260491
2252.000000	100.259826
2251.000000	100.259208
2250.000000	100.258550
2249.000000	100.257773
2248.000000	100.256907
2247.000000	100.256092
2246.000000	100.255425
2245.000000	100.254901
2244.000000	100.254471
2243.000000	100.254100
2242.000000	100.253777
2241.000000	100.253509
2240.000000	100.253315
2239.000000	100.253184
2238.000000	100.253039
2237.000000	100.252794
2236.000000	100.252435
2235.000000	100.252021
2234.000000	100.251656
2233.000000	100.251419
2232.000000	100.251336
2231.000000	100.251366
2230.000000	100.251433
2229.000000	100.251474
2228.000000	100.251483
2227.000000	100.251528
2226.000000	100.251706
2225.000000	100.252045
2224.000000	100.252455
2223.000000	100.252809
2222.000000	100.253078
2221.000000	100.253351
2220.000000	100.253722
2219.000000	100.254176
2218.000000	100.254639
2217.000000	100.255099
2216.000000	100.255614
2215.000000	100.256215
2214.000000	100.256865
2213.000000	100.257514
2212.000000	100.258155
2211.000000	100.258812
2210.000000	100.259497
2209.000000	100.260193
2208.000000	100.260888
2207.000000	100.261589
2206.000000	100.262304
2205.000000	100.263035
2204.000000	100.263780
2203.000000	100.264527
2202.000000	100.265261
2201.000000	100.265983
2200.000000	100.266704
2199.000000	100.267432
2198.000000	100.268161
2197.000000	100.268879
2196.000000	100.269577
2195.000000	100.270254
2194.000000	100.270903
2193.000000	100.271513
2192.000000	100.272075
2191.000000	100.272594
2190.000000	100.273084
2189.000000	100.273549
2188.000000	100.273981
2187.000000	100.274377
2186.000000	100.274749
2185.000000	100.275117
2184.000000	100.275487
2183.000000	100.275852
2182.000000	100.276204
2181.000000	100.276546
2180.000000	100.276886
2179.000000	100.277228
2178.000000	100.277569
2177.000000	100.277897
2176.000000	100.278198
2175.000000	100.278459
2174.000000	100.278673
2173.000000	100.278845
2172.000000	100.278991
2171.000000	100.279131
2170.000000	100.279280
2169.000000	100.279437
2168.000000	100.279582
2167.000000	100.279701
2166.000000	100.279799
2165.000000	100.279895
2164.000000	100.280001
2163.000000	100.280104
2162.000000	100.280185
2161.000000	100.280246
2160.000000	100.280309
2159.000000	100.280391
2158.000000	100.280491
2157.000000	100.280597
2156.000000	100.280706
2155.000000	100.280827
2154.000000	100.280974
2153.000000	100.281153
2152.000000	100.281370
2151.000000	100.281634
2150.000000	100.281954
2149.000000	100.282325
2148.000000	100.282728
2147.000000	100.283149
2146.000000	100.283592
2145.000000	100.284072
2144.000000	100.284584
2143.000000	100.285106
2142.000000	100.285618
2141.000000	100.286113
2140.000000	100.286600
2139.000000	100.287086
2138.000000	100.287574
2137.000000	100.288067
2136.000000	100.288568
2135.000000	100.289080
2134.000000	100.289613
2133.000000	100.290175
2132.000000	100.290775
2131.000000	100.291412
2130.000000	100.292073
2129.000000	100.292737
2128.000000	100.293385
2127.000000	100.294010
2126.000000	100.294632
2125.000000	100.295278
2124.000000	100.295961
2123.000000	100.296664
2122.000000	100.297368
2121.000000	100.298070
2120.000000	100.298788
2119.000000	100.299532
2118.000000	100.300292
2117.000000	100.301051
2116.000000	100.301794
2115.000000	100.302516
2114.000000	100.303220
2113.000000	100.303910
2112.000000	100.304594
2111.000000	100.305278
2110.000000	100.305957
2109.000000	100.306626
2108.000000	100.307275
2107.000000	100.307901
2106.000000	100.308509
2105.000000	100.309105
2104.000000	100.309692
2103.000000	100.310268
2102.000000	100.310826
2101.000000	100.311364
2100.000000	100.311884
2099.000000	100.312390
2098.000000	100.312885
2097.000000	100.313370
2096.000000	100.313848
2095.000000	100.314316
2094.000000	100.314767
2093.000000	100.315191
2092.000000	100.315584
2091.000000	100.315946
2090.000000	100.316279
2089.000000	100.316583
2088.000000	100.316856
2087.000000	100.317102
2086.000000	100.317337
2085.000000	100.317578
2084.000000	100.317821
2083.000000	100.318041
2082.000000	100.318208
2081.000000	100.318317
2080.000000	100.318376
2079.000000	100.318391
2078.000000	100.318357
2077.000000	100.318267
2076.000000	100.318126
2075.000000	100.317938
2074.000000	100.317702
2073.000000	100.317412
2072.000000	100.317074
2071.000000	100.316693
2070.000000	100.316269
2069.000000	100.315790
2068.000000	100.315244
2067.000000	100.314632
2066.000000	100.313955
2065.000000	100.313216
2064.000000	100.312415
2063.000000	100.311556
2062.000000	100.310641
2061.000000	100.309672
2060.000000	100.308651
2059.000000	100.307576
2058.000000	100.306445
2057.000000	100.305259
2056.000000	100.304024
2055.000000	100.302748
2054.000000	100.301430
2053.000000	100.300061
2052.000000	100.298630
2051.000000	100.297137
2050.000000	100.295591
2049.000000	100.293996
2048.000000	100.292344
2047.000000	100.290630
2046.000000	100.288861
2045.000000	100.287048
2044.000000	100.285196
2043.000000	100.283290
2042.000000	100.281316
2041.000000	100.279274
2040.000000	100.277179
2039.000000	100.275046
2038.000000	100.272884
2037.000000	100.270705
2036.000000	100.268527
2035.000000	100.266356
2034.000000	100.264182
2033.000000	100.261993
2032.000000	100.259791
2031.000000	100.257592
2030.000000	100.255409
2029.000000	100.253236
2028.000000	100.251069
2027.000000	100.248912
2026.000000	100.246775
2025.000000	100.244657
2024.000000	100.242544
2023.000000	100.240423
2022.000000	100.238299
2021.000000	100.236191
2020.000000	100.234117
2019.000000	100.232081
2018.000000	100.230071
2017.000000	100.228081
2016.000000	100.226117
2015.000000	100.224192
2014.000000	100.222309
2013.000000	100.220459
2012.000000	100.218632
2011.000000	100.216833
2010.000000	100.215078
2009.000000	100.213380
2008.000000	100.211740
2007.000000	100.210150
2006.000000	100.208609
2005.000000	100.207118
2004.000000	100.205685
2003.000000	100.204312
2002.000000	100.202998
2001.000000	100.201740
2000.000000	100.200541
1999.000000	100.199413
1998.000000	100.198368
1997.000000	100.197414
1996.000000	100.196549
1995.000000	100.195757
1994.000000	100.195019
1993.000000	100.194317
1992.000000	100.193644
1991.000000	100.193003
1990.000000	100.192397
1989.000000	100.191819
1988.000000	100.191259
1987.000000	100.190714
1986.000000	100.190194
1985.000000	100.189705
1984.000000	100.189238
1983.000000	100.188777
1982.000000	100.188341
1981.000000	100.187981
1980.000000	100.187731
1979.000000	100.187566
1978.000000	100.187436
1977.000000	100.187301
1976.000000	100.187136
1975.000000	100.186947
1974.000000	100.186776
1973.000000	100.186661
1972.000000	100.186585
1971.000000	100.186512
1970.000000	100.186439
1969.000000	100.186375
1968.000000	100.186303
1967.000000	100.186206
1966.000000	100.186119
1965.000000	100.186097
1964.000000	100.186130
1963.000000	100.186155
1962.000000	100.186144
1961.000000	100.186129
1960.000000	100.186141
1959.000000	100.186159
1958.000000	100.186170
1957.000000	100.186232
1956.000000	100.186365
1955.000000	100.186420
1954.000000	100.186209
1953.000000	100.185725
1952.000000	100.185149
1951.000000	100.184619
1950.000000	100.184151
1949.000000	100.183714
1948.000000	100.183219
1947.000000	100.182504
1946.000000	100.181525
1945.000000	100.180580
1944.000000	100.180091
1943.000000	100.180140
1942.000000	100.180275
1941.000000	100.179972
1940.000000	100.179165
1939.000000	100.178183
1938.000000	100.177400
1937.000000	100.176873
1936.000000	100.176210
1935.000000	100.174963
1934.000000	100.173136
1933.000000	100.171326
1932.000000	100.170065
1931.000000	100.169111
1930.000000	100.167778
1929.000000	100.165952
1928.000000	100.164167
1927.000000	100.162655
1926.000000	100.160972
1925.000000	100.158751
1924.000000	100.156286
1923.000000	100.154146
1922.000000	100.152507
1921.000000	100.151098
1920.000000	100.149474
1919.000000	100.147229
1918.000000	100.144256
1917.000000	100.141082
1916.000000	100.138418
1915.000000	100.136224
1914.000000	100.133771
1913.000000	100.130567
1912.000000	100.126972
1911.000000	100.123767
1910.000000	100.121120
1909.000000	100.118430
1908.000000	100.115346
1907.000000	100.112251
1906.000000	100.109594
1905.000000	100.107269
1904.000000	100.104947
1903.000000	100.102567
1902.000000	100.100106
1901.000000	100.097158
1900.000000	100.093339
1899.000000	100.089060
1898.000000	100.085406
1897.000000	100.083063
1896.000000	100.081515
1895.000000	100.079319
1894.000000	100.075531
1893.000000	100.070764
1892.000000	100.066815
1891.000000	100.065131
1890.000000	100.065694
1889.000000	100.066972
1888.000000	100.067285
1887.000000	100.066163
1886.000000	100.064150
1885.000000	100.062191
1884.000000	100.060997
1883.000000	100.060457
1882.000000	100.059777
1881.000000	100.058512
1880.000000	100.057336
1879.000000	100.057272
1878.000000	100.058231
1877.000000	100.058925
1876.000000	100.058361
1875.000000	100.056857
1874.000000	100.055351
1873.000000	100.054362
1872.000000	100.054136
1871.000000	100.055281
1870.000000	100.058196
1869.000000	100.061602
1868.000000	100.063316
1867.000000	100.063051
1866.000000	100.062483
1865.000000	100.063228
1864.000000	100.065941
1863.000000	100.070539
1862.000000	100.076187
1861.000000	100.081185
1860.000000	100.083966
1859.000000	100.084521
1858.000000	100.084656
1857.000000	100.086507
1856.000000	100.090497
1855.000000	100.095152
1854.000000	100.098604
1853.000000	100.100400
1852.000000	100.101637
1851.000000	100.103690
1850.000000	100.106880
1849.000000	100.110400
1848.000000	100.113293
1847.000000	100.115397
1846.000000	100.117380
1845.000000	100.119861
1844.000000	100.122438
1843.000000	100.124380
1842.000000	100.125716
1841.000000	100.126727
1840.000000	100.127500
1839.000000	100.128250
1838.000000	100.129345
1837.000000	100.130879
1836.000000	100.132467
1835.000000	100.133647
1834.000000	100.134417
1833.000000	100.135123
1832.000000	100.136001
1831.000000	100.136958
1830.000000	100.137821
1829.000000	100.138568
1828.000000	100.139240
1827.000000	100.139848
1826.000000	100.140399
1825.000000	100.140883
1824.000000	100.141287
1823.000000	100.141612
1822.000000	100.141870
1821.000000	100.142066
1820.000000	100.142203
1819.000000	100.142292
1818.000000	100.142358
1817.000000	100.142426
1816.000000	100.142502
1815.000000	100.142579
1814.000000	100.142647
1813.000000	100.142708
1812.000000	100.142787
1811.000000	100.142913
1810.000000	100.143095
1809.000000	100.143310
1808.000000	100.143529
1807.000000	100.143743
1806.000000	100.143974
1805.000000	100.144254
1804.000000	100.144611
1803.000000	100.145055
1802.000000	100.145579
1801.000000	100.146165
1800.000000	100.146803
1799.000000	100.147503
1798.000000	100.148293
1797.000000	100.149193
1796.000000	100.150204
1795.000000	100.151313
1794.000000	100.152510
1793.000000	100.153787
1792.000000	100.155125
1791.000000	100.156507
1790.000000	100.157930
1789.000000	100.159413
1788.000000	100.160969
1787.000000	100.162599
1786.000000	100.164284
1785.000000	100.166001
1784.000000	100.167750
1783.000000	100.169558
1782.000000	100.171453
1781.000000	100.173431
1780.000000	100.175453
1779.000000	100.177481
1778.000000	100.179508
1777.000000	100.181558
1776.000000	100.183662
1775.000000	100.185823
1774.000000	100.188018
1773.000000	100.190204
1772.000000	100.192345
1771.000000	100.194436
1770.000000	100.196502
1769.000000	100.198566
1768.000000	100.200626
1767.000000	100.202658
1766.000000	100.204640
1765.000000	100.206556
1764.000000	100.208402
1763.000000	100.210184
1762.000000	100.211904
1761.000000	100.213552
1760.000000	100.215104
1759.000000	100.216544
1758.000000	100.217882
1757.000000	100.219144
1756.000000	100.220348
1755.000000	100.221489
1754.000000	100.222554
1753.000000	100.223528
1752.000000	100.224404
1751.000000	100.225184
1750.000000	100.225888
1749.000000	100.226541
1748.000000	100.227139
1747.000000	100.227649
1746.000000	100.228042
1745.000000	100.228318
1744.000000	100.228495
1743.000000	100.228590
1742.000000	100.228609
1741.000000	100.228538
1740.000000	100.228355
1739.000000	100.228044
1738.000000	100.227613
1737.000000	100.227084
1736.000000	100.226481
1735.000000	100.225811
1734.000000	100.225044
1733.000000	100.224144
1732.000000	100.223107
1731.000000	100.221960
1730.000000	100.220738
1729.000000	100.219462
1728.000000	100.218121
1727.000000	100.216683
1726.000000	100.215119
1725.000000	100.213420
1724.000000	100.211611
1723.000000	100.209741
1722.000000	100.207848
1721.000000	100.205943
1720.000000	100.204009
1719.000000	100.202025
1718.000000	100.199989
1717.000000	100.197913
1716.000000	100.195814
1715.000000	100.193692
1714.000000	100.191515
1713.000000	100.189257
1712.000000	100.186918
1711.000000	100.184523
1710.000000	100.182096
1709.000000	100.179637
1708.000000	100.177125
1707.000000	100.174540
1706.000000	100.171902
1705.000000	100.169262
1704.000000	100.166659
1703.000000	100.164084
1702.000000	100.161510
1701.000000	100.158928
1700.000000	100.156343
1699.000000	100.153760
1698.000000	100.151179
1697.000000	100.148604
1696.000000	100.146047
1695.000000	100.143517
1694.000000	100.141001
1693.000000	100.138469
1692.000000	100.135902
1691.000000	100.133303
1690.000000	100.130696
1689.000000	100.128109
1688.000000	100.125566
1687.000000	100.123076
1686.000000	100.120641
1685.000000	100.118268
1684.000000	100.115959
1683.000000	100.113716
1682.000000	100.111553
1681.000000	100.109455
1680.000000	100.107381
1679.000000	100.105299
1678.000000	100.103197
1677.000000	100.101083
1676.000000	100.098968
1675.000000	100.096870
1674.000000	100.094808
1673.000000	100.092799
1672.000000	100.090850
1671.000000	100.088962
1670.000000	100.087121
1669.000000	100.085298
1668.000000	100.083464
1667.000000	100.081618
1666.000000	100.079790
1665.000000	100.078014
1664.000000	100.076287
1663.000000	100.074559
1662.000000	100.072771
1661.000000	100.070908
1660.000000	100.069002
1659.000000	100.067080
1658.000000	100.065157
1657.000000	100.063230
1656.000000	100.061290
1655.000000	100.059327
1654.000000	100.057351
1653.000000	100.055369
1652.000000	100.053394
1651.000000	100.051463
1650.000000	100.049593
1649.000000	100.047790
1648.000000	100.046054
1647.000000	100.044375
1646.000000	100.042727
1645.000000	100.041088
1644.000000	100.039448
1643.000000	100.037800
1642.000000	100.036136
1641.000000	100.034459
1640.000000	100.032789
1639.000000	100.031143
1638.000000	100.029543
1637.000000	100.028013
1636.000000	100.026557
1635.000000	100.025167
1634.000000	100.023910
1633.000000	100.022814
1632.000000	100.021738
1631.000000	100.020563
1630.000000	100.019428
1629.000000	100.018619
1628.000000	100.018060
1627.000000	100.017246
1626.000000	100.015991
1625.000000	100.014839
1624.000000	100.014374
1623.000000	100.014320
1622.000000	100.014028
1621.000000	100.013625
1620.000000	100.013376
1619.000000	100.013139
1618.000000	100.013298
1617.000000	100.014555
1616.000000	100.016350
1615.000000	100.017520
1614.000000	100.018040
1613.000000	100.018623
1612.000000	100.019787
1611.000000	100.021451
1610.000000	100.023180
1609.000000	100.024744
1608.000000	100.026280
1607.000000	100.027937
1606.000000	100.029712
1605.000000	100.031553
1604.000000	100.033442
1603.000000	100.035369
1602.000000	100.037354
1601.000000	100.039416
1600.000000	100.041567
1599.000000	100.043810
1598.000000	100.046137
1597.000000	100.048525
1596.000000	100.050950
1595.000000	100.053402
1594.000000	100.055887
1593.000000	100.058407
1592.000000	100.060956
1591.000000	100.063521
1590.000000	100.066102
1589.000000	100.068706
1588.000000	100.071329
1587.000000	100.073955
1586.000000	100.076566
1585.000000	100.079143
1584.000000	100.081659
1583.000000	100.084102
1582.000000	100.086483
1581.000000	100.088813
1580.000000	100.091091
1579.000000	100.093304
1578.000000	100.095450
1577.000000	100.097533
1576.000000	100.099542
1575.000000	100.101448
1574.000000	100.103247
1573.000000	100.104973
1572.000000	100.106667
1571.000000	100.108347
1570.000000	100.110000
1569.000000	100.111584
1568.000000	100.113061
1567.000000	100.114417
1566.000000	100.115666
1565.000000	100.116848
1564.000000	100.117993
1563.000000	100.119091
1562.000000	100.120094
1561.000000	100.120973
1560.000000	100.121757
1559.000000	100.122479
1558.000000	100.123128
1557.000000	100.123706
1556.000000	100.124231
1555.000000	100.124714
1554.000000	100.125163
1553.000000	100.125575
1552.000000	100.125935
1551.000000	100.126231
1550.000000	100.126452
1549.000000	100.126596
1548.000000	100.126670
1547.000000	100.126692
1546.000000	100.126689
1545.000000	100.126680
1544.000000	100.126675
1543.000000	100.126686
1542.000000	100.126760
1541.000000	100.126946
1540.000000	100.127237
1539.000000	100.127572
1538.000000	100.127935
1537.000000	100.128362
1536.000000	100.128877
1535.000000	100.129473
1534.000000	100.130124
1533.000000	100.130801
1532.000000	100.131496
1531.000000	100.132211
1530.000000	100.132954
1529.000000	100.133734
1528.000000	100.134553
1527.000000	100.135417
1526.000000	100.136350
1525.000000	100.137389
1524.000000	100.138568
1523.000000	100.139883
1522.000000	100.141299
1521.000000	100.142784
1520.000000	100.144359
1519.000000	100.146074
1518.000000	100.147951
1517.000000	100.149964
1516.000000	100.152068
1515.000000	100.154233
1514.000000	100.156438
1513.000000	100.158676
1512.000000	100.160961
1511.000000	100.163317
1510.000000	100.165761
1509.000000	100.168296
1508.000000	100.170911
1507.000000	100.173591
1506.000000	100.176330
1505.000000	100.179134
1504.000000	100.182004
1503.000000	100.184922
1502.000000	100.187870
1501.000000	100.190827
1500.000000	100.193756
1499.000000	100.196624
1498.000000	100.199425
1497.000000	100.202195
1496.000000	100.204972
1495.000000	100.207761
1494.000000	100.210531
1493.000000	100.213254
1492.000000	100.215918
1491.000000	100.218544
1490.000000	100.221196
1489.000000	100.223937
1488.000000	100.226776
1487.000000	100.229659
1486.000000	100.232527
1485.000000	100.235362
1484.000000	100.238184
1483.000000	100.240998
1482.000000	100.243776
1481.000000	100.246455
1480.000000	100.248980
1479.000000	100.251340
1478.000000	100.253583
1477.000000	100.255768
1476.000000	100.257912
1475.000000	100.259975
1474.000000	100.261903
1473.000000	100.263692
1472.000000	100.265408
1471.000000	100.267127
1470.000000	100.268869
1469.000000	100.270582
1468.000000	100.272192
1467.000000	100.273653
1466.000000	100.274977
1465.000000	100.276222
1464.000000	100.277441
1463.000000	100.278636
1462.000000	100.279759
1461.000000	100.280759
1460.000000	100.281631
1459.000000	100.282420
1458.000000	100.283200
1457.000000	100.284029
1456.000000	100.284887
1455.000000	100.285707
1454.000000	100.286438
1453.000000	100.287079
1452.000000	100.287655
1451.000000	100.288199
1450.000000	100.288733
1449.000000	100.289272
1448.000000	100.289798
1447.000000	100.290257
1446.000000	100.290589
1445.000000	100.290786
1444.000000	100.290890
1443.000000	100.290948
1442.000000	100.290968
1441.000000	100.290920
1440.000000	100.290767
1439.000000	100.290518
1438.000000	100.290246
1437.000000	100.290059
1436.000000	100.290013
1435.000000	100.290057
1434.000000	100.290097
1433.000000	100.290110
1432.000000	100.290156
1431.000000	100.290312
1430.000000	100.290587
1429.000000	100.290918
1428.000000	100.291230
1427.000000	100.291513
1426.000000	100.291818
1425.000000	100.292224
1424.000000	100.292771
1423.000000	100.293428
1422.000000	100.294120
1421.000000	100.294799
1420.000000	100.295499
1419.000000	100.296310
1418.000000	100.297287
1417.000000	100.298389
1416.000000	100.299523
1415.000000	100.300619
1414.000000	100.301672
1413.000000	100.302730
1412.000000	100.303838
1411.000000	100.305002
1410.000000	100.306201
1409.000000	100.307414
1408.000000	100.308627
1407.000000	100.309827
1406.000000	100.311000
1405.000000	100.312155
1404.000000	100.313319
1403.000000	100.314521
1402.000000	100.315755
1401.000000	100.316998
1400.000000	100.318238
1399.000000	100.319498
1398.000000	100.320810
1397.000000	100.322188
1396.000000	100.323607
1395.000000	100.325017
1394.000000	100.326369
1393.000000	100.327645
1392.000000	100.328852
1391.000000	100.329992
1390.000000	100.331046
1389.000000	100.331996
1388.000000	100.332839
1387.000000	100.333591
1386.000000	100.334280
1385.000000	100.334927
1384.000000	100.335525
1383.000000	100.336034
1382.000000	100.336411
1381.000000	100.336657
1380.000000	100.336822
1379.000000	100.336963
1378.000000	100.337097
1377.000000	100.337186
1376.000000	100.337191
1375.000000	100.337124
1374.000000	100.337034
1373.000000	100.336967
1372.000000	100.336929
1371.000000	100.336909
1370.000000	100.336891
1369.000000	100.336864
1368.000000	100.336826
1367.000000	100.336785
1366.000000	100.336758
1365.000000	100.336750
1364.000000	100.336752
1363.000000	100.336753
1362.000000	100.336756
1361.000000	100.336776
1360.000000	100.336821
1359.000000	100.336888
1358.000000	100.336962
1357.000000	100.337017
1356.000000	100.337027
1355.000000	100.336991
1354.000000	100.336941
1353.000000	100.336913
1352.000000	100.336910
1351.000000	100.336904
1350.000000	100.336875
1349.000000	100.336844
1348.000000	100.336849
1347.000000	100.336902
1346.000000	100.336983
1345.000000	100.337063
1344.000000	100.337121
1343.000000	100.337143
1342.000000	100.337125
1341.000000	100.337088
1340.000000	100.337076
1339.000000	100.337116
1338.000000	100.337188
1337.000000	100.337252
1336.000000	100.337290
1335.000000	100.337323
1334.000000	100.337369
1333.000000	100.337433
1332.000000	100.337505
1331.000000	100.337578
1330.000000	100.337639
1329.000000	100.337669
1328.000000	100.337660
1327.000000	100.337638
1326.000000	100.337650
1325.000000	100.337702
1324.000000	100.337749
1323.000000	100.337740
1322.000000	100.337680
1321.000000	100.337617
1320.000000	100.337576
1319.000000	100.337523
1318.000000	100.337388
1317.000000	100.337117
1316.000000	100.336699
1315.000000	100.336162
1314.000000	100.335554
1313.000000	100.334902
1312.000000	100.334186
1311.000000	100.333339
1310.000000	100.332310
1309.000000	100.331104
1308.000000	100.329765
1307.000000	100.328313
1306.000000	100.326730
1305.000000	100.324990
1304.000000	100.323098
1303.000000	100.321076
1302.000000	100.318939
1301.000000	100.316695
1300.000000	100.314351
1299.000000	100.311913
1298.000000	100.309377
1297.000000	100.306728
1296.000000	100.303954
1295.000000	100.301054
1294.000000	100.298031
1293.000000	100.294892
1292.000000	100.291647
1291.000000	100.288301
1290.000000	100.284844
1289.000000	100.281268
1288.000000	100.277587
1287.000000	100.273832
1286.000000	100.270023
1285.000000	100.266139
1284.000000	100.262137
1283.000000	100.257995
1282.000000	100.253732
1281.000000	100.249379
1280.000000	100.244936
1279.000000	100.240380
1278.000000	100.235752
1277.000000	100.230819
1276.000000	100.225649
1275.000000	100.220485
1274.000000	100.215653
1273.000000	100.212031
1272.000000	100.209889
1271.000000	100.206961
1270.000000	100.200310
1269.000000	100.191289
1268.000000	100.184975
1267.000000	100.182268
1266.000000	100.177311
1265.000000	100.166028
1264.000000	100.152732
1263.000000	100.145106
1262.000000	100.144688
1261.000000	100.144919
1260.000000	100.137799
1259.000000	100.122115
1258.000000	100.106385
1257.000000	100.101825
1256.000000	100.108940
1255.000000	100.112803
1254.000000	100.098574
1253.000000	100.071294
1252.000000	100.051419
1251.000000	100.047670
1250.000000	100.045472
1249.000000	100.029449
1248.000000	100.007266
1247.000000	99.998548
1246.000000	100.004679
1245.000000	100.004490
1244.000000	99.982407
1243.000000	99.948428
1242.000000	99.924061
1241.000000	99.915749
1240.000000	99.911642
1239.000000	99.900386
1238.000000	99.883223
1237.000000	99.866662
1236.000000	99.851032
1235.000000	99.831209
1234.000000	99.804617
1233.000000	99.773582
1232.000000	99.742574
1231.000000	99.718092
1230.000000	99.707630
1229.000000	99.709562
1228.000000	99.704282
1227.000000	99.667965
1226.000000	99.601248
1225.000000	99.535311
1224.000000	99.499448
1223.000000	99.488523
1222.000000	99.473762
1221.000000	99.438384
1220.000000	99.387857
1219.000000	99.330662
1218.000000	99.268795
1217.000000	99.209627
1216.000000	99.166278
1215.000000	99.136026
1214.000000	99.094978
1213.000000	99.028061
1212.000000	98.951474
1211.000000	98.891460
1210.000000	98.849604
1209.000000	98.805489
1208.000000	98.746500
1207.000000	98.677125
1206.000000	98.603760
1205.000000	98.529779
1204.000000	98.465272
1203.000000	98.420854
1202.000000	98.385987
1201.000000	98.332424
1200.000000	98.249697
1199.000000	98.162265
1198.000000	98.100105
1197.000000	98.062964
1196.000000	98.026751
1195.000000	97.975128
1194.000000	97.909377
1193.000000	97.833842
1192.000000	97.750832
1191.000000	97.671238
1190.000000	97.612009
1189.000000	97.574049
1188.000000	97.533631
1187.000000	97.466736
1186.000000	97.376984
1185.000000	97.289495
1184.000000	97.219369
1183.000000	97.157628
1182.000000	97.089899
1181.000000	97.017217
1180.000000	96.948847
1179.000000	96.881323
1178.000000	96.799552
1177.000000	96.699943
1176.000000	96.597738
1175.000000	96.504217
1174.000000	96.410136
1173.000000	96.305355
1172.000000	96.203964
1171.000000	96.128622
1170.000000	96.073607
1169.000000	96.006223
1168.000000	95.910760
1167.000000	95.809133
1166.000000	95.727145
1165.000000	95.663378
1164.000000	95.608954
1163.000000	95.578889
1162.000000	95.594989
1161.000000	95.644190
1160.000000	95.680997
1159.000000	95.679718
1158.000000	95.661705
1157.000000	95.658044
1156.000000	95.662725
1155.000000	95.640585
1154.000000	95.574796
1153.000000	95.486365
1152.000000	95.405804
1151.000000	95.339085
1150.000000	95.269258
1149.000000	95.185304
1148.000000	95.099439
1147.000000	95.033670
1146.000000	94.992319
1145.000000	94.952463
1144.000000	94.885908
1143.000000	94.790352
1142.000000	94.693410
1141.000000	94.622072
1140.000000	94.573031
1139.000000	94.520435
1138.000000	94.448890
1137.000000	94.367308
1136.000000	94.288998
1135.000000	94.212327
1134.000000	94.130512
1133.000000	94.049890
1132.000000	93.983203
1131.000000	93.928516
1130.000000	93.870409
1129.000000	93.803589
1128.000000	93.739950
1127.000000	93.686115
1126.000000	93.628417
1125.000000	93.551808
1124.000000	93.464245
1123.000000	93.387724
1122.000000	93.328817
1121.000000	93.272435
1120.000000	93.205766
1119.000000	93.136899
1118.000000	93.081217
1117.000000	93.037274
1116.000000	92.985928
1115.000000	92.913966
1114.000000	92.832656
1113.000000	92.767042
1112.000000	92.728272
1111.000000	92.700002
1110.000000	92.654299
1109.000000	92.582518
1108.000000	92.503749
1107.000000	92.441684
1106.000000	92.400161
1105.000000	92.365394
1104.000000	92.325120
1103.000000	92.276732
1102.000000	92.220792
1101.000000	92.158987
1100.000000	92.099999
1099.000000	92.056739
1098.000000	92.031573
1097.000000	92.009170
1096.000000	91.970566
1095.000000	91.913870
1094.000000	91.856549
1093.000000	91.814716
1092.000000	91.782629
1091.000000	91.738666
1090.000000	91.674145
1089.000000	91.607646
1088.000000	91.560646
1087.000000	91.526134
1086.000000	91.479114
1085.000000	91.417882
1084.000000	91.370815
1083.000000	91.351052
1082.000000	91.327300
1081.000000	91.263754
1080.000000	91.175062
1079.000000	91.113537
1078.000000	91.103418
1077.000000	91.114010
1076.000000	91.104156
1075.000000	91.068778
1074.000000	91.026386
1073.000000	90.979751
1072.000000	90.912237
1071.000000	90.818974
1070.000000	90.720854
1069.000000	90.639098
1068.000000	90.564705
1067.000000	90.465206
1066.000000	90.322789
1065.000000	90.156914
1064.000000	90.004014
1063.000000	89.881602
1062.000000	89.780416
1061.000000	89.686887
1060.000000	89.598774
1059.000000	89.518034
1058.000000	89.445374
1057.000000	89.387198
1056.000000	89.349921
1055.000000	89.317408
1054.000000	89.252672
1053.000000	89.139640
1052.000000	89.008600
1051.000000	88.898544
1050.000000	88.805372
1049.000000	88.694704
1048.000000	88.555447
1047.000000	88.407395
1046.000000	88.261536
1045.000000	88.107210
1044.000000	87.942297
1043.000000	87.788401
1042.000000	87.663346
1041.000000	87.553433
1040.000000	87.426194
1039.000000	87.267623
1038.000000	87.101470
1037.000000	86.969860
1036.000000	86.892366
1035.000000	86.842311
1034.000000	86.771765
1033.000000	86.667425
1032.000000	86.566590
1031.000000	86.508259
1030.000000	86.487000
1029.000000	86.468563
1028.000000	86.433000
1027.000000	86.381487
1026.000000	86.319279
1025.000000	86.262221
1024.000000	86.244542
1023.000000	86.280897
1022.000000	86.324817
1021.000000	86.307202
1020.000000	86.225847
1019.000000	86.156582
1018.000000	86.159860
1017.000000	86.210113
1016.000000	86.235087
1015.000000	86.201844
1014.000000	86.139165
1013.000000	86.089342
1012.000000	86.066931
1011.000000	86.061696
1010.000000	86.059305
1009.000000	86.053317
1008.000000	86.045325
1007.000000	86.037448
1006.000000	86.026301
1005.000000	86.009352
1004.000000	85.996371
1003.000000	86.004570
1002.000000	86.037466
1001.000000	86.075136
1000.000000	86.091516
999.000000	86.080716
998.000000	86.065751
997.000000	86.080851
996.000000	86.139934
995.000000	86.217927
994.000000	86.269716
993.000000	86.277042
992.000000	86.269719
991.000000	86.291660
990.000000	86.355379
989.000000	86.439680
988.000000	86.519621
987.000000	86.582891
986.000000	86.628544
985.000000	86.671023
984.000000	86.739312
983.000000	86.849519
982.000000	86.977167
981.000000	87.078092
980.000000	87.141046
979.000000	87.199115
978.000000	87.287858
977.000000	87.414257
976.000000	87.568650
975.000000	87.739785
974.000000	87.906703
973.000000	88.040487
972.000000	88.135686
971.000000	88.229511
970.000000	88.368661
969.000000	88.557498
968.000000	88.752058
967.000000	88.908754
966.000000	89.031040
965.000000	89.159693
964.000000	89.321322
963.000000	89.498321
962.000000	89.654851
961.000000	89.782588
960.000000	89.904061
959.000000	90.033784
958.000000	90.158640
957.000000	90.265903
956.000000	90.370574
955.000000	90.496153
954.000000	90.638846
953.000000	90.769774
952.000000	90.868319
951.000000	90.938811
950.000000	91.001101
949.000000	91.078746
948.000000	91.186592
947.000000	91.310329
946.000000	91.405592
945.000000	91.442941
944.000000	91.453040
943.000000	91.501475
942.000000	91.610134
941.000000	91.727409
940.000000	91.789834
939.000000	91.794902
938.000000	91.797894
937.000000	91.848297
936.000000	91.946156
935.000000	92.054754
934.000000	92.137719
933.000000	92.183772
932.000000	92.207859
931.000000	92.235605
930.000000	92.283843
929.000000	92.353174
928.000000	92.434499
927.000000	92.514981
926.000000	92.578770
925.000000	92.616262
924.000000	92.641241
923.000000	92.687730
922.000000	92.774554
921.000000	92.876781
920.000000	92.946841
919.000000	92.967161
918.000000	92.969710
917.000000	92.997010
916.000000	93.055482
915.000000	93.118705
914.000000	93.169549
913.000000	93.222472
912.000000	93.296802
911.000000	93.383014
910.000000	93.453558
909.000000	93.505571
908.000000	93.572354
907.000000	93.681660
906.000000	93.817658
905.000000	93.939063
904.000000	94.031235
903.000000	94.121615
902.000000	94.240076
901.000000	94.381913
900.000000	94.518192
899.000000	94.631380
898.000000	94.730260
897.000000	94.834551
896.000000	94.956137
895.000000	95.093542
894.000000	95.232285
893.000000	95.350113
892.000000	95.434477
891.000000	95.501834
890.000000	95.591486
889.000000	95.728204
888.000000	95.891867
887.000000	96.031715
886.000000	96.116857
885.000000	96.168230
884.000000	96.237431
883.000000	96.354427
882.000000	96.498127
881.000000	96.617746
880.000000	96.683012
879.000000	96.713471
878.000000	96.757792
877.000000	96.842185
876.000000	96.945854
875.000000	97.031956
874.000000	97.095419
873.000000	97.165891
872.000000	97.262981
871.000000	97.367555
870.000000	97.448961
869.000000	97.508173
868.000000	97.575099
867.000000	97.666492
866.000000	97.765853
865.000000	97.850036
864.000000	97.919820
863.000000	97.992299
862.000000	98.074114
861.000000	98.158444
860.000000	98.243376
859.000000	98.332879
858.000000	98.415401
857.000000	98.463850
856.000000	98.476474
855.000000	98.502558
854.000000	98.593577
853.000000	98.726590
852.000000	98.813136
851.000000	98.808866
850.000000	98.783414
849.000000	98.838468
848.000000	98.970365
847.000000	99.069113
846.000000	99.062889
845.000000	99.007294
844.000000	98.997043
843.000000	99.037831
842.000000	99.064390
841.000000	99.057518
840.000000	99.068456
839.000000	99.118117
838.000000	99.138319
837.000000	99.059240
836.000000	98.920119
835.000000	98.838732
834.000000	98.877546
833.000000	98.978167
832.000000	99.032866
831.000000	98.995423
830.000000	98.905311
829.000000	98.822449
828.000000	98.771222
827.000000	98.752432
826.000000	98.775819
825.000000	98.846111
824.000000	98.922997
823.000000	98.936005
822.000000	98.860753
821.000000	98.756322
820.000000	98.706261
819.000000	98.733382
818.000000	98.778690
817.000000	98.754755
816.000000	98.623111
815.000000	98.435126
814.000000	98.291849
813.000000	98.235964
812.000000	98.182706
811.000000	97.993411
810.000000	97.632137
809.000000	97.208909
808.000000	96.844227
807.000000	96.541717
806.000000	96.231162
805.000000	95.880897
804.000000	95.503070
803.000000	95.089258
802.000000	94.639781
801.000000	94.248175
800.000000	94.043416
799.000000	94.017175
798.000000	93.992238
797.000000	93.834454
796.000000	93.636229
795.000000	93.587387
794.000000	93.726548
793.000000	93.910468
792.000000	94.001579
791.000000	94.003584
790.000000	93.992379
789.000000	93.997518
788.000000	93.994367
787.000000	93.960230
786.000000	93.895451
785.000000	93.811185
784.000000	93.721140
783.000000	93.628427
782.000000	93.509617
781.000000	93.340598
780.000000	93.154299
779.000000	93.039658
778.000000	93.055071
777.000000	93.161694
776.000000	93.265442
775.000000	93.325654
774.000000	93.396682
773.000000	93.546891
772.000000	93.760241
771.000000	93.935165
770.000000	93.993430
769.000000	93.982428
768.000000	94.034346
767.000000	94.220084
766.000000	94.467817
765.000000	94.636581
764.000000	94.663993
763.000000	94.617433
762.000000	94.608632
761.000000	94.690269
760.000000	94.834414
759.000000	94.975827
758.000000	95.068644
757.000000	95.120815
756.000000	95.179400
755.000000	95.275338
754.000000	95.388363
753.000000	95.475684
752.000000	95.525877
751.000000	95.567127
750.000000	95.630347
749.000000	95.724209
748.000000	95.839724
747.000000	95.954931
746.000000	96.039969
745.000000	96.083936
744.000000	96.117857
743.000000	96.185854
742.000000	96.291888
741.000000	96.398835
740.000000	96.480528
739.000000	96.549074
738.000000	96.620428
737.000000	96.685751
736.000000	96.735293
735.000000	96.784713
734.000000	96.859715
733.000000	96.955721
732.000000	97.031921
731.000000	97.060735
730.000000	97.065513
729.000000	97.094753
728.000000	97.162243
727.000000	97.237754
726.000000	97.292679
725.000000	97.331026
724.000000	97.367153
723.000000	97.398056
722.000000	97.416907
721.000000	97.437145
720.000000	97.480234
719.000000	97.542279
718.000000	97.593903
717.000000	97.616743
716.000000	97.624325
715.000000	97.642953
714.000000	97.682364
713.000000	97.727046
712.000000	97.753224
711.000000	97.748840
710.000000	97.728828
709.000000	97.723662
708.000000	97.745153
707.000000	97.778377
706.000000	97.798490
705.000000	97.795809
704.000000	97.781381
703.000000	97.772859
702.000000	97.776208
701.000000	97.787197
700.000000	97.800763
699.000000	97.813935
698.000000	97.826009
697.000000	97.838799
696.000000	97.854448
695.000000	97.872223
694.000000	97.892321
693.000000	97.915226
692.000000	97.939679
691.000000	97.964945
690.000000	97.991405
689.000000	98.019883
688.000000	98.050676
687.000000	98.083361
686.000000	98.117282
685.000000	98.151884
684.000000	98.186727
683.000000	98.221678
682.000000	98.257236
681.000000	98.294265
680.000000	98.333077
679.000000	98.372903
678.000000	98.412544
677.000000	98.451501
676.000000	98.490434
675.000000	98.530567
674.000000	98.572602
673.000000	98.616046
672.000000	98.659514
671.000000	98.701850
670.000000	98.743101
669.000000	98.784675
668.000000	98.828451
667.000000	98.874917
666.000000	98.922718
665.000000	98.970164
664.000000	99.016219
663.000000	99.060944
662.000000	99.105633
661.000000	99.151984
660.000000	99.200560
659.000000	99.249840
658.000000	99.297396
657.000000	99.342182
656.000000	99.385328
655.000000	99.428881
654.000000	99.473875
653.000000	99.519369
652.000000	99.563260
651.000000	99.604107
650.000000	99.642172
