4000.000000	100.783939
3999.000000	100.784152
3998.000000	100.783608
3997.000000	100.782161
3996.000000	100.780473
3995.000000	100.779376
3994.000000	100.779147
3993.000000	100.779416
3992.000000	100.779685
3991.000000	100.779965
3990.000000	100.780563
3989.000000	100.781157
3988.000000	100.780566
3987.000000	100.777868
3986.000000	100.773403
3985.000000	100.768899
3984.000000	100.766261
3983.000000	100.766058
3982.000000	100.767159
3981.000000	100.767419
3980.000000	100.765637
3979.000000	100.762446
3978.000000	100.759482
3977.000000	100.757752
3976.000000	100.757042
3975.000000	100.756850
3974.000000	100.757359
3973.000000	100.759076
3972.000000	100.761791
3971.000000	100.764284
3970.000000	100.765280
3969.000000	100.764590
3968.000000	100.762989
3967.000000	100.761216
3966.000000	100.759362
3965.000000	100.757310
3964.000000	100.755293
3963.000000	100.753622
3962.000000	100.752022
3961.000000	100.749769
3960.000000	100.746781
3959.000000	100.744303
3958.000000	100.744012
3957.000000	100.746468
3956.000000	100.750445
3955.000000	100.753719
3954.000000	100.754858
3953.000000	100.754014
3952.000000	100.752247
3951.000000	100.750316
3950.000000	100.748141
3949.000000	100.745472
3948.000000	100.742796
3947.000000	100.741120
3946.000000	100.740806
3945.000000	100.740961
3944.000000	100.740415
3943.000000	100.739297
3942.000000	100.738930
3941.000000	100.739668
3940.000000	100.739730
3939.000000	100.737269
3938.000000	100.733071
3937.000000	100.730008
3936.000000	100.729862
3935.000000	100.731769
3934.000000	100.733561
3933.000000	100.734176
3932.000000	100.734054
3931.000000	100.734071
3930.000000	100.734683
3929.000000	100.735731
3928.000000	100.736863
3927.000000	100.737592
3926.000000	100.737603
3925.000000	100.737326
3924.000000	100.737594
3923.000000	100.738518
3922.000000	100.739348
3921.000000	100.739527
3920.000000	100.739252
3919.000000	100.738863
3918.000000	100.738450
3917.000000	100.738066
3916.000000	100.737833
3915.000000	100.737830
3914.000000	100.738021
3913.000000	100.738320
3912.000000	100.738668
3911.000000	100.739106
3910.000000	100.739636
3909.000000	100.740236
3908.000000	100.740874
3907.000000	100.741513
3906.000000	100.742123
3905.000000	100.742693
3904.000000	100.743227
3903.000000	100.743735
3902.000000	100.744219
3901.000000	100.744677
3900.000000	100.745111
3899.000000	100.745550
3898.000000	100.746046
3897.000000	100.746638
3896.000000	100.747326
3895.000000	100.748074
3894.000000	100.748842
3893.000000	100.749623
3892.000000	100.750435
3891.000000	100.751303
3890.000000	100.752238
3889.000000	100.753217
3888.000000	100.754197
3887.000000	100.755153
3886.000000	100.756106
3885.000000	100.757092
3884.000000	100.758127
3883.000000	100.759177
3882.000000	100.760188
3881.000000	100.761143
3880.000000	100.762078
3879.000000	100.763059
3878.000000	100.764126
3877.000000	100.765275
3876.000000	100.766475
3875.000000	100.767690
3874.000000	100.768891
3873.000000	100.770045
3872.000000	100.771114
3871.000000	100.772069
3870.000000	100.772911
3869.000000	100.773659
3868.000000	100.774328
3867.000000	100.774915
3866.000000	100.775433
3865.000000	100.775930
3864.000000	100.776464
3863.000000	100.777055
3862.000000	100.777693
3861.000000	100.778363
3860.000000	100.779069
3859.000000	100.779815
3858.000000	100.780595
3857.000000	100.781389
3856.000000	100.782157
3855.000000	100.782851
3854.000000	100.783432
3853.000000	100.783905
3852.000000	100.784306
3851.000000	100.784631
3850.000000	100.784837
3849.000000	100.784897
3848.000000	100.784833
3847.000000	100.784694
3846.000000	100.784536
3845.000000	100.784402
3844.000000	100.784307
3843.000000	100.784244
3842.000000	100.784205
3841.000000	100.784193
3840.000000	100.784216
3839.000000	100.784277
3838.000000	100.784363
3837.000000	100.784450
3836.000000	100.784495
3835.000000	100.784459
3834.000000	100.784320
3833.000000	100.784092
3832.000000	100.783813
3831.000000	100.783526
3830.000000	100.783262
3829.000000	100.783025
3828.000000	100.782800
3827.000000	100.782571
3826.000000	100.782339
3825.000000	100.782123
3824.000000	100.781933
3823.000000	100.781743
3822.000000	100.781499
3821.000000	100.781166
3820.000000	100.780745
3819.000000	100.780237
3818.000000	100.779617
3817.000000	100.778856
3816.000000	100.777959
3815.000000	100.776960
3814.000000	100.775884
3813.000000	100.774738
3812.000000	100.773538
3811.000000	100.772323
3810.000000	100.771129
3809.000000	100.769966
3808.000000	100.768837
3807.000000	100.767756
3806.000000	100.766739
3805.000000	100.765787
3804.000000	100.764884
3803.000000	100.763982
3802.000000	100.763025
3801.000000	100.762017
3800.000000	100.761036
3799.000000	100.760037
3798.000000	100.758819
3797.000000	100.757348
3796.000000	100.755858
3795.000000	100.754512
3794.000000	100.753251
3793.000000	100.751915
3792.000000	100.750475
3791.000000	100.749131
3790.000000	100.748078
3789.000000	100.747362
3788.000000	100.746924
3787.000000	100.746546
3786.000000	100.745909
3785.000000	100.744894
3784.000000	100.743995
3783.000000	100.743978
3782.000000	100.744882
3781.000000	100.745584
3780.000000	100.745005
3779.000000	100.743521
3778.000000	100.742513
3777.000000	100.742386
3776.000000	100.742109
3775.000000	100.741325
3774.000000	100.741305
3773.000000	100.742926
3772.000000	100.744971
3771.000000	100.745623
3770.000000	100.745367
3769.000000	100.746536
3768.000000	100.749224
3767.000000	100.750137
3766.000000	100.747206
3765.000000	100.743314
3764.000000	100.743140
3763.000000	100.747885
3762.000000	100.754724
3761.000000	100.760354
3760.000000	100.763465
3759.000000	100.763793
3758.000000	100.761608
3757.000000	100.758522
3756.000000	100.757377
3755.000000	100.760507
3754.000000	100.767558
3753.000000	100.775110
3752.000000	100.778440
3751.000000	100.776408
3750.000000	100.774388
3749.000000	100.778436
3748.000000	100.787912
3747.000000	100.796504
3746.000000	100.797926
3745.000000	100.790391
3744.000000	100.779596
3743.000000	100.774134
3742.000000	100.771936
3741.000000	100.763944
3740.000000	100.751505
3739.000000	100.743640
3738.000000	100.743256
3737.000000	100.746248
3736.000000	100.747527
3735.000000	100.745723
3734.000000	100.741457
3733.000000	100.734067
3732.000000	100.723809
3731.000000	100.714276
3730.000000	100.708281
3729.000000	100.704219
3728.000000	100.698956
3727.000000	100.691839
3726.000000	100.684939
3725.000000	100.680352
3724.000000	100.677789
3723.000000	100.675481
3722.000000	100.672512
3721.000000	100.668169
3720.000000	100.660915
3719.000000	100.649786
3718.000000	100.636474
3717.000000	100.624992
3716.000000	100.618180
3715.000000	100.615154
3714.000000	100.612095
3713.000000	100.605435
3712.000000	100.595139
3711.000000	100.585349
3710.000000	100.579872
3709.000000	100.577337
3708.000000	100.573015
3707.000000	100.564607
3706.000000	100.553445
3705.000000	100.541923
3704.000000	100.531540
3703.000000	100.523048
3702.000000	100.516888
3701.000000	100.513183
3700.000000	100.511128
3699.000000	100.508290
3698.000000	100.502644
3697.000000	100.495345
3696.000000	100.489902
3695.000000	100.487959
3694.000000	100.487394
3693.000000	100.485225
3692.000000	100.480935
3691.000000	100.475823
3690.000000	100.470749
3689.000000	100.466255
3688.000000	100.463652
3687.000000	100.462812
3686.000000	100.459933
3685.000000	100.452002
3684.000000	100.441253
3683.000000	100.432724
3682.000000	100.428843
3681.000000	100.428119
3680.000000	100.428185
3679.000000	100.428387
3678.000000	100.427586
3677.000000	100.421658
3676.000000	100.408567
3675.000000	100.395571
3674.000000	100.392497
3673.000000	100.394798
3672.000000	100.389526
3671.000000	100.374523
3670.000000	100.357364
3669.000000	100.345881
3668.000000	100.340710
3667.000000	100.333849
3666.000000	100.319965
3665.000000	100.302874
3664.000000	100.287924
3663.000000	100.276518
3662.000000	100.267605
3661.000000	100.260454
3660.000000	100.255219
3659.000000	100.251697
3658.000000	100.248289
3657.000000	100.243460
3656.000000	100.238321
3655.000000	100.235637
3654.000000	100.234656
3653.000000	100.230637
3652.000000	100.222214
3651.000000	100.213536
3650.000000	100.209263
3649.000000	100.210603
3648.000000	100.214253
3647.000000	100.214061
3646.000000	100.206299
3645.000000	100.192584
3644.000000	100.177168
3643.000000	100.163320
3642.000000	100.152080
3641.000000	100.142435
3640.000000	100.132575
3639.000000	100.122558
3638.000000	100.114865
3637.000000	100.110554
3636.000000	100.105556
3635.000000	100.094843
3634.000000	100.080800
3633.000000	100.072413
3632.000000	100.074414
3631.000000	100.081562
3630.000000	100.084043
3629.000000	100.079138
3628.000000	100.074528
3627.000000	100.074139
3626.000000	100.069233
3625.000000	100.056219
3624.000000	100.046387
3623.000000	100.047954
3622.000000	100.056118
3621.000000	100.060702
3620.000000	100.057929
3619.000000	100.053602
3618.000000	100.054341
3617.000000	100.059323
3616.000000	100.063047
3615.000000	100.063579
3614.000000	100.064033
3613.000000	100.067701
3612.000000	100.074805
3611.000000	100.082476
3610.000000	100.087004
3609.000000	100.086743
3608.000000	100.083164
3607.000000	100.079655
3606.000000	100.078673
3605.000000	100.080361
3604.000000	100.084221
3603.000000	100.089876
3602.000000	100.096136
3601.000000	100.101409
3600.000000	100.104947
3599.000000	100.107260
3598.000000	100.109659
3597.000000	100.113734
3596.000000	100.120020
3595.000000	100.126697
3594.000000	100.131261
3593.000000	100.133218
3592.000000	100.133938
3591.000000	100.134666
3590.000000	100.135680
3589.000000	100.136907
3588.000000	100.138934
3587.000000	100.142749
3586.000000	100.147865
3585.000000	100.151736
3584.000000	100.152476
3583.000000	100.151021
3582.000000	100.149663
3581.000000	100.149786
3580.000000	100.151672
3579.000000	100.154911
3578.000000	100.158603
3577.000000	100.161726
3576.000000	100.164084
3575.000000	100.166453
3574.000000	100.169587
3573.000000	100.173104
3572.000000	100.175675
3571.000000	100.176424
3570.000000	100.175881
3569.000000	100.175727
3568.000000	100.177427
3567.000000	100.180980
3566.000000	100.184848
3565.000000	100.187062
3564.000000	100.186556
3563.000000	100.184228
3562.000000	100.182296
3561.000000	100.181854
3560.000000	100.182138
3559.000000	100.181937
3558.000000	100.181010
3557.000000	100.180126
3556.000000	100.180018
3555.000000	100.180544
3554.000000	100.180969
3553.000000	100.181129
3552.000000	100.181900
3551.000000	100.184001
3550.000000	100.186556
3549.000000	100.187564
3548.000000	100.185928
3547.000000	100.182575
3546.000000	100.179621
3545.000000	100.178225
3544.000000	100.177794
3543.000000	100.177419
3542.000000	100.177458
3541.000000	100.179013
3540.000000	100.182092
3539.000000	100.185089
3538.000000	100.186139
3537.000000	100.184828
3536.000000	100.182423
3535.000000	100.180588
3534.000000	100.180073
3533.000000	100.180791
3532.000000	100.182547
3531.000000	100.185180
3530.000000	100.188239
3529.000000	100.191134
3528.000000	100.193646
3527.000000	100.195822
3526.000000	100.197354
3525.000000	100.197685
3524.000000	100.196930
3523.000000	100.195992
3522.000000	100.195548
3521.000000	100.195471
3520.000000	100.195415
3519.000000	100.195553
3518.000000	100.196365
3517.000000	100.197913
3516.000000	100.199754
3515.000000	100.201377
3514.000000	100.202446
3513.000000	100.202761
3512.000000	100.202360
3511.000000	100.201816
3510.000000	100.202019
3509.000000	100.203288
3508.000000	100.205133
3507.000000	100.206769
3506.000000	100.207931
3505.000000	100.208942
3504.000000	100.210171
3503.000000	100.211665
3502.000000	100.213260
3501.000000	100.214797
3500.000000	100.216172
3499.000000	100.217328
3498.000000	100.218271
3497.000000	100.219093
3496.000000	100.219968
3495.000000	100.221057
3494.000000	100.222391
3493.000000	100.223864
3492.000000	100.225306
3491.000000	100.226573
3490.000000	100.227608
3489.000000	100.228473
3488.000000	100.229358
3487.000000	100.230460
3486.000000	100.231804
3485.000000	100.233186
3484.000000	100.234375
3483.000000	100.235336
3482.000000	100.236229
3481.000000	100.237174
3480.000000	100.238078
3479.000000	100.238810
3478.000000	100.239506
3477.000000	100.240519
3476.000000	100.242069
3475.000000	100.244043
3474.000000	100.246116
3473.000000	100.247991
3472.000000	100.249424
3471.000000	100.250208
3470.000000	100.250502
3469.000000	100.250957
3468.000000	100.252157
3467.000000	100.253988
3466.000000	100.255635
3465.000000	100.256387
3464.000000	100.256262
3463.000000	100.255876
3462.000000	100.255850
3461.000000	100.256366
3460.000000	100.257182
3459.000000	100.257920
3458.000000	100.258414
3457.000000	100.258825
3456.000000	100.259374
3455.000000	100.260040
3454.000000	100.260630
3453.000000	100.261121
3452.000000	100.261729
3451.000000	100.262562
3450.000000	100.263422
3449.000000	100.264095
3448.000000	100.264732
3447.000000	100.265675
3446.000000	100.266949
3445.000000	100.268137
3444.000000	100.268815
3443.000000	100.268978
3442.000000	100.268994
3441.000000	100.269289
3440.000000	100.269993
3439.000000	100.270962
3438.000000	100.271963
3437.000000	100.272843
3436.000000	100.273593
3435.000000	100.274294
3434.000000	100.275027
3433.000000	100.275734
3432.000000	100.276211
3431.000000	100.276347
3430.000000	100.276300
3429.000000	100.276384
3428.000000	100.276752
3427.000000	100.277287
3426.000000	100.277716
3425.000000	100.277908
3424.000000	100.277966
3423.000000	100.278103
3422.000000	100.278414
3421.000000	100.278842
3420.000000	100.279249
3419.000000	100.279548
3418.000000	100.279761
3417.000000	100.279983
3416.000000	100.280294
3415.000000	100.280698
3414.000000	100.281127
3413.000000	100.281497
3412.000000	100.281787
3411.000000	100.282042
3410.000000	100.282325
3409.000000	100.282670
3408.000000	100.283074
3407.000000	100.283510
3406.000000	100.283960
3405.000000	100.284408
3404.000000	100.284845
3403.000000	100.285270
3402.000000	100.285695
3401.000000	100.286128
3400.000000	100.286565
3399.000000	100.286994
3398.000000	100.287402
3397.000000	100.287784
3396.000000	100.288148
3395.000000	100.288508
3394.000000	100.288872
3393.000000	100.289240
3392.000000	100.289606
3391.000000	100.289972
3390.000000	100.290347
3389.000000	100.290746
3388.000000	100.291171
3387.000000	100.291612
3386.000000	100.292045
3385.000000	100.292451
3384.000000	100.292827
3383.000000	100.293186
3382.000000	100.293546
3381.000000	100.293913
3380.000000	100.294273
3379.000000	100.294606
3378.000000	100.294904
3377.000000	100.295180
3376.000000	100.295459
3375.000000	100.295760
3374.000000	100.296082
3373.000000	100.296402
3372.000000	100.296694
3371.000000	100.296946
3370.000000	100.297168
3369.000000	100.297369
3368.000000	100.297544
3367.000000	100.297672
3366.000000	100.297733
3365.000000	100.297728
3364.000000	100.297680
3363.000000	100.297620
3362.000000	100.297566
3361.000000	100.297521
3360.000000	100.297474
3359.000000	100.297413
3358.000000	100.297324
3357.000000	100.297202
3356.000000	100.297050
3355.000000	100.296881
3354.000000	100.296698
3353.000000	100.296495
3352.000000	100.296255
3351.000000	100.295977
3350.000000	100.295670
3349.000000	100.295351
3348.000000	100.295020
3347.000000	100.294668
3346.000000	100.294287
3345.000000	100.293878
3344.000000	100.293449
3343.000000	100.293008
3342.000000	100.292566
3341.000000	100.292132
3340.000000	100.291711
3339.000000	100.291294
3338.000000	100.290871
3337.000000	100.290440
3336.000000	100.290008
3335.000000	100.289587
3334.000000	100.289171
3333.000000	100.288738
3332.000000	100.288269
3331.000000	100.287763
3330.000000	100.287237
3329.000000	100.286716
3328.000000	100.286208
3327.000000	100.285702
3326.000000	100.285182
3325.000000	100.284640
3324.000000	100.284085
3323.000000	100.283522
3322.000000	100.282946
3321.000000	100.282342
3320.000000	100.281701
3319.000000	100.281023
3318.000000	100.280318
3317.000000	100.279590
3316.000000	100.278846
3315.000000	100.278101
3314.000000	100.277374
3313.000000	100.276672
3312.000000	100.275982
3311.000000	100.275288
3310.000000	100.274581
3309.000000	100.273867
3308.000000	100.273149
3307.000000	100.272424
3306.000000	100.271689
3305.000000	100.270941
3304.000000	100.270176
3303.000000	100.269389
3302.000000	100.268588
3301.000000	100.267790
3300.000000	100.267007
3299.000000	100.266232
3298.000000	100.265443
3297.000000	100.264623
3296.000000	100.263774
3295.000000	100.262911
3294.000000	100.262047
3293.000000	100.261183
3292.000000	100.260315
3291.000000	100.259443
3290.000000	100.258574
3289.000000	100.257716
3288.000000	100.256864
3287.000000	100.256009
3286.000000	100.255143
3285.000000	100.254269
3284.000000	100.253402
3283.000000	100.252557
3282.000000	100.251748
3281.000000	100.250979
3280.000000	100.250246
3279.000000	100.249540
3278.000000	100.248859
3277.000000	100.248200
3276.000000	100.247565
3275.000000	100.246953
3274.000000	100.246359
3273.000000	100.245762
3272.000000	100.245137
3271.000000	100.244470
3270.000000	100.243779
3269.000000	100.243095
3268.000000	100.242451
3267.000000	100.241860
3266.000000	100.241323
3265.000000	100.240830
3264.000000	100.240367
3263.000000	100.239929
3262.000000	100.239523
3261.000000	100.239167
3260.000000	100.238861
3259.000000	100.238586
3258.000000	100.238313
3257.000000	100.238032
3256.000000	100.237756
3255.000000	100.237511
3254.000000	100.237314
3253.000000	100.237169
3252.000000	100.237061
3251.000000	100.236968
3250.000000	100.236875
3249.000000	100.236775
3248.000000	100.236663
3247.000000	100.236536
3246.000000	100.236392
3245.000000	100.236244
3244.000000	100.236106
3243.000000	100.235988
3242.000000	100.235888
3241.000000	100.235792
3240.000000	100.235679
3239.000000	100.235525
3238.000000	100.235322
3237.000000	100.235087
3236.000000	100.234852
3235.000000	100.234640
3234.000000	100.234450
3233.000000	100.234262
3232.000000	100.234063
3231.000000	100.233859
3230.000000	100.233667
3229.000000	100.233501
3228.000000	100.233356
3227.000000	100.233215
3226.000000	100.233057
3225.000000	100.232870
3224.000000	100.232645
3223.000000	100.232381
3222.000000	100.232082
3221.000000	100.231758
3220.000000	100.231412
3219.000000	100.231042
3218.000000	100.230649
3217.000000	100.230249
3216.000000	100.229867
3215.000000	100.229517
3214.000000	100.229191
3213.000000	100.228863
3212.000000	100.228501
3211.000000	100.228084
3210.000000	100.227615
3209.000000	100.227116
3208.000000	100.226616
3207.000000	100.226133
3206.000000	100.225673
3205.000000	100.225240
3204.000000	100.224838
3203.000000	100.224466
3202.000000	100.224111
3201.000000	100.223755
3200.000000	100.223392
3199.000000	100.223030
3198.000000	100.222693
3197.000000	100.222410
3196.000000	100.222213
3195.000000	100.222105
3194.000000	100.222060
3193.000000	100.222036
3192.000000	100.222018
3191.000000	100.222020
3190.000000	100.222063
3189.000000	100.222155
3188.000000	100.222286
3187.000000	100.222441
3186.000000	100.222611
3185.000000	100.222796
3184.000000	100.223000
3183.000000	100.223228
3182.000000	100.223488
3181.000000	100.223783
3180.000000	100.224116
3179.000000	100.224494
3178.000000	100.224932
3177.000000	100.225437
3176.000000	100.225999
3175.000000	100.226585
3174.000000	100.227161
3173.000000	100.227712
3172.000000	100.228248
3171.000000	100.228797
3170.000000	100.229389
3169.000000	100.230044
3168.000000	100.230762
3167.000000	100.231532
3166.000000	100.232334
3165.000000	100.233160
3164.000000	100.234012
3163.000000	100.234894
3162.000000	100.235801
3161.000000	100.236718
3160.000000	100.237637
3159.000000	100.238563
3158.000000	100.239512
3157.000000	100.240489
3156.000000	100.241482
3155.000000	100.242463
3154.000000	100.243399
3153.000000	100.244270
3152.000000	100.245083
3151.000000	100.245861
3150.000000	100.246623
3149.000000	100.247370
3148.000000	100.248090
3147.000000	100.248780
3146.000000	100.249447
3145.000000	100.250106
3144.000000	100.250768
3143.000000	100.251437
3142.000000	100.252113
3141.000000	100.252789
3140.000000	100.253450
3139.000000	100.254092
3138.000000	100.254717
3137.000000	100.255330
3136.000000	100.255924
3135.000000	100.256483
3134.000000	100.257001
3133.000000	100.257499
3132.000000	100.258008
3131.000000	100.258552
3130.000000	100.259133
3129.000000	100.259734
3128.000000	100.260331
3127.000000	100.260901
3126.000000	100.261437
3125.000000	100.261942
3124.000000	100.262427
3123.000000	100.262901
3122.000000	100.263362
3121.000000	100.263806
3120.000000	100.264235
3119.000000	100.264663
3118.000000	100.265105
3117.000000	100.265573
3116.000000	100.266061
3115.000000	100.266552
3114.000000	100.267027
3113.000000	100.267484
3112.000000	100.267938
3111.000000	100.268417
3110.000000	100.268945
3109.000000	100.269528
3108.000000	100.270154
3107.000000	100.270802
3106.000000	100.271459
3105.000000	100.272120
3104.000000	100.272791
3103.000000	100.273477
3102.000000	100.274184
3101.000000	100.274910
3100.000000	100.275648
3099.000000	100.276395
3098.000000	100.277153
3097.000000	100.277931
3096.000000	100.278737
3095.000000	100.279569
3094.000000	100.280418
3093.000000	100.281277
3092.000000	100.282139
3091.000000	100.283000
3090.000000	100.283853
3089.000000	100.284689
3088.000000	100.285495
3087.000000	100.286261
3086.000000	100.286989
3085.000000	100.287694
3084.000000	100.288397
3083.000000	100.289119
3082.000000	100.289871
3081.000000	100.290653
3080.000000	100.291460
3079.000000	100.292281
3078.000000	100.293107
3077.000000	100.293938
3076.000000	100.294776
3075.000000	100.295616
3074.000000	100.296447
3073.000000	100.297260
3072.000000	100.298060
3071.000000	100.298867
3070.000000	100.299702
3069.000000	100.300564
3068.000000	100.301433
3067.000000	100.302282
3066.000000	100.303096
3065.000000	100.303882
3064.000000	100.304660
3063.000000	100.305443
3062.000000	100.306238
3061.000000	100.307038
3060.000000	100.307834
3059.000000	100.308623
3058.000000	100.309413
3057.000000	100.310215
3056.000000	100.311039
3055.000000	100.311880
3054.000000	100.312730
3053.000000	100.313578
3052.000000	100.314426
3051.000000	100.315287
3050.000000	100.316171
3049.000000	100.317079
3048.000000	100.318002
3047.000000	100.318935
3046.000000	100.319891
3045.000000	100.320893
3044.000000	100.321958
3043.000000	100.323090
3042.000000	100.324281
3041.000000	100.325513
3040.000000	100.326768
3039.000000	100.328048
3038.000000	100.329312
3037.000000	100.330516
3036.000000	100.331866
3035.000000	100.333716
3034.000000	100.335927
3033.000000	100.337683
3032.000000	100.338336
3031.000000	100.338325
3030.000000	100.338910
3029.000000	100.340737
3028.000000	100.343134
3027.000000	100.344938
3026.000000	100.345815
3025.000000	100.346311
3024.000000	100.346830
3023.000000	100.347355
3022.000000	100.348372
3021.000000	100.350985
3020.000000	100.355143
3019.000000	100.358594
3018.000000	100.359459
3017.000000	100.359647
3016.000000	100.363459
3015.000000	100.372068
3014.000000	100.381124
3013.000000	100.385030
3012.000000	100.382622
3011.000000	100.377604
3010.000000	100.374161
3009.000000	100.373363
3008.000000	100.373992
3007.000000	100.375553
3006.000000	100.378941
3005.000000	100.383885
3004.000000	100.387835
3003.000000	100.389514
3002.000000	100.392026
3001.000000	100.398928
3000.000000	100.407539
2999.000000	100.410642
2998.000000	100.406590
2997.000000	100.403299
2996.000000	100.408739
2995.000000	100.421094
2994.000000	100.432738
2993.000000	100.441497
2992.000000	100.451771
2991.000000	100.465365
2990.000000	100.478184
2989.000000	100.487733
2988.000000	100.497947
2987.000000	100.512973
2986.000000	100.530188
2985.000000	100.543533
2984.000000	100.551676
2983.000000	100.559245
2982.000000	100.571037
2981.000000	100.587793
2980.000000	100.606496
2979.000000	100.622039
2978.000000	100.629535
2977.000000	100.627997
2976.000000	100.621819
2975.000000	100.616318
2974.000000	100.611460
2973.000000	100.602469
2972.000000	100.586656
2971.000000	100.567022
2970.000000	100.548816
2969.000000	100.534750
2968.000000	100.523974
2967.000000	100.513592
2966.000000	100.500768
2965.000000	100.485654
2964.000000	100.473031
2963.000000	100.468458
2962.000000	100.471205
2961.000000	100.472868
2960.000000	100.464839
2959.000000	100.446276
2958.000000	100.424021
2957.000000	100.406732
2956.000000	100.400214
2955.000000	100.405514
2954.000000	100.417213
2953.000000	100.424883
2952.000000	100.420923
2951.000000	100.408192
2950.000000	100.397642
2949.000000	100.397387
2948.000000	100.405998
2947.000000	100.416048
2946.000000	100.421631
2945.000000	100.421553
2944.000000	100.417901
2943.000000	100.414106
2942.000000	100.413074
2941.000000	100.414723
2940.000000	100.415727
2939.000000	100.413343
2938.000000	100.409157
2937.000000	100.407397
2936.000000	100.409777
2935.000000	100.413577
2934.000000	100.414892
2933.000000	100.412551
2932.000000	100.408540
2931.000000	100.405688
2930.000000	100.405426
2929.000000	100.407394
2928.000000	100.410347
2927.000000	100.413084
2926.000000	100.414763
2925.000000	100.414990
2924.000000	100.414240
2923.000000	100.414163
2922.000000	100.416626
2921.000000	100.421910
2920.000000	100.428001
2919.000000	100.432102
2918.000000	100.433271
2917.000000	100.433281
2916.000000	100.435041
2915.000000	100.439877
2914.000000	100.446607
2913.000000	100.452622
2912.000000	100.456242
2911.000000	100.458014
2910.000000	100.459976
2909.000000	100.463575
2908.000000	100.468284
2907.000000	100.472631
2906.000000	100.476073
2905.000000	100.479256
2904.000000	100.482578
2903.000000	100.485391
2902.000000	100.487134
2901.000000	100.488522
2900.000000	100.490809
2899.000000	100.494155
2898.000000	100.497417
2897.000000	100.499574
2896.000000	100.500818
2895.000000	100.502119
2894.000000	100.504109
2893.000000	100.506627
2892.000000	100.509040
2891.000000	100.510663
2890.000000	100.511145
2889.000000	100.510889
2888.000000	100.511076
2887.000000	100.512859
2886.000000	100.516177
2885.000000	100.519456
2884.000000	100.520999
2883.000000	100.520677
2882.000000	100.519907
2881.000000	100.519816
2880.000000	100.520016
2879.000000	100.519626
2878.000000	100.518797
2877.000000	100.518338
2876.000000	100.518127
2875.000000	100.517126
2874.000000	100.515253
2873.000000	100.514159
2872.000000	100.515412
2871.000000	100.518266
2870.000000	100.519983
2869.000000	100.518442
2868.000000	100.514121
2867.000000	100.509713
2866.000000	100.507963
2865.000000	100.509403
2864.000000	100.511957
2863.000000	100.512708
2862.000000	100.510510
2861.000000	100.506605
2860.000000	100.502975
2859.000000	100.500511
2858.000000	100.499044
2857.000000	100.498392
2856.000000	100.498403
2855.000000	100.498443
2854.000000	100.497939
2853.000000	100.497384
2852.000000	100.497939
2851.000000	100.499814
2850.000000	100.501699
2849.000000	100.502260
2848.000000	100.501867
2847.000000	100.502384
2846.000000	100.505201
2845.000000	100.509697
2844.000000	100.513553
2843.000000	100.514881
2842.000000	100.514029
2841.000000	100.513159
2840.000000	100.514005
2839.000000	100.516223
2838.000000	100.518232
2837.000000	100.519246
2836.000000	100.519841
2835.000000	100.520661
2834.000000	100.521618
2833.000000	100.522809
2832.000000	100.525206
2831.000000	100.529596
2830.000000	100.535150
2829.000000	100.539756
2828.000000	100.542185
2827.000000	100.542959
2826.000000	100.543344
2825.000000	100.543954
2824.000000	100.544577
2823.000000	100.545015
2822.000000	100.545536
2821.000000	100.546566
2820.000000	100.548282
2819.000000	100.550457
2818.000000	100.552605
2817.000000	100.554415
2816.000000	100.556035
2815.000000	100.557825
2814.000000	100.559861
2813.000000	100.561902
2812.000000	100.563718
2811.000000	100.565320
2810.000000	100.566844
2809.000000	100.568359
2808.000000	100.569853
2807.000000	100.571304
2806.000000	100.572705
2805.000000	100.574057
2804.000000	100.575360
2803.000000	100.576609
2802.000000	100.577806
2801.000000	100.578965
2800.000000	100.580105
2799.000000	100.581237
2798.000000	100.582357
2797.000000	100.583449
2796.000000	100.584505
2795.000000	100.585532
2794.000000	100.586549
2793.000000	100.587565
2792.000000	100.588572
2791.000000	100.589544
2790.000000	100.590465
2789.000000	100.591341
2788.000000	100.592208
2787.000000	100.593103
2786.000000	100.594043
2785.000000	100.595017
2784.000000	100.596007
2783.000000	100.597001
2782.000000	100.598000
2781.000000	100.599007
2780.000000	100.600025
2779.000000	100.601046
2778.000000	100.602062
2777.000000	100.603061
2776.000000	100.604046
2775.000000	100.605032
2774.000000	100.606034
2773.000000	100.607061
2772.000000	100.608105
2771.000000	100.609155
2770.000000	100.610201
2769.000000	100.611240
2768.000000	100.612268
2767.000000	100.613292
2766.000000	100.614326
2765.000000	100.615383
2764.000000	100.616463
2763.000000	100.617554
2762.000000	100.618651
2761.000000	100.619769
2760.000000	100.620927
2759.000000	100.622132
2758.000000	100.623356
2757.000000	100.624556
2756.000000	100.625709
2755.000000	100.626825
2754.000000	100.627934
2753.000000	100.629047
2752.000000	100.630148
2751.000000	100.631208
2750.000000	100.632210
2749.000000	100.633164
2748.000000	100.634098
2747.000000	100.635035
2746.000000	100.635971
2745.000000	100.636883
2744.000000	100.637747
2743.000000	100.638559
2742.000000	100.639340
2741.000000	100.640123
2740.000000	100.640925
2739.000000	100.641742
2738.000000	100.642545
2737.000000	100.643313
2736.000000	100.644046
2735.000000	100.644761
2734.000000	100.645467
2733.000000	100.646145
2732.000000	100.646763
2731.000000	100.647299
2730.000000	100.647760
2729.000000	100.648168
2728.000000	100.648543
2727.000000	100.648901
2726.000000	100.649250
2725.000000	100.649588
2724.000000	100.649899
2723.000000	100.650159
2722.000000	100.650358
2721.000000	100.650509
2720.000000	100.650637
2719.000000	100.650754
2718.000000	100.650850
2717.000000	100.650908
2716.000000	100.650925
2715.000000	100.650927
2714.000000	100.650946
2713.000000	100.650998
2712.000000	100.651071
2711.000000	100.651142
2710.000000	100.651204
2709.000000	100.651273
2708.000000	100.651368
2707.000000	100.651497
2706.000000	100.651652
2705.000000	100.651819
2704.000000	100.651990
2703.000000	100.652165
2702.000000	100.652349
2701.000000	100.652543
2700.000000	100.652739
2699.000000	100.652918
2698.000000	100.653063
2697.000000	100.653171
2696.000000	100.653260
2695.000000	100.653359
2694.000000	100.653483
2693.000000	100.653625
2692.000000	100.653768
2691.000000	100.653910
2690.000000	100.654069
2689.000000	100.654269
2688.000000	100.654528
2687.000000	100.654840
2686.000000	100.655185
2685.000000	100.655540
2684.000000	100.655892
2683.000000	100.656243
2682.000000	100.656605
2681.000000	100.656992
2680.000000	100.657415
2679.000000	100.657884
2678.000000	100.658399
2677.000000	100.658940
2676.000000	100.659483
2675.000000	100.660011
2674.000000	100.660532
2673.000000	100.661063
2672.000000	100.661608
2671.000000	100.662154
2670.000000	100.662686
2669.000000	100.663197
2668.000000	100.663692
2667.000000	100.664179
2666.000000	100.664668
2665.000000	100.665164
2664.000000	100.665661
2663.000000	100.666138
2662.000000	100.666579
2661.000000	100.666976
2660.000000	100.667348
2659.000000	100.667721
2658.000000	100.668117
2657.000000	100.668538
2656.000000	100.668972
2655.000000	100.669402
2654.000000	100.669823
2653.000000	100.670235
2652.000000	100.670638
2651.000000	100.671026
2650.000000	100.671400
2649.000000	100.671763
2648.000000	100.672117
2647.000000	100.672458
2646.000000	100.672772
2645.000000	100.673046
2644.000000	100.673282
2643.000000	100.673495
2642.000000	100.673702
2641.000000	100.673906
2640.000000	100.674095
2639.000000	100.674263
2638.000000	100.674412
2637.000000	100.674545
2636.000000	100.674652
2635.000000	100.674725
2634.000000	100.674773
2633.000000	100.674819
2632.000000	100.674871
2631.000000	100.674916
2630.000000	100.674932
2629.000000	100.674913
2628.000000	100.674873
2627.000000	100.674838
2626.000000	100.674831
2625.000000	100.674857
2624.000000	100.674900
2623.000000	100.674929
2622.000000	100.674923
2621.000000	100.674889
2620.000000	100.674860
2619.000000	100.674865
2618.000000	100.674908
2617.000000	100.674963
2616.000000	100.675001
2615.000000	100.675012
2614.000000	100.675015
2613.000000	100.675040
2612.000000	100.675098
2611.000000	100.675173
2610.000000	100.675241
2609.000000	100.675292
2608.000000	100.675332
2607.000000	100.675377
2606.000000	100.675431
2605.000000	100.675490
2604.000000	100.675547
2603.000000	100.675610
2602.000000	100.675693
2601.000000	100.675807
2600.000000	100.675947
2599.000000	100.676103
2598.000000	100.676268
2597.000000	100.676446
2596.000000	100.676641
2595.000000	100.676856
2594.000000	100.677096
2593.000000	100.677370
2592.000000	100.677684
2591.000000	100.678034
2590.000000	100.678412
2589.000000	100.678815
2588.000000	100.679247
2587.000000	100.679714
2586.000000	100.680219
2585.000000	100.680747
2584.000000	100.681275
2583.000000	100.681779
2582.000000	100.682258
2581.000000	100.682727
2580.000000	100.683213
2579.000000	100.683728
2578.000000	100.684266
2577.000000	100.684809
2576.000000	100.685338
2575.000000	100.685846
2574.000000	100.686335
2573.000000	100.686806
2572.000000	100.687253
2571.000000	100.687666
2570.000000	100.688047
2569.000000	100.688411
2568.000000	100.688785
2567.000000	100.689187
2566.000000	100.689622
2565.000000	100.690087
2564.000000	100.690578
2563.000000	100.691095
2562.000000	100.691642
2561.000000	100.692217
2560.000000	100.692805
2559.000000	100.693387
2558.000000	100.693945
2557.000000	100.694483
2556.000000	100.695018
2555.000000	100.695570
2554.000000	100.696142
2553.000000	100.696732
2552.000000	100.697329
2551.000000	100.697901
2550.000000	100.698445
2549.000000	100.698985
2548.000000	100.699494
2547.000000	100.699919
2546.000000	100.700286
2545.000000	100.700685
2544.000000	100.701128
2543.000000	100.701521
2542.000000	100.701840
2541.000000	100.702203
2540.000000	100.702707
2539.000000	100.703276
2538.000000	100.703739
2537.000000	100.704053
2536.000000	100.704330
2535.000000	100.704688
2534.000000	100.705122
2533.000000	100.705562
2532.000000	100.705952
2531.000000	100.706281
2530.000000	100.706602
2529.000000	100.707039
2528.000000	100.707686
2527.000000	100.708529
2526.000000	100.709479
2525.000000	100.710432
2524.000000	100.711299
2523.000000	100.712024
2522.000000	100.712616
2521.000000	100.713139
2520.000000	100.713652
2519.000000	100.714172
2518.000000	100.714690
2517.000000	100.715203
2516.000000	100.715718
2515.000000	100.716248
2514.000000	100.716798
2513.000000	100.717361
2512.000000	100.717926
2511.000000	100.718487
2510.000000	100.719048
2509.000000	100.719618
2508.000000	100.720198
2507.000000	100.720771
2506.000000	100.721318
2505.000000	100.721833
2504.000000	100.722333
2503.000000	100.722841
2502.000000	100.723377
2501.000000	100.723940
2500.000000	100.724520
2499.000000	100.725098
2498.000000	100.725665
2497.000000	100.726231
2496.000000	100.726812
2495.000000	100.727409
2494.000000	100.728007
2493.000000	100.728590
2492.000000	100.729166
2491.000000	100.729764
2490.000000	100.730405
2489.000000	100.731085
2488.000000	100.731778
2487.000000	100.732457
2486.000000	100.733110
2485.000000	100.733741
2484.000000	100.734359
2483.000000	100.734968
2482.000000	100.735577
2481.000000	100.736196
2480.000000	100.736839
2479.000000	100.737508
2478.000000	100.738196
2477.000000	100.738900
2476.000000	100.739626
2475.000000	100.740385
2474.000000	100.741175
2473.000000	100.741978
2472.000000	100.742772
2471.000000	100.743542
2470.000000	100.744289
2469.000000	100.745030
2468.000000	100.745783
2467.000000	100.746554
2466.000000	100.747339
2465.000000	100.748131
2464.000000	100.748935
2463.000000	100.749765
2462.000000	100.750634
2461.000000	100.751532
2460.000000	100.752433
2459.000000	100.753316
2458.000000	100.754177
2457.000000	100.755030
2456.000000	100.755893
2455.000000	100.756769
2454.000000	100.757645
2453.000000	100.758503
2452.000000	100.759345
2451.000000	100.760194
2450.000000	100.761071
2449.000000	100.761973
2448.000000	100.762867
2447.000000	100.763726
2446.000000	100.764543
2445.000000	100.765334
2444.000000	100.766120
2443.000000	100.766910
2442.000000	100.767707
2441.000000	100.768507
2440.000000	100.769303
2439.000000	100.770085
2438.000000	100.770846
2437.000000	100.771592
2436.000000	100.772337
2435.000000	100.773090
2434.000000	100.773841
2433.000000	100.774567
2432.000000	100.775252
2431.000000	100.775900
2430.000000	100.776537
2429.000000	100.777183
2428.000000	100.777838
2427.000000	100.778487
2426.000000	100.779110
2425.000000	100.779697
2424.000000	100.780253
2423.000000	100.780793
2422.000000	100.781330
2421.000000	100.781853
2420.000000	100.782335
2419.000000	100.782755
2418.000000	100.783111
2417.000000	100.783420
2416.000000	100.783693
2415.000000	100.783935
2414.000000	100.784140
2413.000000	100.784293
2412.000000	100.784376
2411.000000	100.784391
2410.000000	100.784364
2409.000000	100.784329
2408.000000	100.784286
2407.000000	100.784205
2406.000000	100.784058
2405.000000	100.783846
2404.000000	100.783592
2403.000000	100.783320
2402.000000	100.783034
2401.000000	100.782726
2400.000000	100.782376
2399.000000	100.781973
2398.000000	100.781519
2397.000000	100.781029
2396.000000	100.780513
2395.000000	100.779966
2394.000000	100.779369
2393.000000	100.778702
2392.000000	100.777957
2391.000000	100.777143
2390.000000	100.776277
2389.000000	100.775378
2388.000000	100.774454
2387.000000	100.773499
2386.000000	100.772511
2385.000000	100.771490
2384.000000	100.770440
2383.000000	100.769358
2382.000000	100.768248
2381.000000	100.767116
2380.000000	100.765968
2379.000000	100.764802
2378.000000	100.763613
2377.000000	100.762397
2376.000000	100.761155
2375.000000	100.759901
2374.000000	100.758662
2373.000000	100.757458
2372.000000	100.756289
2371.000000	100.755149
2370.000000	100.754051
2369.000000	100.753024
2368.000000	100.752075
2367.000000	100.751164
2366.000000	100.750245
2365.000000	100.749313
2364.000000	100.748411
2363.000000	100.747581
2362.000000	100.746826
2361.000000	100.746116
2360.000000	100.745407
2359.000000	100.744668
2358.000000	100.743903
2357.000000	100.743141
2356.000000	100.742410
2355.000000	100.741715
2354.000000	100.741045
2353.000000	100.740396
2352.000000	100.739779
2351.000000	100.739213
2350.000000	100.738717
2349.000000	100.738300
2348.000000	100.737961
2347.000000	100.737687
2346.000000	100.737456
2345.000000	100.737251
2344.000000	100.737056
2343.000000	100.736860
2342.000000	100.736657
2341.000000	100.736468
2340.000000	100.736321
2339.000000	100.736213
2338.000000	100.736124
2337.000000	100.736039
2336.000000	100.735977
2335.000000	100.735975
2334.000000	100.736058
2333.000000	100.736223
2332.000000	100.736448
2331.000000	100.736703
2330.000000	100.736962
2329.000000	100.737203
2328.000000	100.737414
2327.000000	100.737594
2326.000000	100.737751
2325.000000	100.737899
2324.000000	100.738038
2323.000000	100.738159
2322.000000	100.738252
2321.000000	100.738312
2320.000000	100.738341
2319.000000	100.738349
2318.000000	100.738365
2317.000000	100.738430
2316.000000	100.738572
2315.000000	100.738773
2314.000000	100.738993
2313.000000	100.739204
2312.000000	100.739412
2311.000000	100.739632
2310.000000	100.739865
2309.000000	100.740096
2308.000000	100.740314
2307.000000	100.740518
2306.000000	100.740712
2305.000000	100.740899
2304.000000	100.741075
2303.000000	100.741237
2302.000000	100.741389
2301.000000	100.741548
2300.000000	100.741735
2299.000000	100.741954
2298.000000	100.742191
2297.000000	100.742422
2296.000000	100.742635
2295.000000	100.742831
2294.000000	100.743009
2293.000000	100.743161
2292.000000	100.743282
2291.000000	100.743366
2290.000000	100.743406
2289.000000	100.743396
2288.000000	100.743338
2287.000000	100.743247
2286.000000	100.743148
2285.000000	100.743058
2284.000000	100.742975
2283.000000	100.742879
2282.000000	100.742761
2281.000000	100.742634
2280.000000	100.742517
2279.000000	100.742413
2278.000000	100.742307
2277.000000	100.742177
2276.000000	100.742011
2275.000000	100.741797
2274.000000	100.741523
2273.000000	100.741189
2272.000000	100.740817
2271.000000	100.740429
2270.000000	100.740031
2269.000000	100.739612
2268.000000	100.739161
2267.000000	100.738682
2266.000000	100.738189
2265.000000	100.737687
2264.000000	100.737173
2263.000000	100.736641
2262.000000	100.736101
2261.000000	100.735569
2260.000000	100.735051
2259.000000	100.734538
2258.000000	100.734012
2257.000000	100.733462
2256.000000	100.732886
2255.000000	100.732295
2254.000000	100.731704
2253.000000	100.731130
2252.000000	100.730584
2251.000000	100.730064
2250.000000	100.729556
2249.000000	100.729047
2248.000000	100.728535
2247.000000	100.728036
2246.000000	100.727563
2245.000000	100.727126
2244.000000	100.726719
2243.000000	100.726330
2242.000000	100.725954
2241.000000	100.725597
2240.000000	100.725271
2239.000000	100.724985
2238.000000	100.724731
2237.000000	100.724501
2236.000000	100.724296
2235.000000	100.724126
2234.000000	100.724005
2233.000000	100.723937
2232.000000	100.723916
2231.000000	100.723940
2230.000000	100.724000
2229.000000	100.724090
2228.000000	100.724202
2227.000000	100.724336
2226.000000	100.724499
2225.000000	100.724690
2224.000000	100.724901
2223.000000	100.725117
2222.000000	100.725333
2221.000000	100.725554
2220.000000	100.725791
2219.000000	100.726048
2218.000000	100.726324
2217.000000	100.726620
2216.000000	100.726938
2215.000000	100.727285
2214.000000	100.727660
2213.000000	100.728058
2212.000000	100.728476
2211.000000	100.728911
2210.000000	100.729358
2209.000000	100.729809
2208.000000	100.730258
2207.000000	100.730707
2206.000000	100.731172
2205.000000	100.731673
2204.000000	100.732215
2203.000000	100.732788
2202.000000	100.733371
2201.000000	100.733957
2200.000000	100.734544
2199.000000	100.735126
2198.000000	100.735693
2197.000000	100.736230
2196.000000	100.736739
2195.000000	100.737225
2194.000000	100.737690
2193.000000	100.738121
2192.000000	100.738510
2191.000000	100.738864
2190.000000	100.739199
2189.000000	100.739521
2188.000000	100.739827
2187.000000	100.740110
2186.000000	100.740381
2185.000000	100.740659
2184.000000	100.740953
2183.000000	100.741262
2182.000000	100.741578
2181.000000	100.741903
2180.000000	100.742242
2179.000000	100.742597
2178.000000	100.742960
2177.000000	100.743317
2176.000000	100.743649
2175.000000	100.743947
2174.000000	100.744211
2173.000000	100.744453
2172.000000	100.744688
2171.000000	100.744927
2170.000000	100.745175
2169.000000	100.745423
2168.000000	100.745656
2167.000000	100.745864
2166.000000	100.746063
2165.000000	100.746280
2164.000000	100.746523
2163.000000	100.746765
2162.000000	100.746975
2161.000000	100.747147
2160.000000	100.747304
2159.000000	100.747474
2158.000000	100.747669
2157.000000	100.747889
2156.000000	100.748138
2155.000000	100.748420
2154.000000	100.748734
2153.000000	100.749073
2152.000000	100.749434
2151.000000	100.749824
2150.000000	100.750254
2149.000000	100.750724
2148.000000	100.751217
2147.000000	100.751721
2146.000000	100.752240
2145.000000	100.752788
2144.000000	100.753367
2143.000000	100.753960
2142.000000	100.754546
2141.000000	100.755115
2140.000000	100.755672
2139.000000	100.756227
2138.000000	100.756786
2137.000000	100.757352
2136.000000	100.757925
2135.000000	100.758506
2134.000000	100.759098
2133.000000	100.759711
2132.000000	100.760353
2131.000000	100.761023
2130.000000	100.761708
2129.000000	100.762386
2128.000000	100.763042
2127.000000	100.763677
2126.000000	100.764314
2125.000000	100.764979
2124.000000	100.765671
2123.000000	100.766363
2122.000000	100.767027
2121.000000	100.767665
2120.000000	100.768301
2119.000000	100.768953
2118.000000	100.769611
2117.000000	100.770252
2116.000000	100.770857
2115.000000	100.771422
2114.000000	100.771952
2113.000000	100.772458
2112.000000	100.772959
2111.000000	100.773466
2110.000000	100.773985
2109.000000	100.774509
2108.000000	100.775026
2107.000000	100.775527
2106.000000	100.776008
2105.000000	100.776469
2104.000000	100.776916
2103.000000	100.777355
2102.000000	100.777787
2101.000000	100.778210
2100.000000	100.778622
2099.000000	100.779020
2098.000000	100.779401
2097.000000	100.779768
2096.000000	100.780124
2095.000000	100.780470
2094.000000	100.780802
2093.000000	100.781115
2092.000000	100.781412
2091.000000	100.781700
2090.000000	100.781981
2089.000000	100.782251
2088.000000	100.782501
2087.000000	100.782732
2086.000000	100.782957
2085.000000	100.783192
2084.000000	100.783436
2083.000000	100.783665
2082.000000	100.783854
2081.000000	100.784003
2080.000000	100.784125
2079.000000	100.784230
2078.000000	100.784315
2077.000000	100.784376
2076.000000	100.784419
2075.000000	100.784454
2074.000000	100.784485
2073.000000	100.784511
2072.000000	100.784534
2071.000000	100.784553
2070.000000	100.784564
2069.000000	100.784552
2068.000000	100.784509
2067.000000	100.784435
2066.000000	100.784333
2065.000000	100.784209
2064.000000	100.784069
2063.000000	100.783915
2062.000000	100.783743
2061.000000	100.783538
2060.000000	100.783283
2059.000000	100.782961
2058.000000	100.782567
2057.000000	100.782109
2056.000000	100.781606
2055.000000	100.781073
2054.000000	100.780508
2053.000000	100.779895
2052.000000	100.779215
2051.000000	100.778467
2050.000000	100.777660
2049.000000	100.776795
2048.000000	100.775863
2047.000000	100.774856
2046.000000	100.773779
2045.000000	100.772647
2044.000000	100.771465
2043.000000	100.770224
2042.000000	100.768907
2041.000000	100.767514
2040.000000	100.766053
2039.000000	100.764539
2038.000000	100.762985
2037.000000	100.761410
2036.000000	100.759835
2035.000000	100.758265
2034.000000	100.756690
2033.000000	100.755100
2032.000000	100.753503
2031.000000	100.751917
2030.000000	100.750353
2029.000000	100.748809
2028.000000	100.747279
2027.000000	100.745770
2026.000000	100.744282
2025.000000	100.742805
2024.000000	100.741315
2023.000000	100.739790
2022.000000	100.738225
2021.000000	100.736633
2020.000000	100.735034
2019.000000	100.733438
2018.000000	100.731851
2017.000000	100.730278
2016.000000	100.728732
2015.000000	100.727225
2014.000000	100.725750
2013.000000	100.724289
2012.000000	100.722831
2011.000000	100.721388
2010.000000	100.719981
2009.000000	100.718626
2008.000000	100.717319
2007.000000	100.716053
2006.000000	100.714826
2005.000000	100.713647
2004.000000	100.712527
2003.000000	100.711474
2002.000000	100.710489
2001.000000	100.709568
2000.000000	100.708713
1999.000000	100.707931
1998.000000	100.707236
1997.000000	100.706637
1996.000000	100.706128
1995.000000	100.705689
1994.000000	100.705290
1993.000000	100.704912
1992.000000	100.704555
1991.000000	100.704231
1990.000000	100.703947
1989.000000	100.703695
1988.000000	100.703460
1987.000000	100.703240
1986.000000	100.703037
1985.000000	100.702855
1984.000000	100.702687
1983.000000	100.702537
1982.000000	100.702422
1981.000000	100.702361
1980.000000	100.702364
1979.000000	100.702422
1978.000000	100.702520
1977.000000	100.702642
1976.000000	100.702784
1975.000000	100.702947
1974.000000	100.703135
1973.000000	100.703350
1972.000000	100.703589
1971.000000	100.703853
1970.000000	100.704144
1969.000000	100.704458
1968.000000	100.704789
1967.000000	100.705132
1966.000000	100.705489
1965.000000	100.705862
1964.000000	100.706253
1963.000000	100.706661
1962.000000	100.707081
1961.000000	100.707505
1960.000000	100.707918
1959.000000	100.708308
1958.000000	100.708673
1957.000000	100.709015
1956.000000	100.709328
1955.000000	100.709593
1954.000000	100.709793
1953.000000	100.709926
1952.000000	100.710002
1951.000000	100.710037
1950.000000	100.710034
1949.000000	100.709985
1948.000000	100.709876
1947.000000	100.709693
1946.000000	100.709435
1945.000000	100.709125
1944.000000	100.708794
1943.000000	100.708456
1942.000000	100.708073
1941.000000	100.707594
1940.000000	100.707005
1939.000000	100.706336
1938.000000	100.705658
1937.000000	100.705024
1936.000000	100.704379
1935.000000	100.703583
1934.000000	100.702569
1933.000000	100.701422
1932.000000	100.700256
1931.000000	100.699056
1930.000000	100.697734
1929.000000	100.696308
1928.000000	100.694927
1927.000000	100.693640
1926.000000	100.692295
1925.000000	100.690688
1924.000000	100.688806
1923.000000	100.686894
1922.000000	100.685210
1921.000000	100.683744
1920.000000	100.682124
1919.000000	100.679920
1918.000000	100.677093
1917.000000	100.674197
1916.000000	100.671777
1915.000000	100.669709
1914.000000	100.667445
1913.000000	100.664661
1912.000000	100.661564
1911.000000	100.658628
1910.000000	100.655986
1909.000000	100.653312
1908.000000	100.650341
1907.000000	100.647129
1906.000000	100.643956
1905.000000	100.641052
1904.000000	100.638536
1903.000000	100.636402
1902.000000	100.634293
1901.000000	100.631720
1900.000000	100.628638
1899.000000	100.625624
1898.000000	100.623395
1897.000000	100.622074
1896.000000	100.620966
1895.000000	100.619178
1894.000000	100.616449
1893.000000	100.613291
1892.000000	100.610513
1891.000000	100.608625
1890.000000	100.607633
1889.000000	100.607117
1888.000000	100.606499
1887.000000	100.605392
1886.000000	100.603878
1885.000000	100.602504
1884.000000	100.601758
1883.000000	100.601524
1882.000000	100.601187
1881.000000	100.600406
1880.000000	100.599618
1879.000000	100.599486
1878.000000	100.600145
1877.000000	100.601156
1876.000000	100.601987
1875.000000	100.602486
1874.000000	100.602863
1873.000000	100.603437
1872.000000	100.604482
1871.000000	100.606175
1870.000000	100.608417
1869.000000	100.610678
1868.000000	100.612426
1867.000000	100.613675
1866.000000	100.614901
1865.000000	100.616696
1864.000000	100.619357
1863.000000	100.622719
1862.000000	100.626252
1861.000000	100.629356
1860.000000	100.631754
1859.000000	100.633606
1858.000000	100.635505
1857.000000	100.638059
1856.000000	100.641362
1855.000000	100.644911
1854.000000	100.648029
1853.000000	100.650549
1852.000000	100.652948
1851.000000	100.655750
1850.000000	100.658978
1849.000000	100.662284
1848.000000	100.665338
1847.000000	100.668060
1846.000000	100.670569
1845.000000	100.673038
1844.000000	100.675592
1843.000000	100.678253
1842.000000	100.680778
1841.000000	100.682907
1840.000000	100.684705
1839.000000	100.686411
1838.000000	100.688246
1837.000000	100.690238
1836.000000	100.692212
1835.000000	100.693973
1834.000000	100.695494
1833.000000	100.696908
1832.000000	100.698334
1831.000000	100.699735
1830.000000	100.701001
1829.000000	100.702108
1828.000000	100.703100
1827.000000	100.704008
1826.000000	100.704842
1825.000000	100.705607
1824.000000	100.706311
1823.000000	100.706959
1822.000000	100.707560
1821.000000	100.708116
1820.000000	100.708624
1819.000000	100.709089
1818.000000	100.709525
1817.000000	100.709948
1816.000000	100.710360
1815.000000	100.710755
1814.000000	100.711122
1813.000000	100.711470
1812.000000	100.711830
1811.000000	100.712235
1810.000000	100.712688
1809.000000	100.713162
1808.000000	100.713623
1807.000000	100.714065
1806.000000	100.714508
1805.000000	100.714983
1804.000000	100.715516
1803.000000	100.716116
1802.000000	100.716773
1801.000000	100.717468
1800.000000	100.718192
1799.000000	100.718959
1798.000000	100.719798
1797.000000	100.720729
1796.000000	100.721753
1795.000000	100.722856
1794.000000	100.724023
1793.000000	100.725247
1792.000000	100.726524
1791.000000	100.727852
1790.000000	100.729238
1789.000000	100.730693
1788.000000	100.732228
1787.000000	100.733835
1786.000000	100.735489
1785.000000	100.737167
1784.000000	100.738880
1783.000000	100.740652
1782.000000	100.742493
1781.000000	100.744376
1780.000000	100.746254
1779.000000	100.748090
1778.000000	100.749878
1777.000000	100.751646
1776.000000	100.753424
1775.000000	100.755226
1774.000000	100.757037
1773.000000	100.758819
1772.000000	100.760537
1771.000000	100.762179
1770.000000	100.763754
1769.000000	100.765270
1768.000000	100.766727
1767.000000	100.768121
1766.000000	100.769445
1765.000000	100.770689
1764.000000	100.771847
1763.000000	100.772926
1762.000000	100.773936
1761.000000	100.774878
1760.000000	100.775727
1759.000000	100.776456
1758.000000	100.777063
1757.000000	100.777573
1756.000000	100.778005
1755.000000	100.778361
1754.000000	100.778623
1753.000000	100.778777
1752.000000	100.778815
1751.000000	100.778741
1750.000000	100.778577
1749.000000	100.778338
1748.000000	100.778014
1747.000000	100.777573
1746.000000	100.776988
1745.000000	100.776264
1744.000000	100.775418
1743.000000	100.774463
1742.000000	100.773391
1741.000000	100.772192
1740.000000	100.770856
1739.000000	100.769377
1738.000000	100.767756
1737.000000	100.766006
1736.000000	100.764155
1735.000000	100.762222
1734.000000	100.760192
1733.000000	100.758042
1732.000000	100.755752
1731.000000	100.753317
1730.000000	100.750758
1729.000000	100.748099
1728.000000	100.745337
1727.000000	100.742444
1726.000000	100.739374
1725.000000	100.736106
1724.000000	100.732661
1723.000000	100.729085
1722.000000	100.725416
1721.000000	100.721663
1720.000000	100.717809
1719.000000	100.713826
1718.000000	100.709699
1717.000000	100.705441
1716.000000	100.701078
1715.000000	100.696611
1714.000000	100.692017
1713.000000	100.687270
1712.000000	100.682362
1711.000000	100.677312
1710.000000	100.672141
1709.000000	100.666846
1708.000000	100.661399
1707.000000	100.655767
1706.000000	100.649959
1705.000000	100.644022
1704.000000	100.637995
1703.000000	100.631869
1702.000000	100.625618
1701.000000	100.619238
1700.000000	100.612755
1699.000000	100.606191
1698.000000	100.599523
1697.000000	100.592736
1696.000000	100.585857
1695.000000	100.578922
1694.000000	100.571942
1693.000000	100.564898
1692.000000	100.557764
1691.000000	100.550539
1690.000000	100.543238
1689.000000	100.535898
1688.000000	100.528556
1687.000000	100.521230
1686.000000	100.513924
1685.000000	100.506633
1684.000000	100.499375
1683.000000	100.492193
1682.000000	100.485094
1681.000000	100.478050
1680.000000	100.471037
1679.000000	100.464040
1678.000000	100.457052
1677.000000	100.450077
1676.000000	100.443133
1675.000000	100.436254
1674.000000	100.429465
1673.000000	100.422770
1672.000000	100.416166
1671.000000	100.409650
1670.000000	100.403221
1669.000000	100.396866
1668.000000	100.390577
1667.000000	100.384362
1666.000000	100.378256
1665.000000	100.372305
1664.000000	100.366521
1663.000000	100.360872
1662.000000	100.355318
1661.000000	100.349856
1660.000000	100.344516
1659.000000	100.339326
1658.000000	100.334294
1657.000000	100.329419
1656.000000	100.324699
1655.000000	100.320136
1654.000000	100.315726
1653.000000	100.311481
1652.000000	100.307443
1651.000000	100.303606
1650.000000	100.299931
1649.000000	100.296410
1648.000000	100.293043
1647.000000	100.289824
1646.000000	100.286747
1645.000000	100.283793
1644.000000	100.280950
1643.000000	100.278219
1642.000000	100.275610
1641.000000	100.273130
1640.000000	100.270791
1639.000000	100.268615
1638.000000	100.266618
1637.000000	100.264792
1636.000000	100.263133
1635.000000	100.261659
1634.000000	100.260380
1633.000000	100.259271
1632.000000	100.258297
1631.000000	100.257447
1630.000000	100.256734
1629.000000	100.256178
1628.000000	100.255788
1627.000000	100.255566
1626.000000	100.255522
1625.000000	100.255665
1624.000000	100.255986
1623.000000	100.256455
1622.000000	100.257056
1621.000000	100.257788
1620.000000	100.258664
1619.000000	100.259698
1618.000000	100.260912
1617.000000	100.262320
1616.000000	100.263910
1615.000000	100.265621
1614.000000	100.267399
1613.000000	100.269266
1612.000000	100.271304
1611.000000	100.273552
1610.000000	100.275973
1609.000000	100.278482
1608.000000	100.281048
1607.000000	100.283704
1606.000000	100.286476
1605.000000	100.289370
1604.000000	100.292384
1603.000000	100.295502
1602.000000	100.298712
1601.000000	100.302018
1600.000000	100.305434
1599.000000	100.308973
1598.000000	100.312618
1597.000000	100.316330
1596.000000	100.320076
1595.000000	100.323850
1594.000000	100.327665
1593.000000	100.331525
1592.000000	100.335415
1591.000000	100.339318
1590.000000	100.343239
1589.000000	100.347183
1588.000000	100.351145
1587.000000	100.355108
1586.000000	100.359057
1585.000000	100.362973
1584.000000	100.366841
1583.000000	100.370661
1582.000000	100.374456
1581.000000	100.378245
1580.000000	100.382030
1579.000000	100.385796
1578.000000	100.389538
1577.000000	100.393262
1576.000000	100.396962
1575.000000	100.400612
1574.000000	100.404188
1573.000000	100.407697
1572.000000	100.411169
1571.000000	100.414613
1570.000000	100.418008
1569.000000	100.421305
1568.000000	100.424462
1567.000000	100.427465
1566.000000	100.430341
1565.000000	100.433152
1564.000000	100.435943
1563.000000	100.438709
1562.000000	100.441417
1561.000000	100.444045
1560.000000	100.446605
1559.000000	100.449115
1558.000000	100.451585
1557.000000	100.453992
1556.000000	100.456299
1555.000000	100.458513
1554.000000	100.460667
1553.000000	100.462789
1552.000000	100.464882
1551.000000	100.466945
1550.000000	100.468979
1549.000000	100.470982
1548.000000	100.472955
1547.000000	100.474922
1546.000000	100.476914
1545.000000	100.478945
1544.000000	100.481014
1543.000000	100.483128
1542.000000	100.485324
1541.000000	100.487633
1540.000000	100.490023
1539.000000	100.492424
1538.000000	100.494809
1537.000000	100.497206
1536.000000	100.499654
1535.000000	100.502171
1534.000000	100.504742
1533.000000	100.507354
1532.000000	100.510008
1531.000000	100.512716
1530.000000	100.515490
1529.000000	100.518341
1528.000000	100.521271
1527.000000	100.524283
1526.000000	100.527398
1525.000000	100.530651
1524.000000	100.534065
1523.000000	100.537621
1522.000000	100.541270
1521.000000	100.544986
1520.000000	100.548788
1519.000000	100.552702
1518.000000	100.556728
1517.000000	100.560833
1516.000000	100.564980
1515.000000	100.569143
1514.000000	100.573333
1513.000000	100.577582
1512.000000	100.581914
1511.000000	100.586336
1510.000000	100.590838
1509.000000	100.595392
1508.000000	100.599960
1507.000000	100.604520
1506.000000	100.609095
1505.000000	100.613715
1504.000000	100.618357
1503.000000	100.622987
1502.000000	100.627591
1501.000000	100.632151
1500.000000	100.636628
1499.000000	100.640979
1498.000000	100.645207
1497.000000	100.649363
1496.000000	100.653504
1495.000000	100.657643
1494.000000	100.661745
1493.000000	100.665757
1492.000000	100.669638
1491.000000	100.673382
1490.000000	100.677017
1489.000000	100.680584
1488.000000	100.684087
1487.000000	100.687476
1486.000000	100.690703
1485.000000	100.693762
1484.000000	100.696683
1483.000000	100.699486
1482.000000	100.702154
1481.000000	100.704634
1480.000000	100.706871
1479.000000	100.708849
1478.000000	100.710612
1477.000000	100.712229
1476.000000	100.713744
1475.000000	100.715141
1474.000000	100.716375
1473.000000	100.717440
1472.000000	100.718395
1471.000000	100.719309
1470.000000	100.720190
1469.000000	100.720986
1468.000000	100.721637
1467.000000	100.722111
1466.000000	100.722428
1465.000000	100.722649
1464.000000	100.722816
1463.000000	100.722908
1462.000000	100.722863
1461.000000	100.722633
1460.000000	100.722221
1459.000000	100.721679
1458.000000	100.721092
1457.000000	100.720538
1456.000000	100.720020
1455.000000	100.719462
1454.000000	100.718793
1453.000000	100.718003
1452.000000	100.717123
1451.000000	100.716195
1450.000000	100.715249
1449.000000	100.714312
1448.000000	100.713389
1447.000000	100.712457
1446.000000	100.711482
1445.000000	100.710470
1444.000000	100.709464
1443.000000	100.708504
1442.000000	100.707586
1441.000000	100.706659
1440.000000	100.705677
1439.000000	100.704646
1438.000000	100.703647
1437.000000	100.702796
1436.000000	100.702150
1435.000000	100.701645
1434.000000	100.701161
1433.000000	100.700651
1432.000000	100.700163
1431.000000	100.699772
1430.000000	100.699491
1429.000000	100.699261
1428.000000	100.699009
1427.000000	100.698722
1426.000000	100.698447
1425.000000	100.698260
1424.000000	100.698211
1423.000000	100.698282
1422.000000	100.698406
1421.000000	100.698545
1420.000000	100.698741
1419.000000	100.699096
1418.000000	100.699677
1417.000000	100.700446
1416.000000	100.701299
1415.000000	100.702159
1414.000000	100.703012
1413.000000	100.703902
1412.000000	100.704878
1411.000000	100.705953
1410.000000	100.707104
1409.000000	100.708309
1408.000000	100.709557
1407.000000	100.710836
1406.000000	100.712131
1405.000000	100.713441
1404.000000	100.714792
1403.000000	100.716206
1402.000000	100.717676
1401.000000	100.719181
1400.000000	100.720712
1399.000000	100.722297
1398.000000	100.723975
1397.000000	100.725760
1396.000000	100.727619
1395.000000	100.729497
1394.000000	100.731346
1393.000000	100.733156
1392.000000	100.734955
1391.000000	100.736765
1390.000000	100.738586
1389.000000	100.740398
1388.000000	100.742185
1387.000000	100.743952
1386.000000	100.745717
1385.000000	100.747501
1384.000000	100.749295
1383.000000	100.751058
1382.000000	100.752735
1381.000000	100.754312
1380.000000	100.755829
1379.000000	100.757337
1378.000000	100.758849
1377.000000	100.760316
1376.000000	100.761685
1375.000000	100.762947
1374.000000	100.764142
1373.000000	100.765311
1372.000000	100.766463
1371.000000	100.767588
1370.000000	100.768678
1369.000000	100.769735
1368.000000	100.770771
1367.000000	100.771805
1366.000000	100.772846
1365.000000	100.773891
1364.000000	100.774923
1363.000000	100.775933
1362.000000	100.776924
1361.000000	100.777901
1360.000000	100.778856
1359.000000	100.779770
1358.000000	100.780621
1357.000000	100.781382
1356.000000	100.782030
1355.000000	100.782564
1354.000000	100.783019
1353.000000	100.783433
1352.000000	100.783811
1351.000000	100.784126
1350.000000	100.784357
1349.000000	100.784520
1348.000000	100.784651
1347.000000	100.784769
1346.000000	100.784867
1345.000000	100.784938
1344.000000	100.784978
1343.000000	100.784982
1342.000000	100.784943
1341.000000	100.784883
1340.000000	100.784849
1339.000000	100.784876
1338.000000	100.784949
1337.000000	100.785023
1336.000000	100.785073
1335.000000	100.785111
1334.000000	100.785158
1333.000000	100.785216
1332.000000	100.785284
1331.000000	100.785357
1330.000000	100.785426
1329.000000	100.785469
1328.000000	100.785479
1327.000000	100.785482
1326.000000	100.785518
1325.000000	100.785587
1324.000000	100.785637
1323.000000	100.785616
1322.000000	100.785532
1321.000000	100.785428
1320.000000	100.785319
1319.000000	100.785162
1318.000000	100.784884
1317.000000	100.784435
1316.000000	100.783810
1315.000000	100.783044
1314.000000	100.782186
1313.000000	100.781267
1312.000000	100.780267
1311.000000	100.779120
1310.000000	100.777775
1309.000000	100.776238
1308.000000	100.774546
1307.000000	100.772719
1306.000000	100.770737
1305.000000	100.768581
1304.000000	100.766259
1303.000000	100.763797
1302.000000	100.761213
1301.000000	100.758513
1300.000000	100.755697
1299.000000	100.752763
1298.000000	100.749698
1297.000000	100.746487
1296.000000	100.743119
1295.000000	100.739594
1294.000000	100.735915
1293.000000	100.732086
1292.000000	100.728109
1291.000000	100.723982
1290.000000	100.719700
1289.000000	100.715262
1288.000000	100.710690
1287.000000	100.706021
1286.000000	100.701276
1285.000000	100.696431
1284.000000	100.691442
1283.000000	100.686290
1282.000000	100.681001
1281.000000	100.675615
1280.000000	100.670138
1279.000000	100.664535
1278.000000	100.658769
1277.000000	100.652841
1276.000000	100.646736
1275.000000	100.640456
1274.000000	100.634101
1273.000000	100.628005
1272.000000	100.622436
1271.000000	100.616893
1270.000000	100.610355
1269.000000	100.602904
1268.000000	100.596170
1267.000000	100.590433
1266.000000	100.583095
1265.000000	100.572365
1264.000000	100.560740
1263.000000	100.552920
1262.000000	100.550401
1261.000000	100.549073
1260.000000	100.542565
1259.000000	100.528540
1258.000000	100.512573
1257.000000	100.504009
1256.000000	100.505150
1255.000000	100.505885
1254.000000	100.494186
1253.000000	100.471954
1252.000000	100.453457
1251.000000	100.445310
1250.000000	100.436987
1249.000000	100.417665
1248.000000	100.394469
1247.000000	100.383221
1246.000000	100.384401
1245.000000	100.380596
1244.000000	100.359999
1243.000000	100.331945
1242.000000	100.313682
1241.000000	100.308285
1240.000000	100.303863
1239.000000	100.290902
1238.000000	100.272019
1237.000000	100.254194
1236.000000	100.238259
1235.000000	100.219901
1234.000000	100.196858
1233.000000	100.170527
1232.000000	100.143400
1231.000000	100.120262
1230.000000	100.109009
1229.000000	100.111161
1228.000000	100.110773
1227.000000	100.084545
1226.000000	100.029518
1225.000000	99.972225
1224.000000	99.940802
1223.000000	99.933215
1222.000000	99.924398
1221.000000	99.898199
1220.000000	99.857323
1219.000000	99.806613
1218.000000	99.746726
1217.000000	99.687412
1216.000000	99.646227
1215.000000	99.623353
1214.000000	99.594109
1213.000000	99.540352
1212.000000	99.475640
1211.000000	99.424754
1210.000000	99.388384
1209.000000	99.346330
1208.000000	99.288419
1207.000000	99.222492
1206.000000	99.156158
1205.000000	99.091176
1204.000000	99.035795
1203.000000	98.999967
1202.000000	98.972012
1201.000000	98.921734
1200.000000	98.838608
1199.000000	98.750323
1198.000000	98.690100
1197.000000	98.656808
1196.000000	98.622706
1195.000000	98.569834
1194.000000	98.501700
1193.000000	98.426476
1192.000000	98.348868
1191.000000	98.279128
1190.000000	98.230453
1189.000000	98.198994
1188.000000	98.159197
1187.000000	98.090023
1186.000000	97.999854
1185.000000	97.915638
1184.000000	97.850150
1183.000000	97.790987
1182.000000	97.722292
1181.000000	97.645975
1180.000000	97.573427
1179.000000	97.503109
1178.000000	97.420440
1177.000000	97.321018
1176.000000	97.219700
1175.000000	97.128834
1174.000000	97.039817
1173.000000	96.940227
1172.000000	96.839986
1171.000000	96.759822
1170.000000	96.696220
1169.000000	96.620418
1168.000000	96.519128
1167.000000	96.415092
1166.000000	96.335053
1165.000000	96.278526
1164.000000	96.235185
1163.000000	96.215446
1162.000000	96.236239
1161.000000	96.282832
1160.000000	96.312382
1159.000000	96.303865
1158.000000	96.282051
1157.000000	96.278766
1156.000000	96.286335
1155.000000	96.266747
1154.000000	96.201591
1153.000000	96.113841
1152.000000	96.038724
1151.000000	95.984749
1150.000000	95.931307
1149.000000	95.860106
1148.000000	95.779045
1147.000000	95.711754
1146.000000	95.667102
1145.000000	95.625678
1144.000000	95.560954
1143.000000	95.470942
1142.000000	95.381772
1141.000000	95.317726
1140.000000	95.274293
1139.000000	95.227134
1138.000000	95.162632
1137.000000	95.089536
1136.000000	95.020686
1135.000000	94.955807
1134.000000	94.889179
1133.000000	94.824429
1132.000000	94.769457
1131.000000	94.720786
1130.000000	94.665966
1129.000000	94.602237
1128.000000	94.540653
1127.000000	94.487960
1126.000000	94.435467
1125.000000	94.372735
1124.000000	94.304004
1123.000000	94.242010
1122.000000	94.190529
1121.000000	94.141613
1120.000000	94.087855
1119.000000	94.031483
1118.000000	93.978755
1117.000000	93.929729
1116.000000	93.876982
1115.000000	93.814607
1114.000000	93.746958
1113.000000	93.686634
1112.000000	93.642008
1111.000000	93.606509
1110.000000	93.561915
1109.000000	93.497157
1108.000000	93.420604
1107.000000	93.350639
1106.000000	93.295768
1105.000000	93.250357
1104.000000	93.206459
1103.000000	93.160921
1102.000000	93.111196
1101.000000	93.054797
1100.000000	92.996556
1099.000000	92.948135
1098.000000	92.913878
1097.000000	92.881413
1096.000000	92.833729
1095.000000	92.770454
1094.000000	92.711003
1093.000000	92.672570
1092.000000	92.647765
1091.000000	92.610795
1090.000000	92.548837
1089.000000	92.479200
1088.000000	92.426280
1087.000000	92.388280
1086.000000	92.343186
1085.000000	92.286789
1084.000000	92.241660
1083.000000	92.217596
1082.000000	92.185508
1081.000000	92.114644
1080.000000	92.022642
1079.000000	91.960671
1078.000000	91.948976
1077.000000	91.953201
1076.000000	91.931864
1075.000000	91.883305
1074.000000	91.830530
1073.000000	91.778820
1072.000000	91.711819
1071.000000	91.624242
1070.000000	91.535483
1069.000000	91.463317
1068.000000	91.395475
1067.000000	91.299560
1066.000000	91.160393
1065.000000	90.998699
1064.000000	90.849648
1063.000000	90.729566
1062.000000	90.629087
1061.000000	90.533633
1060.000000	90.439442
1059.000000	90.350025
1058.000000	90.270560
1057.000000	90.208669
1056.000000	90.165291
1055.000000	90.117995
1054.000000	90.031422
1053.000000	89.899642
1052.000000	89.763825
1051.000000	89.666018
1050.000000	89.594635
1049.000000	89.502515
1048.000000	89.370394
1047.000000	89.220903
1046.000000	89.074519
1045.000000	88.925297
1044.000000	88.766443
1043.000000	88.612901
1042.000000	88.482875
1041.000000	88.369325
1040.000000	88.244732
1039.000000	88.093495
1038.000000	87.933176
1037.000000	87.799997
1036.000000	87.711906
1035.000000	87.646451
1034.000000	87.562638
1033.000000	87.449368
1032.000000	87.338650
1031.000000	87.263756
1030.000000	87.220980
1029.000000	87.183750
1028.000000	87.137639
1027.000000	87.083017
1026.000000	87.020274
1025.000000	86.959378
1024.000000	86.929727
1023.000000	86.945291
1022.000000	86.964906
1021.000000	86.926572
1020.000000	86.829941
1019.000000	86.747162
1018.000000	86.735620
1017.000000	86.770474
1016.000000	86.781035
1015.000000	86.734124
1014.000000	86.657739
1013.000000	86.594236
1012.000000	86.557803
1011.000000	86.536751
1010.000000	86.515838
1009.000000	86.488998
1008.000000	86.458302
1007.000000	86.426901
1006.000000	86.394937
1005.000000	86.363663
1004.000000	86.340959
1003.000000	86.336174
1002.000000	86.347720
1001.000000	86.360504
1000.000000	86.358125
999.000000	86.337621
998.000000	86.315020
997.000000	86.315917
996.000000	86.352046
995.000000	86.402178
994.000000	86.426228
993.000000	86.409175
992.000000	86.381798
991.000000	86.386896
990.000000	86.434703
989.000000	86.501853
988.000000	86.561470
987.000000	86.599345
986.000000	86.614534
985.000000	86.625553
984.000000	86.666873
983.000000	86.755879
982.000000	86.864573
981.000000	86.946185
980.000000	86.991563
979.000000	87.036424
978.000000	87.114578
977.000000	87.229544
976.000000	87.372019
975.000000	87.534674
974.000000	87.698939
973.000000	87.834357
972.000000	87.931772
971.000000	88.024003
970.000000	88.153813
969.000000	88.325743
968.000000	88.502679
967.000000	88.649559
966.000000	88.771195
965.000000	88.901717
964.000000	89.062006
963.000000	89.236568
962.000000	89.395701
961.000000	89.532458
960.000000	89.663570
959.000000	89.796378
958.000000	89.916618
957.000000	90.018078
956.000000	90.124010
955.000000	90.259697
954.000000	90.414443
953.000000	90.550542
952.000000	90.645056
951.000000	90.707274
950.000000	90.762862
949.000000	90.837293
948.000000	90.944911
947.000000	91.071316
946.000000	91.171919
945.000000	91.215363
944.000000	91.229894
943.000000	91.281263
942.000000	91.394799
941.000000	91.522431
940.000000	91.600762
939.000000	91.624079
938.000000	91.643768
937.000000	91.706459
936.000000	91.809449
935.000000	91.913770
934.000000	91.985393
933.000000	92.021819
932.000000	92.047426
931.000000	92.088686
930.000000	92.153646
929.000000	92.234401
928.000000	92.322518
927.000000	92.412215
926.000000	92.490967
925.000000	92.544147
924.000000	92.577287
923.000000	92.620858
922.000000	92.698047
921.000000	92.793060
920.000000	92.865679
919.000000	92.897928
918.000000	92.913838
917.000000	92.947967
916.000000	93.006031
915.000000	93.067403
914.000000	93.120909
913.000000	93.183005
912.000000	93.271578
911.000000	93.372634
910.000000	93.451127
909.000000	93.498515
908.000000	93.551453
907.000000	93.648945
906.000000	93.784200
905.000000	93.914846
904.000000	94.018015
903.000000	94.115191
902.000000	94.235883
901.000000	94.377262
900.000000	94.511622
899.000000	94.621970
898.000000	94.717300
897.000000	94.817438
896.000000	94.935159
895.000000	95.071089
894.000000	95.212884
893.000000	95.338878
892.000000	95.435113
891.000000	95.514281
890.000000	95.609859
889.000000	95.741956
888.000000	95.891731
887.000000	96.016409
886.000000	96.093342
885.000000	96.145527
884.000000	96.220884
883.000000	96.345728
882.000000	96.498741
881.000000	96.629907
880.000000	96.707421
879.000000	96.746671
878.000000	96.792269
877.000000	96.870107
876.000000	96.963714
875.000000	97.041890
874.000000	97.101724
873.000000	97.170832
872.000000	97.266773
871.000000	97.371784
870.000000	97.457996
869.000000	97.526122
868.000000	97.601547
867.000000	97.695172
866.000000	97.787356
865.000000	97.857139
864.000000	97.912178
863.000000	97.976601
862.000000	98.058596
861.000000	98.146986
860.000000	98.235613
859.000000	98.328763
858.000000	98.417077
857.000000	98.473093
856.000000	98.493129
855.000000	98.526252
854.000000	98.624351
853.000000	98.763016
852.000000	98.852236
851.000000	98.848582
850.000000	98.822178
849.000000	98.871764
848.000000	98.992141
847.000000	99.079961
846.000000	99.073795
845.000000	99.031490
844.000000	99.038771
843.000000	99.091130
842.000000	99.120780
841.000000	99.111650
840.000000	99.118401
839.000000	99.165132
838.000000	99.187205
837.000000	99.115898
836.000000	98.987341
835.000000	98.914869
834.000000	98.957518
833.000000	99.053501
832.000000	99.093185
831.000000	99.035709
830.000000	98.933941
829.000000	98.859242
828.000000	98.834974
827.000000	98.849877
826.000000	98.900171
825.000000	98.982116
824.000000	99.053404
823.000000	99.049097
822.000000	98.956321
821.000000	98.843691
820.000000	98.795235
819.000000	98.827205
818.000000	98.873646
817.000000	98.843250
816.000000	98.697859
815.000000	98.494900
814.000000	98.345515
813.000000	98.298606
812.000000	98.265457
811.000000	98.097011
810.000000	97.749916
809.000000	97.333692
808.000000	96.972241
807.000000	96.673863
806.000000	96.374054
805.000000	96.044136
804.000000	95.691421
803.000000	95.296703
802.000000	94.852641
801.000000	94.453116
800.000000	94.230989
799.000000	94.180735
798.000000	94.128749
797.000000	93.946732
796.000000	93.729467
795.000000	93.661321
794.000000	93.773873
793.000000	93.925625
792.000000	93.990193
791.000000	93.980187
790.000000	93.967686
789.000000	93.969726
788.000000	93.954230
787.000000	93.903782
786.000000	93.830003
785.000000	93.748571
784.000000	93.667492
783.000000	93.582591
782.000000	93.469500
781.000000	93.306224
780.000000	93.122621
779.000000	93.000136
778.000000	92.995123
777.000000	93.076693
776.000000	93.161262
775.000000	93.211606
774.000000	93.278350
773.000000	93.425132
772.000000	93.632794
771.000000	93.796556
770.000000	93.836058
769.000000	93.802151
768.000000	93.835746
767.000000	94.015214
766.000000	94.269631
765.000000	94.451212
764.000000	94.487054
763.000000	94.436937
762.000000	94.413531
761.000000	94.478808
760.000000	94.614042
759.000000	94.754071
758.000000	94.844846
757.000000	94.888472
756.000000	94.935149
755.000000	95.023197
754.000000	95.136040
753.000000	95.229365
752.000000	95.288901
751.000000	95.340436
750.000000	95.411565
749.000000	95.507052
748.000000	95.616254
747.000000	95.720040
746.000000	95.794168
745.000000	95.832042
744.000000	95.865176
743.000000	95.935094
742.000000	96.043191
741.000000	96.151465
740.000000	96.233847
739.000000	96.302606
738.000000	96.373781
737.000000	96.438829
736.000000	96.488814
735.000000	96.540585
734.000000	96.619734
733.000000	96.720120
732.000000	96.800081
731.000000	96.832045
730.000000	96.838605
729.000000	96.867285
728.000000	96.932394
727.000000	97.005772
726.000000	97.060681
725.000000	97.101429
724.000000	97.141372
723.000000	97.175917
722.000000	97.196539
721.000000	97.215802
720.000000	97.256377
719.000000	97.316899
718.000000	97.369174
717.000000	97.393541
716.000000	97.401865
715.000000	97.420583
714.000000	97.460635
713.000000	97.506896
712.000000	97.535069
711.000000	97.532351
710.000000	97.513056
709.000000	97.506682
708.000000	97.524713
707.000000	97.553860
706.000000	97.571598
705.000000	97.568674
704.000000	97.554718
703.000000	97.545668
702.000000	97.547186
701.000000	97.555548
700.000000	97.566178
699.000000	97.576390
698.000000	97.585604
697.000000	97.595550
696.000000	97.607985
695.000000	97.622176
694.000000	97.639107
693.000000	97.658778
692.000000	97.679931
691.000000	97.701833
690.000000	97.724889
689.000000	97.749972
688.000000	97.777435
687.000000	97.806911
686.000000	97.837797
685.000000	97.869558
684.000000	97.901735
683.000000	97.934160
682.000000	97.967316
681.000000	98.002110
680.000000	98.038917
679.000000	98.077026
678.000000	98.115249
677.000000	98.153065
676.000000	98.191114
675.000000	98.230623
674.000000	98.272328
673.000000	98.315753
672.000000	98.359490
671.000000	98.402335
670.000000	98.444295
669.000000	98.486753
668.000000	98.531552
667.000000	98.579114
666.000000	98.628035
665.000000	98.676652
664.000000	98.723963
663.000000	98.770018
662.000000	98.816064
661.000000	98.863783
660.000000	98.913810
659.000000	98.964768
658.000000	99.014363
657.000000	99.061590
656.000000	99.107551
655.000000	99.154237
654.000000	99.202645
653.000000	99.251780
652.000000	99.299460
651.000000	99.344154
650.000000	99.386076
