4000.000000	101.595971
3999.000000	101.590162
3998.000000	101.587668
3997.000000	101.586885
3996.000000	101.587205
3995.000000	101.589207
3994.000000	101.593201
3993.000000	101.598597
3992.000000	101.604499
3991.000000	101.609508
3990.000000	101.610889
3989.000000	101.605803
3988.000000	101.594313
3987.000000	101.580564
3986.000000	101.569357
3985.000000	101.561252
3984.000000	101.552588
3983.000000	101.540775
3982.000000	101.528103
3981.000000	101.518977
3980.000000	101.514283
3979.000000	101.510343
3978.000000	101.503643
3977.000000	101.495327
3976.000000	101.489830
3975.000000	101.489722
3974.000000	101.493296
3973.000000	101.496839
3972.000000	101.498318
3971.000000	101.498567
3970.000000	101.499618
3969.000000	101.502641
3968.000000	101.507079
3967.000000	101.511058
3966.000000	101.512264
3965.000000	101.508969
3964.000000	101.501188
3963.000000	101.491057
3962.000000	101.481584
3961.000000	101.474631
3960.000000	101.469874
3959.000000	101.465871
3958.000000	101.461442
3957.000000	101.456003
3956.000000	101.449456
3955.000000	101.442663
3954.000000	101.437266
3953.000000	101.433834
3952.000000	101.430445
3951.000000	101.424035
3950.000000	101.413603
3949.000000	101.401455
3948.000000	101.391053
3947.000000	101.383617
3946.000000	101.377852
3945.000000	101.372582
3944.000000	101.368444
3943.000000	101.366430
3942.000000	101.365550
3941.000000	101.363124
3940.000000	101.357618
3939.000000	101.350140
3938.000000	101.343025
3937.000000	101.337516
3936.000000	101.333095
3935.000000	101.328742
3934.000000	101.324222
3933.000000	101.320004
3932.000000	101.316304
3931.000000	101.312660
3930.000000	101.308487
3929.000000	101.303720
3928.000000	101.298743
3927.000000	101.293994
3926.000000	101.289790
3925.000000	101.286227
3924.000000	101.283011
3923.000000	101.279578
3922.000000	101.275589
3921.000000	101.271179
3920.000000	101.266731
3919.000000	101.262524
3918.000000	101.258511
3917.000000	101.254523
3916.000000	101.250504
3915.000000	101.246574
3914.000000	101.242913
3913.000000	101.239566
3912.000000	101.236408
3911.000000	101.233234
3910.000000	101.229946
3909.000000	101.226601
3908.000000	101.223291
3907.000000	101.220095
3906.000000	101.217049
3905.000000	101.214139
3904.000000	101.211310
3903.000000	101.208498
3902.000000	101.205672
3901.000000	101.202841
3900.000000	101.200046
3899.000000	101.197329
3898.000000	101.194715
3897.000000	101.192203
3896.000000	101.189766
3895.000000	101.187370
3894.000000	101.184955
3893.000000	101.182430
3892.000000	101.179741
3891.000000	101.176948
3890.000000	101.174128
3889.000000	101.171263
3888.000000	101.168304
3887.000000	101.165275
3886.000000	101.162288
3885.000000	101.159418
3884.000000	101.156603
3883.000000	101.153735
3882.000000	101.150822
3881.000000	101.147938
3880.000000	101.145082
3879.000000	101.142177
3878.000000	101.139130
3877.000000	101.135903
3876.000000	101.132533
3875.000000	101.129185
3874.000000	101.126047
3873.000000	101.123129
3872.000000	101.120080
3871.000000	101.116578
3870.000000	101.112851
3869.000000	101.109573
3868.000000	101.106783
3867.000000	101.103644
3866.000000	101.099570
3865.000000	101.094886
3864.000000	101.090356
3863.000000	101.086271
3862.000000	101.082382
3861.000000	101.078603
3860.000000	101.075142
3859.000000	101.072273
3858.000000	101.070004
3857.000000	101.067889
3856.000000	101.064826
3855.000000	101.059559
3854.000000	101.052128
3853.000000	101.044893
3852.000000	101.039154
3851.000000	101.033745
3850.000000	101.028244
3849.000000	101.023382
3848.000000	101.019308
3847.000000	101.015069
3846.000000	101.009497
3845.000000	101.002373
3844.000000	100.994744
3843.000000	100.988355
3842.000000	100.983828
3841.000000	100.979807
3840.000000	100.974069
3839.000000	100.965692
3838.000000	100.956056
3837.000000	100.947771
3836.000000	100.942201
3835.000000	100.938822
3834.000000	100.936235
3833.000000	100.933520
3832.000000	100.930606
3831.000000	100.927392
3830.000000	100.923183
3829.000000	100.917336
3828.000000	100.910131
3827.000000	100.903174
3826.000000	100.898146
3825.000000	100.894933
3824.000000	100.891389
3823.000000	100.885564
3822.000000	100.877878
3821.000000	100.871224
3820.000000	100.867206
3819.000000	100.863538
3818.000000	100.857695
3817.000000	100.849890
3816.000000	100.842197
3815.000000	100.835580
3814.000000	100.828656
3813.000000	100.820443
3812.000000	100.812315
3811.000000	100.806195
3810.000000	100.802255
3809.000000	100.798731
3808.000000	100.793983
3807.000000	100.788695
3806.000000	100.784529
3805.000000	100.781001
3804.000000	100.775607
3803.000000	100.766710
3802.000000	100.755795
3801.000000	100.747185
3800.000000	100.742653
3799.000000	100.739696
3798.000000	100.735580
3797.000000	100.730145
3796.000000	100.724871
3795.000000	100.720532
3794.000000	100.716551
3793.000000	100.712340
3792.000000	100.708078
3791.000000	100.703788
3790.000000	100.698776
3789.000000	100.692307
3788.000000	100.684695
3787.000000	100.677590
3786.000000	100.673146
3785.000000	100.672728
3784.000000	100.675776
3783.000000	100.679661
3782.000000	100.681565
3781.000000	100.680474
3780.000000	100.677163
3779.000000	100.673006
3778.000000	100.668272
3777.000000	100.662454
3776.000000	100.656003
3775.000000	100.650611
3774.000000	100.647283
3773.000000	100.644743
3772.000000	100.640613
3771.000000	100.634708
3770.000000	100.629803
3769.000000	100.627941
3768.000000	100.627411
3767.000000	100.625061
3766.000000	100.620191
3765.000000	100.614854
3764.000000	100.610686
3763.000000	100.606834
3762.000000	100.602037
3761.000000	100.597342
3760.000000	100.594333
3759.000000	100.592337
3758.000000	100.589577
3757.000000	100.586252
3756.000000	100.583671
3755.000000	100.581732
3754.000000	100.579272
3753.000000	100.575812
3752.000000	100.571393
3751.000000	100.565483
3750.000000	100.558252
3749.000000	100.551931
3748.000000	100.548278
3747.000000	100.545666
3746.000000	100.541686
3745.000000	100.537697
3744.000000	100.537476
3743.000000	100.537996
3742.000000	100.531423
3741.000000	100.516726
3740.000000	100.499447
3739.000000	100.484624
3738.000000	100.472623
3737.000000	100.461980
3736.000000	100.454254
3735.000000	100.452734
3734.000000	100.456522
3733.000000	100.460428
3732.000000	100.461071
3731.000000	100.458356
3730.000000	100.452421
3729.000000	100.442026
3728.000000	100.426533
3727.000000	100.407970
3726.000000	100.389850
3725.000000	100.373811
3724.000000	100.360173
3723.000000	100.350745
3722.000000	100.347654
3721.000000	100.350148
3720.000000	100.353595
3719.000000	100.352611
3718.000000	100.345586
3717.000000	100.335720
3716.000000	100.327098
3715.000000	100.320894
3714.000000	100.315423
3713.000000	100.308563
3712.000000	100.300071
3711.000000	100.291911
3710.000000	100.285312
3709.000000	100.278755
3708.000000	100.270359
3707.000000	100.260132
3706.000000	100.249402
3705.000000	100.239070
3704.000000	100.228912
3703.000000	100.218302
3702.000000	100.207177
3701.000000	100.196362
3700.000000	100.186668
3699.000000	100.178369
3698.000000	100.171559
3697.000000	100.166386
3696.000000	100.162352
3695.000000	100.158036
3694.000000	100.152241
3693.000000	100.144880
3692.000000	100.136590
3691.000000	100.128194
3690.000000	100.120498
3689.000000	100.114004
3688.000000	100.108495
3687.000000	100.103232
3686.000000	100.097605
3685.000000	100.091509
3684.000000	100.085224
3683.000000	100.079100
3682.000000	100.073286
3681.000000	100.067701
3680.000000	100.062232
3679.000000	100.056769
3678.000000	100.051162
3677.000000	100.045375
3676.000000	100.039755
3675.000000	100.034730
3674.000000	100.030245
3673.000000	100.025700
3672.000000	100.020610
3671.000000	100.014868
3670.000000	100.008943
3669.000000	100.003506
3668.000000	99.998446
3667.000000	99.993017
3666.000000	99.986796
3665.000000	99.980202
3664.000000	99.974160
3663.000000	99.969050
3662.000000	99.964130
3661.000000	99.958345
3660.000000	99.951656
3659.000000	99.945154
3658.000000	99.940322
3657.000000	99.938196
3656.000000	99.938955
3655.000000	99.941234
3654.000000	99.942343
3653.000000	99.939980
3652.000000	99.933700
3651.000000	99.925636
3650.000000	99.920305
3649.000000	99.921242
3648.000000	99.926341
3647.000000	99.929863
3646.000000	99.928467
3645.000000	99.923027
3644.000000	99.916587
3643.000000	99.911632
3642.000000	99.907999
3641.000000	99.903096
3640.000000	99.894816
3639.000000	99.884722
3638.000000	99.876888
3637.000000	99.872239
3636.000000	99.866706
3635.000000	99.856682
3634.000000	99.844591
3633.000000	99.835480
3632.000000	99.829937
3631.000000	99.824348
3630.000000	99.817134
3629.000000	99.811662
3628.000000	99.808096
3627.000000	99.799255
3626.000000	99.784891
3625.000000	99.775734
3624.000000	99.779868
3623.000000	99.794245
3622.000000	99.807554
3621.000000	99.810215
3620.000000	99.802931
3619.000000	99.795993
3618.000000	99.798830
3617.000000	99.811056
3616.000000	99.824741
3615.000000	99.832494
3614.000000	99.833775
3613.000000	99.834686
3612.000000	99.840326
3611.000000	99.849077
3610.000000	99.856032
3609.000000	99.859092
3608.000000	99.859669
3607.000000	99.858906
3606.000000	99.856560
3605.000000	99.853702
3604.000000	99.853356
3603.000000	99.857519
3602.000000	99.866062
3601.000000	99.879077
3600.000000	99.897247
3599.000000	99.918620
3598.000000	99.938434
3597.000000	99.951849
3596.000000	99.956357
3595.000000	99.952901
3594.000000	99.945776
3593.000000	99.940028
3592.000000	99.938813
3591.000000	99.941620
3590.000000	99.944639
3589.000000	99.944232
3588.000000	99.941822
3587.000000	99.942447
3586.000000	99.946774
3585.000000	99.950073
3584.000000	99.949855
3583.000000	99.948545
3582.000000	99.949942
3581.000000	99.955736
3580.000000	99.964998
3579.000000	99.975890
3578.000000	99.987223
3577.000000	99.999014
3576.000000	100.011920
3575.000000	100.026077
3574.000000	100.039852
3573.000000	100.050076
3572.000000	100.054289
3571.000000	100.052746
3570.000000	100.047974
3569.000000	100.043670
3568.000000	100.044048
3567.000000	100.052030
3566.000000	100.065729
3565.000000	100.078684
3564.000000	100.086134
3563.000000	100.088801
3562.000000	100.090979
3561.000000	100.096449
3560.000000	100.105501
3559.000000	100.115164
3558.000000	100.122132
3557.000000	100.125648
3556.000000	100.127502
3555.000000	100.129963
3554.000000	100.134089
3553.000000	100.139510
3552.000000	100.144788
3551.000000	100.148220
3550.000000	100.149160
3549.000000	100.148972
3548.000000	100.150032
3547.000000	100.153384
3546.000000	100.157930
3545.000000	100.162395
3544.000000	100.167332
3543.000000	100.174404
3542.000000	100.184191
3541.000000	100.195674
3540.000000	100.207492
3539.000000	100.219079
3538.000000	100.230411
3537.000000	100.241310
3536.000000	100.251789
3535.000000	100.262725
3534.000000	100.275316
3533.000000	100.289276
3532.000000	100.302071
3531.000000	100.310596
3530.000000	100.314315
3529.000000	100.316721
3528.000000	100.323126
3527.000000	100.336377
3526.000000	100.354625
3525.000000	100.372449
3524.000000	100.384107
3523.000000	100.387064
3522.000000	100.383985
3521.000000	100.381962
3520.000000	100.387734
3519.000000	100.402333
3518.000000	100.419905
3517.000000	100.432482
3516.000000	100.437406
3515.000000	100.439489
3514.000000	100.445808
3513.000000	100.458137
3512.000000	100.471327
3511.000000	100.478623
3510.000000	100.478275
3509.000000	100.474691
3508.000000	100.473842
3507.000000	100.478205
3506.000000	100.485913
3505.000000	100.493289
3504.000000	100.498524
3503.000000	100.504249
3502.000000	100.516135
3501.000000	100.537829
3500.000000	100.566921
3499.000000	100.596167
3498.000000	100.619471
3497.000000	100.636882
3496.000000	100.653248
3495.000000	100.672258
3494.000000	100.692956
3493.000000	100.712014
3492.000000	100.727530
3491.000000	100.739389
3490.000000	100.747338
3489.000000	100.750687
3488.000000	100.750581
3487.000000	100.751057
3486.000000	100.756037
3485.000000	100.765238
3484.000000	100.774366
3483.000000	100.779944
3482.000000	100.783426
3481.000000	100.788931
3480.000000	100.796857
3479.000000	100.802214
3478.000000	100.800902
3477.000000	100.795925
3476.000000	100.794820
3475.000000	100.800718
3474.000000	100.808825
3473.000000	100.812926
3472.000000	100.812935
3471.000000	100.814016
3470.000000	100.819518
3469.000000	100.827690
3468.000000	100.835171
3467.000000	100.841167
3466.000000	100.847344
3465.000000	100.855412
3464.000000	100.866089
3463.000000	100.879122
3462.000000	100.892980
3461.000000	100.905348
3460.000000	100.915183
3459.000000	100.923885
3458.000000	100.933460
3457.000000	100.943688
3456.000000	100.952052
3455.000000	100.956533
3454.000000	100.958250
3453.000000	100.961311
3452.000000	100.969785
3451.000000	100.984280
3450.000000	101.001198
3449.000000	101.015397
3448.000000	101.024650
3447.000000	101.030965
3446.000000	101.037730
3445.000000	101.046008
3444.000000	101.054323
3443.000000	101.061409
3442.000000	101.067819
3441.000000	101.074850
3440.000000	101.083161
3439.000000	101.092983
3438.000000	101.104483
3437.000000	101.116955
3436.000000	101.128359
3435.000000	101.136850
3434.000000	101.142678
3433.000000	101.147830
3432.000000	101.153851
3431.000000	101.160797
3430.000000	101.168703
3429.000000	101.178678
3428.000000	101.191611
3427.000000	101.206514
3426.000000	101.221108
3425.000000	101.234237
3424.000000	101.246716
3423.000000	101.259509
3422.000000	101.271852
3421.000000	101.282013
3420.000000	101.289445
3419.000000	101.295266
3418.000000	101.300960
3417.000000	101.307474
3416.000000	101.315294
3415.000000	101.324137
3414.000000	101.332346
3413.000000	101.337585
3412.000000	101.338913
3411.000000	101.338110
3410.000000	101.338707
3409.000000	101.343590
3408.000000	101.353080
3407.000000	101.365097
3406.000000	101.377575
3405.000000	101.390808
3404.000000	101.406863
3403.000000	101.426065
3402.000000	101.444504
3401.000000	101.456201
3400.000000	101.458083
3399.000000	101.452666
3398.000000	101.446711
3397.000000	101.447605
3396.000000	101.459783
3395.000000	101.481724
3394.000000	101.505018
3393.000000	101.519207
3392.000000	101.521045
3391.000000	101.518573
3390.000000	101.523700
3389.000000	101.540126
3388.000000	101.560660
3387.000000	101.576303
3386.000000	101.585175
3385.000000	101.591419
3384.000000	101.598186
3383.000000	101.604568
3382.000000	101.608386
3381.000000	101.608692
3380.000000	101.605428
3379.000000	101.599536
3378.000000	101.594267
3377.000000	101.594115
3376.000000	101.600481
3375.000000	101.609020
3374.000000	101.612553
3373.000000	101.606807
3372.000000	101.593533
3371.000000	101.578660
3370.000000	101.567251
3369.000000	101.559558
3368.000000	101.552006
3367.000000	101.542051
3366.000000	101.531184
3365.000000	101.522599
3364.000000	101.517574
3363.000000	101.516121
3362.000000	101.519665
3361.000000	101.529524
3360.000000	101.542478
3359.000000	101.551321
3358.000000	101.551953
3357.000000	101.547886
3356.000000	101.545980
3355.000000	101.549626
3354.000000	101.557801
3353.000000	101.568142
3352.000000	101.577810
3351.000000	101.583193
3350.000000	101.582976
3349.000000	101.581556
3348.000000	101.585361
3347.000000	101.594519
3346.000000	101.601649
3345.000000	101.600907
3344.000000	101.595281
3343.000000	101.592691
3342.000000	101.596369
3341.000000	101.602105
3340.000000	101.604575
3339.000000	101.603378
3338.000000	101.601734
3337.000000	101.601539
3336.000000	101.601439
3335.000000	101.599220
3334.000000	101.594638
3333.000000	101.589647
3332.000000	101.586687
3331.000000	101.587249
3330.000000	101.591374
3329.000000	101.597380
3328.000000	101.601841
3327.000000	101.601027
3326.000000	101.593758
3325.000000	101.582972
3324.000000	101.573647
3323.000000	101.568503
3322.000000	101.566202
3321.000000	101.563711
3320.000000	101.559296
3319.000000	101.552728
3318.000000	101.543835
3317.000000	101.532564
3316.000000	101.520253
3315.000000	101.509336
3314.000000	101.501528
3313.000000	101.497623
3312.000000	101.499116
3311.000000	101.507971
3310.000000	101.523215
3309.000000	101.538660
3308.000000	101.546553
3307.000000	101.544163
3306.000000	101.535670
3305.000000	101.527621
3304.000000	101.522952
3303.000000	101.519518
3302.000000	101.513404
3301.000000	101.503054
3300.000000	101.491131
3299.000000	101.483219
3298.000000	101.483734
3297.000000	101.491585
3296.000000	101.499623
3295.000000	101.500086
3294.000000	101.491523
3293.000000	101.480005
3292.000000	101.473216
3291.000000	101.473294
3290.000000	101.475972
3289.000000	101.475980
3288.000000	101.472100
3287.000000	101.466988
3286.000000	101.463445
3285.000000	101.461787
3284.000000	101.460294
3283.000000	101.456922
3282.000000	101.450141
3281.000000	101.439203
3280.000000	101.424745
3279.000000	101.408637
3278.000000	101.392283
3277.000000	101.375179
3276.000000	101.356159
3275.000000	101.336334
3274.000000	101.319332
3273.000000	101.307583
3272.000000	101.299246
3271.000000	101.290011
3270.000000	101.277408
3269.000000	101.262141
3268.000000	101.245891
3267.000000	101.229926
3266.000000	101.216051
3265.000000	101.206329
3264.000000	101.200260
3263.000000	101.194266
3262.000000	101.186072
3261.000000	101.178204
3260.000000	101.174648
3259.000000	101.174567
3258.000000	101.172123
3257.000000	101.163368
3256.000000	101.150773
3255.000000	101.139250
3254.000000	101.129459
3253.000000	101.117632
3252.000000	101.101596
3251.000000	101.084536
3250.000000	101.072002
3249.000000	101.066567
3248.000000	101.066051
3247.000000	101.065684
3246.000000	101.061190
3245.000000	101.050717
3244.000000	101.035760
3243.000000	101.020992
3242.000000	101.011768
3241.000000	101.009839
3240.000000	101.011018
3239.000000	101.008176
3238.000000	100.997745
3237.000000	100.982867
3236.000000	100.969315
3235.000000	100.958379
3234.000000	100.945517
3233.000000	100.926382
3232.000000	100.902315
3231.000000	100.879021
3230.000000	100.860373
3229.000000	100.845288
3228.000000	100.830502
3227.000000	100.814346
3226.000000	100.797467
3225.000000	100.781661
3224.000000	100.769189
3223.000000	100.761949
3222.000000	100.759373
3221.000000	100.757314
3220.000000	100.751118
3219.000000	100.740414
3218.000000	100.729382
3217.000000	100.721787
3216.000000	100.716784
3215.000000	100.710216
3214.000000	100.699277
3213.000000	100.684817
3212.000000	100.669644
3211.000000	100.655895
3210.000000	100.644016
3209.000000	100.633278
3208.000000	100.622619
3207.000000	100.611396
3206.000000	100.599770
3205.000000	100.588240
3204.000000	100.576743
3203.000000	100.564598
3202.000000	100.551544
3201.000000	100.538413
3200.000000	100.526461
3199.000000	100.516074
3198.000000	100.506428
3197.000000	100.496282
3196.000000	100.484978
3195.000000	100.472679
3194.000000	100.459961
3193.000000	100.447520
3192.000000	100.435830
3191.000000	100.424846
3190.000000	100.413857
3189.000000	100.401905
3188.000000	100.388650
3187.000000	100.374911
3186.000000	100.362050
3185.000000	100.350677
3184.000000	100.339994
3183.000000	100.328412
3182.000000	100.315013
3181.000000	100.300564
3180.000000	100.287156
3179.000000	100.276397
3178.000000	100.267774
3177.000000	100.259156
3176.000000	100.249389
3175.000000	100.239657
3174.000000	100.231375
3173.000000	100.223354
3172.000000	100.212454
3171.000000	100.197345
3170.000000	100.180588
3169.000000	100.166379
3168.000000	100.156914
3167.000000	100.151415
3166.000000	100.147340
3165.000000	100.141266
3164.000000	100.129635
3163.000000	100.111093
3162.000000	100.089145
3161.000000	100.070752
3160.000000	100.059927
3159.000000	100.052730
3158.000000	100.040063
3157.000000	100.016291
3156.000000	99.984756
3155.000000	99.954669
3154.000000	99.932856
3153.000000	99.919505
3152.000000	99.910549
3151.000000	99.902319
3150.000000	99.893544
3149.000000	99.883955
3148.000000	99.873121
3147.000000	99.861253
3146.000000	99.849786
3145.000000	99.840125
3144.000000	99.832315
3143.000000	99.825644
3142.000000	99.820352
3141.000000	99.817688
3140.000000	99.817453
3139.000000	99.816380
3138.000000	99.810696
3137.000000	99.800704
3136.000000	99.791682
3135.000000	99.789232
3134.000000	99.793913
3133.000000	99.800693
3132.000000	99.803453
3131.000000	99.799663
3130.000000	99.791025
3129.000000	99.781053
3128.000000	99.772628
3127.000000	99.766750
3126.000000	99.762442
3125.000000	99.758022
3124.000000	99.753141
3123.000000	99.749275
3122.000000	99.747431
3121.000000	99.745615
3120.000000	99.740000
3119.000000	99.729197
3118.000000	99.716246
3117.000000	99.705255
3116.000000	99.696589
3115.000000	99.687458
3114.000000	99.677228
3113.000000	99.669316
3112.000000	99.666220
3111.000000	99.664751
3110.000000	99.659081
3109.000000	99.648414
3108.000000	99.638480
3107.000000	99.634410
3106.000000	99.634819
3105.000000	99.634735
3104.000000	99.632387
3103.000000	99.630398
3102.000000	99.630810
3101.000000	99.631976
3100.000000	99.631173
3099.000000	99.628073
3098.000000	99.624193
3097.000000	99.620192
3096.000000	99.615227
3095.000000	99.608748
3094.000000	99.601689
3093.000000	99.595617
3092.000000	99.591267
3091.000000	99.588037
3090.000000	99.584514
3089.000000	99.579552
3088.000000	99.573123
3087.000000	99.566481
3086.000000	99.561532
3085.000000	99.559963
3084.000000	99.562355
3083.000000	99.567142
3082.000000	99.570427
3081.000000	99.568277
3080.000000	99.560137
3079.000000	99.549455
3078.000000	99.539826
3077.000000	99.531138
3076.000000	99.521119
3075.000000	99.509707
3074.000000	99.499571
3073.000000	99.492626
3072.000000	99.488628
3071.000000	99.487521
3070.000000	99.489913
3069.000000	99.493372
3068.000000	99.491383
3067.000000	99.479993
3066.000000	99.464462
3065.000000	99.454865
3064.000000	99.453842
3063.000000	99.452687
3062.000000	99.442185
3061.000000	99.424516
3060.000000	99.410989
3059.000000	99.408972
3058.000000	99.414851
3057.000000	99.419858
3056.000000	99.418660
3055.000000	99.410035
3054.000000	99.393474
3053.000000	99.370757
3052.000000	99.349538
3051.000000	99.338843
3050.000000	99.338756
3049.000000	99.338425
3048.000000	99.327820
3047.000000	99.309798
3046.000000	99.296924
3045.000000	99.298149
3044.000000	99.311835
3043.000000	99.329973
3042.000000	99.345170
3041.000000	99.353327
3040.000000	99.353690
3039.000000	99.349228
3038.000000	99.345588
3037.000000	99.347256
3036.000000	99.354371
3035.000000	99.363764
3034.000000	99.372777
3033.000000	99.381847
3032.000000	99.393316
3031.000000	99.407664
3030.000000	99.421700
3029.000000	99.432518
3028.000000	99.443278
3027.000000	99.461448
3026.000000	99.488968
3025.000000	99.517377
3024.000000	99.537181
3023.000000	99.550443
3022.000000	99.568301
3021.000000	99.596819
3020.000000	99.631809
3019.000000	99.667978
3018.000000	99.705185
3017.000000	99.741430
3016.000000	99.767346
3015.000000	99.776633
3014.000000	99.778504
3013.000000	99.790473
3012.000000	99.818406
3011.000000	99.851418
3010.000000	99.877409
3009.000000	99.896053
3008.000000	99.913324
3007.000000	99.930850
3006.000000	99.947049
3005.000000	99.964790
3004.000000	99.990331
3003.000000	100.024429
3002.000000	100.059672
3001.000000	100.088157
3000.000000	100.109098
2999.000000	100.127840
2998.000000	100.150530
2997.000000	100.181618
2996.000000	100.224186
2995.000000	100.278890
2994.000000	100.341365
2993.000000	100.402413
2992.000000	100.453109
2991.000000	100.491457
2990.000000	100.524767
2989.000000	100.564950
2988.000000	100.619774
2987.000000	100.687848
2986.000000	100.762200
2985.000000	100.838442
2984.000000	100.917655
2983.000000	101.001047
2982.000000	101.085302
2981.000000	101.166445
2980.000000	101.246086
2979.000000	101.327764
2978.000000	101.405906
2977.000000	101.464737
2976.000000	101.492783
2975.000000	101.495562
2974.000000	101.489229
2973.000000	101.483511
2972.000000	101.475439
2971.000000	101.458114
2970.000000	101.427893
2969.000000	101.381820
2968.000000	101.315758
2967.000000	101.230150
2966.000000	101.134057
2965.000000	101.039020
2964.000000	100.951452
2963.000000	100.874647
2962.000000	100.813754
2961.000000	100.771628
2960.000000	100.741407
2959.000000	100.710309
2958.000000	100.673300
2957.000000	100.639192
2956.000000	100.621223
2955.000000	100.624061
2954.000000	100.640329
2953.000000	100.657093
2952.000000	100.664853
2951.000000	100.663259
2950.000000	100.659886
2949.000000	100.662731
2948.000000	100.673678
2947.000000	100.689242
2946.000000	100.704951
2945.000000	100.715633
2944.000000	100.714307
2943.000000	100.697775
2942.000000	100.674672
2941.000000	100.661289
2940.000000	100.665750
2939.000000	100.680199
2938.000000	100.692340
2937.000000	100.700149
2936.000000	100.710009
2935.000000	100.723867
2934.000000	100.735848
2933.000000	100.741665
2932.000000	100.745190
2931.000000	100.753421
2930.000000	100.768546
2929.000000	100.786199
2928.000000	100.798381
2927.000000	100.797511
2926.000000	100.781606
2925.000000	100.758625
2924.000000	100.743227
2923.000000	100.744519
2922.000000	100.756540
2921.000000	100.762852
2920.000000	100.751979
2919.000000	100.727364
2918.000000	100.703320
2917.000000	100.692377
2916.000000	100.696827
2915.000000	100.710043
2914.000000	100.723030
2913.000000	100.730461
2912.000000	100.732750
2911.000000	100.733901
2910.000000	100.737612
2909.000000	100.744761
2908.000000	100.753995
2907.000000	100.764141
2906.000000	100.775153
2905.000000	100.786672
2904.000000	100.796480
2903.000000	100.800907
2902.000000	100.796854
2901.000000	100.784267
2900.000000	100.767875
2899.000000	100.756223
2898.000000	100.756595
2897.000000	100.768699
2896.000000	100.783621
2895.000000	100.791055
2894.000000	100.788196
2893.000000	100.781218
2892.000000	100.778797
2891.000000	100.785003
2890.000000	100.797099
2889.000000	100.807680
2888.000000	100.809427
2887.000000	100.801124
2886.000000	100.790274
2885.000000	100.787372
2884.000000	100.795487
2883.000000	100.807100
2882.000000	100.812747
2881.000000	100.810666
2880.000000	100.805519
2879.000000	100.799500
2878.000000	100.788687
2877.000000	100.769178
2876.000000	100.743869
2875.000000	100.721373
2874.000000	100.709621
2873.000000	100.710326
2872.000000	100.717310
2871.000000	100.719205
2870.000000	100.706267
2869.000000	100.677633
2868.000000	100.642761
2867.000000	100.614607
2866.000000	100.599385
2865.000000	100.592000
2864.000000	100.580395
2863.000000	100.554697
2862.000000	100.514210
2861.000000	100.468163
2860.000000	100.429505
2859.000000	100.405855
2858.000000	100.394626
2857.000000	100.385971
2856.000000	100.370494
2855.000000	100.345216
2854.000000	100.313775
2853.000000	100.282597
2852.000000	100.257137
2851.000000	100.239804
2850.000000	100.229403
2849.000000	100.221540
2848.000000	100.210547
2847.000000	100.192717
2846.000000	100.168434
2845.000000	100.141443
2844.000000	100.116311
2843.000000	100.096139
2842.000000	100.081408
2841.000000	100.069608
2840.000000	100.056134
2839.000000	100.037144
2838.000000	100.012904
2837.000000	99.988585
2836.000000	99.970745
2835.000000	99.962095
2834.000000	99.959195
2833.000000	99.955089
2832.000000	99.944907
2831.000000	99.929106
2830.000000	99.911908
2829.000000	99.897116
2828.000000	99.885520
2827.000000	99.875406
2826.000000	99.864274
2825.000000	99.850053
2824.000000	99.831909
2823.000000	99.811025
2822.000000	99.790080
2821.000000	99.770934
2820.000000	99.752961
2819.000000	99.734483
2818.000000	99.715965
2817.000000	99.700612
2816.000000	99.690903
2815.000000	99.685059
2814.000000	99.677890
2813.000000	99.665465
2812.000000	99.649465
2811.000000	99.637079
2810.000000	99.635705
2809.000000	99.646538
2808.000000	99.662225
2807.000000	99.671459
2806.000000	99.667576
2805.000000	99.652661
2804.000000	99.634643
2803.000000	99.620661
2802.000000	99.612163
2801.000000	99.605054
2800.000000	99.593700
2799.000000	99.576094
2798.000000	99.556384
2797.000000	99.542176
2796.000000	99.538486
2795.000000	99.544310
2794.000000	99.554268
2793.000000	99.562523
2792.000000	99.565356
2791.000000	99.562145
2790.000000	99.555904
2789.000000	99.552060
2788.000000	99.554326
2787.000000	99.561223
2786.000000	99.567672
2785.000000	99.570171
2784.000000	99.569427
2783.000000	99.568011
2782.000000	99.567284
2781.000000	99.567184
2780.000000	99.567228
2779.000000	99.566125
2778.000000	99.561324
2777.000000	99.550821
2776.000000	99.535658
2775.000000	99.519797
2774.000000	99.507284
2773.000000	99.500071
2772.000000	99.498168
2771.000000	99.500412
2770.000000	99.504551
2769.000000	99.507938
2768.000000	99.509551
2767.000000	99.510998
2766.000000	99.514510
2765.000000	99.519889
2764.000000	99.524282
2763.000000	99.525278
2762.000000	99.523757
2761.000000	99.522902
2760.000000	99.524623
2759.000000	99.527243
2758.000000	99.526680
2757.000000	99.520016
2756.000000	99.508390
2755.000000	99.496754
2754.000000	99.490269
2753.000000	99.490373
2752.000000	99.493918
2751.000000	99.495963
2750.000000	99.493684
2749.000000	99.488162
2748.000000	99.483429
2747.000000	99.483941
2746.000000	99.491745
2745.000000	99.504471
2744.000000	99.516155
2743.000000	99.521711
2742.000000	99.521007
2741.000000	99.518286
2740.000000	99.517476
2739.000000	99.518812
2738.000000	99.519839
2737.000000	99.518108
2736.000000	99.512455
2735.000000	99.503127
2734.000000	99.491820
2733.000000	99.480907
2732.000000	99.471781
2731.000000	99.464283
2730.000000	99.458086
2729.000000	99.453638
2728.000000	99.450882
2727.000000	99.447873
2726.000000	99.442171
2725.000000	99.433709
2724.000000	99.425439
2723.000000	99.420820
2722.000000	99.421110
2721.000000	99.424654
2720.000000	99.428177
2719.000000	99.429027
2718.000000	99.426961
2717.000000	99.424010
2716.000000	99.422183
2715.000000	99.421164
2714.000000	99.418748
2713.000000	99.413490
2712.000000	99.406203
2711.000000	99.398926
2710.000000	99.393134
2709.000000	99.389136
2708.000000	99.386450
2707.000000	99.384139
2706.000000	99.381352
2705.000000	99.378218
2704.000000	99.375967
2703.000000	99.375527
2702.000000	99.376097
2701.000000	99.375594
2700.000000	99.372699
2699.000000	99.368018
2698.000000	99.363459
2697.000000	99.360648
2696.000000	99.359832
2695.000000	99.359998
2694.000000	99.359643
2693.000000	99.357813
2692.000000	99.354628
2691.000000	99.351114
2690.000000	99.348392
2689.000000	99.346814
2688.000000	99.345781
2687.000000	99.344160
2686.000000	99.340952
2685.000000	99.336049
2684.000000	99.330820
2683.000000	99.327554
2682.000000	99.327507
2681.000000	99.329388
2680.000000	99.330017
2679.000000	99.327203
2678.000000	99.321629
2677.000000	99.315935
2676.000000	99.312311
2675.000000	99.311375
2674.000000	99.312730
2673.000000	99.315481
2672.000000	99.318419
2671.000000	99.320963
2670.000000	99.324149
2669.000000	99.329456
2668.000000	99.335971
2667.000000	99.340015
2666.000000	99.338781
2665.000000	99.333275
2664.000000	99.326649
2663.000000	99.320249
2662.000000	99.313225
2661.000000	99.305849
2660.000000	99.300552
2659.000000	99.298516
2658.000000	99.297277
2657.000000	99.293914
2656.000000	99.289719
2655.000000	99.289029
2654.000000	99.293186
2653.000000	99.297814
2652.000000	99.297493
2651.000000	99.291945
2650.000000	99.286425
2649.000000	99.286352
2648.000000	99.292336
2647.000000	99.300033
2646.000000	99.303919
2645.000000	99.301431
2644.000000	99.294158
2643.000000	99.285618
2642.000000	99.278017
2641.000000	99.271435
2640.000000	99.265810
2639.000000	99.262240
2638.000000	99.261195
2637.000000	99.260355
2636.000000	99.256179
2635.000000	99.248268
2634.000000	99.240963
2633.000000	99.239874
2632.000000	99.247384
2631.000000	99.261387
2630.000000	99.277070
2629.000000	99.289802
2628.000000	99.297586
2627.000000	99.301949
2626.000000	99.305875
2625.000000	99.310081
2624.000000	99.312212
2623.000000	99.310440
2622.000000	99.306298
2621.000000	99.302438
2620.000000	99.298867
2619.000000	99.293656
2618.000000	99.286708
2617.000000	99.279892
2616.000000	99.273003
2615.000000	99.262654
2614.000000	99.247130
2613.000000	99.230389
2612.000000	99.218725
2611.000000	99.214143
2610.000000	99.213325
2609.000000	99.212686
2608.000000	99.212482
2607.000000	99.215465
2606.000000	99.223082
2605.000000	99.233701
2604.000000	99.243323
2603.000000	99.247515
2602.000000	99.244067
2601.000000	99.235164
2600.000000	99.226761
2599.000000	99.224381
2598.000000	99.228973
2597.000000	99.236649
2596.000000	99.241914
2595.000000	99.241666
2594.000000	99.236970
2593.000000	99.232009
2592.000000	99.230831
2591.000000	99.234015
2590.000000	99.238136
2589.000000	99.238852
2588.000000	99.235044
2587.000000	99.229989
2586.000000	99.228644
2585.000000	99.233682
2584.000000	99.243739
2583.000000	99.254458
2582.000000	99.261572
2581.000000	99.263888
2580.000000	99.263657
2579.000000	99.263934
2578.000000	99.265324
2577.000000	99.265830
2576.000000	99.263934
2575.000000	99.260901
2574.000000	99.259386
2573.000000	99.260113
2572.000000	99.260885
2571.000000	99.259074
2570.000000	99.254559
2569.000000	99.249931
2568.000000	99.248009
2567.000000	99.249354
2566.000000	99.252080
2565.000000	99.253772
2564.000000	99.253669
2563.000000	99.253150
2562.000000	99.254382
2561.000000	99.258809
2560.000000	99.266585
2559.000000	99.276551
2558.000000	99.286552
2557.000000	99.294615
2556.000000	99.300554
2555.000000	99.306048
2554.000000	99.312243
2553.000000	99.317597
2552.000000	99.319440
2551.000000	99.317651
2550.000000	99.315465
2549.000000	99.316148
2548.000000	99.319582
2547.000000	99.322682
2546.000000	99.322573
2545.000000	99.319023
2544.000000	99.314522
2543.000000	99.312595
2542.000000	99.315263
2541.000000	99.321027
2540.000000	99.325443
2539.000000	99.324734
2538.000000	99.319080
2537.000000	99.312312
2536.000000	99.308600
2535.000000	99.309622
2534.000000	99.314456
2533.000000	99.320688
2532.000000	99.325603
2531.000000	99.327644
2530.000000	99.327679
2529.000000	99.328420
2528.000000	99.331633
2527.000000	99.335942
2526.000000	99.338003
2525.000000	99.335683
2524.000000	99.329698
2523.000000	99.322769
2522.000000	99.317944
2521.000000	99.317119
2520.000000	99.319771
2519.000000	99.323058
2518.000000	99.324336
2517.000000	99.323748
2516.000000	99.323126
2515.000000	99.322623
2514.000000	99.320586
2513.000000	99.317550
2512.000000	99.318003
2511.000000	99.326006
2510.000000	99.339804
2509.000000	99.352639
2508.000000	99.359178
2507.000000	99.359477
2506.000000	99.356827
2505.000000	99.353672
2504.000000	99.350191
2503.000000	99.345464
2502.000000	99.338592
2501.000000	99.329048
2500.000000	99.317104
2499.000000	99.304072
2498.000000	99.291624
2497.000000	99.280878
2496.000000	99.272208
2495.000000	99.265504
2494.000000	99.260744
2493.000000	99.258588
2492.000000	99.259854
2491.000000	99.263741
2490.000000	99.266836
2489.000000	99.265516
2488.000000	99.260337
2487.000000	99.256770
2486.000000	99.260303
2485.000000	99.271356
2484.000000	99.285384
2483.000000	99.296930
2482.000000	99.302991
2481.000000	99.303936
2480.000000	99.303251
2479.000000	99.305609
2478.000000	99.312284
2477.000000	99.318190
2476.000000	99.316337
2475.000000	99.306355
2474.000000	99.296629
2473.000000	99.295912
2472.000000	99.303927
2471.000000	99.312509
2470.000000	99.315193
2469.000000	99.313336
2468.000000	99.312386
2467.000000	99.314877
2466.000000	99.318795
2465.000000	99.321159
2464.000000	99.320864
2463.000000	99.318450
2462.000000	99.315248
2461.000000	99.313192
2460.000000	99.313862
2459.000000	99.316561
2458.000000	99.317782
2457.000000	99.313683
2456.000000	99.303692
2455.000000	99.291894
2454.000000	99.284237
2453.000000	99.283385
2452.000000	99.286078
2451.000000	99.285905
2450.000000	99.279822
2449.000000	99.271552
2448.000000	99.267838
2447.000000	99.271954
2446.000000	99.281493
2445.000000	99.291249
2444.000000	99.297261
2443.000000	99.298813
2442.000000	99.298903
2441.000000	99.302902
2440.000000	99.313847
2439.000000	99.327636
2438.000000	99.335495
2437.000000	99.333699
2436.000000	99.328853
2435.000000	99.330811
2434.000000	99.341255
2433.000000	99.352710
2432.000000	99.358315
2431.000000	99.358385
2430.000000	99.356735
2429.000000	99.355241
2428.000000	99.354380
2427.000000	99.355500
2426.000000	99.358699
2425.000000	99.360492
2424.000000	99.357742
2423.000000	99.353007
2422.000000	99.351982
2421.000000	99.355267
2420.000000	99.356270
2419.000000	99.348739
2418.000000	99.333867
2417.000000	99.318488
2416.000000	99.307987
2415.000000	99.302347
2414.000000	99.297606
2413.000000	99.289473
2412.000000	99.277254
2411.000000	99.266237
2410.000000	99.263740
2409.000000	99.271491
2408.000000	99.282539
2407.000000	99.288156
2406.000000	99.288183
2405.000000	99.290767
2404.000000	99.302050
2403.000000	99.319096
2402.000000	99.334929
2401.000000	99.346298
2400.000000	99.354787
2399.000000	99.363108
2398.000000	99.372659
2397.000000	99.383591
2396.000000	99.394893
2395.000000	99.404797
2394.000000	99.412974
2393.000000	99.422251
2392.000000	99.435845
2391.000000	99.452697
2390.000000	99.467862
2389.000000	99.478077
2388.000000	99.485546
2387.000000	99.495453
2386.000000	99.510774
2385.000000	99.530094
2384.000000	99.549338
2383.000000	99.564765
2382.000000	99.575290
2381.000000	99.583338
2380.000000	99.593262
2379.000000	99.607712
2378.000000	99.625458
2377.000000	99.643185
2376.000000	99.658973
2375.000000	99.672524
2374.000000	99.682907
2373.000000	99.689709
2372.000000	99.696130
2371.000000	99.707460
2370.000000	99.723437
2369.000000	99.736157
2368.000000	99.739790
2367.000000	99.739636
2366.000000	99.745817
2365.000000	99.759238
2364.000000	99.771739
2363.000000	99.780986
2362.000000	99.794387
2361.000000	99.816785
2360.000000	99.842021
2359.000000	99.858667
2358.000000	99.863945
2357.000000	99.863660
2356.000000	99.863879
2355.000000	99.869127
2354.000000	99.878609
2353.000000	99.887495
2352.000000	99.890323
2351.000000	99.889914
2350.000000	99.894729
2349.000000	99.905189
2348.000000	99.916313
2347.000000	99.922247
2346.000000	99.921880
2345.000000	99.920427
2344.000000	99.921996
2343.000000	99.930345
2342.000000	99.941420
2341.000000	99.953195
2340.000000	99.961985
2339.000000	99.962062
2338.000000	99.952945
2337.000000	99.939381
2336.000000	99.930323
2335.000000	99.928764
2334.000000	99.933818
2333.000000	99.937132
2332.000000	99.931579
2331.000000	99.912057
2330.000000	99.888606
2329.000000	99.871661
2328.000000	99.870211
2327.000000	99.874738
2326.000000	99.872548
2325.000000	99.857687
2324.000000	99.837429
2323.000000	99.824236
2322.000000	99.819200
2321.000000	99.815100
2320.000000	99.804973
2319.000000	99.787993
2318.000000	99.768077
2317.000000	99.746830
2316.000000	99.730144
2315.000000	99.720492
2314.000000	99.719382
2313.000000	99.716723
2312.000000	99.706642
2311.000000	99.687909
2310.000000	99.670876
2309.000000	99.659398
2308.000000	99.653220
2307.000000	99.645126
2306.000000	99.632641
2305.000000	99.613805
2304.000000	99.591972
2303.000000	99.570804
2302.000000	99.555724
2301.000000	99.544371
2300.000000	99.531672
2299.000000	99.511152
2298.000000	99.484697
2297.000000	99.455581
2296.000000	99.429262
2295.000000	99.408228
2294.000000	99.394998
2293.000000	99.386113
2292.000000	99.375019
2291.000000	99.358861
2290.000000	99.344357
2289.000000	99.339697
2288.000000	99.343095
2287.000000	99.345438
2286.000000	99.341649
2285.000000	99.334895
2284.000000	99.327396
2283.000000	99.317476
2282.000000	99.304440
2281.000000	99.292632
2280.000000	99.284059
2279.000000	99.273421
2278.000000	99.255419
2277.000000	99.234953
2276.000000	99.223116
2275.000000	99.224350
2274.000000	99.234148
2273.000000	99.246576
2272.000000	99.260465
2271.000000	99.275485
2270.000000	99.288719
2269.000000	99.297360
2268.000000	99.302530
2267.000000	99.307327
2266.000000	99.313057
2265.000000	99.319323
2264.000000	99.326481
2263.000000	99.334358
2262.000000	99.339764
2261.000000	99.338508
2260.000000	99.330346
2259.000000	99.320984
2258.000000	99.316922
2257.000000	99.320190
2256.000000	99.326966
2255.000000	99.330918
2254.000000	99.328246
2253.000000	99.321282
2252.000000	99.317925
2251.000000	99.324415
2250.000000	99.338779
2249.000000	99.351963
2248.000000	99.357482
2247.000000	99.356929
2246.000000	99.355463
2245.000000	99.354554
2244.000000	99.352431
2243.000000	99.349348
2242.000000	99.347534
2241.000000	99.346261
2240.000000	99.341952
2239.000000	99.334471
2238.000000	99.328968
2237.000000	99.329223
2236.000000	99.332392
2235.000000	99.333035
2234.000000	99.330135
2233.000000	99.327126
2232.000000	99.326371
2231.000000	99.326977
2230.000000	99.327722
2229.000000	99.329174
2228.000000	99.331927
2227.000000	99.334988
2226.000000	99.337630
2225.000000	99.341208
2224.000000	99.346959
2223.000000	99.352709
2222.000000	99.354171
2221.000000	99.349816
2220.000000	99.343070
2219.000000	99.339377
2218.000000	99.341335
2217.000000	99.347094
2216.000000	99.352144
2215.000000	99.352666
2214.000000	99.348217
2213.000000	99.342177
2212.000000	99.339151
2211.000000	99.341121
2210.000000	99.346328
2209.000000	99.351634
2208.000000	99.355070
2207.000000	99.355913
2206.000000	99.353799
2205.000000	99.349394
2204.000000	99.344862
2203.000000	99.341660
2202.000000	99.338501
2201.000000	99.333442
2200.000000	99.327512
2199.000000	99.323687
2198.000000	99.321912
2197.000000	99.318365
2196.000000	99.311500
2195.000000	99.305921
2194.000000	99.306864
2193.000000	99.312637
2192.000000	99.316268
2191.000000	99.314056
2190.000000	99.308396
2189.000000	99.301970
2188.000000	99.294214
2187.000000	99.285861
2186.000000	99.282213
2185.000000	99.287204
2184.000000	99.296655
2183.000000	99.301894
2182.000000	99.299935
2181.000000	99.295956
2180.000000	99.295669
2179.000000	99.299533
2178.000000	99.305231
2177.000000	99.311969
2176.000000	99.320088
2175.000000	99.328952
2174.000000	99.338104
2173.000000	99.349080
2172.000000	99.363385
2171.000000	99.378960
2170.000000	99.390471
2169.000000	99.393772
2168.000000	99.389928
2167.000000	99.384888
2166.000000	99.384569
2165.000000	99.389277
2164.000000	99.393267
2163.000000	99.390902
2162.000000	99.382891
2161.000000	99.375180
2160.000000	99.371912
2159.000000	99.371657
2158.000000	99.371006
2157.000000	99.368863
2156.000000	99.365513
2155.000000	99.360226
2154.000000	99.353139
2153.000000	99.348198
2152.000000	99.350147
2151.000000	99.357970
2150.000000	99.364345
2149.000000	99.363697
2148.000000	99.358968
2147.000000	99.357982
2146.000000	99.364011
2145.000000	99.372353
2144.000000	99.376119
2143.000000	99.373286
2142.000000	99.366816
2141.000000	99.360100
2140.000000	99.355102
2139.000000	99.354071
2138.000000	99.359259
2137.000000	99.369327
2136.000000	99.378475
2135.000000	99.382150
2134.000000	99.382456
2133.000000	99.385209
2132.000000	99.392616
2131.000000	99.401851
2130.000000	99.410519
2129.000000	99.419785
2128.000000	99.430743
2127.000000	99.441026
2126.000000	99.447788
2125.000000	99.452317
2124.000000	99.458829
2123.000000	99.468997
2122.000000	99.479583
2121.000000	99.485497
2120.000000	99.484265
2119.000000	99.477893
2118.000000	99.470919
2117.000000	99.466137
2116.000000	99.461750
2115.000000	99.453691
2114.000000	99.441130
2113.000000	99.428055
2112.000000	99.418502
2111.000000	99.412073
2110.000000	99.405827
2109.000000	99.398868
2108.000000	99.392837
2107.000000	99.388971
2106.000000	99.387165
2105.000000	99.387385
2104.000000	99.389617
2103.000000	99.392231
2102.000000	99.392860
2101.000000	99.391629
2100.000000	99.391567
2099.000000	99.394921
2098.000000	99.400393
2097.000000	99.404955
2096.000000	99.407187
2095.000000	99.407586
2094.000000	99.406357
2093.000000	99.402634
2092.000000	99.396337
2091.000000	99.389851
2090.000000	99.386827
2089.000000	99.389160
2088.000000	99.395615
2087.000000	99.403441
2086.000000	99.410688
2085.000000	99.416501
2084.000000	99.420102
2083.000000	99.421067
2082.000000	99.420726
2081.000000	99.421609
2080.000000	99.424365
2079.000000	99.426173
2078.000000	99.423523
2077.000000	99.416238
2076.000000	99.407940
2075.000000	99.402600
2074.000000	99.401126
2073.000000	99.401406
2072.000000	99.400903
2071.000000	99.398912
2070.000000	99.396655
2069.000000	99.395665
2068.000000	99.396147
2067.000000	99.396833
2066.000000	99.396296
2065.000000	99.394378
2064.000000	99.392436
2063.000000	99.392474
2062.000000	99.396108
2061.000000	99.403553
2060.000000	99.412634
2059.000000	99.419260
2058.000000	99.420393
2057.000000	99.417149
2056.000000	99.414539
2055.000000	99.416953
2054.000000	99.423626
2053.000000	99.429124
2052.000000	99.428834
2051.000000	99.423544
2050.000000	99.418310
2049.000000	99.417254
2048.000000	99.420030
2047.000000	99.423132
2046.000000	99.423445
2045.000000	99.420119
2044.000000	99.414150
2043.000000	99.407587
2042.000000	99.402576
2041.000000	99.399499
2040.000000	99.395965
2039.000000	99.389243
2038.000000	99.380109
2037.000000	99.372794
2036.000000	99.370166
2035.000000	99.370053
2034.000000	99.367471
2033.000000	99.360007
2032.000000	99.349968
2031.000000	99.341689
2030.000000	99.337756
2029.000000	99.337786
2028.000000	99.340097
2027.000000	99.343570
2026.000000	99.348253
2025.000000	99.353652
2024.000000	99.357911
2023.000000	99.360086
2022.000000	99.362656
2021.000000	99.369641
2020.000000	99.381332
2019.000000	99.392976
2018.000000	99.400083
2017.000000	99.403402
2016.000000	99.406681
2015.000000	99.411418
2014.000000	99.417005
2013.000000	99.424260
2012.000000	99.434250
2011.000000	99.443230
2010.000000	99.443487
2009.000000	99.431976
2008.000000	99.415835
2007.000000	99.405860
2006.000000	99.405106
2005.000000	99.406444
2004.000000	99.401534
2003.000000	99.389397
2002.000000	99.375316
2001.000000	99.364206
2000.000000	99.356366
1999.000000	99.349996
1998.000000	99.343726
1997.000000	99.335458
1996.000000	99.321821
1995.000000	99.301759
1994.000000	99.279866
1993.000000	99.263165
1992.000000	99.253512
1991.000000	99.246281
1990.000000	99.239294
1989.000000	99.238981
1988.000000	99.252915
1987.000000	99.277807
1986.000000	99.299585
1985.000000	99.308238
1984.000000	99.308978
1983.000000	99.315167
1982.000000	99.332568
1981.000000	99.354921
1980.000000	99.373932
1979.000000	99.389548
1978.000000	99.406065
1977.000000	99.422318
1976.000000	99.432239
1975.000000	99.434926
1974.000000	99.437628
1973.000000	99.445369
1972.000000	99.452517
1971.000000	99.450170
1970.000000	99.438815
1969.000000	99.427601
1968.000000	99.421921
1967.000000	99.417945
1966.000000	99.412007
1965.000000	99.408392
1964.000000	99.412268
1963.000000	99.420158
1962.000000	99.423520
1961.000000	99.419203
1960.000000	99.410962
1959.000000	99.401639
1958.000000	99.389835
1957.000000	99.375154
1956.000000	99.360830
1955.000000	99.348601
1954.000000	99.335388
1953.000000	99.317862
1952.000000	99.298423
1951.000000	99.282670
1950.000000	99.273534
1949.000000	99.269380
1948.000000	99.265798
1947.000000	99.259558
1946.000000	99.252679
1945.000000	99.252428
1944.000000	99.264696
1943.000000	99.286751
1942.000000	99.310060
1941.000000	99.332027
1940.000000	99.358444
1939.000000	99.391453
1938.000000	99.423014
1937.000000	99.444518
1936.000000	99.457868
1935.000000	99.470956
1934.000000	99.485425
1933.000000	99.496123
1932.000000	99.501164
1931.000000	99.502411
1930.000000	99.498419
1929.000000	99.485133
1928.000000	99.464653
1927.000000	99.448533
1926.000000	99.444433
1925.000000	99.447302
1924.000000	99.445547
1923.000000	99.434438
1922.000000	99.419730
1921.000000	99.407297
1920.000000	99.395945
1919.000000	99.382842
1918.000000	99.369821
1917.000000	99.360865
1916.000000	99.354881
1915.000000	99.347066
1914.000000	99.335231
1913.000000	99.321288
1912.000000	99.307384
1911.000000	99.292662
1910.000000	99.276265
1909.000000	99.260692
1908.000000	99.249548
1907.000000	99.244671
1906.000000	99.244217
1905.000000	99.245761
1904.000000	99.248392
1903.000000	99.253947
1902.000000	99.267216
1901.000000	99.290217
1900.000000	99.316046
1899.000000	99.333298
1898.000000	99.336702
1897.000000	99.332540
1896.000000	99.330897
1895.000000	99.334141
1894.000000	99.337086
1893.000000	99.335987
1892.000000	99.331623
1891.000000	99.324903
1890.000000	99.315887
1889.000000	99.307736
1888.000000	99.305082
1887.000000	99.306404
1886.000000	99.303787
1885.000000	99.292838
1884.000000	99.279724
1883.000000	99.274087
1882.000000	99.277420
1881.000000	99.282942
1880.000000	99.285850
1879.000000	99.288994
1878.000000	99.295636
1877.000000	99.302781
1876.000000	99.305662
1875.000000	99.303727
1874.000000	99.298805
1873.000000	99.290234
1872.000000	99.275211
1871.000000	99.253836
1870.000000	99.231990
1869.000000	99.218218
1868.000000	99.216345
1867.000000	99.223233
1866.000000	99.233706
1865.000000	99.243682
1864.000000	99.250805
1863.000000	99.255252
1862.000000	99.259411
1861.000000	99.265811
1860.000000	99.275309
1859.000000	99.287156
1858.000000	99.299379
1857.000000	99.309224
1856.000000	99.315107
1855.000000	99.318450
1854.000000	99.321613
1853.000000	99.324348
1852.000000	99.323153
1851.000000	99.317798
1850.000000	99.311461
1849.000000	99.304753
1848.000000	99.293656
1847.000000	99.275529
1846.000000	99.255593
1845.000000	99.244551
1844.000000	99.248307
1843.000000	99.262318
1842.000000	99.280825
1841.000000	99.302829
1840.000000	99.326769
1839.000000	99.348622
1838.000000	99.364888
1837.000000	99.377276
1836.000000	99.389466
1835.000000	99.400437
1834.000000	99.405432
1833.000000	99.402653
1832.000000	99.395656
1831.000000	99.389599
1830.000000	99.384108
1829.000000	99.375470
1828.000000	99.366384
1827.000000	99.365007
1826.000000	99.374748
1825.000000	99.389585
1824.000000	99.399931
1823.000000	99.402812
1822.000000	99.402291
1821.000000	99.402338
1820.000000	99.404329
1819.000000	99.409095
1818.000000	99.417828
1817.000000	99.431244
1816.000000	99.446584
1815.000000	99.457909
1814.000000	99.461383
1813.000000	99.458108
1812.000000	99.453497
1811.000000	99.451578
1810.000000	99.451292
1809.000000	99.449941
1808.000000	99.446561
1807.000000	99.441605
1806.000000	99.435566
1805.000000	99.429140
1804.000000	99.424152
1803.000000	99.422759
1802.000000	99.426225
1801.000000	99.433155
1800.000000	99.442177
1799.000000	99.453030
1798.000000	99.464675
1797.000000	99.474082
1796.000000	99.478307
1795.000000	99.477671
1794.000000	99.475823
1793.000000	99.476599
1792.000000	99.482402
1791.000000	99.493321
1790.000000	99.506938
1789.000000	99.517848
1788.000000	99.520044
1787.000000	99.512401
1786.000000	99.501209
1785.000000	99.495231
1784.000000	99.496907
1783.000000	99.501808
1782.000000	99.506197
1781.000000	99.508416
1780.000000	99.510063
1779.000000	99.515197
1778.000000	99.527143
1777.000000	99.543963
1776.000000	99.557435
1775.000000	99.561344
1774.000000	99.557450
1773.000000	99.553231
1772.000000	99.554748
1771.000000	99.561153
1770.000000	99.567558
1769.000000	99.570299
1768.000000	99.567814
1767.000000	99.562376
1766.000000	99.558904
1765.000000	99.558292
1764.000000	99.556504
1763.000000	99.549779
1762.000000	99.540555
1761.000000	99.534018
1760.000000	99.531759
1759.000000	99.530570
1758.000000	99.529768
1757.000000	99.531983
1756.000000	99.536163
1755.000000	99.536004
1754.000000	99.525578
1753.000000	99.504910
1752.000000	99.482033
1751.000000	99.469726
1750.000000	99.473266
1749.000000	99.487833
1748.000000	99.504159
1747.000000	99.515591
1746.000000	99.521145
1745.000000	99.522711
1744.000000	99.524109
1743.000000	99.527390
1742.000000	99.531708
1741.000000	99.536444
1740.000000	99.542752
1739.000000	99.548377
1738.000000	99.547470
1737.000000	99.535157
1736.000000	99.510648
1735.000000	99.484415
1734.000000	99.479109
1733.000000	99.501819
1732.000000	99.536849
1731.000000	99.570627
1730.000000	99.598361
1729.000000	99.623133
1728.000000	99.648836
1727.000000	99.675443
1726.000000	99.699154
1725.000000	99.715323
1724.000000	99.724139
1723.000000	99.727826
1722.000000	99.727988
1721.000000	99.725184
1720.000000	99.718222
1719.000000	99.704878
1718.000000	99.684799
1717.000000	99.667067
1716.000000	99.664288
1715.000000	99.677347
1714.000000	99.696062
1713.000000	99.710097
1712.000000	99.714549
1711.000000	99.709617
1710.000000	99.699394
1709.000000	99.688989
1708.000000	99.681933
1707.000000	99.681015
1706.000000	99.686836
1705.000000	99.695558
1704.000000	99.699077
1703.000000	99.694082
1702.000000	99.685848
1701.000000	99.685413
1700.000000	99.694944
1699.000000	99.701583
1698.000000	99.704845
1697.000000	99.712983
1696.000000	99.728467
1695.000000	99.747619
1694.000000	99.768555
1693.000000	99.793181
1692.000000	99.815509
1691.000000	99.826654
1690.000000	99.824422
1689.000000	99.812223
1688.000000	99.793026
1687.000000	99.771777
1686.000000	99.757703
1685.000000	99.768562
1684.000000	99.809550
1683.000000	99.856763
1682.000000	99.902221
1681.000000	99.953100
1680.000000	100.002364
1679.000000	100.038983
1678.000000	100.060251
1677.000000	100.070491
1676.000000	100.072121
1675.000000	100.063432
1674.000000	100.049185
1673.000000	100.038969
1672.000000	100.036329
1671.000000	100.033953
1670.000000	100.024534
1669.000000	100.008555
1668.000000	99.993989
1667.000000	99.988926
1666.000000	99.993025
1665.000000	99.998622
1664.000000	99.996578
1663.000000	99.981347
1662.000000	99.962560
1661.000000	99.957363
1660.000000	99.971631
1659.000000	99.996046
1658.000000	100.014272
1657.000000	100.014207
1656.000000	99.995913
1655.000000	99.970659
1654.000000	99.953218
1653.000000	99.945765
1652.000000	99.932862
1651.000000	99.921294
1650.000000	99.920876
1649.000000	99.921403
1648.000000	99.917395
1647.000000	99.912865
1646.000000	99.911087
1645.000000	99.911820
1644.000000	99.917253
1643.000000	99.927999
1642.000000	99.943411
1641.000000	99.959857
1640.000000	99.970703
1639.000000	99.972303
1638.000000	99.967165
1637.000000	99.962848
1636.000000	99.964130
1635.000000	99.968928
1634.000000	99.973631
1633.000000	99.979886
1632.000000	99.985003
1631.000000	99.982869
1630.000000	99.972871
1629.000000	99.961654
1628.000000	99.957276
1627.000000	99.961493
1626.000000	99.970258
1625.000000	99.977507
1624.000000	99.977699
1623.000000	99.968131
1622.000000	99.953499
1621.000000	99.942085
1620.000000	99.937466
1619.000000	99.937777
1618.000000	99.938303
1617.000000	99.933395
1616.000000	99.921287
1615.000000	99.910121
1614.000000	99.908567
1613.000000	99.915692
1612.000000	99.923608
1611.000000	99.924556
1610.000000	99.917685
1609.000000	99.909609
1608.000000	99.907958
1607.000000	99.914720
1606.000000	99.926288
1605.000000	99.936967
1604.000000	99.943910
1603.000000	99.948136
1602.000000	99.951681
1601.000000	99.955752
1600.000000	99.960181
1599.000000	99.963508
1598.000000	99.963283
1597.000000	99.958625
1596.000000	99.953326
1595.000000	99.954072
1594.000000	99.964228
1593.000000	99.979901
1592.000000	99.993381
1591.000000	99.999806
1590.000000	99.999888
1589.000000	99.998158
1588.000000	100.000005
1587.000000	100.008841
1586.000000	100.023488
1585.000000	100.037962
1584.000000	100.045976
1583.000000	100.048384
1582.000000	100.051166
1581.000000	100.056844
1580.000000	100.061134
1579.000000	100.059330
1578.000000	100.050906
1577.000000	100.039534
1576.000000	100.029583
1575.000000	100.022666
1574.000000	100.019732
1573.000000	100.020070
1572.000000	100.021455
1571.000000	100.024168
1570.000000	100.031113
1569.000000	100.042537
1568.000000	100.054574
1567.000000	100.066643
1566.000000	100.079439
1565.000000	100.091633
1564.000000	100.100023
1563.000000	100.104475
1562.000000	100.109396
1561.000000	100.121873
1560.000000	100.141755
1559.000000	100.147455
1558.000000	100.125518
1557.000000	100.104429
1556.000000	100.102271
1555.000000	100.108016
1554.000000	100.107973
1553.000000	100.098041
1552.000000	100.084001
1551.000000	100.072670
1550.000000	100.067399
1549.000000	100.069978
1548.000000	100.077155
1547.000000	100.081665
1546.000000	100.077169
1545.000000	100.065345
1544.000000	100.057171
1543.000000	100.061696
1542.000000	100.075041
1541.000000	100.086837
1540.000000	100.090318
1539.000000	100.085726
1538.000000	100.078954
1537.000000	100.076614
1536.000000	100.079898
1535.000000	100.087518
1534.000000	100.095613
1533.000000	100.095984
1532.000000	100.090016
1531.000000	100.089428
1530.000000	100.100360
1529.000000	100.120368
1528.000000	100.142874
1527.000000	100.161351
1526.000000	100.172165
1525.000000	100.175864
1524.000000	100.178784
1523.000000	100.190267
1522.000000	100.214911
1521.000000	100.242907
1520.000000	100.261076
1519.000000	100.272080
1518.000000	100.280632
1517.000000	100.284772
1516.000000	100.285955
1515.000000	100.292070
1514.000000	100.306718
1513.000000	100.321996
1512.000000	100.329026
1511.000000	100.329440
1510.000000	100.335503
1509.000000	100.357646
1508.000000	100.393336
1507.000000	100.419136
1506.000000	100.414118
1505.000000	100.394433
1504.000000	100.382462
1503.000000	100.380781
1502.000000	100.385842
1501.000000	100.395595
1500.000000	100.403035
1499.000000	100.398225
1498.000000	100.383658
1497.000000	100.381743
1496.000000	100.407694
1495.000000	100.444678
1494.000000	100.471689
1493.000000	100.488262
1492.000000	100.505141
1491.000000	100.528840
1490.000000	100.558234
1489.000000	100.593736
1488.000000	100.638241
1487.000000	100.682245
1486.000000	100.710291
1485.000000	100.721608
1484.000000	100.730511
1483.000000	100.751946
1482.000000	100.784285
1481.000000	100.813188
1480.000000	100.831004
1479.000000	100.844892
1478.000000	100.863535
1477.000000	100.886730
1476.000000	100.910234
1475.000000	100.934393
1474.000000	100.963626
1473.000000	100.992665
1472.000000	101.010576
1471.000000	101.020290
1470.000000	101.034366
1469.000000	101.056941
1468.000000	101.085154
1467.000000	101.115476
1466.000000	101.143555
1465.000000	101.162088
1464.000000	101.169671
1463.000000	101.176992
1462.000000	101.191524
1461.000000	101.210890
1460.000000	101.233100
1459.000000	101.265352
1458.000000	101.307952
1457.000000	101.326411
1456.000000	101.292981
1455.000000	101.241839
1454.000000	101.208056
1453.000000	101.188420
1452.000000	101.171257
1451.000000	101.158412
1450.000000	101.161824
1449.000000	101.184279
1448.000000	101.210103
1447.000000	101.221092
1446.000000	101.220016
1445.000000	101.220470
1444.000000	101.228349
1443.000000	101.239073
1442.000000	101.246159
1441.000000	101.249257
1440.000000	101.253815
1439.000000	101.266670
1438.000000	101.288712
1437.000000	101.307034
1436.000000	101.301528
1435.000000	101.275799
1434.000000	101.252740
1433.000000	101.245764
1432.000000	101.254579
1431.000000	101.271439
1430.000000	101.286496
1429.000000	101.294473
1428.000000	101.297038
1427.000000	101.300036
1426.000000	101.310504
1425.000000	101.330326
1424.000000	101.354474
1423.000000	101.377868
1422.000000	101.403798
1421.000000	101.438870
1420.000000	101.475792
1419.000000	101.487440
1418.000000	101.459848
1417.000000	101.417673
1416.000000	101.389367
1415.000000	101.379129
1414.000000	101.376134
1413.000000	101.368742
1412.000000	101.352511
1411.000000	101.330138
1410.000000	101.307016
1409.000000	101.288825
1408.000000	101.281602
1407.000000	101.288777
1406.000000	101.307015
1405.000000	101.322813
1404.000000	101.323678
1403.000000	101.314281
1402.000000	101.310964
1401.000000	101.323300
1400.000000	101.345394
1399.000000	101.362804
1398.000000	101.369381
1397.000000	101.371547
1396.000000	101.372806
1395.000000	101.367832
1394.000000	101.354822
1393.000000	101.342356
1392.000000	101.341500
1391.000000	101.356931
1390.000000	101.386851
1389.000000	101.423116
1388.000000	101.451825
1387.000000	101.464001
1386.000000	101.469686
1385.000000	101.485455
1384.000000	101.513020
1383.000000	101.543143
1382.000000	101.570905
1381.000000	101.598210
1380.000000	101.621999
1379.000000	101.633739
1378.000000	101.633195
1377.000000	101.629293
1376.000000	101.621492
1375.000000	101.594529
1374.000000	101.541796
1373.000000	101.481692
1372.000000	101.435693
1371.000000	101.400905
1370.000000	101.361599
1369.000000	101.312524
1368.000000	101.264415
1367.000000	101.230000
1366.000000	101.213004
1365.000000	101.210019
1364.000000	101.212120
1363.000000	101.204179
1362.000000	101.176929
1361.000000	101.142571
1360.000000	101.123073
1359.000000	101.126304
1358.000000	101.142311
1357.000000	101.156122
1356.000000	101.160185
1355.000000	101.156478
1354.000000	101.152671
1353.000000	101.158315
1352.000000	101.179407
1351.000000	101.210857
1350.000000	101.238374
1349.000000	101.249775
1348.000000	101.245703
1347.000000	101.235369
1346.000000	101.225842
1345.000000	101.219864
1344.000000	101.220120
1343.000000	101.227874
1342.000000	101.237206
1341.000000	101.236785
1340.000000	101.221101
1339.000000	101.197607
1338.000000	101.178255
1337.000000	101.166960
1336.000000	101.160915
1335.000000	101.157646
1334.000000	101.154971
1333.000000	101.148748
1332.000000	101.136866
1331.000000	101.124505
1330.000000	101.120296
1329.000000	101.125778
1328.000000	101.132281
1327.000000	101.129926
1326.000000	101.117383
1325.000000	101.101026
1324.000000	101.087627
1323.000000	101.079333
1322.000000	101.073948
1321.000000	101.067451
1320.000000	101.056953
1319.000000	101.043455
1318.000000	101.031628
1317.000000	101.025350
1316.000000	101.024082
1315.000000	101.023984
1314.000000	101.021719
1313.000000	101.016904
1312.000000	101.011234
1311.000000	101.006656
1310.000000	101.004537
1309.000000	101.004868
1308.000000	101.005184
1307.000000	101.001733
1306.000000	100.993574
1305.000000	100.984785
1304.000000	100.980886
1303.000000	100.983159
1302.000000	100.987427
1301.000000	100.988136
1300.000000	100.982849
1299.000000	100.972416
1298.000000	100.959561
1297.000000	100.948273
1296.000000	100.942373
1295.000000	100.942136
1294.000000	100.942240
1293.000000	100.935967
1292.000000	100.922704
1291.000000	100.909647
1290.000000	100.903873
1289.000000	100.904104
1288.000000	100.902765
1287.000000	100.895189
1286.000000	100.883238
1285.000000	100.870232
1284.000000	100.857048
1283.000000	100.844792
1282.000000	100.837645
1281.000000	100.840105
1280.000000	100.852493
1279.000000	100.870864
1278.000000	100.889632
1277.000000	100.903448
1276.000000	100.908124
1275.000000	100.901833
1274.000000	100.886176
1273.000000	100.865340
1272.000000	100.844036
1271.000000	100.826233
1270.000000	100.813461
1269.000000	100.802844
1268.000000	100.788925
1267.000000	100.768991
1266.000000	100.745051
1265.000000	100.719993
1264.000000	100.695210
1263.000000	100.673857
1262.000000	100.661504
1261.000000	100.658633
1260.000000	100.655941
1259.000000	100.644520
1258.000000	100.628907
1257.000000	100.622014
1256.000000	100.626925
1255.000000	100.632457
1254.000000	100.629611
1253.000000	100.623577
1252.000000	100.621861
1251.000000	100.616860
1250.000000	100.592129
1249.000000	100.544132
1248.000000	100.487323
1247.000000	100.436841
1246.000000	100.393896
1245.000000	100.352506
1244.000000	100.312026
1243.000000	100.275762
1242.000000	100.242986
1241.000000	100.211300
1240.000000	100.185865
1239.000000	100.177527
1238.000000	100.188456
1237.000000	100.203960
1236.000000	100.203107
1235.000000	100.176899
1234.000000	100.133490
1233.000000	100.088858
1232.000000	100.054469
1231.000000	100.032442
1230.000000	100.017690
1229.000000	100.001630
1228.000000	99.975983
1227.000000	99.936776
1226.000000	99.886852
1225.000000	99.834051
1224.000000	99.784850
1223.000000	99.738882
1222.000000	99.690799
1221.000000	99.638942
1220.000000	99.590988
1219.000000	99.557625
1218.000000	99.540111
1217.000000	99.527397
1216.000000	99.508441
1215.000000	99.484887
1214.000000	99.466909
1213.000000	99.457838
1212.000000	99.447939
1211.000000	99.424787
1210.000000	99.385504
1209.000000	99.335854
1208.000000	99.282581
1207.000000	99.231448
1206.000000	99.189607
1205.000000	99.161705
1204.000000	99.141221
1203.000000	99.111295
1202.000000	99.060443
1201.000000	98.995735
1200.000000	98.936711
1199.000000	98.895967
1198.000000	98.870389
1197.000000	98.850495
1196.000000	98.832847
1195.000000	98.819210
1194.000000	98.807344
1193.000000	98.790017
1192.000000	98.764727
1191.000000	98.739183
1190.000000	98.722686
1189.000000	98.713620
1188.000000	98.699423
1187.000000	98.669404
1186.000000	98.623762
1185.000000	98.569157
1184.000000	98.510081
1183.000000	98.448847
1182.000000	98.391629
1181.000000	98.346091
1180.000000	98.309825
1179.000000	98.267979
1178.000000	98.210337
1177.000000	98.148210
1176.000000	98.104548
1175.000000	98.086398
1174.000000	98.076393
1173.000000	98.055693
1172.000000	98.026737
1171.000000	98.002515
1170.000000	97.980422
1169.000000	97.942538
1168.000000	97.883102
1167.000000	97.821085
1166.000000	97.777943
1165.000000	97.754100
1164.000000	97.737878
1163.000000	97.729359
1162.000000	97.739795
1161.000000	97.766861
1160.000000	97.784984
1159.000000	97.770703
1158.000000	97.731720
1157.000000	97.699429
1156.000000	97.691796
1155.000000	97.692297
1154.000000	97.670966
1153.000000	97.619689
1152.000000	97.558083
1151.000000	97.508049
1150.000000	97.472715
1149.000000	97.443311
1148.000000	97.413987
1147.000000	97.378329
1146.000000	97.319705
1145.000000	97.223543
1144.000000	97.102825
1143.000000	96.996636
1142.000000	96.932270
1141.000000	96.897055
1140.000000	96.857719
1139.000000	96.800821
1138.000000	96.740095
1137.000000	96.686312
1136.000000	96.629667
1135.000000	96.560854
1134.000000	96.494125
1133.000000	96.451042
1132.000000	96.427384
1131.000000	96.397268
1130.000000	96.353679
1129.000000	96.323962
1128.000000	96.329185
1127.000000	96.343265
1126.000000	96.318488
1125.000000	96.250737
1124.000000	96.190423
1123.000000	96.179808
1122.000000	96.203644
1121.000000	96.215428
1120.000000	96.196969
1119.000000	96.169925
1118.000000	96.156998
1117.000000	96.159258
1116.000000	96.172584
1115.000000	96.200573
1114.000000	96.238657
1113.000000	96.262067
1112.000000	96.248192
1111.000000	96.207894
1110.000000	96.181222
1109.000000	96.198818
1108.000000	96.254414
1107.000000	96.317375
1106.000000	96.367168
1105.000000	96.408041
1104.000000	96.448525
1103.000000	96.478332
1102.000000	96.481734
1101.000000	96.473397
1100.000000	96.499210
1099.000000	96.588062
1098.000000	96.714154
1097.000000	96.822898
1096.000000	96.888359
1095.000000	96.925034
1094.000000	96.950753
1093.000000	96.968475
1092.000000	96.990582
1091.000000	97.047204
1090.000000	97.143417
1089.000000	97.227674
1088.000000	97.239117
1087.000000	97.186038
1086.000000	97.147615
1085.000000	97.186390
1084.000000	97.282427
1083.000000	97.366998
1082.000000	97.402712
1081.000000	97.408220
1080.000000	97.413874
1079.000000	97.424603
1078.000000	97.432519
1077.000000	97.439608
1076.000000	97.449335
1075.000000	97.450726
1074.000000	97.433243
1073.000000	97.410962
1072.000000	97.406338
1071.000000	97.405792
1070.000000	97.356203
1069.000000	97.224328
1068.000000	97.049102
1067.000000	96.915608
1066.000000	96.872838
1065.000000	96.887031
1064.000000	96.878223
1063.000000	96.796607
1062.000000	96.662761
1061.000000	96.543182
1060.000000	96.495879
1059.000000	96.534487
1058.000000	96.626380
1057.000000	96.713726
1056.000000	96.742024
1055.000000	96.686496
1054.000000	96.568810
1053.000000	96.445771
1052.000000	96.359978
1051.000000	96.291718
1050.000000	96.175744
1049.000000	95.977726
1048.000000	95.734421
1047.000000	95.500752
1046.000000	95.279621
1045.000000	95.035100
1044.000000	94.762292
1043.000000	94.506955
1042.000000	94.307612
1041.000000	94.145082
1040.000000	93.967753
1039.000000	93.750423
1038.000000	93.509143
1037.000000	93.272065
1036.000000	93.063208
1035.000000	92.908977
1034.000000	92.825755
1033.000000	92.785358
1032.000000	92.712017
1031.000000	92.541273
1030.000000	92.288206
1029.000000	92.042057
1028.000000	91.885642
1027.000000	91.826182
1026.000000	91.801827
1025.000000	91.749137
1024.000000	91.659135
1023.000000	91.567628
1022.000000	91.508856
1021.000000	91.491570
1020.000000	91.506746
1019.000000	91.536768
1018.000000	91.556884
1017.000000	91.546023
1016.000000	91.504307
1015.000000	91.449038
1014.000000	91.386278
1013.000000	91.297121
1012.000000	91.164732
1011.000000	91.010790
1010.000000	90.889558
1009.000000	90.837380
1008.000000	90.831215
1007.000000	90.802886
1006.000000	90.702371
1005.000000	90.548716
1004.000000	90.411977
1003.000000	90.347934
1002.000000	90.358966
1001.000000	90.413442
1000.000000	90.485425
999.000000	90.565037
998.000000	90.646339
997.000000	90.729640
996.000000	90.832075
995.000000	90.972889
994.000000	91.143256
993.000000	91.306932
992.000000	91.436819
991.000000	91.535808
990.000000	91.614045
989.000000	91.662192
988.000000	91.664818
987.000000	91.635418
986.000000	91.620021
985.000000	91.657805
984.000000	91.743075
983.000000	91.830469
982.000000	91.877675
981.000000	91.882691
980.000000	91.880789
979.000000	91.912339
978.000000	91.998589
977.000000	92.139634
976.000000	92.318518
975.000000	92.503577
974.000000	92.664976
973.000000	92.803868
972.000000	92.954531
971.000000	93.141301
970.000000	93.338263
969.000000	93.489461
968.000000	93.570479
967.000000	93.612389
966.000000	93.658680
965.000000	93.712194
964.000000	93.738184
963.000000	93.713354
962.000000	93.658086
961.000000	93.618998
960.000000	93.629892
959.000000	93.693699
958.000000	93.793148
957.000000	93.909091
956.000000	94.028424
955.000000	94.144265
954.000000	94.260885
953.000000	94.399527
952.000000	94.586209
951.000000	94.822113
950.000000	95.069072
949.000000	95.275811
948.000000	95.419938
947.000000	95.517712
946.000000	95.596025
945.000000	95.663468
944.000000	95.708832
943.000000	95.716807
942.000000	95.678641
941.000000	95.595135
940.000000	95.480238
939.000000	95.362969
938.000000	95.276007
937.000000	95.235784
936.000000	95.237038
935.000000	95.269664
934.000000	95.335850
933.000000	95.440882
932.000000	95.567306
931.000000	95.674546
930.000000	95.739016
929.000000	95.785656
928.000000	95.858682
927.000000	95.961774
926.000000	96.047852
925.000000	96.074753
924.000000	96.049884
923.000000	96.004421
922.000000	95.942247
921.000000	95.840699
920.000000	95.698407
919.000000	95.556702
918.000000	95.463042
917.000000	95.426900
916.000000	95.421966
915.000000	95.427634
914.000000	95.459570
913.000000	95.555084
912.000000	95.730943
911.000000	95.960834
910.000000	96.199915
909.000000	96.430301
908.000000	96.668872
907.000000	96.929027
906.000000	97.194008
905.000000	97.436090
904.000000	97.642619
903.000000	97.808431
902.000000	97.923111
901.000000	97.989036
900.000000	98.037313
899.000000	98.096204
898.000000	98.147986
897.000000	98.148339
896.000000	98.095949
895.000000	98.056192
894.000000	98.100528
893.000000	98.241079
892.000000	98.438034
891.000000	98.652300
890.000000	98.868842
889.000000	99.075953
888.000000	99.251864
887.000000	99.386628
886.000000	99.500778
885.000000	99.619739
884.000000	99.731599
883.000000	99.792116
882.000000	99.782473
881.000000	99.745424
880.000000	99.739218
879.000000	99.758904
878.000000	99.732402
877.000000	99.608431
876.000000	99.427225
875.000000	99.280735
874.000000	99.214588
873.000000	99.199381
872.000000	99.193995
871.000000	99.204954
870.000000	99.268453
869.000000	99.397636
868.000000	99.573848
867.000000	99.778032
866.000000	100.002589
865.000000	100.229805
864.000000	100.423841
863.000000	100.561800
862.000000	100.660580
861.000000	100.752005
860.000000	100.836724
859.000000	100.885813
858.000000	100.890654
857.000000	100.885252
856.000000	100.900042
855.000000	100.910120
854.000000	100.859956
853.000000	100.739939
852.000000	100.611120
851.000000	100.542602
850.000000	100.541577
849.000000	100.560871
848.000000	100.560504
847.000000	100.536597
846.000000	100.494064
845.000000	100.424835
844.000000	100.332795
843.000000	100.260350
842.000000	100.257640
841.000000	100.320024
840.000000	100.377173
839.000000	100.362374
838.000000	100.284948
837.000000	100.211419
836.000000	100.177144
835.000000	100.144776
834.000000	100.061919
833.000000	99.935303
832.000000	99.817768
831.000000	99.734713
830.000000	99.664334
829.000000	99.598353
828.000000	99.580901
827.000000	99.654764
826.000000	99.795554
825.000000	99.942285
824.000000	100.078025
823.000000	100.222107
822.000000	100.348041
821.000000	100.382931
820.000000	100.307641
819.000000	100.199256
818.000000	100.146436
817.000000	100.157151
816.000000	100.174844
815.000000	100.152751
814.000000	100.073280
813.000000	99.912088
812.000000	99.638395
811.000000	99.268484
810.000000	98.882599
809.000000	98.556606
808.000000	98.289636
807.000000	98.018856
806.000000	97.701009
805.000000	97.368321
804.000000	97.102134
803.000000	96.960291
802.000000	96.935564
801.000000	96.980759
800.000000	97.063993
799.000000	97.183637
798.000000	97.327289
797.000000	97.443801
796.000000	97.485728
795.000000	97.471586
794.000000	97.470428
793.000000	97.516360
792.000000	97.567132
791.000000	97.563179
790.000000	97.501458
789.000000	97.420235
788.000000	97.331678
787.000000	97.215624
786.000000	97.078660
785.000000	96.969374
784.000000	96.911727
783.000000	96.860715
782.000000	96.762320
781.000000	96.639996
780.000000	96.577023
779.000000	96.619555
778.000000	96.739009
777.000000	96.889944
776.000000	97.059983
775.000000	97.237713
774.000000	97.372908
773.000000	97.416282
772.000000	97.380061
771.000000	97.315368
770.000000	97.239289
769.000000	97.130610
768.000000	97.002386
767.000000	96.927953
766.000000	96.965462
765.000000	97.085662
764.000000	97.203783
763.000000	97.282240
762.000000	97.375859
761.000000	97.564691
760.000000	97.860228
759.000000	98.183056
758.000000	98.428118
757.000000	98.554438
756.000000	98.611161
755.000000	98.682483
754.000000	98.814729
753.000000	98.993486
752.000000	99.170657
751.000000	99.292884
750.000000	99.311162
749.000000	99.200224
748.000000	98.994191
747.000000	98.784647
746.000000	98.648149
745.000000	98.575759
744.000000	98.495411
743.000000	98.366101
742.000000	98.228605
741.000000	98.151833
740.000000	98.156682
739.000000	98.213921
738.000000	98.297150
737.000000	98.409125
736.000000	98.555149
735.000000	98.718809
734.000000	98.876487
733.000000	99.015559
732.000000	99.119839
731.000000	99.163896
730.000000	99.158185
729.000000	99.179834
728.000000	99.309666
727.000000	99.525268
726.000000	99.686958
725.000000	99.667603
724.000000	99.488305
723.000000	99.292602
722.000000	99.202919
721.000000	99.230202
720.000000	99.305864
719.000000	99.368611
718.000000	99.405656
717.000000	99.424284
716.000000	99.423915
715.000000	99.415121
714.000000	99.450261
713.000000	99.603860
712.000000	99.900778
711.000000	100.265844
710.000000	100.565044
709.000000	100.715268
708.000000	100.728832
707.000000	100.644067
706.000000	100.462367
705.000000	100.188520
704.000000	99.894812
703.000000	99.676580
702.000000	99.538997
701.000000	99.378878
700.000000	99.102644
699.000000	98.733389
698.000000	98.383200
697.000000	98.161337
696.000000	98.140741
695.000000	98.362993
694.000000	98.797101
693.000000	99.295218
692.000000	99.683089
691.000000	99.957558
690.000000	100.333968
689.000000	101.031494
688.000000	102.029440
687.000000	103.069165
686.000000	103.892461
685.000000	104.413397
684.000000	104.619176
683.000000	104.446548
682.000000	103.901701
681.000000	103.208476
680.000000	102.671268
679.000000	102.385400
678.000000	102.170950
677.000000	101.808915
676.000000	101.293073
675.000000	100.799416
674.000000	100.477229
673.000000	100.355640
672.000000	100.416181
671.000000	100.683336
670.000000	101.210986
669.000000	101.907678
668.000000	102.293904
667.000000	102.073885
666.000000	101.650307
665.000000	101.364675
664.000000	101.332940
663.000000	101.507703
662.000000	101.730902
661.000000	101.851935
660.000000	101.798246
659.000000	101.541403
658.000000	101.101254
657.000000	100.607208
656.000000	100.276261
655.000000	100.279150
654.000000	100.601145
653.000000	101.072043
652.000000	101.563204
651.000000	102.076850
650.000000	102.640579
