4000.000000	101.479248
3999.000000	101.476097
3998.000000	101.473911
3997.000000	101.468921
3996.000000	101.460208
3995.000000	101.451149
3994.000000	101.446458
3993.000000	101.448425
3992.000000	101.455573
3991.000000	101.463669
3990.000000	101.468367
3989.000000	101.467682
3988.000000	101.462794
3987.000000	101.456526
3986.000000	101.450375
3985.000000	101.442899
3984.000000	101.431421
3983.000000	101.415677
3982.000000	101.399448
3981.000000	101.387540
3980.000000	101.381100
3979.000000	101.376919
3978.000000	101.371648
3977.000000	101.366050
3976.000000	101.363876
3975.000000	101.366795
3974.000000	101.371982
3973.000000	101.374999
3972.000000	101.374321
3971.000000	101.372449
3970.000000	101.373291
3969.000000	101.378900
3968.000000	101.387961
3967.000000	101.396580
3966.000000	101.400678
3965.000000	101.398436
3964.000000	101.391253
3963.000000	101.382539
3962.000000	101.375111
3961.000000	101.369454
3960.000000	101.364269
3959.000000	101.358642
3958.000000	101.353463
3957.000000	101.350523
3956.000000	101.350422
3955.000000	101.351735
3954.000000	101.352217
3953.000000	101.350160
3952.000000	101.344499
3951.000000	101.334586
3950.000000	101.320897
3949.000000	101.305884
3948.000000	101.292946
3947.000000	101.283812
3946.000000	101.277810
3945.000000	101.273912
3944.000000	101.272464
3943.000000	101.274036
3942.000000	101.276982
3941.000000	101.277747
3940.000000	101.274079
3939.000000	101.266884
3938.000000	101.258920
3937.000000	101.252186
3936.000000	101.246835
3935.000000	101.242267
3934.000000	101.238626
3933.000000	101.236734
3932.000000	101.236695
3931.000000	101.237025
3930.000000	101.235676
3929.000000	101.231829
3928.000000	101.226371
3927.000000	101.221029
3926.000000	101.217255
3925.000000	101.215372
3924.000000	101.214375
3923.000000	101.212629
3922.000000	101.209209
3921.000000	101.204448
3920.000000	101.199367
3919.000000	101.194761
3918.000000	101.190777
3917.000000	101.187291
3916.000000	101.184290
3915.000000	101.181883
3914.000000	101.180074
3913.000000	101.178673
3912.000000	101.177336
3911.000000	101.175637
3910.000000	101.173311
3909.000000	101.170416
3908.000000	101.167267
3907.000000	101.164298
3906.000000	101.161823
3905.000000	101.159854
3904.000000	101.158095
3903.000000	101.156173
3902.000000	101.154018
3901.000000	101.151918
3900.000000	101.150155
3899.000000	101.148702
3898.000000	101.147316
3897.000000	101.145821
3896.000000	101.144236
3895.000000	101.142664
3894.000000	101.141153
3893.000000	101.139645
3892.000000	101.138028
3891.000000	101.136267
3890.000000	101.134403
3889.000000	101.132488
3888.000000	101.130581
3887.000000	101.128797
3886.000000	101.127230
3885.000000	101.125795
3884.000000	101.124247
3883.000000	101.122462
3882.000000	101.120607
3881.000000	101.118943
3880.000000	101.117502
3879.000000	101.116081
3878.000000	101.114447
3877.000000	101.112528
3876.000000	101.110493
3875.000000	101.108704
3874.000000	101.107453
3873.000000	101.106541
3872.000000	101.105188
3871.000000	101.102799
3870.000000	101.099733
3869.000000	101.097084
3868.000000	101.095145
3867.000000	101.093160
3866.000000	101.090628
3865.000000	101.088052
3864.000000	101.085926
3863.000000	101.083706
3862.000000	101.080511
3861.000000	101.076562
3860.000000	101.073060
3859.000000	101.071036
3858.000000	101.070577
3857.000000	101.070901
3856.000000	101.070888
3855.000000	101.069720
3854.000000	101.067072
3853.000000	101.063003
3852.000000	101.057685
3851.000000	101.051837
3850.000000	101.046961
3849.000000	101.044073
3848.000000	101.042410
3847.000000	101.039813
3846.000000	101.034595
3845.000000	101.027116
3844.000000	101.019727
3843.000000	101.014954
3842.000000	101.012877
3841.000000	101.010591
3840.000000	101.004751
3839.000000	100.994901
3838.000000	100.984248
3837.000000	100.976618
3836.000000	100.973039
3835.000000	100.972201
3834.000000	100.972517
3833.000000	100.973254
3832.000000	100.974037
3831.000000	100.973962
3830.000000	100.972025
3829.000000	100.968240
3828.000000	100.963765
3827.000000	100.960000
3826.000000	100.957190
3825.000000	100.953995
3824.000000	100.948611
3823.000000	100.940773
3822.000000	100.932686
3821.000000	100.927432
3820.000000	100.925721
3819.000000	100.925464
3818.000000	100.924740
3817.000000	100.922993
3816.000000	100.919681
3815.000000	100.913664
3814.000000	100.904302
3813.000000	100.893081
3812.000000	100.883520
3811.000000	100.878491
3810.000000	100.878051
3809.000000	100.879464
3808.000000	100.879492
3807.000000	100.877346
3806.000000	100.874429
3805.000000	100.871379
3804.000000	100.866847
3803.000000	100.859605
3802.000000	100.850986
3801.000000	100.844566
3800.000000	100.842061
3799.000000	100.841593
3798.000000	100.840781
3797.000000	100.838443
3796.000000	100.834374
3795.000000	100.828574
3794.000000	100.821122
3793.000000	100.812993
3792.000000	100.805933
3791.000000	100.800657
3790.000000	100.795793
3789.000000	100.789296
3788.000000	100.781358
3787.000000	100.775636
3786.000000	100.776808
3785.000000	100.786520
3784.000000	100.801350
3783.000000	100.814916
3782.000000	100.822766
3781.000000	100.824716
3780.000000	100.823175
3779.000000	100.820009
3778.000000	100.814905
3777.000000	100.807104
3776.000000	100.797450
3775.000000	100.788254
3774.000000	100.781345
3773.000000	100.776405
3772.000000	100.771656
3771.000000	100.766635
3770.000000	100.763069
3769.000000	100.762347
3768.000000	100.763427
3767.000000	100.763735
3766.000000	100.761079
3765.000000	100.754632
3764.000000	100.744787
3763.000000	100.732775
3762.000000	100.721273
3761.000000	100.714623
3760.000000	100.715252
3759.000000	100.720260
3758.000000	100.724034
3757.000000	100.724252
3756.000000	100.722265
3755.000000	100.719169
3754.000000	100.714607
3753.000000	100.708630
3752.000000	100.702755
3751.000000	100.698435
3750.000000	100.695966
3749.000000	100.696055
3748.000000	100.699558
3747.000000	100.704067
3746.000000	100.705427
3745.000000	100.703283
3744.000000	100.701692
3743.000000	100.701052
3742.000000	100.695777
3741.000000	100.682631
3740.000000	100.663758
3739.000000	100.643074
3738.000000	100.623067
3737.000000	100.605489
3736.000000	100.593983
3735.000000	100.592465
3734.000000	100.599667
3733.000000	100.608643
3732.000000	100.613202
3731.000000	100.612093
3730.000000	100.607177
3729.000000	100.599579
3728.000000	100.588580
3727.000000	100.573035
3726.000000	100.552862
3725.000000	100.529596
3724.000000	100.507374
3723.000000	100.492500
3722.000000	100.488747
3721.000000	100.493706
3720.000000	100.500198
3719.000000	100.501644
3718.000000	100.496701
3717.000000	100.488967
3716.000000	100.482024
3715.000000	100.476083
3714.000000	100.469288
3713.000000	100.460827
3712.000000	100.451546
3711.000000	100.442148
3710.000000	100.431715
3709.000000	100.418506
3708.000000	100.402126
3707.000000	100.383754
3706.000000	100.364938
3705.000000	100.346271
3704.000000	100.327728
3703.000000	100.309667
3702.000000	100.292909
3701.000000	100.278047
3700.000000	100.265058
3699.000000	100.253937
3698.000000	100.245663
3697.000000	100.241996
3696.000000	100.242901
3695.000000	100.245022
3694.000000	100.243965
3693.000000	100.237952
3692.000000	100.228033
3691.000000	100.216102
3690.000000	100.203948
3689.000000	100.193892
3688.000000	100.188091
3687.000000	100.186102
3686.000000	100.184214
3685.000000	100.178088
3684.000000	100.166585
3683.000000	100.152388
3682.000000	100.139413
3681.000000	100.129328
3680.000000	100.121057
3679.000000	100.112392
3678.000000	100.101934
3677.000000	100.091204
3676.000000	100.084134
3675.000000	100.081879
3674.000000	100.079958
3673.000000	100.073466
3672.000000	100.061400
3671.000000	100.046160
3670.000000	100.031690
3669.000000	100.019838
3668.000000	100.008670
3667.000000	99.995745
3666.000000	99.981193
3665.000000	99.967579
3664.000000	99.957667
3663.000000	99.951425
3662.000000	99.945218
3661.000000	99.934752
3660.000000	99.919241
3659.000000	99.902351
3658.000000	99.889701
3657.000000	99.884623
3656.000000	99.885216
3655.000000	99.885844
3654.000000	99.881754
3653.000000	99.871582
3652.000000	99.857294
3651.000000	99.844060
3650.000000	99.838392
3649.000000	99.841896
3648.000000	99.847024
3647.000000	99.844432
3646.000000	99.832007
3645.000000	99.814685
3644.000000	99.799250
3643.000000	99.789081
3642.000000	99.781843
3641.000000	99.772087
3640.000000	99.756992
3639.000000	99.739246
3638.000000	99.723418
3637.000000	99.709778
3636.000000	99.694272
3635.000000	99.674752
3634.000000	99.654668
3633.000000	99.638471
3632.000000	99.625794
3631.000000	99.613447
3630.000000	99.600997
3629.000000	99.589959
3628.000000	99.577425
3627.000000	99.559395
3626.000000	99.540961
3625.000000	99.533148
3624.000000	99.541404
3623.000000	99.560732
3622.000000	99.579409
3621.000000	99.587629
3620.000000	99.585076
3619.000000	99.581109
3618.000000	99.586203
3617.000000	99.602548
3616.000000	99.622972
3615.000000	99.637565
3614.000000	99.642290
3613.000000	99.642892
3612.000000	99.648803
3611.000000	99.664174
3610.000000	99.685916
3609.000000	99.707758
3608.000000	99.723969
3607.000000	99.730946
3606.000000	99.728675
3605.000000	99.721678
3604.000000	99.717810
3603.000000	99.724114
3602.000000	99.742778
3601.000000	99.770148
3600.000000	99.799008
3599.000000	99.822510
3598.000000	99.837870
3597.000000	99.846308
3596.000000	99.849645
3595.000000	99.848399
3594.000000	99.843081
3593.000000	99.835933
3592.000000	99.830078
3591.000000	99.826671
3590.000000	99.823965
3589.000000	99.820576
3588.000000	99.819541
3587.000000	99.825641
3586.000000	99.837969
3585.000000	99.849682
3584.000000	99.855656
3583.000000	99.856528
3582.000000	99.857038
3581.000000	99.861812
3580.000000	99.872009
3579.000000	99.885080
3578.000000	99.897501
3577.000000	99.908275
3576.000000	99.919478
3575.000000	99.933517
3574.000000	99.949620
3573.000000	99.963337
3572.000000	99.969892
3571.000000	99.968013
3570.000000	99.960792
3569.000000	99.954455
3568.000000	99.955119
3567.000000	99.964392
3566.000000	99.977588
3565.000000	99.988144
3564.000000	99.993552
3563.000000	99.995990
3562.000000	99.999010
3561.000000	100.004263
3560.000000	100.010556
3559.000000	100.015492
3558.000000	100.017863
3557.000000	100.018770
3556.000000	100.020789
3555.000000	100.026036
3554.000000	100.034535
3553.000000	100.043925
3552.000000	100.050918
3551.000000	100.053747
3550.000000	100.053303
3549.000000	100.052194
3548.000000	100.052669
3547.000000	100.055092
3546.000000	100.058173
3545.000000	100.060703
3544.000000	100.062943
3543.000000	100.066371
3542.000000	100.072524
3541.000000	100.082205
3540.000000	100.095203
3539.000000	100.110159
3538.000000	100.124690
3537.000000	100.136347
3536.000000	100.144487
3535.000000	100.151156
3534.000000	100.159466
3533.000000	100.170631
3532.000000	100.182701
3531.000000	100.192397
3530.000000	100.198518
3529.000000	100.203525
3528.000000	100.211501
3527.000000	100.224393
3526.000000	100.240325
3525.000000	100.254949
3524.000000	100.264327
3523.000000	100.267451
3522.000000	100.267323
3521.000000	100.269867
3520.000000	100.280007
3519.000000	100.297469
3518.000000	100.315841
3517.000000	100.327403
3516.000000	100.330316
3515.000000	100.330645
3514.000000	100.336562
3513.000000	100.349869
3512.000000	100.364211
3511.000000	100.371448
3510.000000	100.369479
3509.000000	100.363483
3508.000000	100.360680
3507.000000	100.364842
3506.000000	100.375271
3505.000000	100.388390
3504.000000	100.400079
3503.000000	100.408677
3502.000000	100.416533
3501.000000	100.427732
3500.000000	100.444028
3499.000000	100.463823
3498.000000	100.484874
3497.000000	100.506720
3496.000000	100.529840
3495.000000	100.553639
3494.000000	100.576523
3493.000000	100.597236
3492.000000	100.614701
3491.000000	100.626979
3490.000000	100.632128
3489.000000	100.630548
3488.000000	100.625876
3487.000000	100.623051
3486.000000	100.624920
3485.000000	100.630531
3484.000000	100.636538
3483.000000	100.640615
3482.000000	100.643931
3481.000000	100.649483
3480.000000	100.657681
3479.000000	100.665006
3478.000000	100.667931
3477.000000	100.666756
3476.000000	100.664264
3475.000000	100.661771
3474.000000	100.658863
3473.000000	100.656501
3472.000000	100.657401
3471.000000	100.662653
3470.000000	100.669798
3469.000000	100.675401
3468.000000	100.678266
3467.000000	100.679446
3466.000000	100.680915
3465.000000	100.685529
3464.000000	100.696308
3463.000000	100.713295
3462.000000	100.731503
3461.000000	100.744282
3460.000000	100.749469
3459.000000	100.751094
3458.000000	100.754923
3457.000000	100.763157
3456.000000	100.773483
3455.000000	100.782040
3454.000000	100.787218
3453.000000	100.791451
3452.000000	100.799339
3451.000000	100.813054
3450.000000	100.829544
3449.000000	100.842942
3448.000000	100.850390
3447.000000	100.854457
3446.000000	100.859725
3445.000000	100.867782
3444.000000	100.876730
3443.000000	100.884523
3442.000000	100.891213
3441.000000	100.898054
3440.000000	100.906042
3439.000000	100.915932
3438.000000	100.928215
3437.000000	100.942062
3436.000000	100.955103
3435.000000	100.965331
3434.000000	100.972931
3433.000000	100.979588
3432.000000	100.986494
3431.000000	100.993822
3430.000000	101.002011
3429.000000	101.012196
3428.000000	101.024847
3427.000000	101.038705
3426.000000	101.051803
3425.000000	101.063513
3424.000000	101.074812
3423.000000	101.086495
3422.000000	101.097844
3421.000000	101.107671
3420.000000	101.116101
3419.000000	101.124375
3418.000000	101.133256
3417.000000	101.142655
3416.000000	101.152473
3415.000000	101.162593
3414.000000	101.172016
3413.000000	101.179076
3412.000000	101.183093
3411.000000	101.185437
3410.000000	101.188598
3409.000000	101.194161
3408.000000	101.201537
3407.000000	101.208673
3406.000000	101.214622
3405.000000	101.221575
3404.000000	101.233424
3403.000000	101.251427
3402.000000	101.271464
3401.000000	101.286561
3400.000000	101.292305
3399.000000	101.289695
3398.000000	101.284426
3397.000000	101.284346
3396.000000	101.295836
3395.000000	101.319085
3394.000000	101.345573
3393.000000	101.363479
3392.000000	101.368900
3391.000000	101.370280
3390.000000	101.379385
3389.000000	101.398464
3388.000000	101.419078
3387.000000	101.432980
3386.000000	101.440625
3385.000000	101.448251
3384.000000	101.459538
3383.000000	101.472509
3382.000000	101.483156
3381.000000	101.489113
3380.000000	101.490015
3379.000000	101.486864
3378.000000	101.481858
3377.000000	101.477573
3376.000000	101.475277
3375.000000	101.474143
3374.000000	101.472141
3373.000000	101.467461
3372.000000	101.459450
3371.000000	101.448660
3370.000000	101.436005
3369.000000	101.422006
3368.000000	101.407548
3367.000000	101.395094
3366.000000	101.387342
3365.000000	101.383871
3364.000000	101.381019
3363.000000	101.376686
3362.000000	101.373540
3361.000000	101.375079
3360.000000	101.379953
3359.000000	101.383512
3358.000000	101.384891
3357.000000	101.388857
3356.000000	101.399387
3355.000000	101.414640
3354.000000	101.429975
3353.000000	101.443045
3352.000000	101.453626
3351.000000	101.461087
3350.000000	101.465501
3349.000000	101.469897
3348.000000	101.477214
3347.000000	101.484704
3346.000000	101.485398
3345.000000	101.476678
3344.000000	101.464755
3343.000000	101.458875
3342.000000	101.462196
3341.000000	101.470295
3340.000000	101.477264
3339.000000	101.480972
3338.000000	101.482403
3337.000000	101.482711
3336.000000	101.482342
3335.000000	101.481719
3334.000000	101.481354
3333.000000	101.481175
3332.000000	101.480500
3331.000000	101.479108
3330.000000	101.477657
3329.000000	101.476318
3328.000000	101.473386
3327.000000	101.466462
3326.000000	101.455644
3325.000000	101.444760
3324.000000	101.438226
3323.000000	101.436469
3322.000000	101.435337
3321.000000	101.430299
3320.000000	101.420689
3319.000000	101.409766
3318.000000	101.401465
3317.000000	101.397648
3316.000000	101.397536
3315.000000	101.398430
3314.000000	101.397280
3313.000000	101.393267
3312.000000	101.389560
3311.000000	101.391283
3310.000000	101.400434
3309.000000	101.413012
3308.000000	101.422118
3307.000000	101.424243
3306.000000	101.421644
3305.000000	101.418786
3304.000000	101.417427
3303.000000	101.415421
3302.000000	101.409615
3301.000000	101.399401
3300.000000	101.388125
3299.000000	101.381530
3298.000000	101.383646
3297.000000	101.392705
3296.000000	101.400852
3295.000000	101.399824
3294.000000	101.387884
3293.000000	101.371302
3292.000000	101.358867
3291.000000	101.354133
3290.000000	101.353500
3289.000000	101.351055
3288.000000	101.344347
3287.000000	101.335733
3286.000000	101.329363
3285.000000	101.327398
3284.000000	101.328375
3283.000000	101.328206
3282.000000	101.322920
3281.000000	101.311393
3280.000000	101.295961
3279.000000	101.280028
3278.000000	101.264951
3277.000000	101.249776
3276.000000	101.234243
3275.000000	101.220958
3274.000000	101.213003
3273.000000	101.209540
3272.000000	101.205305
3271.000000	101.195360
3270.000000	101.179489
3269.000000	101.161274
3268.000000	101.143901
3267.000000	101.128233
3266.000000	101.114435
3265.000000	101.103329
3264.000000	101.095116
3263.000000	101.088363
3262.000000	101.081895
3261.000000	101.076954
3260.000000	101.075710
3259.000000	101.077378
3258.000000	101.077282
3257.000000	101.070951
3256.000000	101.058663
3255.000000	101.044900
3254.000000	101.033133
3253.000000	101.022141
3252.000000	101.008353
3251.000000	100.991201
3250.000000	100.974823
3249.000000	100.964112
3248.000000	100.959874
3247.000000	100.958371
3246.000000	100.955132
3245.000000	100.948533
3244.000000	100.940173
3243.000000	100.933084
3242.000000	100.929565
3241.000000	100.928969
3240.000000	100.926803
3239.000000	100.917692
3238.000000	100.901043
3237.000000	100.883091
3236.000000	100.870822
3235.000000	100.863824
3234.000000	100.854583
3233.000000	100.837340
3232.000000	100.814356
3231.000000	100.792771
3230.000000	100.776296
3229.000000	100.762491
3228.000000	100.747586
3227.000000	100.731032
3226.000000	100.714793
3225.000000	100.700471
3224.000000	100.688722
3223.000000	100.680138
3222.000000	100.674581
3221.000000	100.669898
3220.000000	100.663406
3219.000000	100.655160
3218.000000	100.648122
3217.000000	100.644298
3216.000000	100.641746
3215.000000	100.636322
3214.000000	100.625972
3213.000000	100.612289
3212.000000	100.598377
3211.000000	100.586118
3210.000000	100.575552
3209.000000	100.565877
3208.000000	100.556315
3207.000000	100.546388
3206.000000	100.535993
3205.000000	100.525298
3204.000000	100.514404
3203.000000	100.503184
3202.000000	100.491655
3201.000000	100.480293
3200.000000	100.469719
3199.000000	100.460008
3198.000000	100.450558
3197.000000	100.440704
3196.000000	100.430305
3195.000000	100.419621
3194.000000	100.408921
3193.000000	100.398386
3192.000000	100.388060
3191.000000	100.377907
3190.000000	100.367767
3189.000000	100.357389
3188.000000	100.346568
3187.000000	100.335368
3186.000000	100.324187
3185.000000	100.313417
3184.000000	100.303062
3183.000000	100.292661
3182.000000	100.281739
3181.000000	100.270407
3180.000000	100.259492
3179.000000	100.249857
3178.000000	100.241299
3177.000000	100.232373
3176.000000	100.221941
3175.000000	100.210770
3174.000000	100.200831
3173.000000	100.192634
3172.000000	100.184083
3171.000000	100.172735
3170.000000	100.158720
3169.000000	100.144664
3168.000000	100.133099
3167.000000	100.124759
3166.000000	100.118879
3165.000000	100.113520
3164.000000	100.105453
3163.000000	100.091737
3162.000000	100.072978
3161.000000	100.054402
3160.000000	100.041473
3159.000000	100.033900
3158.000000	100.025142
3157.000000	100.008650
3156.000000	99.984330
3155.000000	99.958642
3154.000000	99.938583
3153.000000	99.926179
3152.000000	99.918288
3151.000000	99.910601
3150.000000	99.901373
3149.000000	99.891257
3148.000000	99.881189
3147.000000	99.871875
3146.000000	99.864599
3145.000000	99.860707
3144.000000	99.859662
3143.000000	99.858480
3142.000000	99.854131
3141.000000	99.846137
3140.000000	99.835833
3139.000000	99.824031
3138.000000	99.811265
3137.000000	99.800170
3136.000000	99.795129
3135.000000	99.798054
3134.000000	99.805383
3133.000000	99.810449
3132.000000	99.809165
3131.000000	99.802439
3130.000000	99.793667
3129.000000	99.785641
3128.000000	99.780042
3127.000000	99.777792
3126.000000	99.777933
3125.000000	99.776931
3124.000000	99.771494
3123.000000	99.762646
3122.000000	99.755251
3121.000000	99.752336
3120.000000	99.751340
3119.000000	99.747604
3118.000000	99.740339
3117.000000	99.732685
3116.000000	99.726221
3115.000000	99.718578
3114.000000	99.707917
3113.000000	99.696863
3112.000000	99.689383
3111.000000	99.685550
3110.000000	99.682138
3109.000000	99.677725
3108.000000	99.674388
3107.000000	99.673793
3106.000000	99.674251
3105.000000	99.673084
3104.000000	99.670249
3103.000000	99.667728
3102.000000	99.666112
3101.000000	99.663613
3100.000000	99.658751
3099.000000	99.652755
3098.000000	99.648525
3097.000000	99.647691
3096.000000	99.649184
3095.000000	99.650398
3094.000000	99.649432
3093.000000	99.646311
3092.000000	99.642291
3091.000000	99.638235
3090.000000	99.633863
3089.000000	99.628502
3088.000000	99.622093
3087.000000	99.615387
3086.000000	99.609793
3085.000000	99.607390
3084.000000	99.609957
3083.000000	99.616501
3082.000000	99.622129
3081.000000	99.621558
3080.000000	99.614270
3079.000000	99.604771
3078.000000	99.596912
3077.000000	99.589418
3076.000000	99.578935
3075.000000	99.565812
3074.000000	99.554116
3073.000000	99.546616
3072.000000	99.542778
3071.000000	99.542072
3070.000000	99.545646
3069.000000	99.552400
3068.000000	99.556132
3067.000000	99.550748
3066.000000	99.537851
3065.000000	99.525372
3064.000000	99.517420
3063.000000	99.509118
3062.000000	99.494308
3061.000000	99.475538
3060.000000	99.462522
3059.000000	99.461145
3058.000000	99.467439
3057.000000	99.472610
3056.000000	99.470909
3055.000000	99.461248
3054.000000	99.445082
3053.000000	99.426724
3052.000000	99.413628
3051.000000	99.411130
3050.000000	99.415754
3049.000000	99.416792
3048.000000	99.407056
3047.000000	99.390923
3046.000000	99.379980
3045.000000	99.381802
3044.000000	99.393878
3043.000000	99.406944
3042.000000	99.413053
3041.000000	99.411250
3040.000000	99.406913
3039.000000	99.406249
3038.000000	99.411532
3037.000000	99.421240
3036.000000	99.433479
3035.000000	99.447534
3034.000000	99.462498
3033.000000	99.476759
3032.000000	99.489406
3031.000000	99.500138
3030.000000	99.507680
3029.000000	99.511610
3028.000000	99.516561
3027.000000	99.530196
3026.000000	99.553930
3025.000000	99.579187
3024.000000	99.597471
3023.000000	99.611893
3022.000000	99.632879
3021.000000	99.664259
3020.000000	99.700361
3019.000000	99.736372
3018.000000	99.772911
3017.000000	99.806900
3016.000000	99.827078
3015.000000	99.827601
3014.000000	99.821353
3013.000000	99.829521
3012.000000	99.858241
3011.000000	99.894260
3010.000000	99.924167
3009.000000	99.948982
3008.000000	99.975787
3007.000000	100.003837
3006.000000	100.027122
3005.000000	100.046740
3004.000000	100.071745
3003.000000	100.106955
3002.000000	100.146414
3001.000000	100.181088
3000.000000	100.208728
2999.000000	100.233184
2998.000000	100.257913
2997.000000	100.284600
2996.000000	100.316614
2995.000000	100.358671
2994.000000	100.410856
2993.000000	100.465329
2992.000000	100.511753
2991.000000	100.546724
2990.000000	100.577554
2989.000000	100.616802
2988.000000	100.672516
2987.000000	100.742993
2986.000000	100.820436
2985.000000	100.899457
2984.000000	100.980657
2983.000000	101.065414
2982.000000	101.149996
2981.000000	101.228392
2980.000000	101.299955
2979.000000	101.368736
2978.000000	101.433553
2977.000000	101.484138
2976.000000	101.511601
2975.000000	101.519453
2974.000000	101.518694
2973.000000	101.514004
2972.000000	101.500838
2971.000000	101.475341
2970.000000	101.439292
2969.000000	101.393065
2968.000000	101.331046
2967.000000	101.249767
2966.000000	101.157146
2965.000000	101.067808
2964.000000	100.990980
2963.000000	100.927679
2962.000000	100.876990
2961.000000	100.838117
2960.000000	100.806221
2959.000000	100.772900
2958.000000	100.734670
2957.000000	100.698557
2956.000000	100.676627
2955.000000	100.675557
2954.000000	100.691168
2953.000000	100.711245
2952.000000	100.723739
2951.000000	100.725114
2950.000000	100.721976
2949.000000	100.723947
2948.000000	100.735194
2947.000000	100.752974
2946.000000	100.771418
2945.000000	100.783530
2944.000000	100.782405
2943.000000	100.766855
2942.000000	100.746496
2941.000000	100.735066
2940.000000	100.736429
2939.000000	100.741743
2938.000000	100.743321
2937.000000	100.745465
2936.000000	100.756519
2935.000000	100.774610
2934.000000	100.788835
2933.000000	100.793726
2932.000000	100.796215
2931.000000	100.806593
2930.000000	100.826902
2929.000000	100.849374
2928.000000	100.862798
2927.000000	100.859643
2926.000000	100.840773
2925.000000	100.816769
2924.000000	100.802226
2923.000000	100.804026
2922.000000	100.814624
2921.000000	100.818572
2920.000000	100.807052
2919.000000	100.785302
2918.000000	100.766522
2917.000000	100.759756
2916.000000	100.764371
2915.000000	100.773784
2914.000000	100.782161
2913.000000	100.787866
2912.000000	100.792856
2911.000000	100.800235
2910.000000	100.811706
2909.000000	100.825920
2908.000000	100.839314
2907.000000	100.849465
2906.000000	100.857391
2905.000000	100.865766
2904.000000	100.874783
2903.000000	100.880426
2902.000000	100.877555
2901.000000	100.865252
2900.000000	100.849566
2899.000000	100.840702
2898.000000	100.845767
2897.000000	100.862404
2896.000000	100.879365
2895.000000	100.885506
2894.000000	100.879020
2893.000000	100.867926
2892.000000	100.862205
2891.000000	100.866112
2890.000000	100.876953
2889.000000	100.888120
2888.000000	100.892956
2887.000000	100.889114
2886.000000	100.881330
2885.000000	100.878279
2884.000000	100.884239
2883.000000	100.894817
2882.000000	100.902467
2881.000000	100.904443
2880.000000	100.902684
2879.000000	100.897328
2878.000000	100.884408
2877.000000	100.861430
2876.000000	100.832661
2875.000000	100.807282
2874.000000	100.793326
2873.000000	100.792763
2872.000000	100.799908
2871.000000	100.803593
2870.000000	100.793607
2869.000000	100.768006
2868.000000	100.734901
2867.000000	100.706453
2866.000000	100.689466
2865.000000	100.680950
2864.000000	100.671264
2863.000000	100.651494
2862.000000	100.619763
2861.000000	100.582752
2860.000000	100.551110
2859.000000	100.531697
2858.000000	100.522839
2857.000000	100.516253
2856.000000	100.503196
2855.000000	100.479780
2854.000000	100.448271
2853.000000	100.415054
2852.000000	100.387281
2851.000000	100.369262
2850.000000	100.360357
2849.000000	100.355231
2848.000000	100.346706
2847.000000	100.330155
2846.000000	100.306225
2845.000000	100.279871
2844.000000	100.256618
2843.000000	100.239055
2842.000000	100.226097
2841.000000	100.214532
2840.000000	100.200999
2839.000000	100.183458
2838.000000	100.162271
2837.000000	100.140673
2836.000000	100.123239
2835.000000	100.112511
2834.000000	100.106614
2833.000000	100.100490
2832.000000	100.090122
2831.000000	100.075432
2830.000000	100.059362
2829.000000	100.044885
2828.000000	100.033191
2827.000000	100.023628
2826.000000	100.013964
2825.000000	100.001050
2824.000000	99.982865
2823.000000	99.960922
2822.000000	99.939703
2821.000000	99.922553
2820.000000	99.908552
2819.000000	99.894258
2818.000000	99.878437
2817.000000	99.863991
2816.000000	99.854658
2815.000000	99.850465
2814.000000	99.846967
2813.000000	99.838953
2812.000000	99.825727
2811.000000	99.813010
2810.000000	99.808537
2809.000000	99.814711
2808.000000	99.825414
2807.000000	99.830710
2806.000000	99.825424
2805.000000	99.812194
2804.000000	99.797675
2803.000000	99.787002
2802.000000	99.781045
2801.000000	99.776708
2800.000000	99.768942
2799.000000	99.754699
2798.000000	99.736732
2797.000000	99.722605
2796.000000	99.718281
2795.000000	99.723382
2794.000000	99.732542
2793.000000	99.739930
2792.000000	99.742119
2791.000000	99.738555
2790.000000	99.731861
2789.000000	99.727046
2788.000000	99.727654
2787.000000	99.732267
2786.000000	99.736212
2785.000000	99.736856
2784.000000	99.735721
2783.000000	99.735241
2782.000000	99.735467
2781.000000	99.734799
2780.000000	99.732291
2779.000000	99.727818
2778.000000	99.721060
2777.000000	99.711847
2776.000000	99.701190
2775.000000	99.691031
2774.000000	99.683001
2773.000000	99.677936
2772.000000	99.676170
2771.000000	99.677399
2770.000000	99.680326
2769.000000	99.683382
2768.000000	99.686189
2767.000000	99.689595
2766.000000	99.693785
2765.000000	99.696921
2764.000000	99.696432
2763.000000	99.691921
2762.000000	99.686361
2761.000000	99.683695
2760.000000	99.685145
2759.000000	99.687942
2758.000000	99.687741
2757.000000	99.682345
2756.000000	99.673383
2755.000000	99.664895
2754.000000	99.660157
2753.000000	99.659383
2752.000000	99.659689
2751.000000	99.657462
2750.000000	99.651496
2749.000000	99.644303
2748.000000	99.640306
2747.000000	99.642563
2746.000000	99.650886
2745.000000	99.661869
2744.000000	99.670738
2743.000000	99.674121
2742.000000	99.671864
2741.000000	99.666888
2740.000000	99.662926
2739.000000	99.662040
2738.000000	99.663658
2737.000000	99.665115
2736.000000	99.663297
2735.000000	99.656879
2734.000000	99.647655
2733.000000	99.639182
2732.000000	99.633473
2731.000000	99.629570
2730.000000	99.625689
2729.000000	99.621548
2728.000000	99.617625
2727.000000	99.613136
2726.000000	99.606544
2725.000000	99.598112
2724.000000	99.590534
2723.000000	99.586456
2722.000000	99.586333
2721.000000	99.588705
2720.000000	99.591677
2719.000000	99.593742
2718.000000	99.594058
2717.000000	99.592823
2716.000000	99.590946
2715.000000	99.588830
2714.000000	99.585911
2713.000000	99.581669
2712.000000	99.576614
2711.000000	99.571904
2710.000000	99.568310
2709.000000	99.565815
2708.000000	99.563785
2707.000000	99.561267
2706.000000	99.557652
2705.000000	99.553565
2704.000000	99.550814
2703.000000	99.550690
2702.000000	99.552358
2701.000000	99.553171
2700.000000	99.551039
2699.000000	99.546200
2698.000000	99.540968
2697.000000	99.537902
2696.000000	99.537880
2695.000000	99.539589
2694.000000	99.540589
2693.000000	99.539378
2692.000000	99.536435
2691.000000	99.533388
2690.000000	99.531190
2689.000000	99.529378
2688.000000	99.526989
2687.000000	99.523484
2686.000000	99.518652
2685.000000	99.512603
2684.000000	99.506630
2683.000000	99.503300
2682.000000	99.504252
2681.000000	99.507739
2680.000000	99.509229
2679.000000	99.505597
2678.000000	99.498349
2677.000000	99.492265
2676.000000	99.490880
2675.000000	99.493858
2674.000000	99.498196
2673.000000	99.501322
2672.000000	99.503043
2671.000000	99.505235
2670.000000	99.510160
2669.000000	99.518284
2668.000000	99.527025
2667.000000	99.532319
2666.000000	99.532093
2665.000000	99.527814
2664.000000	99.522274
2663.000000	99.516408
2662.000000	99.509355
2661.000000	99.500959
2660.000000	99.492520
2659.000000	99.485015
2658.000000	99.478443
2657.000000	99.473649
2656.000000	99.472966
2655.000000	99.477522
2654.000000	99.484438
2653.000000	99.488175
2652.000000	99.485410
2651.000000	99.477928
2650.000000	99.471037
2649.000000	99.469241
2648.000000	99.472949
2647.000000	99.478542
2646.000000	99.481551
2645.000000	99.480363
2644.000000	99.476721
2643.000000	99.472733
2642.000000	99.468466
2641.000000	99.463394
2640.000000	99.459064
2639.000000	99.458116
2638.000000	99.460272
2637.000000	99.460998
2636.000000	99.455568
2635.000000	99.444255
2634.000000	99.432907
2633.000000	99.428619
2632.000000	99.434931
2631.000000	99.450013
2630.000000	99.467735
2629.000000	99.481359
2628.000000	99.488063
2627.000000	99.490707
2626.000000	99.494526
2625.000000	99.501249
2624.000000	99.507146
2623.000000	99.507528
2622.000000	99.501968
2621.000000	99.494044
2620.000000	99.486894
2619.000000	99.480590
2618.000000	99.473872
2617.000000	99.466159
2616.000000	99.456689
2615.000000	99.443606
2614.000000	99.426262
2613.000000	99.407950
2612.000000	99.394176
2611.000000	99.387796
2610.000000	99.387371
2609.000000	99.390149
2608.000000	99.395149
2607.000000	99.402740
2606.000000	99.412532
2605.000000	99.422820
2604.000000	99.431252
2603.000000	99.435267
2602.000000	99.433023
2601.000000	99.425304
2600.000000	99.416317
2599.000000	99.411321
2598.000000	99.412800
2597.000000	99.418911
2596.000000	99.425096
2595.000000	99.427415
2594.000000	99.425330
2593.000000	99.422034
2592.000000	99.421629
2591.000000	99.425109
2590.000000	99.429153
2589.000000	99.429380
2588.000000	99.424850
2587.000000	99.419140
2586.000000	99.417312
2585.000000	99.421867
2584.000000	99.431227
2583.000000	99.440897
2582.000000	99.446537
2581.000000	99.447095
2580.000000	99.445013
2579.000000	99.443640
2578.000000	99.444088
2577.000000	99.444909
2576.000000	99.444621
2575.000000	99.443625
2574.000000	99.443430
2573.000000	99.444646
2572.000000	99.446360
2571.000000	99.447288
2570.000000	99.447109
2569.000000	99.446696
2568.000000	99.447213
2567.000000	99.448907
2566.000000	99.450653
2565.000000	99.450907
2564.000000	99.449408
2563.000000	99.447800
2562.000000	99.448255
2561.000000	99.451670
2560.000000	99.457360
2559.000000	99.463947
2558.000000	99.470191
2557.000000	99.475470
2556.000000	99.480184
2555.000000	99.485479
2554.000000	99.491696
2553.000000	99.497100
2552.000000	99.499180
2551.000000	99.497459
2550.000000	99.494384
2549.000000	99.493015
2548.000000	99.494069
2547.000000	99.495667
2546.000000	99.495600
2545.000000	99.493635
2544.000000	99.491806
2543.000000	99.492591
2542.000000	99.496484
2541.000000	99.501081
2540.000000	99.502992
2539.000000	99.500945
2538.000000	99.496862
2537.000000	99.494077
2536.000000	99.494368
2535.000000	99.497116
2534.000000	99.500517
2533.000000	99.503150
2532.000000	99.504479
2531.000000	99.504594
2530.000000	99.504167
2529.000000	99.504310
2528.000000	99.505660
2527.000000	99.507522
2526.000000	99.508432
2525.000000	99.507662
2524.000000	99.505794
2523.000000	99.503901
2522.000000	99.502727
2521.000000	99.502601
2520.000000	99.503375
2519.000000	99.504296
2518.000000	99.504634
2517.000000	99.504531
2516.000000	99.504315
2515.000000	99.503033
2514.000000	99.499278
2513.000000	99.494208
2512.000000	99.492234
2511.000000	99.496873
2510.000000	99.506420
2509.000000	99.514934
2508.000000	99.517942
2507.000000	99.515897
2506.000000	99.512414
2505.000000	99.510667
2504.000000	99.511421
2503.000000	99.512977
2502.000000	99.512060
2501.000000	99.505861
2500.000000	99.494382
2499.000000	99.480669
2498.000000	99.468109
2497.000000	99.458230
2496.000000	99.451371
2495.000000	99.447924
2494.000000	99.448014
2493.000000	99.450499
2492.000000	99.453259
2491.000000	99.454355
2490.000000	99.452541
2489.000000	99.447760
2488.000000	99.442210
2487.000000	99.439980
2486.000000	99.444103
2485.000000	99.453942
2484.000000	99.465872
2483.000000	99.476043
2482.000000	99.482052
2481.000000	99.483304
2480.000000	99.481763
2479.000000	99.481628
2478.000000	99.485483
2477.000000	99.490238
2476.000000	99.489514
2475.000000	99.481536
2474.000000	99.472840
2473.000000	99.472042
2472.000000	99.480490
2471.000000	99.491165
2470.000000	99.496572
2469.000000	99.496035
2468.000000	99.494494
2467.000000	99.496116
2466.000000	99.500489
2465.000000	99.504187
2464.000000	99.504317
2463.000000	99.500613
2462.000000	99.495566
2461.000000	99.492965
2460.000000	99.495088
2459.000000	99.500258
2458.000000	99.503173
2457.000000	99.498524
2456.000000	99.485084
2455.000000	99.467027
2454.000000	99.451198
2453.000000	99.442087
2452.000000	99.438980
2451.000000	99.437765
2450.000000	99.435791
2449.000000	99.434604
2448.000000	99.437582
2447.000000	99.445714
2446.000000	99.456464
2445.000000	99.466192
2444.000000	99.472726
2443.000000	99.476127
2442.000000	99.478811
2441.000000	99.484871
2440.000000	99.496733
2439.000000	99.510988
2438.000000	99.519624
2437.000000	99.518095
2436.000000	99.511339
2435.000000	99.509433
2434.000000	99.516885
2433.000000	99.528457
2432.000000	99.535888
2431.000000	99.536250
2430.000000	99.532657
2429.000000	99.529748
2428.000000	99.530540
2427.000000	99.535737
2426.000000	99.543067
2425.000000	99.547760
2424.000000	99.546401
2423.000000	99.540535
2422.000000	99.534473
2421.000000	99.529602
2420.000000	99.523156
2419.000000	99.513151
2418.000000	99.502108
2417.000000	99.494221
2416.000000	99.490142
2415.000000	99.486046
2414.000000	99.477116
2413.000000	99.461365
2412.000000	99.441810
2411.000000	99.426307
2410.000000	99.422228
2409.000000	99.429829
2408.000000	99.441072
2407.000000	99.447429
2406.000000	99.449372
2405.000000	99.454692
2404.000000	99.468258
2403.000000	99.486133
2402.000000	99.501258
2401.000000	99.511287
2400.000000	99.518662
2399.000000	99.526063
2398.000000	99.534479
2397.000000	99.544033
2396.000000	99.554033
2395.000000	99.563275
2394.000000	99.572224
2393.000000	99.584067
2392.000000	99.601263
2391.000000	99.621171
2390.000000	99.637672
2389.000000	99.647595
2388.000000	99.653763
2387.000000	99.661422
2386.000000	99.673459
2385.000000	99.689411
2384.000000	99.706915
2383.000000	99.722901
2382.000000	99.735090
2381.000000	99.744227
2380.000000	99.754235
2379.000000	99.768476
2378.000000	99.786094
2377.000000	99.803244
2376.000000	99.817399
2375.000000	99.828296
2374.000000	99.835659
2373.000000	99.839971
2372.000000	99.845068
2371.000000	99.855979
2370.000000	99.871321
2369.000000	99.882481
2368.000000	99.884306
2367.000000	99.882754
2366.000000	99.887469
2365.000000	99.898749
2364.000000	99.908783
2363.000000	99.915041
2362.000000	99.923973
2361.000000	99.940961
2360.000000	99.963045
2359.000000	99.981969
2358.000000	99.993332
2357.000000	99.997454
2356.000000	99.997554
2355.000000	100.000178
2354.000000	100.008938
2353.000000	100.020731
2352.000000	100.028421
2351.000000	100.031403
2350.000000	100.034978
2349.000000	100.040826
2348.000000	100.047642
2347.000000	100.052856
2346.000000	100.056358
2345.000000	100.059835
2344.000000	100.062740
2343.000000	100.065408
2342.000000	100.067638
2341.000000	100.073264
2340.000000	100.081205
2339.000000	100.085512
2338.000000	100.083491
2337.000000	100.078481
2336.000000	100.077101
2335.000000	100.081595
2334.000000	100.091128
2333.000000	100.099183
2332.000000	100.097496
2331.000000	100.079281
2330.000000	100.052060
2329.000000	100.030048
2328.000000	100.026126
2327.000000	100.033317
2326.000000	100.037425
2325.000000	100.028880
2324.000000	100.012633
2323.000000	99.999925
2322.000000	99.993526
2321.000000	99.988372
2320.000000	99.977913
2319.000000	99.960396
2318.000000	99.938304
2317.000000	99.915370
2316.000000	99.899052
2315.000000	99.892464
2314.000000	99.893901
2313.000000	99.891875
2312.000000	99.880779
2311.000000	99.862177
2310.000000	99.846712
2309.000000	99.837750
2308.000000	99.834044
2307.000000	99.829283
2306.000000	99.820969
2305.000000	99.806145
2304.000000	99.785716
2303.000000	99.762574
2302.000000	99.742989
2301.000000	99.727366
2300.000000	99.711535
2299.000000	99.688534
2298.000000	99.658818
2297.000000	99.626753
2296.000000	99.599319
2295.000000	99.579103
2294.000000	99.566229
2293.000000	99.555976
2292.000000	99.543616
2291.000000	99.528703
2290.000000	99.517447
2289.000000	99.515080
2288.000000	99.518269
2287.000000	99.518577
2286.000000	99.512319
2285.000000	99.502979
2284.000000	99.492965
2283.000000	99.481226
2282.000000	99.467725
2281.000000	99.456481
2280.000000	99.448993
2279.000000	99.439913
2278.000000	99.423574
2277.000000	99.403778
2276.000000	99.390698
2275.000000	99.389122
2274.000000	99.395353
2273.000000	99.404321
2272.000000	99.415642
2271.000000	99.429836
2270.000000	99.444410
2269.000000	99.456353
2268.000000	99.466428
2267.000000	99.477056
2266.000000	99.487590
2265.000000	99.495097
2264.000000	99.499433
2263.000000	99.503442
2262.000000	99.508034
2261.000000	99.510040
2260.000000	99.506585
2259.000000	99.499969
2258.000000	99.495676
2257.000000	99.496834
2256.000000	99.500784
2255.000000	99.501566
2254.000000	99.495550
2253.000000	99.485687
2252.000000	99.480423
2251.000000	99.486351
2250.000000	99.501806
2249.000000	99.517742
2248.000000	99.526187
2247.000000	99.526067
2246.000000	99.520963
2245.000000	99.513981
2244.000000	99.506994
2243.000000	99.502364
2242.000000	99.501324
2241.000000	99.501096
2240.000000	99.497468
2239.000000	99.490963
2238.000000	99.487064
2237.000000	99.488963
2236.000000	99.493130
2235.000000	99.493977
2234.000000	99.490948
2233.000000	99.488274
2232.000000	99.488910
2231.000000	99.491646
2230.000000	99.493801
2229.000000	99.494473
2228.000000	99.494387
2227.000000	99.494294
2226.000000	99.495083
2225.000000	99.498267
2224.000000	99.504357
2223.000000	99.510807
2222.000000	99.513458
2221.000000	99.510774
2220.000000	99.505641
2219.000000	99.502792
2218.000000	99.504363
2217.000000	99.508553
2216.000000	99.511658
2215.000000	99.511044
2214.000000	99.506852
2213.000000	99.501953
2212.000000	99.499866
2211.000000	99.501793
2210.000000	99.505673
2209.000000	99.508398
2208.000000	99.508660
2207.000000	99.507179
2206.000000	99.504954
2205.000000	99.502616
2204.000000	99.500877
2203.000000	99.499787
2202.000000	99.497776
2201.000000	99.493344
2200.000000	99.487804
2199.000000	99.484088
2198.000000	99.482165
2197.000000	99.478393
2196.000000	99.471282
2195.000000	99.465376
2194.000000	99.466084
2193.000000	99.472151
2192.000000	99.476733
2191.000000	99.475524
2190.000000	99.470237
2189.000000	99.463794
2188.000000	99.456819
2187.000000	99.451002
2186.000000	99.451131
2185.000000	99.459239
2184.000000	99.469103
2183.000000	99.471440
2182.000000	99.464754
2181.000000	99.456761
2180.000000	99.454652
2179.000000	99.458219
2178.000000	99.463753
2177.000000	99.470645
2176.000000	99.480877
2175.000000	99.494098
2174.000000	99.507268
2173.000000	99.518798
2172.000000	99.529858
2171.000000	99.541051
2170.000000	99.549914
2169.000000	99.553296
2168.000000	99.551658
2167.000000	99.549631
2166.000000	99.551557
2165.000000	99.556645
2164.000000	99.559469
2163.000000	99.555922
2162.000000	99.547814
2161.000000	99.540496
2160.000000	99.536420
2159.000000	99.533327
2158.000000	99.529020
2157.000000	99.524829
2156.000000	99.522425
2155.000000	99.519835
2154.000000	99.514197
2153.000000	99.507450
2152.000000	99.505095
2151.000000	99.508525
2150.000000	99.512407
2149.000000	99.512078
2148.000000	99.510772
2147.000000	99.515646
2146.000000	99.527877
2145.000000	99.540387
2144.000000	99.545917
2143.000000	99.544236
2142.000000	99.539554
2141.000000	99.534189
2140.000000	99.528416
2139.000000	99.524863
2138.000000	99.528002
2137.000000	99.537932
2136.000000	99.548091
2135.000000	99.552261
2134.000000	99.552090
2133.000000	99.554764
2132.000000	99.564450
2131.000000	99.578816
2130.000000	99.593184
2129.000000	99.604865
2128.000000	99.612945
2127.000000	99.617045
2126.000000	99.618364
2125.000000	99.620257
2124.000000	99.625592
2123.000000	99.633827
2122.000000	99.641617
2121.000000	99.645663
2120.000000	99.644726
2119.000000	99.639997
2118.000000	99.633965
2117.000000	99.627970
2116.000000	99.620427
2115.000000	99.609073
2114.000000	99.595616
2113.000000	99.585845
2112.000000	99.583332
2111.000000	99.584830
2110.000000	99.583798
2109.000000	99.577467
2108.000000	99.568676
2107.000000	99.561853
2106.000000	99.559473
2105.000000	99.561666
2104.000000	99.566356
2103.000000	99.569461
2102.000000	99.567651
2101.000000	99.562026
2100.000000	99.557565
2099.000000	99.558008
2098.000000	99.562535
2097.000000	99.567747
2096.000000	99.571181
2095.000000	99.571856
2094.000000	99.569080
2093.000000	99.562928
2092.000000	99.555657
2091.000000	99.550937
2090.000000	99.551018
2089.000000	99.555225
2088.000000	99.561151
2087.000000	99.566713
2086.000000	99.570865
2085.000000	99.573109
2084.000000	99.573296
2083.000000	99.572135
2082.000000	99.571348
2081.000000	99.572502
2080.000000	99.575243
2079.000000	99.577041
2078.000000	99.575358
2077.000000	99.570252
2076.000000	99.564646
2075.000000	99.561714
2074.000000	99.561910
2073.000000	99.562684
2072.000000	99.561055
2071.000000	99.556442
2070.000000	99.551065
2069.000000	99.547710
2068.000000	99.547155
2067.000000	99.547768
2066.000000	99.547303
2065.000000	99.545221
2064.000000	99.543483
2063.000000	99.545111
2062.000000	99.551845
2061.000000	99.562478
2060.000000	99.572813
2059.000000	99.578213
2058.000000	99.577270
2057.000000	99.573328
2056.000000	99.572033
2055.000000	99.576269
2054.000000	99.583507
2053.000000	99.588279
2052.000000	99.587357
2051.000000	99.582381
2050.000000	99.577897
2049.000000	99.577341
2048.000000	99.580837
2047.000000	99.585887
2046.000000	99.589332
2045.000000	99.588984
2044.000000	99.584572
2043.000000	99.578039
2042.000000	99.572376
2041.000000	99.569087
2040.000000	99.566771
2039.000000	99.563055
2038.000000	99.557810
2037.000000	99.553215
2036.000000	99.550272
2035.000000	99.546725
2034.000000	99.539768
2033.000000	99.530076
2032.000000	99.521550
2031.000000	99.517149
2030.000000	99.516253
2029.000000	99.516243
2028.000000	99.515555
2027.000000	99.514543
2026.000000	99.514463
2025.000000	99.515973
2024.000000	99.519042
2023.000000	99.524038
2022.000000	99.532469
2021.000000	99.545450
2020.000000	99.560836
2019.000000	99.573335
2018.000000	99.579229
2017.000000	99.580311
2016.000000	99.581361
2015.000000	99.584620
2014.000000	99.589420
2013.000000	99.595963
2012.000000	99.604994
2011.000000	99.612996
2010.000000	99.612593
2009.000000	99.600993
2008.000000	99.585406
2007.000000	99.576046
2006.000000	99.574694
2005.000000	99.573674
2004.000000	99.566039
2003.000000	99.552760
2002.000000	99.539375
2001.000000	99.529164
2000.000000	99.521351
1999.000000	99.514862
1998.000000	99.509537
1997.000000	99.503807
1996.000000	99.494073
1995.000000	99.478205
1994.000000	99.458716
1993.000000	99.441132
1992.000000	99.428666
1991.000000	99.419920
1990.000000	99.413661
1989.000000	99.413734
1988.000000	99.425343
1987.000000	99.446261
1986.000000	99.465487
1985.000000	99.474344
1984.000000	99.477024
1983.000000	99.485726
1982.000000	99.505958
1981.000000	99.530902
1980.000000	99.551072
1979.000000	99.565807
1978.000000	99.580161
1977.000000	99.594520
1976.000000	99.603907
1975.000000	99.607649
1974.000000	99.612442
1973.000000	99.622294
1972.000000	99.630595
1971.000000	99.627952
1970.000000	99.614864
1969.000000	99.601045
1968.000000	99.593191
1967.000000	99.589022
1966.000000	99.585204
1965.000000	99.584219
1964.000000	99.588456
1963.000000	99.592901
1962.000000	99.589956
1961.000000	99.579313
1960.000000	99.567524
1959.000000	99.558242
1958.000000	99.548844
1957.000000	99.537491
1956.000000	99.527007
1955.000000	99.518722
1954.000000	99.507511
1953.000000	99.487880
1952.000000	99.463231
1951.000000	99.443940
1950.000000	99.437483
1949.000000	99.442193
1948.000000	99.449473
1947.000000	99.451325
1946.000000	99.446958
1945.000000	99.443337
1944.000000	99.448614
1943.000000	99.464358
1942.000000	99.485377
1941.000000	99.507715
1940.000000	99.532981
1939.000000	99.561989
1938.000000	99.589616
1937.000000	99.610147
1936.000000	99.624312
1935.000000	99.636130
1934.000000	99.645408
1933.000000	99.649374
1932.000000	99.649719
1931.000000	99.649896
1930.000000	99.647979
1929.000000	99.638676
1928.000000	99.623441
1927.000000	99.612702
1926.000000	99.612516
1925.000000	99.616855
1924.000000	99.614742
1923.000000	99.603577
1922.000000	99.590262
1921.000000	99.579488
1920.000000	99.568031
1919.000000	99.552132
1918.000000	99.534761
1917.000000	99.522573
1916.000000	99.516343
1915.000000	99.510890
1914.000000	99.502252
1913.000000	99.490952
1912.000000	99.478979
1911.000000	99.465779
1910.000000	99.449637
1909.000000	99.431625
1908.000000	99.416164
1907.000000	99.407245
1906.000000	99.403692
1905.000000	99.401535
1904.000000	99.398963
1903.000000	99.400022
1902.000000	99.411757
1901.000000	99.435196
1900.000000	99.460801
1899.000000	99.476421
1898.000000	99.478675
1897.000000	99.475485
1896.000000	99.476172
1895.000000	99.481075
1894.000000	99.483387
1893.000000	99.478992
1892.000000	99.469884
1891.000000	99.459386
1890.000000	99.449271
1889.000000	99.441754
1888.000000	99.439025
1887.000000	99.439017
1886.000000	99.435528
1885.000000	99.425169
1884.000000	99.412722
1883.000000	99.406141
1882.000000	99.407336
1881.000000	99.411353
1880.000000	99.414325
1879.000000	99.417960
1878.000000	99.423882
1877.000000	99.429167
1876.000000	99.430736
1875.000000	99.429722
1874.000000	99.428011
1873.000000	99.422980
1872.000000	99.409541
1871.000000	99.387181
1870.000000	99.363271
1869.000000	99.348563
1868.000000	99.347552
1867.000000	99.355548
1866.000000	99.365673
1865.000000	99.374069
1864.000000	99.379930
1863.000000	99.384572
1862.000000	99.390057
1861.000000	99.397441
1860.000000	99.406657
1859.000000	99.417783
1858.000000	99.430390
1857.000000	99.441877
1856.000000	99.449253
1855.000000	99.453003
1854.000000	99.456437
1853.000000	99.460619
1852.000000	99.462341
1851.000000	99.460236
1850.000000	99.456196
1849.000000	99.450882
1848.000000	99.441101
1847.000000	99.424913
1846.000000	99.407655
1845.000000	99.399743
1844.000000	99.406462
1843.000000	99.422171
1842.000000	99.439548
1841.000000	99.457369
1840.000000	99.476229
1839.000000	99.494437
1838.000000	99.509353
1837.000000	99.521736
1836.000000	99.533620
1835.000000	99.543134
1834.000000	99.545449
1833.000000	99.539116
1832.000000	99.529055
1831.000000	99.522751
1830.000000	99.521482
1829.000000	99.519622
1828.000000	99.514721
1827.000000	99.511999
1826.000000	99.516660
1825.000000	99.526867
1824.000000	99.535789
1823.000000	99.539816
1822.000000	99.541026
1821.000000	99.542191
1820.000000	99.544253
1819.000000	99.548109
1818.000000	99.555820
1817.000000	99.568770
1816.000000	99.583575
1815.000000	99.593485
1814.000000	99.594974
1813.000000	99.590645
1812.000000	99.586805
1811.000000	99.586636
1810.000000	99.587735
1809.000000	99.586765
1808.000000	99.583171
1807.000000	99.578209
1806.000000	99.572418
1805.000000	99.565449
1804.000000	99.557883
1803.000000	99.552210
1802.000000	99.551726
1801.000000	99.557275
1800.000000	99.567458
1799.000000	99.579773
1798.000000	99.591747
1797.000000	99.600584
1796.000000	99.603877
1795.000000	99.601908
1794.000000	99.598457
1793.000000	99.598710
1792.000000	99.606571
1791.000000	99.621084
1790.000000	99.636777
1789.000000	99.647023
1788.000000	99.647453
1787.000000	99.639073
1786.000000	99.628880
1785.000000	99.624447
1784.000000	99.626607
1783.000000	99.630817
1782.000000	99.634463
1781.000000	99.637509
1780.000000	99.642111
1779.000000	99.650714
1778.000000	99.664859
1777.000000	99.682143
1776.000000	99.695279
1775.000000	99.698687
1774.000000	99.693821
1773.000000	99.688458
1772.000000	99.690732
1771.000000	99.700457
1770.000000	99.710020
1769.000000	99.714099
1768.000000	99.712518
1767.000000	99.709113
1766.000000	99.707938
1765.000000	99.707999
1764.000000	99.704398
1763.000000	99.693812
1762.000000	99.680112
1761.000000	99.670659
1760.000000	99.667388
1759.000000	99.665957
1758.000000	99.665299
1757.000000	99.668455
1756.000000	99.674891
1755.000000	99.677163
1754.000000	99.668384
1753.000000	99.649977
1752.000000	99.631718
1751.000000	99.623930
1750.000000	99.626472
1749.000000	99.632993
1748.000000	99.639999
1747.000000	99.647512
1746.000000	99.654254
1745.000000	99.657529
1744.000000	99.657821
1743.000000	99.657298
1742.000000	99.656858
1741.000000	99.657043
1740.000000	99.660018
1739.000000	99.665056
1738.000000	99.665832
1737.000000	99.655130
1736.000000	99.631918
1735.000000	99.607774
1734.000000	99.605068
1733.000000	99.629079
1732.000000	99.660609
1731.000000	99.685534
1730.000000	99.703389
1729.000000	99.720464
1728.000000	99.740946
1727.000000	99.763268
1726.000000	99.782417
1725.000000	99.794832
1724.000000	99.802382
1723.000000	99.807795
1722.000000	99.810922
1721.000000	99.809120
1720.000000	99.799635
1719.000000	99.781265
1718.000000	99.757314
1717.000000	99.740010
1716.000000	99.739116
1715.000000	99.751135
1714.000000	99.765996
1713.000000	99.775440
1712.000000	99.775709
1711.000000	99.767242
1710.000000	99.753370
1709.000000	99.738296
1708.000000	99.726016
1707.000000	99.720443
1706.000000	99.723441
1705.000000	99.731862
1704.000000	99.736876
1703.000000	99.733514
1702.000000	99.725462
1701.000000	99.720502
1700.000000	99.721595
1699.000000	99.722780
1698.000000	99.721452
1697.000000	99.721279
1696.000000	99.727578
1695.000000	99.741810
1694.000000	99.760951
1693.000000	99.780761
1692.000000	99.794555
1691.000000	99.797192
1690.000000	99.788829
1689.000000	99.771952
1688.000000	99.748067
1687.000000	99.720970
1686.000000	99.699271
1685.000000	99.699194
1684.000000	99.731008
1683.000000	99.779543
1682.000000	99.827961
1681.000000	99.874234
1680.000000	99.915066
1679.000000	99.945421
1678.000000	99.964532
1677.000000	99.974193
1676.000000	99.972854
1675.000000	99.957973
1674.000000	99.936632
1673.000000	99.919143
1672.000000	99.908163
1671.000000	99.897361
1670.000000	99.880881
1669.000000	99.859279
1668.000000	99.839706
1667.000000	99.829570
1666.000000	99.829311
1665.000000	99.832277
1664.000000	99.828792
1663.000000	99.813041
1662.000000	99.794385
1661.000000	99.787539
1660.000000	99.795952
1659.000000	99.810904
1658.000000	99.818872
1657.000000	99.809862
1656.000000	99.783879
1655.000000	99.751573
1654.000000	99.729449
1653.000000	99.727990
1652.000000	99.730948
1651.000000	99.729300
1650.000000	99.727599
1649.000000	99.721164
1648.000000	99.707910
1647.000000	99.695275
1646.000000	99.690535
1645.000000	99.690866
1644.000000	99.692921
1643.000000	99.698081
1642.000000	99.709543
1641.000000	99.725445
1640.000000	99.737826
1639.000000	99.740643
1638.000000	99.736119
1637.000000	99.733147
1636.000000	99.738263
1635.000000	99.749261
1634.000000	99.758803
1633.000000	99.765591
1632.000000	99.768300
1631.000000	99.764349
1630.000000	99.755029
1629.000000	99.746558
1628.000000	99.745343
1627.000000	99.752275
1626.000000	99.762916
1625.000000	99.770750
1624.000000	99.770284
1623.000000	99.760645
1622.000000	99.748726
1621.000000	99.741858
1620.000000	99.741284
1619.000000	99.744636
1618.000000	99.749011
1617.000000	99.750968
1616.000000	99.748429
1615.000000	99.745761
1614.000000	99.748731
1613.000000	99.757063
1612.000000	99.765145
1611.000000	99.767156
1610.000000	99.762961
1609.000000	99.758747
1608.000000	99.761391
1607.000000	99.772638
1606.000000	99.788887
1605.000000	99.804137
1604.000000	99.814948
1603.000000	99.821997
1602.000000	99.828157
1601.000000	99.835902
1600.000000	99.845450
1599.000000	99.854602
1598.000000	99.859713
1597.000000	99.858839
1596.000000	99.855270
1595.000000	99.856660
1594.000000	99.868440
1593.000000	99.887770
1592.000000	99.905732
1591.000000	99.915573
1590.000000	99.917668
1589.000000	99.917712
1588.000000	99.922074
1587.000000	99.934402
1586.000000	99.953906
1585.000000	99.974881
1584.000000	99.990398
1583.000000	99.999690
1582.000000	100.007372
1581.000000	100.015927
1580.000000	100.021723
1579.000000	100.020418
1578.000000	100.011809
1577.000000	100.000390
1576.000000	99.991408
1575.000000	99.986517
1574.000000	99.984945
1573.000000	99.984826
1572.000000	99.984857
1571.000000	99.986582
1570.000000	99.993936
1569.000000	100.007522
1568.000000	100.022093
1567.000000	100.035540
1566.000000	100.049464
1565.000000	100.064466
1564.000000	100.077672
1563.000000	100.087958
1562.000000	100.099824
1561.000000	100.121823
1560.000000	100.150381
1559.000000	100.155581
1558.000000	100.129046
1557.000000	100.105693
1556.000000	100.101745
1555.000000	100.105769
1554.000000	100.103815
1553.000000	100.092220
1552.000000	100.077220
1551.000000	100.065026
1550.000000	100.059019
1549.000000	100.061535
1548.000000	100.068490
1547.000000	100.070171
1546.000000	100.058709
1545.000000	100.038311
1544.000000	100.025641
1543.000000	100.031433
1542.000000	100.047052
1541.000000	100.057828
1540.000000	100.060814
1539.000000	100.061330
1538.000000	100.060071
1537.000000	100.059375
1536.000000	100.062316
1535.000000	100.070351
1534.000000	100.079123
1533.000000	100.078741
1532.000000	100.071014
1531.000000	100.068651
1530.000000	100.078128
1529.000000	100.096103
1528.000000	100.114900
1527.000000	100.129349
1526.000000	100.138713
1525.000000	100.144246
1524.000000	100.150189
1523.000000	100.164493
1522.000000	100.193070
1521.000000	100.227842
1520.000000	100.252901
1519.000000	100.266443
1518.000000	100.273394
1517.000000	100.276122
1516.000000	100.278931
1515.000000	100.287571
1514.000000	100.302015
1513.000000	100.314118
1512.000000	100.316721
1511.000000	100.312605
1510.000000	100.314106
1509.000000	100.331816
1508.000000	100.365702
1507.000000	100.397469
1506.000000	100.405256
1505.000000	100.393269
1504.000000	100.379138
1503.000000	100.370322
1502.000000	100.368662
1501.000000	100.374684
1500.000000	100.381646
1499.000000	100.378421
1498.000000	100.366328
1497.000000	100.366740
1496.000000	100.393649
1495.000000	100.430263
1494.000000	100.457005
1493.000000	100.474656
1492.000000	100.492887
1491.000000	100.514755
1490.000000	100.538230
1489.000000	100.568617
1488.000000	100.612015
1487.000000	100.656583
1486.000000	100.683691
1485.000000	100.691249
1484.000000	100.694813
1483.000000	100.710817
1482.000000	100.738563
1481.000000	100.764357
1480.000000	100.780145
1479.000000	100.791827
1478.000000	100.807330
1477.000000	100.827581
1476.000000	100.850287
1475.000000	100.876387
1474.000000	100.908098
1473.000000	100.938051
1472.000000	100.955998
1471.000000	100.965291
1470.000000	100.977360
1469.000000	100.996662
1468.000000	101.021830
1467.000000	101.049953
1466.000000	101.076184
1465.000000	101.093271
1464.000000	101.101010
1463.000000	101.109350
1462.000000	101.123761
1461.000000	101.140943
1460.000000	101.159173
1459.000000	101.186771
1458.000000	101.225696
1457.000000	101.242438
1456.000000	101.206382
1455.000000	101.148056
1454.000000	101.104096
1453.000000	101.076398
1452.000000	101.056155
1451.000000	101.043844
1450.000000	101.047550
1449.000000	101.067075
1448.000000	101.086375
1447.000000	101.089659
1446.000000	101.082396
1445.000000	101.079668
1444.000000	101.087460
1443.000000	101.099316
1442.000000	101.106245
1441.000000	101.107075
1440.000000	101.108994
1439.000000	101.120902
1438.000000	101.143938
1437.000000	101.163181
1436.000000	101.156462
1435.000000	101.127031
1434.000000	101.098571
1433.000000	101.086375
1432.000000	101.092129
1431.000000	101.108813
1430.000000	101.125452
1429.000000	101.135065
1428.000000	101.138774
1427.000000	101.143350
1426.000000	101.156529
1425.000000	101.179741
1424.000000	101.206777
1423.000000	101.231553
1422.000000	101.257662
1421.000000	101.293190
1420.000000	101.332410
1419.000000	101.347874
1418.000000	101.323020
1417.000000	101.279740
1416.000000	101.246904
1415.000000	101.231916
1414.000000	101.225539
1413.000000	101.215045
1412.000000	101.194930
1411.000000	101.169282
1410.000000	101.145801
1409.000000	101.130121
1408.000000	101.125900
1407.000000	101.135050
1406.000000	101.154632
1405.000000	101.172033
1404.000000	101.174623
1403.000000	101.166091
1402.000000	101.162735
1401.000000	101.174738
1400.000000	101.196283
1399.000000	101.212794
1398.000000	101.218471
1397.000000	101.220019
1396.000000	101.221247
1395.000000	101.217689
1394.000000	101.207920
1393.000000	101.199868
1392.000000	101.203786
1391.000000	101.224084
1390.000000	101.258481
1389.000000	101.297632
1388.000000	101.326900
1387.000000	101.338473
1386.000000	101.343655
1385.000000	101.358102
1384.000000	101.382309
1383.000000	101.407730
1382.000000	101.432376
1381.000000	101.461415
1380.000000	101.492887
1379.000000	101.516067
1378.000000	101.526550
1377.000000	101.530323
1376.000000	101.527029
1375.000000	101.503528
1374.000000	101.454878
1373.000000	101.399552
1372.000000	101.358525
1371.000000	101.330140
1370.000000	101.300109
1369.000000	101.261927
1368.000000	101.222754
1367.000000	101.193100
1366.000000	101.178196
1365.000000	101.177771
1364.000000	101.184680
1363.000000	101.183835
1362.000000	101.165446
1361.000000	101.140782
1360.000000	101.130483
1359.000000	101.141445
1358.000000	101.163501
1357.000000	101.182220
1356.000000	101.190644
1355.000000	101.190698
1354.000000	101.189621
1353.000000	101.196980
1352.000000	101.219283
1351.000000	101.252427
1350.000000	101.283108
1349.000000	101.299662
1348.000000	101.302292
1347.000000	101.299229
1346.000000	101.297304
1345.000000	101.299886
1344.000000	101.309717
1343.000000	101.326698
1342.000000	101.343349
1341.000000	101.348159
1340.000000	101.336772
1339.000000	101.317887
1338.000000	101.304038
1337.000000	101.299125
1336.000000	101.299601
1335.000000	101.301485
1334.000000	101.301537
1333.000000	101.296234
1332.000000	101.285016
1331.000000	101.273782
1330.000000	101.270969
1329.000000	101.278489
1328.000000	101.288902
1327.000000	101.292643
1326.000000	101.286849
1325.000000	101.276079
1324.000000	101.266754
1323.000000	101.261931
1322.000000	101.260002
1321.000000	101.256676
1320.000000	101.248845
1319.000000	101.238135
1318.000000	101.230251
1317.000000	101.229268
1316.000000	101.233616
1315.000000	101.237991
1314.000000	101.238551
1313.000000	101.235811
1312.000000	101.232821
1311.000000	101.232145
1310.000000	101.234833
1309.000000	101.240255
1308.000000	101.245447
1307.000000	101.246318
1306.000000	101.241816
1305.000000	101.236341
1304.000000	101.236036
1303.000000	101.242366
1302.000000	101.250497
1301.000000	101.254019
1300.000000	101.250278
1299.000000	101.240648
1298.000000	101.228754
1297.000000	101.219281
1296.000000	101.216137
1295.000000	101.219023
1294.000000	101.221740
1293.000000	101.217271
1292.000000	101.205791
1291.000000	101.195667
1290.000000	101.193914
1289.000000	101.197752
1288.000000	101.198476
1287.000000	101.191889
1286.000000	101.180723
1285.000000	101.168441
1284.000000	101.156110
1283.000000	101.145705
1282.000000	101.141542
1281.000000	101.146462
1280.000000	101.159137
1279.000000	101.176173
1278.000000	101.193978
1277.000000	101.208245
1276.000000	101.214445
1275.000000	101.210376
1274.000000	101.197599
1273.000000	101.179772
1272.000000	101.160750
1271.000000	101.144348
1270.000000	101.132370
1269.000000	101.121581
1268.000000	101.106108
1267.000000	101.084431
1266.000000	101.060831
1265.000000	101.038669
1264.000000	101.017068
1263.000000	100.997104
1262.000000	100.985116
1261.000000	100.983384
1260.000000	100.982014
1259.000000	100.969772
1258.000000	100.951413
1257.000000	100.943744
1256.000000	100.952896
1255.000000	100.965848
1254.000000	100.969225
1253.000000	100.966666
1252.000000	100.967157
1251.000000	100.962641
1250.000000	100.932787
1249.000000	100.872185
1248.000000	100.799809
1247.000000	100.737667
1246.000000	100.688618
1245.000000	100.642638
1244.000000	100.595517
1243.000000	100.550723
1242.000000	100.508759
1241.000000	100.467913
1240.000000	100.435905
1239.000000	100.428251
1238.000000	100.448494
1237.000000	100.475895
1236.000000	100.480195
1235.000000	100.447915
1234.000000	100.390937
1233.000000	100.333296
1232.000000	100.292495
1231.000000	100.270996
1230.000000	100.258896
1229.000000	100.241553
1228.000000	100.207344
1227.000000	100.152291
1226.000000	100.080682
1225.000000	100.002044
1224.000000	99.924957
1223.000000	99.850778
1222.000000	99.774185
1221.000000	99.693453
1220.000000	99.619332
1219.000000	99.567206
1218.000000	99.538116
1217.000000	99.513948
1216.000000	99.477563
1215.000000	99.433228
1214.000000	99.398920
1213.000000	99.380137
1212.000000	99.360283
1211.000000	99.318865
1210.000000	99.250886
1209.000000	99.164205
1208.000000	99.067728
1207.000000	98.970986
1206.000000	98.888954
1205.000000	98.832757
1204.000000	98.792041
1203.000000	98.736694
1202.000000	98.645966
1201.000000	98.532360
1200.000000	98.429188
1199.000000	98.355815
1198.000000	98.303931
1197.000000	98.256919
1196.000000	98.211784
1195.000000	98.174578
1194.000000	98.142186
1193.000000	98.102106
1192.000000	98.050951
1191.000000	98.001657
1190.000000	97.966187
1189.000000	97.937210
1188.000000	97.893561
1187.000000	97.821098
1186.000000	97.722664
1185.000000	97.609594
1184.000000	97.490657
1183.000000	97.372104
1182.000000	97.263050
1181.000000	97.171470
1180.000000	97.091712
1179.000000	97.002949
1178.000000	96.890068
1177.000000	96.765725
1176.000000	96.660414
1175.000000	96.586637
1174.000000	96.524016
1173.000000	96.447978
1172.000000	96.361685
1171.000000	96.282908
1170.000000	96.207748
1169.000000	96.111474
1168.000000	95.988134
1167.000000	95.866715
1166.000000	95.777380
1165.000000	95.720054
1164.000000	95.680609
1163.000000	95.663067
1162.000000	95.683699
1161.000000	95.736757
1160.000000	95.785696
1159.000000	95.796781
1158.000000	95.772396
1157.000000	95.741694
1156.000000	95.722215
1155.000000	95.698728
1154.000000	95.642804
1153.000000	95.547933
1152.000000	95.437785
1151.000000	95.340042
1150.000000	95.259918
1149.000000	95.185220
1148.000000	95.107271
1147.000000	95.022153
1146.000000	94.916783
1145.000000	94.775726
1144.000000	94.609393
1143.000000	94.458005
1142.000000	94.352193
1141.000000	94.279096
1140.000000	94.201301
1139.000000	94.101729
1138.000000	93.993172
1137.000000	93.886737
1136.000000	93.773354
1135.000000	93.645620
1134.000000	93.520558
1133.000000	93.422039
1132.000000	93.346883
1131.000000	93.268047
1130.000000	93.175319
1129.000000	93.094203
1128.000000	93.048200
1127.000000	93.014911
1126.000000	92.945282
1125.000000	92.828800
1124.000000	92.712252
1123.000000	92.641429
1122.000000	92.607242
1121.000000	92.566326
1120.000000	92.499540
1119.000000	92.424812
1118.000000	92.359614
1117.000000	92.302071
1116.000000	92.251710
1115.000000	92.219779
1114.000000	92.205511
1113.000000	92.181905
1112.000000	92.123383
1111.000000	92.039288
1110.000000	91.965690
1109.000000	91.927563
1108.000000	91.919034
1107.000000	91.917763
1106.000000	91.910171
1105.000000	91.899373
1104.000000	91.889473
1103.000000	91.868446
1102.000000	91.819778
1101.000000	91.755950
1100.000000	91.722455
1099.000000	91.750755
1098.000000	91.815987
1097.000000	91.861852
1096.000000	91.863087
1095.000000	91.838636
1094.000000	91.808818
1093.000000	91.774741
1092.000000	91.746686
1091.000000	91.753067
1090.000000	91.794033
1089.000000	91.813470
1088.000000	91.755361
1087.000000	91.640884
1086.000000	91.556572
1085.000000	91.560101
1084.000000	91.622412
1083.000000	91.668297
1082.000000	91.655142
1081.000000	91.598491
1080.000000	91.533633
1079.000000	91.476881
1078.000000	91.426907
1077.000000	91.382548
1076.000000	91.341348
1075.000000	91.288038
1074.000000	91.206349
1073.000000	91.104952
1072.000000	91.009268
1071.000000	90.916156
1070.000000	90.778078
1069.000000	90.557288
1068.000000	90.286504
1067.000000	90.049413
1066.000000	89.895841
1065.000000	89.793081
1064.000000	89.665007
1063.000000	89.465356
1062.000000	89.212087
1061.000000	88.968107
1060.000000	88.796950
1059.000000	88.721428
1058.000000	88.706425
1057.000000	88.681553
1056.000000	88.587314
1055.000000	88.405328
1054.000000	88.160402
1053.000000	87.904591
1052.000000	87.682514
1051.000000	87.487736
1050.000000	87.260879
1049.000000	86.957324
1048.000000	86.604706
1047.000000	86.261011
1046.000000	85.931849
1045.000000	85.574396
1044.000000	85.178447
1043.000000	84.795531
1042.000000	84.472739
1041.000000	84.193698
1040.000000	83.907337
1039.000000	83.587851
1038.000000	83.243358
1037.000000	82.891335
1036.000000	82.557936
1035.000000	82.284236
1034.000000	82.094650
1033.000000	81.956140
1032.000000	81.791198
1031.000000	81.543887
1030.000000	81.232532
1029.000000	80.935881
1028.000000	80.728220
1027.000000	80.620887
1026.000000	80.556631
1025.000000	80.466537
1024.000000	80.335657
1023.000000	80.202473
1022.000000	80.103427
1021.000000	80.041463
1020.000000	80.004059
1019.000000	79.981000
1018.000000	79.955521
1017.000000	79.904042
1016.000000	79.819803
1015.000000	79.718152
1014.000000	79.605446
1013.000000	79.461698
1012.000000	79.272785
1011.000000	79.068137
1010.000000	78.905429
1009.000000	78.816410
1008.000000	78.774447
1007.000000	78.714228
1006.000000	78.588902
1005.000000	78.416916
1004.000000	78.268114
1003.000000	78.197987
1002.000000	78.202402
1001.000000	78.241366
1000.000000	78.291291
999.000000	78.353664
998.000000	78.427355
997.000000	78.507386
996.000000	78.608189
995.000000	78.752872
994.000000	78.932457
993.000000	79.104186
992.000000	79.239349
991.000000	79.346515
990.000000	79.437277
989.000000	79.497558
988.000000	79.512616
987.000000	79.503266
986.000000	79.516909
985.000000	79.587079
984.000000	79.709485
983.000000	79.848866
982.000000	79.965305
981.000000	80.046340
980.000000	80.119899
979.000000	80.231120
978.000000	80.407437
977.000000	80.648666
976.000000	80.937324
975.000000	81.243140
974.000000	81.531517
973.000000	81.794506
972.000000	82.067603
971.000000	82.388244
970.000000	82.737736
969.000000	83.051458
968.000000	83.292883
967.000000	83.489973
966.000000	83.686991
965.000000	83.885264
964.000000	84.050288
963.000000	84.163050
962.000000	84.246540
961.000000	84.346405
960.000000	84.497395
959.000000	84.704897
958.000000	84.948358
957.000000	85.201552
956.000000	85.451358
955.000000	85.697927
954.000000	85.946705
953.000000	86.210686
952.000000	86.510625
951.000000	86.852059
950.000000	87.201237
949.000000	87.503952
948.000000	87.734568
947.000000	87.912089
946.000000	88.065520
945.000000	88.199074
944.000000	88.297907
943.000000	88.351729
942.000000	88.360541
941.000000	88.328579
940.000000	88.267705
939.000000	88.203674
938.000000	88.165869
937.000000	88.168829
936.000000	88.210764
935.000000	88.289253
934.000000	88.410137
933.000000	88.574792
932.000000	88.760417
931.000000	88.924612
930.000000	89.043448
929.000000	89.142082
928.000000	89.268302
927.000000	89.429980
926.000000	89.576685
925.000000	89.655915
924.000000	89.669503
923.000000	89.653880
922.000000	89.621327
921.000000	89.552696
920.000000	89.446758
919.000000	89.344208
918.000000	89.288798
917.000000	89.284314
916.000000	89.304446
915.000000	89.336372
914.000000	89.402702
913.000000	89.541076
912.000000	89.767081
911.000000	90.056544
910.000000	90.366377
909.000000	90.677141
908.000000	91.006022
907.000000	91.371079
906.000000	91.757079
905.000000	92.128799
904.000000	92.463705
903.000000	92.754426
902.000000	92.996205
901.000000	93.197801
900.000000	93.392244
899.000000	93.603998
898.000000	93.806954
897.000000	93.948198
896.000000	94.023500
895.000000	94.102333
894.000000	94.262582
893.000000	94.519518
892.000000	94.831543
891.000000	95.155272
890.000000	95.473335
889.000000	95.777055
888.000000	96.050662
887.000000	96.286107
886.000000	96.499247
885.000000	96.710419
884.000000	96.907660
883.000000	97.048654
882.000000	97.114980
881.000000	97.152345
880.000000	97.226860
879.000000	97.337538
878.000000	97.403914
877.000000	97.362258
876.000000	97.251116
875.000000	97.170966
874.000000	97.174082
873.000000	97.232666
872.000000	97.309776
871.000000	97.418507
870.000000	97.593917
869.000000	97.838423
868.000000	98.123769
867.000000	98.430228
866.000000	98.754564
865.000000	99.081913
864.000000	99.376698
863.000000	99.614554
862.000000	99.809158
861.000000	99.989381
860.000000	100.156596
859.000000	100.284940
858.000000	100.366547
857.000000	100.433724
856.000000	100.515233
855.000000	100.582325
854.000000	100.570833
853.000000	100.465757
852.000000	100.337819
851.000000	100.277174
850.000000	100.304229
849.000000	100.366057
848.000000	100.408202
847.000000	100.417928
846.000000	100.397070
845.000000	100.334575
844.000000	100.235210
843.000000	100.152525
842.000000	100.150920
841.000000	100.227196
840.000000	100.296420
839.000000	100.275903
838.000000	100.172567
837.000000	100.063471
836.000000	99.994977
835.000000	99.932355
834.000000	99.819464
833.000000	99.659932
832.000000	99.507425
831.000000	99.390852
830.000000	99.294030
829.000000	99.216864
828.000000	99.209592
827.000000	99.310342
826.000000	99.480796
825.000000	99.654622
824.000000	99.828367
823.000000	100.033937
822.000000	100.230356
821.000000	100.312129
820.000000	100.245347
819.000000	100.123740
818.000000	100.060273
817.000000	100.068406
816.000000	100.078195
815.000000	100.027140
814.000000	99.888615
813.000000	99.633126
812.000000	99.225971
811.000000	98.683405
810.000000	98.090507
809.000000	97.529973
808.000000	97.007654
807.000000	96.466946
806.000000	95.869000
805.000000	95.248798
804.000000	94.693393
803.000000	94.271774
802.000000	93.988221
801.000000	93.803148
800.000000	93.691967
799.000000	93.662999
798.000000	93.711700
797.000000	93.787170
796.000000	93.835287
795.000000	93.864153
794.000000	93.929660
793.000000	94.051954
792.000000	94.178231
791.000000	94.242758
790.000000	94.237751
789.000000	94.196294
788.000000	94.125216
787.000000	93.998840
786.000000	93.818472
785.000000	93.631531
784.000000	93.468841
783.000000	93.298444
782.000000	93.080174
781.000000	92.849546
780.000000	92.700395
779.000000	92.685534
778.000000	92.776484
777.000000	92.926086
776.000000	93.125816
775.000000	93.371403
774.000000	93.611693
773.000000	93.783322
772.000000	93.878349
771.000000	93.929760
770.000000	93.942999
769.000000	93.896054
768.000000	93.811976
767.000000	93.777263
766.000000	93.859052
765.000000	94.031511
764.000000	94.209083
763.000000	94.348434
762.000000	94.497359
761.000000	94.736875
760.000000	95.086645
759.000000	95.468377
758.000000	95.764069
757.000000	95.922259
756.000000	96.002918
755.000000	96.113212
754.000000	96.309264
753.000000	96.565962
752.000000	96.819279
751.000000	97.007517
750.000000	97.078733
749.000000	97.006127
748.000000	96.827332
747.000000	96.644065
746.000000	96.542854
745.000000	96.518454
744.000000	96.497303
743.000000	96.434840
742.000000	96.367153
741.000000	96.359593
740.000000	96.434146
739.000000	96.565916
738.000000	96.730274
737.000000	96.926156
736.000000	97.152903
735.000000	97.390354
734.000000	97.614770
733.000000	97.815935
732.000000	97.978791
731.000000	98.074090
730.000000	98.107065
729.000000	98.158844
728.000000	98.323584
727.000000	98.582878
726.000000	98.781178
725.000000	98.774742
724.000000	98.591206
723.000000	98.397335
722.000000	98.329492
721.000000	98.393519
720.000000	98.509457
719.000000	98.611787
718.000000	98.688297
717.000000	98.744835
716.000000	98.779668
715.000000	98.805759
714.000000	98.876952
713.000000	99.063918
712.000000	99.386315
711.000000	99.768176
710.000000	100.079221
709.000000	100.239884
708.000000	100.261750
707.000000	100.177266
706.000000	99.978641
705.000000	99.665394
704.000000	99.313619
703.000000	99.024495
702.000000	98.800597
701.000000	98.532134
700.000000	98.129218
699.000000	97.629603
698.000000	97.155849
697.000000	96.818122
696.000000	96.694602
695.000000	96.844684
694.000000	97.254796
693.000000	97.777628
692.000000	98.223873
691.000000	98.576091
690.000000	99.044297
689.000000	99.843789
688.000000	100.944485
687.000000	102.075646
686.000000	102.971402
685.000000	103.545722
684.000000	103.792434
683.000000	103.659190
682.000000	103.161636
681.000000	102.525972
680.000000	102.050289
679.000000	101.817887
678.000000	101.636579
677.000000	101.285494
676.000000	100.772210
675.000000	100.293407
674.000000	100.007691
673.000000	99.935484
672.000000	100.043741
671.000000	100.348106
670.000000	100.894292
669.000000	101.584665
668.000000	101.974486
667.000000	101.807921
666.000000	101.455918
665.000000	101.231929
664.000000	101.242496
663.000000	101.437537
662.000000	101.666561
661.000000	101.792631
660.000000	101.749240
659.000000	101.505939
658.000000	101.082351
657.000000	100.610316
656.000000	100.299276
655.000000	100.300211
654.000000	100.584815
653.000000	100.996422
652.000000	101.440704
651.000000	101.941671
650.000000	102.515274
