4000.000000	101.556335
3999.000000	101.551574
3998.000000	101.547273
3997.000000	101.541994
3996.000000	101.534651
3995.000000	101.526336
3994.000000	101.519780
3993.000000	101.517392
3992.000000	101.519895
3991.000000	101.526020
3990.000000	101.532776
3989.000000	101.536476
3988.000000	101.534578
3987.000000	101.526679
3986.000000	101.513645
3985.000000	101.496348
3984.000000	101.475969
3983.000000	101.455735
3982.000000	101.440711
3981.000000	101.434292
3980.000000	101.434918
3979.000000	101.436775
3978.000000	101.434858
3977.000000	101.429436
3976.000000	101.425070
3975.000000	101.425427
3974.000000	101.429578
3973.000000	101.433106
3972.000000	101.432544
3971.000000	101.428803
3970.000000	101.426485
3969.000000	101.429898
3968.000000	101.439272
3967.000000	101.450298
3966.000000	101.457096
3965.000000	101.456384
3964.000000	101.449509
3963.000000	101.440899
3962.000000	101.434217
3961.000000	101.429472
3960.000000	101.423886
3959.000000	101.415648
3958.000000	101.406276
3957.000000	101.399107
3956.000000	101.396015
3955.000000	101.396109
3954.000000	101.397025
3953.000000	101.396544
3952.000000	101.393168
3951.000000	101.386252
3950.000000	101.376370
3949.000000	101.365271
3948.000000	101.354771
3947.000000	101.345559
3946.000000	101.337571
3945.000000	101.331509
3944.000000	101.329059
3943.000000	101.330712
3942.000000	101.333826
3941.000000	101.334275
3940.000000	101.330433
3939.000000	101.324408
3938.000000	101.319323
3937.000000	101.316008
3936.000000	101.312806
3935.000000	101.308200
3934.000000	101.303086
3933.000000	101.299878
3932.000000	101.299630
3931.000000	101.300637
3930.000000	101.300170
3929.000000	101.297259
3928.000000	101.293156
3927.000000	101.289793
3926.000000	101.288237
3925.000000	101.288067
3924.000000	101.287605
3923.000000	101.285196
3922.000000	101.280612
3921.000000	101.275119
3920.000000	101.270481
3919.000000	101.267468
3918.000000	101.265563
3917.000000	101.263909
3916.000000	101.262142
3915.000000	101.260414
3914.000000	101.258854
3913.000000	101.257419
3912.000000	101.255871
3911.000000	101.253907
3910.000000	101.251362
3909.000000	101.248375
3908.000000	101.245265
3907.000000	101.242303
3906.000000	101.239646
3905.000000	101.237406
3904.000000	101.235546
3903.000000	101.233671
3902.000000	101.231319
3901.000000	101.228558
3900.000000	101.226045
3899.000000	101.224271
3898.000000	101.222981
3897.000000	101.221583
3896.000000	101.219906
3895.000000	101.218279
3894.000000	101.216887
3893.000000	101.215493
3892.000000	101.213824
3891.000000	101.212053
3890.000000	101.210121
3889.000000	101.207205
3888.000000	101.202630
3887.000000	101.197088
3886.000000	101.192463
3885.000000	101.189716
3884.000000	101.187494
3883.000000	101.184231
3882.000000	101.180805
3881.000000	101.179367
3880.000000	101.180362
3879.000000	101.181717
3878.000000	101.181016
3877.000000	101.177797
3876.000000	101.173561
3875.000000	101.170776
3874.000000	101.171083
3873.000000	101.173410
3872.000000	101.174214
3871.000000	101.171289
3870.000000	101.166406
3869.000000	101.162973
3868.000000	101.160882
3867.000000	101.157260
3866.000000	101.151135
3865.000000	101.144589
3864.000000	101.139678
3863.000000	101.136349
3862.000000	101.133699
3861.000000	101.131971
3860.000000	101.131709
3859.000000	101.132668
3858.000000	101.133748
3857.000000	101.133777
3856.000000	101.131861
3855.000000	101.127660
3854.000000	101.121829
3853.000000	101.116000
3852.000000	101.110289
3851.000000	101.103898
3850.000000	101.098259
3849.000000	101.095411
3848.000000	101.094872
3847.000000	101.093606
3846.000000	101.088700
3845.000000	101.080004
3844.000000	101.070384
3843.000000	101.063630
3842.000000	101.060634
3841.000000	101.058221
3840.000000	101.052132
3839.000000	101.041302
3838.000000	101.028989
3837.000000	101.019646
3836.000000	101.014805
3835.000000	101.013203
3834.000000	101.013000
3833.000000	101.013235
3832.000000	101.013553
3831.000000	101.013092
3830.000000	101.010469
3829.000000	101.005031
3828.000000	100.997693
3827.000000	100.990884
3826.000000	100.986766
3825.000000	100.985093
3824.000000	100.983197
3823.000000	100.978837
3822.000000	100.972652
3821.000000	100.967868
3820.000000	100.965996
3819.000000	100.964530
3818.000000	100.961182
3817.000000	100.956640
3816.000000	100.952648
3815.000000	100.948751
3814.000000	100.942471
3813.000000	100.933331
3812.000000	100.924358
3811.000000	100.918678
3810.000000	100.916140
3809.000000	100.913606
3808.000000	100.908577
3807.000000	100.902473
3806.000000	100.898441
3805.000000	100.896338
3804.000000	100.892617
3803.000000	100.884506
3802.000000	100.873333
3801.000000	100.864321
3800.000000	100.860233
3799.000000	100.858726
3798.000000	100.856867
3797.000000	100.853998
3796.000000	100.850933
3795.000000	100.848081
3794.000000	100.844978
3793.000000	100.841230
3792.000000	100.836867
3791.000000	100.831543
3790.000000	100.824636
3789.000000	100.816575
3788.000000	100.809642
3787.000000	100.806681
3786.000000	100.808888
3785.000000	100.814737
3784.000000	100.820770
3783.000000	100.823803
3782.000000	100.822827
3781.000000	100.819105
3780.000000	100.814775
3779.000000	100.811102
3778.000000	100.807709
3777.000000	100.803822
3776.000000	100.799745
3775.000000	100.796819
3774.000000	100.795881
3773.000000	100.796133
3772.000000	100.795783
3771.000000	100.794069
3770.000000	100.792005
3769.000000	100.790648
3768.000000	100.789393
3767.000000	100.786838
3766.000000	100.782461
3765.000000	100.777047
3764.000000	100.771759
3763.000000	100.767328
3762.000000	100.764653
3761.000000	100.764974
3760.000000	100.767731
3759.000000	100.769735
3758.000000	100.768372
3757.000000	100.764538
3756.000000	100.760812
3755.000000	100.758299
3754.000000	100.756426
3753.000000	100.754317
3752.000000	100.751237
3751.000000	100.746623
3750.000000	100.741445
3749.000000	100.738515
3748.000000	100.739536
3747.000000	100.742683
3746.000000	100.744366
3745.000000	100.743486
3744.000000	100.742780
3743.000000	100.742884
3742.000000	100.739958
3741.000000	100.732287
3740.000000	100.722046
3739.000000	100.712013
3738.000000	100.703251
3737.000000	100.696223
3736.000000	100.692425
3735.000000	100.692737
3734.000000	100.694810
3733.000000	100.694818
3732.000000	100.691609
3731.000000	100.686635
3730.000000	100.681183
3729.000000	100.674928
3728.000000	100.666990
3727.000000	100.657223
3726.000000	100.646172
3725.000000	100.634457
3724.000000	100.623469
3723.000000	100.615723
3722.000000	100.612746
3721.000000	100.613370
3720.000000	100.614096
3719.000000	100.611623
3718.000000	100.605214
3717.000000	100.596744
3716.000000	100.588582
3715.000000	100.581677
3714.000000	100.575660
3713.000000	100.569744
3712.000000	100.563352
3711.000000	100.556380
3710.000000	100.548899
3709.000000	100.540883
3708.000000	100.532482
3707.000000	100.524156
3706.000000	100.516210
3705.000000	100.508445
3704.000000	100.500360
3703.000000	100.491723
3702.000000	100.482826
3701.000000	100.474207
3700.000000	100.466097
3699.000000	100.458356
3698.000000	100.450912
3697.000000	100.444021
3696.000000	100.437841
3695.000000	100.431880
3694.000000	100.425244
3693.000000	100.417309
3692.000000	100.408019
3691.000000	100.397863
3690.000000	100.387750
3689.000000	100.378654
3688.000000	100.370886
3687.000000	100.363925
3686.000000	100.356788
3685.000000	100.348771
3684.000000	100.339896
3683.000000	100.330810
3682.000000	100.322206
3681.000000	100.314310
3680.000000	100.306963
3679.000000	100.299655
3678.000000	100.291523
3677.000000	100.282106
3676.000000	100.272601
3675.000000	100.265119
3674.000000	100.259543
3673.000000	100.253224
3672.000000	100.244034
3671.000000	100.231936
3670.000000	100.219082
3669.000000	100.207685
3668.000000	100.197243
3667.000000	100.186073
3666.000000	100.173982
3665.000000	100.162320
3664.000000	100.152226
3663.000000	100.142811
3662.000000	100.131593
3661.000000	100.117134
3660.000000	100.100949
3659.000000	100.086379
3658.000000	100.076628
3657.000000	100.073374
3656.000000	100.075877
3655.000000	100.080165
3654.000000	100.080635
3653.000000	100.073533
3652.000000	100.059224
3651.000000	100.043022
3650.000000	100.033300
3649.000000	100.034123
3648.000000	100.039230
3647.000000	100.038960
3646.000000	100.030163
3645.000000	100.016498
3644.000000	100.003363
3643.000000	99.993419
3642.000000	99.984959
3641.000000	99.974081
3640.000000	99.958954
3639.000000	99.942272
3638.000000	99.928450
3637.000000	99.917762
3636.000000	99.905828
3635.000000	99.889949
3634.000000	99.873990
3633.000000	99.863861
3632.000000	99.860307
3631.000000	99.859344
3630.000000	99.857654
3629.000000	99.854532
3628.000000	99.846931
3627.000000	99.829442
3626.000000	99.805559
3625.000000	99.788137
3624.000000	99.786676
3623.000000	99.799648
3622.000000	99.816631
3621.000000	99.827527
3620.000000	99.831305
3619.000000	99.835536
3618.000000	99.847084
3617.000000	99.865099
3616.000000	99.883022
3615.000000	99.894901
3614.000000	99.900307
3613.000000	99.904004
3612.000000	99.910041
3611.000000	99.917642
3610.000000	99.924125
3609.000000	99.929212
3608.000000	99.934100
3607.000000	99.937708
3606.000000	99.937155
3605.000000	99.932353
3604.000000	99.927620
3603.000000	99.928706
3602.000000	99.939265
3601.000000	99.959553
3600.000000	99.986112
3599.000000	100.012415
3598.000000	100.033395
3597.000000	100.047942
3596.000000	100.056563
3595.000000	100.058775
3594.000000	100.054835
3593.000000	100.048068
3592.000000	100.043696
3591.000000	100.043541
3590.000000	100.043464
3589.000000	100.038299
3588.000000	100.030096
3587.000000	100.027182
3586.000000	100.032370
3585.000000	100.039560
3584.000000	100.042877
3583.000000	100.042507
3582.000000	100.042654
3581.000000	100.046909
3580.000000	100.055729
3579.000000	100.067031
3578.000000	100.078741
3577.000000	100.090686
3576.000000	100.104151
3575.000000	100.119431
3574.000000	100.133900
3573.000000	100.143161
3572.000000	100.144879
3571.000000	100.141183
3570.000000	100.137092
3569.000000	100.137179
3568.000000	100.143115
3567.000000	100.152865
3566.000000	100.161740
3565.000000	100.166029
3564.000000	100.166082
3563.000000	100.165692
3562.000000	100.168832
3561.000000	100.176612
3560.000000	100.186630
3559.000000	100.194998
3558.000000	100.199474
3557.000000	100.200958
3556.000000	100.202159
3555.000000	100.205196
3554.000000	100.210296
3553.000000	100.216226
3552.000000	100.221291
3551.000000	100.224259
3550.000000	100.225053
3549.000000	100.225052
3548.000000	100.226277
3547.000000	100.229448
3546.000000	100.232842
3545.000000	100.233946
3544.000000	100.232560
3543.000000	100.231604
3542.000000	100.234625
3541.000000	100.243262
3540.000000	100.256667
3539.000000	100.272352
3538.000000	100.287406
3537.000000	100.299560
3536.000000	100.308528
3535.000000	100.316444
3534.000000	100.326096
3533.000000	100.338113
3532.000000	100.350143
3531.000000	100.358990
3530.000000	100.363795
3529.000000	100.367045
3528.000000	100.372464
3527.000000	100.381808
3526.000000	100.393617
3525.000000	100.404398
3524.000000	100.410822
3523.000000	100.411888
3522.000000	100.410370
3521.000000	100.412077
3520.000000	100.421987
3519.000000	100.439910
3518.000000	100.459236
3517.000000	100.471661
3516.000000	100.474630
3515.000000	100.473707
3514.000000	100.477125
3513.000000	100.487159
3512.000000	100.498110
3511.000000	100.502573
3510.000000	100.499187
3509.000000	100.493576
3508.000000	100.492599
3507.000000	100.498834
3506.000000	100.510047
3505.000000	100.521516
3504.000000	100.529338
3503.000000	100.534044
3502.000000	100.541328
3501.000000	100.557350
3500.000000	100.582321
3499.000000	100.609175
3498.000000	100.629372
3497.000000	100.640735
3496.000000	100.649150
3495.000000	100.662435
3494.000000	100.682976
3493.000000	100.706526
3492.000000	100.727358
3491.000000	100.743163
3490.000000	100.754952
3489.000000	100.763652
3488.000000	100.768936
3487.000000	100.771588
3486.000000	100.774760
3485.000000	100.780964
3484.000000	100.788762
3483.000000	100.794426
3482.000000	100.796626
3481.000000	100.797117
3480.000000	100.796722
3479.000000	100.793869
3478.000000	100.788673
3477.000000	100.785604
3476.000000	100.789058
3475.000000	100.797495
3474.000000	100.804954
3473.000000	100.807971
3472.000000	100.808191
3471.000000	100.808368
3470.000000	100.809017
3469.000000	100.810202
3468.000000	100.813848
3467.000000	100.821736
3466.000000	100.832592
3465.000000	100.843455
3464.000000	100.853201
3463.000000	100.862862
3462.000000	100.872736
3461.000000	100.881376
3460.000000	100.887899
3459.000000	100.893557
3458.000000	100.900030
3457.000000	100.907056
3456.000000	100.912758
3455.000000	100.916016
3454.000000	100.918167
3453.000000	100.922660
3452.000000	100.932711
3451.000000	100.948155
3450.000000	100.964479
3449.000000	100.976383
3448.000000	100.983006
3447.000000	100.988441
3446.000000	100.996586
3445.000000	101.006594
3444.000000	101.014734
3443.000000	101.019284
3442.000000	101.022073
3441.000000	101.025880
3440.000000	101.031847
3439.000000	101.039947
3438.000000	101.050124
3437.000000	101.061695
3436.000000	101.072566
3435.000000	101.080587
3434.000000	101.085771
3433.000000	101.090183
3432.000000	101.095607
3431.000000	101.102049
3430.000000	101.109142
3429.000000	101.117638
3428.000000	101.128458
3427.000000	101.141065
3426.000000	101.153687
3425.000000	101.165235
3424.000000	101.176308
3423.000000	101.188026
3422.000000	101.200318
3421.000000	101.211763
3420.000000	101.221025
3419.000000	101.227979
3418.000000	101.233528
3417.000000	101.238863
3416.000000	101.245059
3415.000000	101.252843
3414.000000	101.262073
3413.000000	101.271298
3412.000000	101.278505
3411.000000	101.283118
3410.000000	101.287271
3409.000000	101.294208
3408.000000	101.304764
3407.000000	101.316040
3406.000000	101.324692
3405.000000	101.331271
3404.000000	101.339970
3403.000000	101.353628
3402.000000	101.369932
3401.000000	101.383264
3400.000000	101.389774
3399.000000	101.390152
3398.000000	101.388963
3397.000000	101.392427
3396.000000	101.405436
3395.000000	101.427573
3394.000000	101.450802
3393.000000	101.464262
3392.000000	101.464527
3391.000000	101.460350
3390.000000	101.464769
3389.000000	101.481762
3388.000000	101.503222
3387.000000	101.518856
3386.000000	101.526151
3385.000000	101.529498
3384.000000	101.532837
3383.000000	101.536460
3382.000000	101.539768
3381.000000	101.543136
3380.000000	101.546488
3379.000000	101.549039
3378.000000	101.551481
3377.000000	101.556097
3376.000000	101.563217
3375.000000	101.569116
3374.000000	101.568887
3373.000000	101.560731
3372.000000	101.547077
3371.000000	101.532606
3370.000000	101.521557
3369.000000	101.515343
3368.000000	101.511609
3367.000000	101.506316
3366.000000	101.497575
3365.000000	101.487187
3364.000000	101.478501
3363.000000	101.473802
3362.000000	101.473416
3361.000000	101.475367
3360.000000	101.475570
3359.000000	101.470774
3358.000000	101.462869
3357.000000	101.458480
3356.000000	101.462764
3355.000000	101.475003
3354.000000	101.491051
3353.000000	101.507627
3352.000000	101.522339
3351.000000	101.532173
3350.000000	101.535995
3349.000000	101.538060
3348.000000	101.544885
3347.000000	101.557277
3346.000000	101.568442
3345.000000	101.571489
3344.000000	101.566398
3343.000000	101.558793
3342.000000	101.553638
3341.000000	101.551673
3340.000000	101.550873
3339.000000	101.549330
3338.000000	101.546689
3337.000000	101.544111
3336.000000	101.542947
3335.000000	101.542905
3334.000000	101.542064
3333.000000	101.539368
3332.000000	101.536703
3331.000000	101.537549
3330.000000	101.543125
3329.000000	101.550096
3328.000000	101.552577
3327.000000	101.546939
3326.000000	101.535075
3325.000000	101.523059
3324.000000	101.516100
3323.000000	101.514574
3322.000000	101.514853
3321.000000	101.513218
3320.000000	101.508489
3319.000000	101.501480
3318.000000	101.493341
3317.000000	101.484910
3316.000000	101.476607
3315.000000	101.468102
3314.000000	101.458778
3313.000000	101.449669
3312.000000	101.444555
3311.000000	101.447575
3310.000000	101.458897
3309.000000	101.473224
3308.000000	101.483841
3307.000000	101.488486
3306.000000	101.490380
3305.000000	101.493471
3304.000000	101.497473
3303.000000	101.498037
3302.000000	101.491230
3301.000000	101.477340
3300.000000	101.461196
3299.000000	101.449709
3298.000000	101.448124
3297.000000	101.456370
3296.000000	101.467746
3295.000000	101.472966
3294.000000	101.467864
3293.000000	101.457238
3292.000000	101.450472
3291.000000	101.452720
3290.000000	101.460808
3289.000000	101.467292
3288.000000	101.467256
3287.000000	101.461136
3286.000000	101.452696
3285.000000	101.445528
3284.000000	101.440788
3283.000000	101.436984
3282.000000	101.431468
3281.000000	101.422432
3280.000000	101.409787
3279.000000	101.394370
3278.000000	101.377083
3277.000000	101.359085
3276.000000	101.342321
3275.000000	101.328952
3274.000000	101.319464
3273.000000	101.311452
3272.000000	101.300984
3271.000000	101.285829
3270.000000	101.267342
3269.000000	101.249002
3268.000000	101.233295
3267.000000	101.220328
3266.000000	101.208859
3265.000000	101.197552
3264.000000	101.185436
3263.000000	101.173007
3262.000000	101.163406
3261.000000	101.160566
3260.000000	101.164747
3259.000000	101.170555
3258.000000	101.171254
3257.000000	101.165220
3256.000000	101.156557
3255.000000	101.149447
3254.000000	101.143338
3253.000000	101.134459
3252.000000	101.121067
3251.000000	101.106094
3250.000000	101.094676
3249.000000	101.089440
3248.000000	101.088068
3247.000000	101.085157
3246.000000	101.076701
3245.000000	101.063021
3244.000000	101.048034
3243.000000	101.036299
3242.000000	101.030446
3241.000000	101.029798
3240.000000	101.030123
3239.000000	101.025891
3238.000000	101.014934
3237.000000	101.001002
3236.000000	100.989981
3235.000000	100.982622
3234.000000	100.973054
3233.000000	100.955813
3232.000000	100.932496
3231.000000	100.910417
3230.000000	100.894726
3229.000000	100.883943
3228.000000	100.873122
3227.000000	100.859215
3226.000000	100.842951
3225.000000	100.827177
3224.000000	100.814822
3223.000000	100.807594
3222.000000	100.804740
3221.000000	100.802627
3220.000000	100.797215
3219.000000	100.787853
3218.000000	100.777642
3217.000000	100.769657
3216.000000	100.763442
3215.000000	100.755887
3214.000000	100.745127
3213.000000	100.732377
3212.000000	100.720043
3211.000000	100.709172
3210.000000	100.699184
3209.000000	100.689189
3208.000000	100.678708
3207.000000	100.667555
3206.000000	100.655832
3205.000000	100.644048
3204.000000	100.632690
3203.000000	100.621695
3202.000000	100.610683
3201.000000	100.599683
3200.000000	100.589257
3199.000000	100.579744
3198.000000	100.570692
3197.000000	100.561260
3196.000000	100.551008
3195.000000	100.540112
3194.000000	100.529042
3193.000000	100.518310
3192.000000	100.508234
3191.000000	100.498768
3190.000000	100.489306
3189.000000	100.478979
3188.000000	100.467362
3187.000000	100.455109
3186.000000	100.443550
3185.000000	100.433425
3184.000000	100.424185
3183.000000	100.414375
3182.000000	100.402888
3181.000000	100.390088
3180.000000	100.377918
3179.000000	100.368386
3178.000000	100.361523
3177.000000	100.355030
3176.000000	100.346684
3175.000000	100.336733
3174.000000	100.327150
3173.000000	100.318800
3172.000000	100.310243
3171.000000	100.299634
3170.000000	100.287043
3169.000000	100.274478
3168.000000	100.264292
3167.000000	100.257874
3166.000000	100.254836
3165.000000	100.252184
3164.000000	100.244980
3163.000000	100.229781
3162.000000	100.208312
3161.000000	100.187154
3160.000000	100.172211
3159.000000	100.163341
3158.000000	100.154840
3157.000000	100.140805
3156.000000	100.119783
3155.000000	100.095062
3154.000000	100.071869
3153.000000	100.054265
3152.000000	100.043169
3151.000000	100.036001
3150.000000	100.028556
3149.000000	100.018224
3148.000000	100.006061
3147.000000	99.995774
3146.000000	99.990383
3145.000000	99.989517
3144.000000	99.989959
3143.000000	99.988829
3142.000000	99.986187
3141.000000	99.983857
3140.000000	99.981402
3139.000000	99.974896
3138.000000	99.961591
3137.000000	99.945213
3136.000000	99.934038
3135.000000	99.932670
3134.000000	99.937517
3133.000000	99.940952
3132.000000	99.938905
3131.000000	99.932859
3130.000000	99.925929
3129.000000	99.920025
3128.000000	99.916623
3127.000000	99.916948
3126.000000	99.919521
3125.000000	99.919481
3124.000000	99.912981
3123.000000	99.901827
3122.000000	99.891854
3121.000000	99.886346
3120.000000	99.882783
3119.000000	99.876787
3118.000000	99.867552
3117.000000	99.857745
3116.000000	99.849109
3115.000000	99.840755
3114.000000	99.832275
3113.000000	99.825882
3112.000000	99.823500
3111.000000	99.823292
3110.000000	99.821354
3109.000000	99.816733
3108.000000	99.812526
3107.000000	99.811363
3106.000000	99.811880
3105.000000	99.810945
3104.000000	99.808075
3103.000000	99.805551
3102.000000	99.804628
3101.000000	99.803723
3100.000000	99.801037
3099.000000	99.797366
3098.000000	99.794872
3097.000000	99.793762
3096.000000	99.791699
3095.000000	99.786837
3094.000000	99.780254
3093.000000	99.774721
3092.000000	99.771559
3091.000000	99.769379
3090.000000	99.765982
3089.000000	99.760859
3088.000000	99.755357
3087.000000	99.750863
3086.000000	99.748021
3085.000000	99.747888
3084.000000	99.751990
3083.000000	99.759499
3082.000000	99.765439
3081.000000	99.764577
3080.000000	99.757390
3079.000000	99.749661
3078.000000	99.744934
3077.000000	99.739703
3076.000000	99.728652
3075.000000	99.712585
3074.000000	99.697943
3073.000000	99.689147
3072.000000	99.684985
3071.000000	99.683043
3070.000000	99.683684
3069.000000	99.687050
3068.000000	99.689065
3067.000000	99.684678
3066.000000	99.674492
3065.000000	99.664159
3064.000000	99.656267
3063.000000	99.646599
3062.000000	99.630914
3061.000000	99.612708
3060.000000	99.600832
3059.000000	99.599984
3058.000000	99.606464
3057.000000	99.613070
3056.000000	99.615115
3055.000000	99.610415
3054.000000	99.597295
3053.000000	99.576897
3052.000000	99.556264
3051.000000	99.544183
3050.000000	99.542218
3049.000000	99.542318
3048.000000	99.535712
3047.000000	99.523451
3046.000000	99.515556
3045.000000	99.520114
3044.000000	99.535058
3043.000000	99.550471
3042.000000	99.557694
3041.000000	99.555928
3040.000000	99.551284
3039.000000	99.550766
3038.000000	99.557096
3037.000000	99.567874
3036.000000	99.578557
3035.000000	99.586238
3034.000000	99.591682
3033.000000	99.598724
3032.000000	99.611067
3031.000000	99.628229
3030.000000	99.645020
3029.000000	99.657539
3028.000000	99.669694
3027.000000	99.690063
3026.000000	99.720291
3025.000000	99.749942
3024.000000	99.767227
3023.000000	99.773521
3022.000000	99.781975
3021.000000	99.802316
3020.000000	99.832992
3019.000000	99.868624
3018.000000	99.907285
3017.000000	99.945213
3016.000000	99.971265
3015.000000	99.977328
3014.000000	99.973051
3013.000000	99.980213
3012.000000	100.009253
3011.000000	100.048955
3010.000000	100.082293
3009.000000	100.105366
3008.000000	100.124892
3007.000000	100.144239
3006.000000	100.161213
3005.000000	100.177067
3004.000000	100.198063
3003.000000	100.226473
3002.000000	100.257142
3001.000000	100.285659
3000.000000	100.314671
2999.000000	100.348496
2998.000000	100.385959
2997.000000	100.423180
2996.000000	100.460987
2995.000000	100.504463
2994.000000	100.554600
2993.000000	100.603954
2992.000000	100.642541
2991.000000	100.667927
2990.000000	100.689474
2989.000000	100.722383
2988.000000	100.775725
2987.000000	100.845531
2986.000000	100.920522
2985.000000	100.994658
2984.000000	101.070836
2983.000000	101.151537
2982.000000	101.231238
2981.000000	101.302895
2980.000000	101.368514
2979.000000	101.435560
2978.000000	101.502597
2977.000000	101.555995
2976.000000	101.584236
2975.000000	101.590557
2974.000000	101.587577
2973.000000	101.583325
2972.000000	101.576743
2971.000000	101.563415
2970.000000	101.538765
2969.000000	101.496632
2968.000000	101.431928
2967.000000	101.347812
2966.000000	101.256661
2965.000000	101.170850
2964.000000	101.094916
2963.000000	101.028979
2962.000000	100.975625
2961.000000	100.937799
2960.000000	100.911093
2959.000000	100.884026
2958.000000	100.849386
2957.000000	100.813373
2956.000000	100.790627
2955.000000	100.790262
2954.000000	100.807341
2953.000000	100.827441
2952.000000	100.838508
2951.000000	100.838973
2950.000000	100.836004
2949.000000	100.837784
2948.000000	100.847914
2947.000000	100.865032
2946.000000	100.884182
2945.000000	100.897186
2944.000000	100.895267
2943.000000	100.876194
2942.000000	100.849509
2941.000000	100.830644
2940.000000	100.827644
2939.000000	100.835379
2938.000000	100.844446
2937.000000	100.852508
2936.000000	100.863468
2935.000000	100.877829
2934.000000	100.889786
2933.000000	100.895184
2932.000000	100.898127
2931.000000	100.906725
2930.000000	100.924098
2929.000000	100.945100
2928.000000	100.960029
2927.000000	100.960653
2926.000000	100.945336
2925.000000	100.921855
2924.000000	100.903977
2923.000000	100.900727
2922.000000	100.907769
2921.000000	100.911129
2920.000000	100.901069
2919.000000	100.881319
2918.000000	100.864640
2917.000000	100.860542
2916.000000	100.868602
2915.000000	100.881466
2914.000000	100.891842
2913.000000	100.897004
2912.000000	100.898741
2911.000000	100.900481
2910.000000	100.904531
2909.000000	100.911334
2908.000000	100.920628
2907.000000	100.932517
2906.000000	100.946790
2905.000000	100.961716
2904.000000	100.974332
2903.000000	100.981552
2902.000000	100.980698
2901.000000	100.970889
2900.000000	100.955879
2899.000000	100.944719
2898.000000	100.946011
2897.000000	100.959640
2896.000000	100.975576
2895.000000	100.982949
2894.000000	100.979786
2893.000000	100.973209
2892.000000	100.971692
2891.000000	100.978608
2890.000000	100.991453
2889.000000	101.003881
2888.000000	101.008687
2887.000000	101.002665
2886.000000	100.990437
2885.000000	100.981901
2884.000000	100.983682
2883.000000	100.993558
2882.000000	101.003807
2881.000000	101.008407
2880.000000	101.005564
2879.000000	100.995393
2878.000000	100.978338
2877.000000	100.956698
2876.000000	100.935513
2875.000000	100.920315
2874.000000	100.914251
2873.000000	100.916594
2872.000000	100.922273
2871.000000	100.922996
2870.000000	100.911481
2869.000000	100.887031
2868.000000	100.857082
2867.000000	100.832082
2866.000000	100.817417
2865.000000	100.809629
2864.000000	100.799199
2863.000000	100.777044
2862.000000	100.740573
2861.000000	100.696540
2860.000000	100.657962
2859.000000	100.635156
2858.000000	100.627681
2857.000000	100.624889
2856.000000	100.614699
2855.000000	100.592479
2854.000000	100.562091
2853.000000	100.530812
2852.000000	100.504811
2851.000000	100.487396
2850.000000	100.478302
2849.000000	100.473079
2848.000000	100.464875
2847.000000	100.449056
2846.000000	100.426203
2845.000000	100.400616
2844.000000	100.376722
2843.000000	100.356955
2842.000000	100.341592
2841.000000	100.328834
2840.000000	100.315197
2839.000000	100.297427
2838.000000	100.275186
2837.000000	100.252029
2836.000000	100.233227
2835.000000	100.221889
2834.000000	100.216573
2833.000000	100.212337
2832.000000	100.204659
2831.000000	100.192654
2830.000000	100.178683
2829.000000	100.165407
2828.000000	100.153744
2827.000000	100.142975
2826.000000	100.131466
2825.000000	100.117194
2824.000000	100.099042
2823.000000	100.078594
2822.000000	100.059564
2821.000000	100.044197
2820.000000	100.030823
2819.000000	100.016153
2818.000000	99.999854
2817.000000	99.985394
2816.000000	99.975945
2815.000000	99.970423
2814.000000	99.964131
2813.000000	99.952974
2812.000000	99.937668
2811.000000	99.924561
2810.000000	99.921211
2809.000000	99.929605
2808.000000	99.943043
2807.000000	99.950636
2806.000000	99.946297
2805.000000	99.932487
2804.000000	99.916662
2803.000000	99.905021
2802.000000	99.898683
2801.000000	99.893886
2800.000000	99.884963
2799.000000	99.869195
2798.000000	99.850307
2797.000000	99.836328
2796.000000	99.832711
2795.000000	99.838318
2794.000000	99.847619
2793.000000	99.855283
2792.000000	99.858227
2791.000000	99.855595
2790.000000	99.849484
2789.000000	99.844826
2788.000000	99.845785
2787.000000	99.851846
2786.000000	99.858789
2785.000000	99.863350
2784.000000	99.865421
2783.000000	99.865778
2782.000000	99.864066
2781.000000	99.859945
2780.000000	99.854357
2779.000000	99.848179
2778.000000	99.840680
2777.000000	99.830810
2776.000000	99.819515
2775.000000	99.809534
2774.000000	99.803019
2773.000000	99.800249
2772.000000	99.800472
2771.000000	99.802857
2770.000000	99.806333
2769.000000	99.809543
2768.000000	99.811796
2767.000000	99.813593
2766.000000	99.815448
2765.000000	99.816448
2764.000000	99.814900
2763.000000	99.810812
2762.000000	99.806992
2761.000000	99.806660
2760.000000	99.810095
2759.000000	99.813991
2758.000000	99.814224
2757.000000	99.809060
2756.000000	99.800116
2755.000000	99.791061
2754.000000	99.785312
2753.000000	99.783965
2752.000000	99.784894
2751.000000	99.784190
2750.000000	99.779520
2749.000000	99.772580
2748.000000	99.768191
2747.000000	99.770691
2746.000000	99.780910
2745.000000	99.795303
2744.000000	99.807764
2743.000000	99.813606
2742.000000	99.812493
2741.000000	99.808028
2740.000000	99.804355
2739.000000	99.803122
2738.000000	99.803337
2737.000000	99.802837
2736.000000	99.799418
2735.000000	99.791859
2734.000000	99.781221
2733.000000	99.770707
2732.000000	99.763029
2731.000000	99.758069
2730.000000	99.753905
2729.000000	99.749437
2728.000000	99.744846
2727.000000	99.739978
2726.000000	99.734034
2725.000000	99.727302
2724.000000	99.721831
2723.000000	99.719592
2722.000000	99.720605
2721.000000	99.723047
2720.000000	99.724672
2719.000000	99.724052
2718.000000	99.721407
2717.000000	99.718659
2716.000000	99.717768
2715.000000	99.718297
2714.000000	99.717316
2713.000000	99.712375
2712.000000	99.704017
2711.000000	99.695066
2710.000000	99.688014
2709.000000	99.683493
2708.000000	99.680546
2707.000000	99.677472
2706.000000	99.672993
2705.000000	99.667749
2704.000000	99.664380
2703.000000	99.664861
2702.000000	99.667785
2701.000000	99.669065
2700.000000	99.665985
2699.000000	99.659937
2698.000000	99.655045
2697.000000	99.654474
2696.000000	99.658246
2695.000000	99.663663
2694.000000	99.667347
2693.000000	99.667372
2692.000000	99.663982
2691.000000	99.658796
2690.000000	99.653437
2689.000000	99.648876
2688.000000	99.645660
2687.000000	99.643636
2686.000000	99.641282
2685.000000	99.636669
2684.000000	99.630114
2683.000000	99.624973
2682.000000	99.624169
2681.000000	99.626241
2680.000000	99.626238
2679.000000	99.620980
2678.000000	99.612237
2677.000000	99.604357
2676.000000	99.600260
2675.000000	99.600504
2674.000000	99.604461
2673.000000	99.610683
2672.000000	99.617117
2671.000000	99.622987
2670.000000	99.630041
2669.000000	99.639801
2668.000000	99.649519
2667.000000	99.653613
2666.000000	99.650073
2665.000000	99.643244
2664.000000	99.638650
2663.000000	99.636157
2662.000000	99.631158
2661.000000	99.621730
2660.000000	99.611469
2659.000000	99.604574
2658.000000	99.600772
2657.000000	99.597224
2656.000000	99.593651
2655.000000	99.592715
2654.000000	99.595350
2653.000000	99.598221
2652.000000	99.597164
2651.000000	99.591922
2650.000000	99.586470
2649.000000	99.585090
2648.000000	99.588750
2647.000000	99.594779
2646.000000	99.599194
2645.000000	99.599534
2644.000000	99.596020
2643.000000	99.590337
2642.000000	99.583768
2641.000000	99.577127
2640.000000	99.572012
2639.000000	99.570250
2638.000000	99.570994
2637.000000	99.569603
2636.000000	99.561585
2635.000000	99.548027
2634.000000	99.535886
2633.000000	99.532333
2632.000000	99.539613
2631.000000	99.554704
2630.000000	99.571826
2629.000000	99.585468
2628.000000	99.593148
2627.000000	99.596874
2626.000000	99.601072
2625.000000	99.607639
2624.000000	99.613863
2623.000000	99.616306
2622.000000	99.615035
2621.000000	99.612206
2620.000000	99.608174
2619.000000	99.601675
2618.000000	99.593201
2617.000000	99.584815
2616.000000	99.576197
2615.000000	99.564297
2614.000000	99.548500
2613.000000	99.533493
2612.000000	99.524593
2611.000000	99.521922
2610.000000	99.521478
2609.000000	99.520752
2608.000000	99.520995
2607.000000	99.524426
2606.000000	99.531575
2605.000000	99.541262
2604.000000	99.550865
2603.000000	99.556287
2602.000000	99.554057
2601.000000	99.544929
2600.000000	99.534610
2599.000000	99.529446
2598.000000	99.531302
2597.000000	99.536982
2596.000000	99.541476
2595.000000	99.541693
2594.000000	99.538070
2593.000000	99.533809
2592.000000	99.532261
2591.000000	99.534079
2590.000000	99.536718
2589.000000	99.537040
2588.000000	99.534530
2587.000000	99.531839
2586.000000	99.532513
2585.000000	99.538318
2584.000000	99.547992
2583.000000	99.557683
2582.000000	99.563212
2581.000000	99.563200
2580.000000	99.560092
2579.000000	99.557769
2578.000000	99.557852
2577.000000	99.558991
2576.000000	99.559708
2575.000000	99.560645
2574.000000	99.563220
2573.000000	99.566798
2572.000000	99.568546
2571.000000	99.566305
2570.000000	99.560787
2569.000000	99.554816
2568.000000	99.550884
2567.000000	99.549647
2566.000000	99.550251
2565.000000	99.551339
2564.000000	99.552012
2563.000000	99.552517
2562.000000	99.554316
2561.000000	99.559167
2560.000000	99.567598
2559.000000	99.577898
2558.000000	99.586946
2557.000000	99.592775
2556.000000	99.596280
2555.000000	99.600071
2554.000000	99.605259
2553.000000	99.609827
2552.000000	99.610955
2551.000000	99.608552
2550.000000	99.605687
2549.000000	99.605480
2548.000000	99.608068
2547.000000	99.610859
2546.000000	99.611268
2545.000000	99.609118
2544.000000	99.606845
2543.000000	99.607500
2542.000000	99.611994
2541.000000	99.617827
2540.000000	99.620828
2539.000000	99.618689
2538.000000	99.612704
2537.000000	99.606520
2536.000000	99.603224
2535.000000	99.603664
2534.000000	99.606663
2533.000000	99.609904
2532.000000	99.611301
2531.000000	99.610644
2530.000000	99.610055
2529.000000	99.611993
2528.000000	99.616360
2527.000000	99.620201
2526.000000	99.620817
2525.000000	99.618452
2524.000000	99.615542
2523.000000	99.613991
2522.000000	99.613931
2521.000000	99.614453
2520.000000	99.614481
2519.000000	99.613326
2518.000000	99.611476
2517.000000	99.610616
2516.000000	99.611707
2515.000000	99.613185
2514.000000	99.612518
2513.000000	99.610046
2512.000000	99.609884
2511.000000	99.615858
2510.000000	99.626905
2509.000000	99.637397
2508.000000	99.642421
2507.000000	99.642050
2506.000000	99.640307
2505.000000	99.640424
2504.000000	99.641422
2503.000000	99.639521
2502.000000	99.632296
2501.000000	99.620802
2500.000000	99.608106
2499.000000	99.596632
2498.000000	99.587132
2497.000000	99.579561
2496.000000	99.573641
2495.000000	99.568607
2494.000000	99.563818
2493.000000	99.559926
2492.000000	99.558310
2491.000000	99.558815
2490.000000	99.558820
2489.000000	99.555812
2488.000000	99.551089
2487.000000	99.549672
2486.000000	99.555808
2485.000000	99.569060
2484.000000	99.584805
2483.000000	99.597749
2482.000000	99.604839
2481.000000	99.606209
2480.000000	99.605136
2479.000000	99.606449
2478.000000	99.612278
2477.000000	99.618681
2476.000000	99.618841
2475.000000	99.611037
2474.000000	99.601828
2473.000000	99.599369
2472.000000	99.604338
2471.000000	99.610165
2470.000000	99.611752
2469.000000	99.611067
2468.000000	99.613054
2467.000000	99.618734
2466.000000	99.624594
2465.000000	99.627245
2464.000000	99.626241
2463.000000	99.623079
2462.000000	99.619953
2461.000000	99.619526
2460.000000	99.623352
2459.000000	99.629170
2458.000000	99.631060
2457.000000	99.624041
2456.000000	99.608793
2455.000000	99.591990
2454.000000	99.581364
2453.000000	99.579643
2452.000000	99.582632
2451.000000	99.582946
2450.000000	99.577050
2449.000000	99.568683
2448.000000	99.564857
2447.000000	99.569092
2446.000000	99.579190
2445.000000	99.590255
2444.000000	99.598537
2443.000000	99.603039
2442.000000	99.606025
2441.000000	99.612363
2440.000000	99.625279
2439.000000	99.641013
2438.000000	99.650340
2437.000000	99.648338
2436.000000	99.640976
2435.000000	99.639195
2434.000000	99.646852
2433.000000	99.657805
2432.000000	99.664617
2431.000000	99.666254
2430.000000	99.666152
2429.000000	99.666861
2428.000000	99.669246
2427.000000	99.674038
2426.000000	99.680466
2425.000000	99.684648
2424.000000	99.683130
2423.000000	99.677708
2422.000000	99.673404
2421.000000	99.671288
2420.000000	99.666551
2419.000000	99.655212
2418.000000	99.640064
2417.000000	99.627599
2416.000000	99.620562
2415.000000	99.615850
2414.000000	99.608867
2413.000000	99.597943
2412.000000	99.585616
2411.000000	99.577510
2410.000000	99.578480
2409.000000	99.588301
2408.000000	99.599701
2407.000000	99.604387
2406.000000	99.602032
2405.000000	99.600263
2404.000000	99.605998
2403.000000	99.618422
2402.000000	99.632145
2401.000000	99.643838
2400.000000	99.653690
2399.000000	99.663346
2398.000000	99.674527
2397.000000	99.688050
2396.000000	99.702272
2395.000000	99.713890
2394.000000	99.721983
2393.000000	99.730281
2392.000000	99.743116
2391.000000	99.759679
2390.000000	99.774830
2389.000000	99.785438
2388.000000	99.793573
2387.000000	99.803272
2386.000000	99.816346
2385.000000	99.831828
2384.000000	99.847533
2383.000000	99.861217
2382.000000	99.871679
2381.000000	99.880045
2380.000000	99.889404
2379.000000	99.901906
2378.000000	99.916541
2377.000000	99.930482
2376.000000	99.942193
2375.000000	99.952071
2374.000000	99.960797
2373.000000	99.969148
2372.000000	99.978803
2371.000000	99.990983
2370.000000	100.003628
2369.000000	100.012622
2368.000000	100.017063
2367.000000	100.021418
2366.000000	100.030395
2365.000000	100.042968
2364.000000	100.054085
2363.000000	100.062186
2362.000000	100.071259
2361.000000	100.084497
2360.000000	100.099967
2359.000000	100.112825
2358.000000	100.120657
2357.000000	100.124776
2356.000000	100.128206
2355.000000	100.134306
2354.000000	100.144414
2353.000000	100.155825
2352.000000	100.163930
2351.000000	100.167493
2350.000000	100.170026
2349.000000	100.174657
2348.000000	100.181759
2347.000000	100.189840
2346.000000	100.196299
2345.000000	100.199737
2344.000000	100.200301
2343.000000	100.200716
2342.000000	100.203965
2341.000000	100.211371
2340.000000	100.220767
2339.000000	100.226266
2338.000000	100.224929
2337.000000	100.219176
2336.000000	100.214822
2335.000000	100.215634
2334.000000	100.222070
2333.000000	100.229707
2332.000000	100.230651
2331.000000	100.218272
2330.000000	100.196526
2329.000000	100.177954
2328.000000	100.171694
2327.000000	100.173258
2326.000000	100.170348
2325.000000	100.158317
2324.000000	100.143942
2323.000000	100.137288
2322.000000	100.138402
2321.000000	100.138723
2320.000000	100.131551
2319.000000	100.116218
2318.000000	100.096339
2317.000000	100.075700
2316.000000	100.060003
2315.000000	100.052859
2314.000000	100.052323
2313.000000	100.049610
2312.000000	100.038932
2311.000000	100.023477
2310.000000	100.011634
2309.000000	100.006624
2308.000000	100.004951
2307.000000	100.001483
2306.000000	99.992841
2305.000000	99.976657
2304.000000	99.953101
2303.000000	99.927460
2302.000000	99.907509
2301.000000	99.894731
2300.000000	99.882340
2299.000000	99.862583
2298.000000	99.835353
2297.000000	99.806292
2296.000000	99.780653
2295.000000	99.760482
2294.000000	99.745254
2293.000000	99.731614
2292.000000	99.714795
2291.000000	99.695545
2290.000000	99.682272
2289.000000	99.682210
2288.000000	99.690317
2287.000000	99.693813
2286.000000	99.687193
2285.000000	99.676571
2284.000000	99.668211
2283.000000	99.661027
2282.000000	99.651996
2281.000000	99.642102
2280.000000	99.631856
2279.000000	99.616239
2278.000000	99.592108
2277.000000	99.567298
2276.000000	99.554547
2275.000000	99.557143
2274.000000	99.567418
2273.000000	99.578187
2272.000000	99.589788
2271.000000	99.604093
2270.000000	99.618537
2269.000000	99.629789
2268.000000	99.638702
2267.000000	99.647397
2266.000000	99.654546
2265.000000	99.657949
2264.000000	99.659617
2263.000000	99.663512
2262.000000	99.668811
2261.000000	99.669998
2260.000000	99.664330
2259.000000	99.656359
2258.000000	99.653339
2257.000000	99.657692
2256.000000	99.664733
2255.000000	99.666798
2254.000000	99.660001
2253.000000	99.648434
2252.000000	99.642041
2251.000000	99.647908
2250.000000	99.663305
2249.000000	99.678033
2248.000000	99.684442
2247.000000	99.683279
2246.000000	99.679633
2245.000000	99.676503
2244.000000	99.674198
2243.000000	99.673366
2242.000000	99.674243
2241.000000	99.673851
2240.000000	99.668393
2239.000000	99.659074
2238.000000	99.652091
2237.000000	99.651226
2236.000000	99.653388
2235.000000	99.653248
2234.000000	99.650173
2233.000000	99.647900
2232.000000	99.648735
2231.000000	99.651210
2230.000000	99.653059
2229.000000	99.654057
2228.000000	99.655074
2227.000000	99.656101
2226.000000	99.657018
2225.000000	99.659203
2224.000000	99.664062
2223.000000	99.669874
2222.000000	99.672268
2221.000000	99.668934
2220.000000	99.662594
2219.000000	99.658683
2218.000000	99.660049
2217.000000	99.664683
2216.000000	99.667894
2215.000000	99.666396
2214.000000	99.660856
2213.000000	99.655461
2212.000000	99.654581
2211.000000	99.659125
2210.000000	99.666053
2209.000000	99.671427
2208.000000	99.673510
2207.000000	99.672667
2206.000000	99.669541
2205.000000	99.664941
2204.000000	99.660524
2203.000000	99.657243
2202.000000	99.653536
2201.000000	99.647151
2200.000000	99.638841
2199.000000	99.631908
2198.000000	99.627432
2197.000000	99.622825
2196.000000	99.616914
2195.000000	99.613695
2194.000000	99.617396
2193.000000	99.625363
2192.000000	99.629850
2191.000000	99.626851
2190.000000	99.619456
2189.000000	99.612017
2188.000000	99.605257
2187.000000	99.599332
2186.000000	99.597483
2185.000000	99.602438
2184.000000	99.611410
2183.000000	99.618619
2182.000000	99.622074
2181.000000	99.624163
2180.000000	99.626209
2179.000000	99.626835
2178.000000	99.626274
2177.000000	99.628222
2176.000000	99.635441
2175.000000	99.646214
2174.000000	99.657227
2173.000000	99.667925
2172.000000	99.679475
2171.000000	99.690816
2170.000000	99.698289
2169.000000	99.699534
2168.000000	99.696668
2167.000000	99.695091
2166.000000	99.698918
2165.000000	99.706953
2164.000000	99.713175
2163.000000	99.712320
2162.000000	99.705053
2161.000000	99.696899
2160.000000	99.692123
2159.000000	99.690436
2158.000000	99.690029
2157.000000	99.690685
2156.000000	99.691854
2155.000000	99.690381
2154.000000	99.683901
2153.000000	99.675697
2152.000000	99.672285
2151.000000	99.675287
2150.000000	99.678953
2149.000000	99.677621
2148.000000	99.673489
2147.000000	99.673971
2146.000000	99.682322
2145.000000	99.693681
2144.000000	99.700464
2143.000000	99.699761
2142.000000	99.694167
2141.000000	99.687603
2140.000000	99.682935
2139.000000	99.682873
2138.000000	99.689599
2137.000000	99.701740
2136.000000	99.713605
2135.000000	99.720148
2134.000000	99.722250
2133.000000	99.725187
2132.000000	99.732359
2131.000000	99.742443
2130.000000	99.752428
2129.000000	99.760972
2128.000000	99.768098
2127.000000	99.773824
2126.000000	99.778691
2125.000000	99.784265
2124.000000	99.791411
2123.000000	99.798578
2122.000000	99.802970
2121.000000	99.803132
2120.000000	99.800088
2119.000000	99.796413
2118.000000	99.793889
2117.000000	99.791300
2116.000000	99.784897
2115.000000	99.772665
2114.000000	99.758313
2113.000000	99.748789
2112.000000	99.746778
2111.000000	99.747828
2110.000000	99.745797
2109.000000	99.739179
2108.000000	99.730817
2107.000000	99.723890
2106.000000	99.720618
2105.000000	99.722767
2104.000000	99.729841
2103.000000	99.737157
2102.000000	99.739219
2101.000000	99.735853
2100.000000	99.732551
2099.000000	99.734053
2098.000000	99.739545
2097.000000	99.744775
2096.000000	99.746775
2095.000000	99.745211
2094.000000	99.740805
2093.000000	99.734621
2092.000000	99.728745
2091.000000	99.726013
2090.000000	99.728216
2089.000000	99.734669
2088.000000	99.742665
2087.000000	99.749553
2086.000000	99.754427
2085.000000	99.757788
2084.000000	99.759976
2083.000000	99.760710
2082.000000	99.760364
2081.000000	99.760595
2080.000000	99.762423
2079.000000	99.764145
2078.000000	99.762697
2077.000000	99.757448
2076.000000	99.751626
2075.000000	99.749219
2074.000000	99.750880
2073.000000	99.753448
2072.000000	99.753300
2071.000000	99.749684
2070.000000	99.744756
2069.000000	99.740973
2068.000000	99.738738
2067.000000	99.736654
2066.000000	99.733758
2065.000000	99.731282
2064.000000	99.731956
2063.000000	99.737685
2062.000000	99.748094
2061.000000	99.760671
2060.000000	99.771701
2059.000000	99.777738
2058.000000	99.777762
2057.000000	99.774806
2056.000000	99.774510
2055.000000	99.780253
2054.000000	99.789393
2053.000000	99.795295
2052.000000	99.793875
2051.000000	99.787480
2050.000000	99.781911
2049.000000	99.780277
2048.000000	99.780970
2047.000000	99.781218
2046.000000	99.780604
2045.000000	99.780178
2044.000000	99.779729
2043.000000	99.777904
2042.000000	99.774347
2041.000000	99.769646
2040.000000	99.763243
2039.000000	99.753790
2038.000000	99.742346
2037.000000	99.732913
2036.000000	99.728143
2035.000000	99.725962
2034.000000	99.722166
2033.000000	99.715609
2032.000000	99.709173
2031.000000	99.706053
2030.000000	99.706633
2029.000000	99.708746
2028.000000	99.709974
2027.000000	99.709766
2026.000000	99.710366
2025.000000	99.714505
2024.000000	99.722172
2023.000000	99.730715
2022.000000	99.738558
2021.000000	99.746997
2020.000000	99.756810
2019.000000	99.765345
2018.000000	99.769665
2017.000000	99.771196
2016.000000	99.774004
2015.000000	99.779339
2014.000000	99.785578
2013.000000	99.792641
2012.000000	99.801762
2011.000000	99.810232
2010.000000	99.811400
2009.000000	99.802726
2008.000000	99.790691
2007.000000	99.784020
2006.000000	99.783747
2005.000000	99.783022
2004.000000	99.775937
2003.000000	99.763072
2002.000000	99.748511
2001.000000	99.735339
2000.000000	99.724571
1999.000000	99.717046
1998.000000	99.712739
1997.000000	99.708421
1996.000000	99.698909
1995.000000	99.681938
1994.000000	99.660771
1993.000000	99.641061
1992.000000	99.625530
1991.000000	99.613551
1990.000000	99.606499
1989.000000	99.609813
1988.000000	99.626531
1987.000000	99.650147
1986.000000	99.668025
1985.000000	99.674363
1984.000000	99.676551
1983.000000	99.686187
1982.000000	99.705977
1981.000000	99.728703
1980.000000	99.747426
1979.000000	99.762894
1978.000000	99.778051
1977.000000	99.789986
1976.000000	99.793170
1975.000000	99.789593
1974.000000	99.789301
1973.000000	99.797918
1972.000000	99.808265
1971.000000	99.809126
1970.000000	99.799061
1969.000000	99.786371
1968.000000	99.777368
1967.000000	99.770828
1966.000000	99.765583
1965.000000	99.765985
1964.000000	99.774533
1963.000000	99.784552
1962.000000	99.786539
1961.000000	99.779404
1960.000000	99.769742
1959.000000	99.761025
1958.000000	99.750098
1957.000000	99.735171
1956.000000	99.720370
1955.000000	99.709202
1954.000000	99.698677
1953.000000	99.683928
1952.000000	99.666423
1951.000000	99.652656
1950.000000	99.646816
1949.000000	99.647218
1948.000000	99.648101
1947.000000	99.644436
1946.000000	99.636652
1945.000000	99.631445
1944.000000	99.636275
1943.000000	99.652247
1942.000000	99.674322
1941.000000	99.699299
1940.000000	99.728617
1939.000000	99.760740
1938.000000	99.787756
1937.000000	99.804133
1936.000000	99.814213
1935.000000	99.825302
1934.000000	99.836790
1933.000000	99.842943
1932.000000	99.844012
1931.000000	99.844502
1930.000000	99.843253
1929.000000	99.834074
1928.000000	99.816747
1927.000000	99.801722
1926.000000	99.796764
1925.000000	99.797176
1924.000000	99.792294
1923.000000	99.779392
1922.000000	99.766256
1921.000000	99.758776
1920.000000	99.753232
1919.000000	99.743332
1918.000000	99.729411
1917.000000	99.717871
1916.000000	99.711661
1915.000000	99.707168
1914.000000	99.699687
1913.000000	99.687703
1912.000000	99.672129
1911.000000	99.653584
1910.000000	99.633335
1909.000000	99.614925
1908.000000	99.601825
1907.000000	99.595061
1906.000000	99.592017
1905.000000	99.589984
1904.000000	99.588824
1903.000000	99.591637
1902.000000	99.603536
1901.000000	99.625696
1900.000000	99.650527
1899.000000	99.667384
1898.000000	99.672769
1897.000000	99.673534
1896.000000	99.677712
1895.000000	99.684377
1894.000000	99.686903
1893.000000	99.683070
1892.000000	99.675813
1891.000000	99.666314
1890.000000	99.653438
1889.000000	99.640282
1888.000000	99.633406
1887.000000	99.633046
1886.000000	99.631143
1885.000000	99.621875
1884.000000	99.610120
1883.000000	99.604932
1882.000000	99.607791
1881.000000	99.612367
1880.000000	99.614532
1879.000000	99.617366
1878.000000	99.623750
1877.000000	99.630319
1876.000000	99.632417
1875.000000	99.629697
1874.000000	99.623749
1873.000000	99.613682
1872.000000	99.597324
1871.000000	99.576137
1870.000000	99.556931
1869.000000	99.547528
1868.000000	99.549593
1867.000000	99.557907
1866.000000	99.566716
1865.000000	99.573027
1864.000000	99.576424
1863.000000	99.578768
1862.000000	99.582878
1861.000000	99.590443
1860.000000	99.601238
1859.000000	99.614112
1858.000000	99.627344
1857.000000	99.638396
1856.000000	99.645497
1855.000000	99.649776
1854.000000	99.653723
1853.000000	99.657731
1852.000000	99.658955
1851.000000	99.656841
1850.000000	99.653558
1849.000000	99.648921
1848.000000	99.638768
1847.000000	99.620520
1846.000000	99.599301
1845.000000	99.586225
1844.000000	99.588365
1843.000000	99.601655
1842.000000	99.619155
1841.000000	99.638998
1840.000000	99.660513
1839.000000	99.681269
1838.000000	99.698253
1837.000000	99.711952
1836.000000	99.724728
1835.000000	99.735289
1834.000000	99.738931
1833.000000	99.733663
1832.000000	99.723623
1831.000000	99.716314
1830.000000	99.713948
1829.000000	99.711384
1828.000000	99.706201
1827.000000	99.703378
1826.000000	99.707681
1825.000000	99.717461
1824.000000	99.726842
1823.000000	99.732426
1822.000000	99.735107
1821.000000	99.736428
1820.000000	99.737743
1819.000000	99.741623
1818.000000	99.750721
1817.000000	99.765605
1816.000000	99.782526
1815.000000	99.794973
1814.000000	99.798890
1813.000000	99.794858
1812.000000	99.787758
1811.000000	99.782481
1810.000000	99.779921
1809.000000	99.778262
1808.000000	99.775504
1807.000000	99.770687
1806.000000	99.764015
1805.000000	99.756557
1804.000000	99.749930
1803.000000	99.745738
1802.000000	99.745844
1801.000000	99.750988
1800.000000	99.761150
1799.000000	99.774997
1798.000000	99.789460
1797.000000	99.800545
1796.000000	99.805354
1795.000000	99.804235
1794.000000	99.800623
1793.000000	99.798643
1792.000000	99.801990
1791.000000	99.812190
1790.000000	99.827130
1789.000000	99.840664
1788.000000	99.845561
1787.000000	99.839701
1786.000000	99.829291
1785.000000	99.823897
1784.000000	99.826356
1783.000000	99.831405
1782.000000	99.834700
1781.000000	99.835952
1780.000000	99.838659
1779.000000	99.846699
1778.000000	99.861489
1777.000000	99.880066
1776.000000	99.894618
1775.000000	99.899228
1774.000000	99.895301
1773.000000	99.890798
1772.000000	99.893684
1771.000000	99.903442
1770.000000	99.912883
1769.000000	99.916740
1768.000000	99.914167
1767.000000	99.908954
1766.000000	99.906247
1765.000000	99.906194
1764.000000	99.904337
1763.000000	99.897127
1762.000000	99.887345
1761.000000	99.880531
1760.000000	99.878344
1759.000000	99.877523
1758.000000	99.876977
1757.000000	99.879168
1756.000000	99.883575
1755.000000	99.884502
1754.000000	99.876428
1753.000000	99.859539
1752.000000	99.840827
1751.000000	99.829905
1750.000000	99.829465
1749.000000	99.836658
1748.000000	99.848026
1747.000000	99.860135
1746.000000	99.869373
1745.000000	99.872956
1744.000000	99.872751
1743.000000	99.872851
1742.000000	99.875186
1741.000000	99.879585
1740.000000	99.885904
1739.000000	99.890981
1738.000000	99.888578
1737.000000	99.873366
1736.000000	99.844184
1735.000000	99.812394
1734.000000	99.803665
1733.000000	99.826470
1732.000000	99.862012
1731.000000	99.894537
1730.000000	99.920180
1729.000000	99.943761
1728.000000	99.969566
1727.000000	99.996074
1726.000000	100.018218
1725.000000	100.032258
1724.000000	100.040329
1723.000000	100.045106
1722.000000	100.045830
1721.000000	100.040462
1720.000000	100.027875
1719.000000	100.009064
1718.000000	99.988307
1717.000000	99.975042
1716.000000	99.975783
1715.000000	99.986469
1714.000000	99.997432
1713.000000	100.002037
1712.000000	99.998733
1711.000000	99.988345
1710.000000	99.973555
1709.000000	99.958867
1708.000000	99.949040
1707.000000	99.947742
1706.000000	99.954855
1705.000000	99.965348
1704.000000	99.970973
1703.000000	99.967789
1702.000000	99.958159
1701.000000	99.950177
1700.000000	99.950207
1699.000000	99.952777
1698.000000	99.954523
1697.000000	99.957756
1696.000000	99.964428
1695.000000	99.975619
1694.000000	99.991393
1693.000000	100.011440
1692.000000	100.029016
1691.000000	100.036255
1690.000000	100.031030
1689.000000	100.015305
1688.000000	99.991411
1687.000000	99.964920
1686.000000	99.945628
1685.000000	99.951174
1684.000000	99.988580
1683.000000	100.034816
1682.000000	100.077447
1681.000000	100.121806
1680.000000	100.164047
1679.000000	100.197350
1678.000000	100.219323
1677.000000	100.229947
1676.000000	100.227023
1675.000000	100.210004
1674.000000	100.189104
1673.000000	100.175094
1672.000000	100.168034
1671.000000	100.158451
1670.000000	100.140249
1669.000000	100.116939
1668.000000	100.097340
1667.000000	100.088286
1666.000000	100.088998
1665.000000	100.092205
1664.000000	100.089155
1663.000000	100.074379
1662.000000	100.055915
1661.000000	100.048662
1660.000000	100.057939
1659.000000	100.075971
1658.000000	100.088525
1657.000000	100.083894
1656.000000	100.060083
1655.000000	100.025897
1654.000000	99.999670
1653.000000	99.995859
1652.000000	99.997731
1651.000000	99.996287
1650.000000	99.997461
1649.000000	99.992853
1648.000000	99.979010
1647.000000	99.964520
1646.000000	99.958157
1645.000000	99.958474
1644.000000	99.963154
1643.000000	99.971551
1642.000000	99.984345
1641.000000	99.999957
1640.000000	100.012487
1639.000000	100.016951
1638.000000	100.013790
1637.000000	100.009296
1636.000000	100.009192
1635.000000	100.013544
1634.000000	100.019089
1633.000000	100.026442
1632.000000	100.032867
1631.000000	100.032570
1630.000000	100.024804
1629.000000	100.015579
1628.000000	100.012482
1627.000000	100.017553
1626.000000	100.027351
1625.000000	100.035895
1624.000000	100.036834
1623.000000	100.026626
1622.000000	100.010502
1621.000000	99.998288
1620.000000	99.994317
1619.000000	99.996327
1618.000000	99.998720
1617.000000	99.995147
1616.000000	99.983620
1615.000000	99.972587
1614.000000	99.971318
1613.000000	99.979176
1612.000000	99.988323
1611.000000	99.991201
1610.000000	99.987150
1609.000000	99.982452
1608.000000	99.983940
1607.000000	99.993028
1606.000000	100.006357
1605.000000	100.018921
1604.000000	100.027994
1603.000000	100.033894
1602.000000	100.038026
1601.000000	100.042103
1600.000000	100.047123
1599.000000	100.051971
1598.000000	100.053095
1597.000000	100.048329
1596.000000	100.041711
1595.000000	100.041649
1594.000000	100.052979
1593.000000	100.071848
1592.000000	100.089636
1591.000000	100.100485
1590.000000	100.104393
1589.000000	100.105581
1588.000000	100.109916
1587.000000	100.122031
1586.000000	100.141722
1585.000000	100.162794
1584.000000	100.177460
1583.000000	100.184839
1582.000000	100.189947
1581.000000	100.195502
1580.000000	100.198110
1579.000000	100.193758
1578.000000	100.182289
1577.000000	100.168429
1576.000000	100.158370
1575.000000	100.153474
1574.000000	100.151922
1573.000000	100.151120
1572.000000	100.149313
1571.000000	100.149651
1570.000000	100.158267
1569.000000	100.174627
1568.000000	100.190817
1567.000000	100.205092
1566.000000	100.219890
1565.000000	100.235021
1564.000000	100.246847
1563.000000	100.254710
1562.000000	100.264004
1561.000000	100.283624
1560.000000	100.312440
1559.000000	100.320893
1558.000000	100.291492
1557.000000	100.260614
1556.000000	100.252020
1555.000000	100.253768
1554.000000	100.250240
1553.000000	100.236449
1552.000000	100.218076
1551.000000	100.202323
1550.000000	100.193601
1549.000000	100.194587
1548.000000	100.201488
1547.000000	100.205345
1546.000000	100.198582
1545.000000	100.183336
1544.000000	100.172370
1543.000000	100.175249
1542.000000	100.185841
1541.000000	100.191298
1540.000000	100.187037
1539.000000	100.178221
1538.000000	100.170660
1537.000000	100.168561
1536.000000	100.172078
1535.000000	100.179496
1534.000000	100.186150
1533.000000	100.183093
1532.000000	100.172494
1531.000000	100.167710
1530.000000	100.175510
1529.000000	100.192544
1528.000000	100.210750
1527.000000	100.223124
1526.000000	100.227594
1525.000000	100.227321
1524.000000	100.230137
1523.000000	100.244856
1522.000000	100.273226
1521.000000	100.301117
1520.000000	100.314779
1519.000000	100.320499
1518.000000	100.325470
1517.000000	100.326956
1516.000000	100.324041
1515.000000	100.323822
1514.000000	100.331500
1513.000000	100.341279
1512.000000	100.345453
1511.000000	100.344853
1510.000000	100.348957
1509.000000	100.365666
1508.000000	100.392997
1507.000000	100.413150
1506.000000	100.407740
1505.000000	100.386996
1504.000000	100.371227
1503.000000	100.365808
1502.000000	100.369086
1501.000000	100.378490
1500.000000	100.384447
1499.000000	100.374947
1498.000000	100.353012
1497.000000	100.343020
1496.000000	100.361623
1495.000000	100.392973
1494.000000	100.416854
1493.000000	100.432988
1492.000000	100.451123
1491.000000	100.475703
1490.000000	100.503358
1489.000000	100.533909
1488.000000	100.571634
1487.000000	100.609030
1486.000000	100.631995
1485.000000	100.639907
1484.000000	100.646091
1483.000000	100.663799
1482.000000	100.690577
1481.000000	100.712753
1480.000000	100.724009
1479.000000	100.732207
1478.000000	100.746661
1477.000000	100.768415
1476.000000	100.793578
1475.000000	100.819749
1474.000000	100.846598
1473.000000	100.867270
1472.000000	100.875256
1471.000000	100.878233
1470.000000	100.888335
1469.000000	100.907760
1468.000000	100.933208
1467.000000	100.961802
1466.000000	100.989549
1465.000000	101.008692
1464.000000	101.016481
1463.000000	101.022109
1462.000000	101.032656
1461.000000	101.046310
1460.000000	101.062229
1459.000000	101.089111
1458.000000	101.128527
1457.000000	101.145062
1456.000000	101.107938
1455.000000	101.050365
1454.000000	101.009832
1453.000000	100.985724
1452.000000	100.967313
1451.000000	100.955200
1450.000000	100.958600
1449.000000	100.978375
1448.000000	100.999537
1447.000000	101.006735
1446.000000	101.004708
1445.000000	101.006789
1444.000000	101.017173
1443.000000	101.029461
1442.000000	101.036062
1441.000000	101.036596
1440.000000	101.037280
1439.000000	101.045974
1438.000000	101.064639
1437.000000	101.081412
1436.000000	101.076088
1435.000000	101.050449
1434.000000	101.025922
1433.000000	101.016178
1432.000000	101.022374
1431.000000	101.038385
1430.000000	101.054582
1429.000000	101.064332
1428.000000	101.068731
1427.000000	101.074953
1426.000000	101.091382
1425.000000	101.119025
1424.000000	101.149284
1423.000000	101.174067
1422.000000	101.197486
1421.000000	101.229577
1420.000000	101.266483
1419.000000	101.281752
1418.000000	101.258133
1417.000000	101.217051
1416.000000	101.187671
1415.000000	101.176964
1414.000000	101.175398
1413.000000	101.170201
1412.000000	101.155227
1411.000000	101.133562
1410.000000	101.112851
1409.000000	101.100152
1408.000000	101.100705
1407.000000	101.115947
1406.000000	101.140503
1405.000000	101.159747
1404.000000	101.161555
1403.000000	101.152379
1402.000000	101.150374
1401.000000	101.165896
1400.000000	101.193176
1399.000000	101.217685
1398.000000	101.232514
1397.000000	101.242338
1396.000000	101.249082
1395.000000	101.247565
1394.000000	101.238016
1393.000000	101.230437
1392.000000	101.235071
1391.000000	101.255285
1390.000000	101.289237
1389.000000	101.330048
1388.000000	101.364961
1387.000000	101.384594
1386.000000	101.397011
1385.000000	101.417158
1384.000000	101.446820
1383.000000	101.478475
1382.000000	101.509574
1381.000000	101.542796
1380.000000	101.573184
1379.000000	101.589757
1378.000000	101.592561
1377.000000	101.593790
1376.000000	101.595722
1375.000000	101.581956
1374.000000	101.541491
1373.000000	101.489449
1372.000000	101.448484
1371.000000	101.419798
1370.000000	101.390422
1369.000000	101.354048
1368.000000	101.317269
1367.000000	101.289911
1366.000000	101.276984
1365.000000	101.278631
1364.000000	101.288527
1363.000000	101.292162
1362.000000	101.279087
1361.000000	101.258684
1360.000000	101.249859
1359.000000	101.259728
1358.000000	101.280976
1357.000000	101.302447
1356.000000	101.317425
1355.000000	101.324892
1354.000000	101.329411
1353.000000	101.340367
1352.000000	101.365428
1351.000000	101.400988
1350.000000	101.433592
1349.000000	101.450929
1348.000000	101.451876
1347.000000	101.444197
1346.000000	101.437095
1345.000000	101.437882
1344.000000	101.450474
1343.000000	101.471645
1342.000000	101.490114
1341.000000	101.493963
1340.000000	101.481208
1339.000000	101.462106
1338.000000	101.448457
1337.000000	101.443013
1336.000000	101.442305
1335.000000	101.443268
1334.000000	101.443577
1333.000000	101.440264
1332.000000	101.432706
1331.000000	101.425918
1330.000000	101.426962
1329.000000	101.436657
1328.000000	101.447229
1327.000000	101.449599
1326.000000	101.441894
1325.000000	101.429675
1324.000000	101.419959
1323.000000	101.415775
1322.000000	101.415081
1321.000000	101.413070
1320.000000	101.406156
1319.000000	101.395577
1318.000000	101.386974
1317.000000	101.384859
1316.000000	101.388302
1315.000000	101.392441
1314.000000	101.393364
1313.000000	101.391113
1312.000000	101.388309
1311.000000	101.387501
1310.000000	101.390064
1309.000000	101.395629
1308.000000	101.401196
1307.000000	101.402522
1306.000000	101.398577
1305.000000	101.393808
1304.000000	101.394141
1303.000000	101.400682
1302.000000	101.408447
1301.000000	101.411265
1300.000000	101.406830
1299.000000	101.396722
1298.000000	101.384722
1297.000000	101.375580
1296.000000	101.373043
1295.000000	101.376714
1294.000000	101.380604
1293.000000	101.377882
1292.000000	101.368227
1291.000000	101.358862
1290.000000	101.356260
1289.000000	101.358426
1288.000000	101.358103
1287.000000	101.352049
1286.000000	101.343104
1285.000000	101.333830
1284.000000	101.323195
1283.000000	101.311037
1282.000000	101.302048
1281.000000	101.302516
1280.000000	101.314274
1279.000000	101.333509
1278.000000	101.353846
1277.000000	101.369608
1276.000000	101.377209
1275.000000	101.375184
1274.000000	101.364302
1273.000000	101.347617
1272.000000	101.329710
1271.000000	101.314918
1270.000000	101.304223
1269.000000	101.293531
1268.000000	101.277256
1267.000000	101.254263
1266.000000	101.228382
1265.000000	101.203046
1264.000000	101.179293
1263.000000	101.160440
1262.000000	101.152875
1261.000000	101.156752
1260.000000	101.159798
1259.000000	101.149277
1258.000000	101.129528
1257.000000	101.118874
1256.000000	101.126788
1255.000000	101.142337
1254.000000	101.149784
1253.000000	101.147994
1252.000000	101.144859
1251.000000	101.137079
1250.000000	101.109348
1249.000000	101.055575
1248.000000	100.989515
1247.000000	100.929661
1246.000000	100.880386
1245.000000	100.834958
1244.000000	100.790032
1243.000000	100.747739
1242.000000	100.707808
1241.000000	100.668793
1240.000000	100.637880
1239.000000	100.629129
1238.000000	100.646154
1237.000000	100.671052
1236.000000	100.676591
1235.000000	100.649170
1234.000000	100.597388
1233.000000	100.541967
1232.000000	100.499955
1231.000000	100.476033
1230.000000	100.462970
1229.000000	100.447297
1228.000000	100.416684
1227.000000	100.365618
1226.000000	100.297513
1225.000000	100.222547
1224.000000	100.150782
1223.000000	100.084182
1222.000000	100.016184
1221.000000	99.942677
1220.000000	99.872597
1219.000000	99.821589
1218.000000	99.793085
1217.000000	99.771502
1216.000000	99.739398
1215.000000	99.697673
1214.000000	99.661692
1213.000000	99.639088
1212.000000	99.618738
1211.000000	99.582940
1210.000000	99.524067
1209.000000	99.445965
1208.000000	99.357161
1207.000000	99.269547
1206.000000	99.198154
1205.000000	99.151210
1204.000000	99.117429
1203.000000	99.070142
1202.000000	98.991998
1201.000000	98.893666
1200.000000	98.803401
1199.000000	98.738503
1198.000000	98.692930
1197.000000	98.651919
1196.000000	98.611015
1195.000000	98.574771
1194.000000	98.541813
1193.000000	98.502018
1192.000000	98.450953
1191.000000	98.398794
1190.000000	98.358307
1189.000000	98.327145
1188.000000	98.288086
1187.000000	98.226238
1186.000000	98.140928
1185.000000	98.041042
1184.000000	97.935316
1183.000000	97.831069
1182.000000	97.737921
1181.000000	97.663082
1180.000000	97.599348
1179.000000	97.524736
1178.000000	97.423787
1177.000000	97.308810
1176.000000	97.210043
1175.000000	97.141475
1174.000000	97.086074
1173.000000	97.021262
1172.000000	96.948746
1171.000000	96.884292
1170.000000	96.824631
1169.000000	96.745758
1168.000000	96.638093
1167.000000	96.524934
1166.000000	96.435616
1165.000000	96.374844
1164.000000	96.332412
1163.000000	96.311501
1162.000000	96.326718
1161.000000	96.374547
1160.000000	96.422355
1159.000000	96.436538
1158.000000	96.415469
1157.000000	96.384601
1156.000000	96.361785
1155.000000	96.336155
1154.000000	96.284799
1153.000000	96.203670
1152.000000	96.113251
1151.000000	96.035036
1150.000000	95.971355
1149.000000	95.912462
1148.000000	95.852569
1147.000000	95.786710
1146.000000	95.699232
1145.000000	95.575140
1144.000000	95.427220
1143.000000	95.295403
1142.000000	95.206731
1141.000000	95.145823
1140.000000	95.076840
1139.000000	94.986545
1138.000000	94.890436
1137.000000	94.800151
1136.000000	94.706152
1135.000000	94.600298
1134.000000	94.498080
1133.000000	94.420844
1132.000000	94.363549
1131.000000	94.300256
1130.000000	94.224290
1129.000000	94.163053
1128.000000	94.137875
1127.000000	94.123108
1126.000000	94.069640
1125.000000	93.969518
1124.000000	93.870698
1123.000000	93.818023
1122.000000	93.801791
1121.000000	93.778478
1120.000000	93.727494
1119.000000	93.665269
1118.000000	93.610532
1117.000000	93.563981
1116.000000	93.525055
1115.000000	93.502795
1114.000000	93.496203
1113.000000	93.479783
1112.000000	93.426811
1111.000000	93.343846
1110.000000	93.269673
1109.000000	93.238315
1108.000000	93.249584
1107.000000	93.275570
1106.000000	93.290703
1105.000000	93.291074
1104.000000	93.282588
1103.000000	93.258944
1102.000000	93.208414
1101.000000	93.146231
1100.000000	93.118815
1099.000000	93.156826
1098.000000	93.233404
1097.000000	93.289580
1096.000000	93.297689
1095.000000	93.276197
1094.000000	93.247847
1093.000000	93.217065
1092.000000	93.195374
1091.000000	93.210612
1090.000000	93.262953
1089.000000	93.296621
1088.000000	93.253611
1087.000000	93.150937
1086.000000	93.072429
1085.000000	93.076744
1084.000000	93.138724
1083.000000	93.189026
1082.000000	93.190660
1081.000000	93.159043
1080.000000	93.120345
1079.000000	93.079461
1078.000000	93.032663
1077.000000	92.986980
1076.000000	92.949032
1075.000000	92.906752
1074.000000	92.844219
1073.000000	92.770842
1072.000000	92.709967
1071.000000	92.651501
1070.000000	92.541842
1069.000000	92.343783
1068.000000	92.094133
1067.000000	91.878191
1066.000000	91.744587
1065.000000	91.660335
1064.000000	91.550911
1063.000000	91.371763
1062.000000	91.141588
1061.000000	90.922502
1060.000000	90.775530
1059.000000	90.721738
1058.000000	90.728094
1057.000000	90.727983
1056.000000	90.662038
1055.000000	90.508917
1054.000000	90.293632
1053.000000	90.072801
1052.000000	89.892848
1051.000000	89.742991
1050.000000	89.560173
1049.000000	89.301067
1048.000000	88.993282
1047.000000	88.689795
1046.000000	88.393844
1045.000000	88.068330
1044.000000	87.709378
1043.000000	87.366791
1042.000000	87.081519
1041.000000	86.835058
1040.000000	86.578051
1039.000000	86.285294
1038.000000	85.965106
1037.000000	85.637685
1036.000000	85.331033
1035.000000	85.082970
1034.000000	84.913565
1033.000000	84.790432
1032.000000	84.638908
1031.000000	84.401159
1030.000000	84.090513
1029.000000	83.785707
1028.000000	83.567149
1027.000000	83.452336
1026.000000	83.386990
1025.000000	83.303093
1024.000000	83.184264
1023.000000	83.063975
1022.000000	82.973910
1021.000000	82.918338
1020.000000	82.890063
1019.000000	82.879684
1018.000000	82.864484
1017.000000	82.815809
1016.000000	82.728645
1015.000000	82.623153
1014.000000	82.507508
1013.000000	82.361220
1012.000000	82.171448
1011.000000	81.970123
1010.000000	81.814425
1009.000000	81.732196
1008.000000	81.693815
1007.000000	81.634366
1006.000000	81.507640
1005.000000	81.329315
1004.000000	81.165688
1003.000000	81.074133
1002.000000	81.058320
1001.000000	81.084213
1000.000000	81.125059
999.000000	81.172788
998.000000	81.219906
997.000000	81.263229
996.000000	81.323263
995.000000	81.427470
994.000000	81.568170
993.000000	81.703255
992.000000	81.805953
991.000000	81.887221
990.000000	81.958708
989.000000	82.002385
988.000000	81.997699
987.000000	81.962436
986.000000	81.945401
985.000000	81.982187
984.000000	82.067173
983.000000	82.161927
982.000000	82.226535
981.000000	82.253070
980.000000	82.274842
979.000000	82.339740
978.000000	82.474987
977.000000	82.678245
976.000000	82.928929
975.000000	83.194355
974.000000	83.439495
973.000000	83.657048
972.000000	83.882234
971.000000	84.151376
970.000000	84.446111
969.000000	84.704974
968.000000	84.896365
967.000000	85.052605
966.000000	85.219301
965.000000	85.394797
964.000000	85.538787
963.000000	85.627511
962.000000	85.682812
961.000000	85.751148
960.000000	85.867207
959.000000	86.036369
958.000000	86.241399
957.000000	86.461929
956.000000	86.687203
955.000000	86.912317
954.000000	87.134664
953.000000	87.364719
952.000000	87.628652
951.000000	87.938948
950.000000	88.263378
949.000000	88.544873
948.000000	88.756955
947.000000	88.921745
946.000000	89.070538
945.000000	89.205144
944.000000	89.306208
943.000000	89.360979
942.000000	89.369032
941.000000	89.334667
940.000000	89.271402
939.000000	89.208919
938.000000	89.178788
937.000000	89.191687
936.000000	89.238565
935.000000	89.313256
934.000000	89.423576
933.000000	89.575147
932.000000	89.749848
931.000000	89.910929
930.000000	90.037387
929.000000	90.148467
928.000000	90.280088
927.000000	90.434863
926.000000	90.570166
925.000000	90.645004
924.000000	90.663783
923.000000	90.657039
922.000000	90.632269
921.000000	90.570405
920.000000	90.471128
919.000000	90.374980
918.000000	90.327397
917.000000	90.335997
916.000000	90.375490
915.000000	90.428416
914.000000	90.510397
913.000000	90.653972
912.000000	90.872617
911.000000	91.143214
910.000000	91.427139
909.000000	91.710234
908.000000	92.011579
907.000000	92.347784
906.000000	92.703049
905.000000	93.044584
904.000000	93.352626
903.000000	93.619493
902.000000	93.836402
901.000000	94.006435
900.000000	94.159606
899.000000	94.324971
898.000000	94.488473
897.000000	94.607828
896.000000	94.677673
895.000000	94.754158
894.000000	94.900215
893.000000	95.125166
892.000000	95.392539
891.000000	95.670021
890.000000	95.949880
889.000000	96.226390
888.000000	96.479902
887.000000	96.696051
886.000000	96.886100
885.000000	97.068077
884.000000	97.229629
883.000000	97.331625
882.000000	97.362394
881.000000	97.372378
880.000000	97.424578
879.000000	97.509336
878.000000	97.540192
877.000000	97.454301
876.000000	97.295931
875.000000	97.173427
874.000000	97.147134
873.000000	97.193920
872.000000	97.273818
871.000000	97.390997
870.000000	97.573271
869.000000	97.821747
868.000000	98.109909
867.000000	98.418773
866.000000	98.744530
865.000000	99.071754
864.000000	99.364712
863.000000	99.599799
862.000000	99.792741
861.000000	99.973221
860.000000	100.138988
859.000000	100.258423
858.000000	100.322318
857.000000	100.368125
856.000000	100.431725
855.000000	100.490146
854.000000	100.484611
853.000000	100.403033
852.000000	100.309273
851.000000	100.275950
850.000000	100.308992
849.000000	100.358358
848.000000	100.386052
847.000000	100.391829
846.000000	100.376290
845.000000	100.320286
844.000000	100.224181
843.000000	100.142357
842.000000	100.141187
841.000000	100.219015
840.000000	100.292633
839.000000	100.279738
838.000000	100.184073
837.000000	100.077625
836.000000	100.004792
835.000000	99.934744
834.000000	99.818291
833.000000	99.662963
832.000000	99.519840
831.000000	99.411377
830.000000	99.316526
829.000000	99.234150
828.000000	99.215220
827.000000	99.299422
826.000000	99.453411
825.000000	99.619184
824.000000	99.798051
823.000000	100.017071
822.000000	100.224806
821.000000	100.309402
820.000000	100.237878
819.000000	100.107984
818.000000	100.036435
817.000000	100.039302
816.000000	100.047646
815.000000	99.999015
814.000000	99.868876
813.000000	99.633153
812.000000	99.261199
811.000000	98.766456
810.000000	98.227164
809.000000	97.723582
808.000000	97.264433
807.000000	96.792605
806.000000	96.260650
805.000000	95.694246
804.000000	95.180064
803.000000	94.794645
802.000000	94.548889
801.000000	94.402903
800.000000	94.325945
799.000000	94.319821
798.000000	94.377678
797.000000	94.450367
796.000000	94.485254
795.000000	94.488642
794.000000	94.514934
793.000000	94.589624
792.000000	94.671840
791.000000	94.705077
790.000000	94.680542
789.000000	94.624839
788.000000	94.544046
787.000000	94.420315
786.000000	94.262434
785.000000	94.115327
784.000000	93.997325
783.000000	93.861787
782.000000	93.660029
781.000000	93.428970
780.000000	93.270818
779.000000	93.246805
778.000000	93.331864
777.000000	93.476701
776.000000	93.668081
775.000000	93.897527
774.000000	94.111999
773.000000	94.250173
772.000000	94.310211
771.000000	94.331961
770.000000	94.324214
769.000000	94.263844
768.000000	94.170399
767.000000	94.125253
766.000000	94.188689
765.000000	94.330696
764.000000	94.471247
763.000000	94.580723
762.000000	94.715512
761.000000	94.950301
760.000000	95.290903
759.000000	95.653113
758.000000	95.926252
757.000000	96.069854
756.000000	96.147858
755.000000	96.263378
754.000000	96.465346
753.000000	96.722520
752.000000	96.968450
751.000000	97.144113
750.000000	97.203026
749.000000	97.122140
748.000000	96.939755
747.000000	96.756907
746.000000	96.658412
745.000000	96.635532
744.000000	96.612101
743.000000	96.546332
742.000000	96.480523
741.000000	96.481404
740.000000	96.564676
739.000000	96.697863
738.000000	96.854074
737.000000	97.034828
736.000000	97.243187
735.000000	97.463708
734.000000	97.678444
733.000000	97.879161
732.000000	98.045801
731.000000	98.142468
730.000000	98.172849
729.000000	98.219831
728.000000	98.378121
727.000000	98.631535
726.000000	98.831382
725.000000	98.837729
724.000000	98.670659
723.000000	98.484972
722.000000	98.415305
721.000000	98.476205
720.000000	98.592983
719.000000	98.695348
718.000000	98.766464
717.000000	98.815191
716.000000	98.842741
715.000000	98.858488
714.000000	98.913976
713.000000	99.087654
712.000000	99.410474
711.000000	99.808654
710.000000	100.144469
709.000000	100.331756
708.000000	100.379934
707.000000	100.318226
706.000000	100.135244
705.000000	99.834620
704.000000	99.504160
703.000000	99.251397
702.000000	99.071104
701.000000	98.839943
700.000000	98.463998
699.000000	97.989953
698.000000	97.549525
697.000000	97.247881
696.000000	97.145269
695.000000	97.286985
694.000000	97.664811
693.000000	98.154859
692.000000	98.589926
691.000000	98.954068
690.000000	99.439539
689.000000	100.243021
688.000000	101.329443
687.000000	102.436335
686.000000	103.309186
685.000000	103.866524
684.000000	104.097329
683.000000	103.940886
682.000000	103.410317
681.000000	102.739052
680.000000	102.235159
679.000000	101.985243
678.000000	101.794088
677.000000	101.438285
676.000000	100.924854
675.000000	100.446864
674.000000	100.156686
673.000000	100.071344
672.000000	100.158391
671.000000	100.436026
670.000000	100.961186
669.000000	101.658366
668.000000	102.067214
667.000000	101.891041
666.000000	101.530363
665.000000	101.305398
664.000000	101.307480
663.000000	101.497459
662.000000	101.738250
661.000000	101.889267
660.000000	101.866398
659.000000	101.622039
658.000000	101.170980
657.000000	100.658738
656.000000	100.319608
655.000000	100.321637
654.000000	100.630697
653.000000	101.064867
652.000000	101.509075
651.000000	101.991193
650.000000	102.550873
