4000.000000	100.303915
3999.000000	100.302552
3998.000000	100.301119
3997.000000	100.299868
3996.000000	100.298973
3995.000000	100.298440
3994.000000	100.298104
3993.000000	100.297847
3992.000000	100.297662
3991.000000	100.297587
3990.000000	100.297615
3989.000000	100.297564
3988.000000	100.297059
3987.000000	100.295733
3986.000000	100.293599
3985.000000	100.291280
3984.000000	100.289567
3983.000000	100.288780
3982.000000	100.288526
3981.000000	100.288004
3980.000000	100.286723
3979.000000	100.284862
3978.000000	100.283039
3977.000000	100.281771
3976.000000	100.281088
3975.000000	100.280568
3974.000000	100.279771
3973.000000	100.278761
3972.000000	100.278215
3971.000000	100.278860
3970.000000	100.280637
3969.000000	100.282437
3968.000000	100.282850
3967.000000	100.281250
3966.000000	100.278255
3965.000000	100.275256
3964.000000	100.273450
3963.000000	100.273222
3962.000000	100.274108
3961.000000	100.275084
3960.000000	100.275049
3959.000000	100.273469
3958.000000	100.270938
3957.000000	100.268983
3956.000000	100.268896
3955.000000	100.270502
3954.000000	100.272112
3953.000000	100.271824
3952.000000	100.268788
3951.000000	100.263353
3950.000000	100.256506
3949.000000	100.249525
3948.000000	100.243978
3947.000000	100.241465
3946.000000	100.242888
3945.000000	100.247815
3944.000000	100.254588
3943.000000	100.261002
3942.000000	100.265302
3941.000000	100.266991
3940.000000	100.266803
3939.000000	100.266024
3938.000000	100.265583
3937.000000	100.265558
3936.000000	100.265502
3935.000000	100.265071
3934.000000	100.264151
3933.000000	100.262462
3932.000000	100.259560
3931.000000	100.255648
3930.000000	100.252047
3929.000000	100.250386
3928.000000	100.251268
3927.000000	100.253804
3926.000000	100.256291
3925.000000	100.257473
3924.000000	100.257206
3923.000000	100.256004
3922.000000	100.254286
3921.000000	100.252232
3920.000000	100.250096
3919.000000	100.248356
3918.000000	100.247523
3917.000000	100.247841
3916.000000	100.249166
3915.000000	100.251033
3914.000000	100.252835
3913.000000	100.253981
3912.000000	100.254033
3911.000000	100.252843
3910.000000	100.250690
3909.000000	100.248326
3908.000000	100.246712
3907.000000	100.246485
3906.000000	100.247475
3905.000000	100.248594
3904.000000	100.248489
3903.000000	100.246650
3902.000000	100.243901
3901.000000	100.241873
3900.000000	100.241677
3899.000000	100.243160
3898.000000	100.245198
3897.000000	100.246699
3896.000000	100.247254
3895.000000	100.247077
3894.000000	100.246703
3893.000000	100.246623
3892.000000	100.246981
3891.000000	100.247524
3890.000000	100.247844
3889.000000	100.247830
3888.000000	100.248017
3887.000000	100.249392
3886.000000	100.252602
3885.000000	100.257071
3884.000000	100.261161
3883.000000	100.263337
3882.000000	100.262855
3881.000000	100.259860
3880.000000	100.255300
3879.000000	100.250373
3878.000000	100.246007
3877.000000	100.242914
3876.000000	100.241611
3875.000000	100.242118
3874.000000	100.243860
3873.000000	100.246069
3872.000000	100.248101
3871.000000	100.249374
3870.000000	100.249624
3869.000000	100.249351
3868.000000	100.249431
3867.000000	100.250305
3866.000000	100.251767
3865.000000	100.253277
3864.000000	100.254520
3863.000000	100.255726
3862.000000	100.257193
3861.000000	100.258684
3860.000000	100.259575
3859.000000	100.259477
3858.000000	100.258583
3857.000000	100.257581
3856.000000	100.257020
3855.000000	100.256473
3854.000000	100.255172
3853.000000	100.253717
3852.000000	100.253335
3851.000000	100.254026
3850.000000	100.255066
3849.000000	100.256052
3848.000000	100.257070
3847.000000	100.258367
3846.000000	100.260004
3845.000000	100.261615
3844.000000	100.262492
3843.000000	100.262142
3842.000000	100.260690
3841.000000	100.258856
3840.000000	100.257653
3839.000000	100.257781
3838.000000	100.259243
3837.000000	100.261379
3836.000000	100.263338
3835.000000	100.264699
3834.000000	100.265452
3833.000000	100.265738
3832.000000	100.265745
3831.000000	100.265727
3830.000000	100.265942
3829.000000	100.266504
3828.000000	100.267279
3827.000000	100.268003
3826.000000	100.268536
3825.000000	100.268971
3824.000000	100.269402
3823.000000	100.269547
3822.000000	100.268806
3821.000000	100.267074
3820.000000	100.265230
3819.000000	100.264365
3818.000000	100.264939
3817.000000	100.266664
3816.000000	100.268831
3815.000000	100.270905
3814.000000	100.272722
3813.000000	100.274173
3812.000000	100.275002
3811.000000	100.274975
3810.000000	100.274129
3809.000000	100.272866
3808.000000	100.271844
3807.000000	100.271687
3806.000000	100.272586
3805.000000	100.274236
3804.000000	100.276058
3803.000000	100.277236
3802.000000	100.276935
3801.000000	100.275078
3800.000000	100.272591
3799.000000	100.270598
3798.000000	100.269691
3797.000000	100.269845
3796.000000	100.270503
3795.000000	100.270966
3794.000000	100.271034
3793.000000	100.271118
3792.000000	100.271637
3791.000000	100.272394
3790.000000	100.272667
3789.000000	100.272042
3788.000000	100.271114
3787.000000	100.271129
3786.000000	100.272733
3785.000000	100.275077
3784.000000	100.276395
3783.000000	100.275449
3782.000000	100.272275
3781.000000	100.268017
3780.000000	100.264325
3779.000000	100.262326
3778.000000	100.261586
3777.000000	100.260271
3776.000000	100.256795
3775.000000	100.251512
3774.000000	100.246877
3773.000000	100.245497
3772.000000	100.247587
3771.000000	100.250126
3770.000000	100.249516
3769.000000	100.245671
3768.000000	100.242241
3767.000000	100.242598
3766.000000	100.246478
3765.000000	100.250694
3764.000000	100.252577
3763.000000	100.251833
3762.000000	100.249289
3761.000000	100.244930
3760.000000	100.237880
3759.000000	100.228506
3758.000000	100.219577
3757.000000	100.214064
3756.000000	100.212401
3755.000000	100.212278
3754.000000	100.210156
3753.000000	100.203118
3752.000000	100.190672
3751.000000	100.176354
3750.000000	100.165663
3749.000000	100.160782
3748.000000	100.160133
3747.000000	100.161944
3746.000000	100.165188
3745.000000	100.168811
3744.000000	100.172848
3743.000000	100.178174
3742.000000	100.184041
3741.000000	100.188275
3740.000000	100.189018
3739.000000	100.185724
3738.000000	100.179701
3737.000000	100.173730
3736.000000	100.169727
3735.000000	100.166012
3734.000000	100.158604
3733.000000	100.146379
3732.000000	100.133254
3731.000000	100.124164
3730.000000	100.119918
3729.000000	100.116639
3728.000000	100.109212
3727.000000	100.095707
3726.000000	100.080013
3725.000000	100.069247
3724.000000	100.067599
3723.000000	100.073049
3722.000000	100.079139
3721.000000	100.079795
3720.000000	100.073171
3719.000000	100.061815
3718.000000	100.049893
3717.000000	100.039722
3716.000000	100.030142
3715.000000	100.018178
3714.000000	100.002074
3713.000000	99.983335
3712.000000	99.966054
3711.000000	99.953104
3710.000000	99.943768
3709.000000	99.935668
3708.000000	99.927443
3707.000000	99.918352
3706.000000	99.907561
3705.000000	99.894895
3704.000000	99.881670
3703.000000	99.869830
3702.000000	99.859773
3701.000000	99.849850
3700.000000	99.838403
3699.000000	99.825478
3698.000000	99.812186
3697.000000	99.799761
3696.000000	99.789307
3695.000000	99.782091
3694.000000	99.779104
3693.000000	99.780292
3692.000000	99.783999
3691.000000	99.786742
3690.000000	99.784507
3689.000000	99.775866
3688.000000	99.764074
3687.000000	99.753960
3686.000000	99.747659
3685.000000	99.744001
3684.000000	99.740338
3683.000000	99.734483
3682.000000	99.725776
3681.000000	99.714993
3680.000000	99.703429
3679.000000	99.692044
3678.000000	99.681034
3677.000000	99.669758
3676.000000	99.657788
3675.000000	99.645784
3674.000000	99.633479
3673.000000	99.618977
3672.000000	99.600813
3671.000000	99.579466
3670.000000	99.558296
3669.000000	99.542034
3668.000000	99.532452
3667.000000	99.527344
3666.000000	99.523072
3665.000000	99.516791
3664.000000	99.507555
3663.000000	99.496144
3662.000000	99.483693
3661.000000	99.470090
3660.000000	99.453772
3659.000000	99.433174
3658.000000	99.408816
3657.000000	99.384824
3656.000000	99.367209
3655.000000	99.358303
3654.000000	99.354206
3653.000000	99.348142
3652.000000	99.334676
3651.000000	99.312568
3650.000000	99.286733
3649.000000	99.265745
3648.000000	99.253937
3647.000000	99.248303
3646.000000	99.243628
3645.000000	99.237303
3644.000000	99.229779
3643.000000	99.222630
3642.000000	99.216387
3641.000000	99.209680
3640.000000	99.200761
3639.000000	99.190118
3638.000000	99.180873
3637.000000	99.175787
3636.000000	99.173750
3635.000000	99.169507
3634.000000	99.157626
3633.000000	99.137187
3632.000000	99.113227
3631.000000	99.094241
3630.000000	99.086608
3629.000000	99.088632
3628.000000	99.091623
3627.000000	99.089415
3626.000000	99.082910
3625.000000	99.075661
3624.000000	99.068892
3623.000000	99.060494
3622.000000	99.048423
3621.000000	99.035446
3620.000000	99.029810
3619.000000	99.038578
3618.000000	99.060333
3617.000000	99.087102
3616.000000	99.111780
3615.000000	99.131114
3614.000000	99.143622
3613.000000	99.148455
3612.000000	99.147160
3611.000000	99.144977
3610.000000	99.148848
3609.000000	99.162775
3608.000000	99.184396
3607.000000	99.206472
3606.000000	99.222250
3605.000000	99.229151
3604.000000	99.228771
3603.000000	99.225431
3602.000000	99.224172
3601.000000	99.228401
3600.000000	99.237811
3599.000000	99.248554
3598.000000	99.256141
3597.000000	99.258781
3596.000000	99.258261
3595.000000	99.257971
3594.000000	99.259621
3593.000000	99.262341
3592.000000	99.265177
3591.000000	99.269375
3590.000000	99.277501
3589.000000	99.290198
3588.000000	99.304551
3587.000000	99.316761
3586.000000	99.325341
3585.000000	99.330091
3584.000000	99.330502
3583.000000	99.327055
3582.000000	99.322496
3581.000000	99.320407
3580.000000	99.322208
3579.000000	99.326178
3578.000000	99.329331
3577.000000	99.330066
3576.000000	99.329150
3575.000000	99.328877
3574.000000	99.331155
3573.000000	99.335810
3572.000000	99.340513
3571.000000	99.342703
3570.000000	99.341779
3569.000000	99.339549
3568.000000	99.338664
3567.000000	99.340299
3566.000000	99.343605
3565.000000	99.347182
3564.000000	99.350400
3563.000000	99.353384
3562.000000	99.356492
3561.000000	99.359946
3560.000000	99.363592
3559.000000	99.366815
3558.000000	99.368831
3557.000000	99.369299
3556.000000	99.368682
3555.000000	99.368147
3554.000000	99.368954
3553.000000	99.371594
3552.000000	99.375414
3551.000000	99.379050
3550.000000	99.381492
3549.000000	99.382700
3548.000000	99.383298
3547.000000	99.383989
3546.000000	99.385256
3545.000000	99.387422
3544.000000	99.390620
3543.000000	99.394571
3542.000000	99.398525
3541.000000	99.401622
3540.000000	99.403429
3539.000000	99.404225
3538.000000	99.404927
3537.000000	99.406395
3536.000000	99.408771
3535.000000	99.411601
3534.000000	99.414504
3533.000000	99.417595
3532.000000	99.421148
3531.000000	99.424981
3530.000000	99.428383
3529.000000	99.430766
3528.000000	99.432272
3527.000000	99.433669
3526.000000	99.435621
3525.000000	99.438190
3524.000000	99.440982
3523.000000	99.443577
3522.000000	99.445809
3521.000000	99.447772
3520.000000	99.449685
3519.000000	99.451669
3518.000000	99.453456
3517.000000	99.454312
3516.000000	99.453458
3515.000000	99.450793
3514.000000	99.447426
3513.000000	99.445302
3512.000000	99.445999
3511.000000	99.449817
3510.000000	99.455665
3509.000000	99.461757
3508.000000	99.466625
3507.000000	99.469502
3506.000000	99.470158
3505.000000	99.468744
3504.000000	99.465901
3503.000000	99.462968
3502.000000	99.461668
3501.000000	99.463125
3500.000000	99.467067
3499.000000	99.472012
3498.000000	99.476460
3497.000000	99.480026
3496.000000	99.483237
3495.000000	99.486244
3494.000000	99.488263
3493.000000	99.488632
3492.000000	99.487932
3491.000000	99.487558
3490.000000	99.488260
3489.000000	99.489514
3488.000000	99.490423
3487.000000	99.490753
3486.000000	99.490773
3485.000000	99.490479
3484.000000	99.489592
3483.000000	99.488374
3482.000000	99.487907
3481.000000	99.489115
3480.000000	99.491719
3479.000000	99.494366
3478.000000	99.495887
3477.000000	99.496234
3476.000000	99.496217
3475.000000	99.496642
3474.000000	99.497711
3473.000000	99.499073
3472.000000	99.500229
3471.000000	99.500972
3470.000000	99.501584
3469.000000	99.502626
3468.000000	99.504416
3467.000000	99.506677
3466.000000	99.508741
3465.000000	99.510137
3464.000000	99.510946
3463.000000	99.511575
3462.000000	99.512317
3461.000000	99.513161
3460.000000	99.513859
3459.000000	99.514029
3458.000000	99.513425
3457.000000	99.512338
3456.000000	99.511696
3455.000000	99.512466
3454.000000	99.514747
3453.000000	99.517556
3452.000000	99.519634
3451.000000	99.520492
3450.000000	99.520608
3449.000000	99.520795
3448.000000	99.521438
3447.000000	99.522400
3446.000000	99.523516
3445.000000	99.524917
3444.000000	99.526826
3443.000000	99.529254
3442.000000	99.532037
3441.000000	99.534979
3440.000000	99.537659
3439.000000	99.539133
3438.000000	99.538332
3437.000000	99.535123
3436.000000	99.530906
3435.000000	99.527766
3434.000000	99.526758
3433.000000	99.527448
3432.000000	99.529056
3431.000000	99.531602
3430.000000	99.535560
3429.000000	99.540642
3428.000000	99.545439
3427.000000	99.548524
3426.000000	99.549537
3425.000000	99.549083
3424.000000	99.548014
3423.000000	99.547010
3422.000000	99.546579
3421.000000	99.546864
3420.000000	99.547359
3419.000000	99.547308
3418.000000	99.546777
3417.000000	99.547070
3416.000000	99.549587
3415.000000	99.554379
3414.000000	99.559915
3413.000000	99.564328
3412.000000	99.566780
3411.000000	99.567524
3410.000000	99.567195
3409.000000	99.566410
3408.000000	99.565944
3407.000000	99.566743
3406.000000	99.569372
3405.000000	99.573392
3404.000000	99.577363
3403.000000	99.579778
3402.000000	99.580125
3401.000000	99.579087
3400.000000	99.577844
3399.000000	99.577066
3398.000000	99.576587
3397.000000	99.575959
3396.000000	99.575175
3395.000000	99.574877
3394.000000	99.575934
3393.000000	99.578743
3392.000000	99.582770
3391.000000	99.586622
3390.000000	99.588851
3389.000000	99.588898
3388.000000	99.587406
3387.000000	99.585794
3386.000000	99.585183
3385.000000	99.585621
3384.000000	99.586294
3383.000000	99.586423
3382.000000	99.586017
3381.000000	99.585792
3380.000000	99.586398
3379.000000	99.587776
3378.000000	99.589301
3377.000000	99.590563
3376.000000	99.591880
3375.000000	99.593900
3374.000000	99.596705
3373.000000	99.599392
3372.000000	99.600710
3371.000000	99.600182
3370.000000	99.598584
3369.000000	99.597378
3368.000000	99.597592
3367.000000	99.599163
3366.000000	99.601133
3365.000000	99.602465
3364.000000	99.602955
3363.000000	99.603608
3362.000000	99.605970
3361.000000	99.610719
3360.000000	99.616630
3359.000000	99.621096
3358.000000	99.622234
3357.000000	99.620446
3356.000000	99.618196
3355.000000	99.618003
3354.000000	99.620531
3353.000000	99.624606
3352.000000	99.628541
3351.000000	99.631323
3350.000000	99.632841
3349.000000	99.633524
3348.000000	99.634049
3347.000000	99.635154
3346.000000	99.637314
3345.000000	99.640431
3344.000000	99.643834
3343.000000	99.646537
3342.000000	99.647544
3341.000000	99.646185
3340.000000	99.642582
3339.000000	99.637870
3338.000000	99.633627
3337.000000	99.630854
3336.000000	99.629584
3335.000000	99.629502
3334.000000	99.630485
3333.000000	99.632159
3332.000000	99.633267
3331.000000	99.632337
3330.000000	99.629333
3329.000000	99.626164
3328.000000	99.624905
3327.000000	99.625542
3326.000000	99.625979
3325.000000	99.624369
3324.000000	99.621150
3323.000000	99.618650
3322.000000	99.618887
3321.000000	99.622065
3320.000000	99.626835
3319.000000	99.631586
3318.000000	99.635415
3317.000000	99.638071
3316.000000	99.639332
3315.000000	99.638793
3314.000000	99.636318
3313.000000	99.632297
3312.000000	99.627474
3311.000000	99.622813
3310.000000	99.619518
3309.000000	99.618725
3308.000000	99.620604
3307.000000	99.623709
3306.000000	99.625772
3305.000000	99.625564
3304.000000	99.623632
3303.000000	99.621228
3302.000000	99.618884
3301.000000	99.616419
3300.000000	99.614005
3299.000000	99.612443
3298.000000	99.612166
3297.000000	99.612397
3296.000000	99.611742
3295.000000	99.609597
3294.000000	99.606651
3293.000000	99.604039
3292.000000	99.602248
3291.000000	99.600965
3290.000000	99.599730
3289.000000	99.598348
3288.000000	99.596741
3287.000000	99.594820
3286.000000	99.592749
3285.000000	99.591118
3284.000000	99.590438
3283.000000	99.590437
3282.000000	99.590129
3281.000000	99.588809
3280.000000	99.586851
3279.000000	99.585297
3278.000000	99.584663
3277.000000	99.584356
3276.000000	99.583331
3275.000000	99.581214
3274.000000	99.578716
3273.000000	99.577009
3272.000000	99.576701
3271.000000	99.577429
3270.000000	99.578241
3269.000000	99.578410
3268.000000	99.577871
3267.000000	99.576900
3266.000000	99.575636
3265.000000	99.574052
3264.000000	99.572278
3263.000000	99.570728
3262.000000	99.569809
3261.000000	99.569632
3260.000000	99.570088
3259.000000	99.571046
3258.000000	99.572385
3257.000000	99.573889
3256.000000	99.575201
3255.000000	99.575892
3254.000000	99.575632
3253.000000	99.574386
3252.000000	99.572586
3251.000000	99.571021
3250.000000	99.570304
3249.000000	99.570465
3248.000000	99.571072
3247.000000	99.571700
3246.000000	99.572255
3245.000000	99.572798
3244.000000	99.573219
3243.000000	99.573250
3242.000000	99.572810
3241.000000	99.572247
3240.000000	99.572089
3239.000000	99.572562
3238.000000	99.573339
3237.000000	99.573742
3236.000000	99.573302
3235.000000	99.572123
3234.000000	99.570857
3233.000000	99.570147
3232.000000	99.570150
3231.000000	99.570660
3230.000000	99.571477
3229.000000	99.572479
3228.000000	99.573411
3227.000000	99.573893
3226.000000	99.573800
3225.000000	99.573535
3224.000000	99.573730
3223.000000	99.574674
3222.000000	99.576108
3221.000000	99.577510
3220.000000	99.578524
3219.000000	99.579158
3218.000000	99.579578
3217.000000	99.579735
3216.000000	99.579310
3215.000000	99.578247
3214.000000	99.577249
3213.000000	99.577310
3212.000000	99.578475
3211.000000	99.579384
3210.000000	99.578548
3209.000000	99.576054
3208.000000	99.573603
3207.000000	99.572630
3206.000000	99.572867
3205.000000	99.573047
3204.000000	99.572683
3203.000000	99.572603
3202.000000	99.573640
3201.000000	99.575269
3200.000000	99.575874
3199.000000	99.574336
3198.000000	99.571180
3197.000000	99.568223
3196.000000	99.567131
3195.000000	99.568378
3194.000000	99.571429
3193.000000	99.575518
3192.000000	99.580187
3191.000000	99.585138
3190.000000	99.589705
3189.000000	99.592857
3188.000000	99.593855
3187.000000	99.592782
3186.000000	99.590409
3185.000000	99.587611
3184.000000	99.585055
3183.000000	99.583332
3182.000000	99.582979
3181.000000	99.584137
3180.000000	99.586242
3179.000000	99.588301
3178.000000	99.589499
3177.000000	99.589528
3176.000000	99.588528
3175.000000	99.586894
3174.000000	99.585156
3173.000000	99.583843
3172.000000	99.583378
3171.000000	99.584108
3170.000000	99.586225
3169.000000	99.589401
3168.000000	99.592454
3167.000000	99.593873
3166.000000	99.592963
3165.000000	99.590391
3164.000000	99.587634
3163.000000	99.585747
3162.000000	99.584845
3161.000000	99.584740
3160.000000	99.585657
3159.000000	99.588050
3158.000000	99.591752
3157.000000	99.595618
3156.000000	99.598235
3155.000000	99.599086
3154.000000	99.598779
3153.000000	99.598239
3152.000000	99.597742
3151.000000	99.596860
3150.000000	99.595298
3149.000000	99.593494
3148.000000	99.592324
3147.000000	99.592300
3146.000000	99.593158
3145.000000	99.594154
3144.000000	99.594770
3143.000000	99.595239
3142.000000	99.596346
3141.000000	99.598549
3140.000000	99.601197
3139.000000	99.602788
3138.000000	99.602280
3137.000000	99.600167
3136.000000	99.598297
3135.000000	99.598378
3134.000000	99.600656
3133.000000	99.603923
3132.000000	99.606722
3131.000000	99.608742
3130.000000	99.610956
3129.000000	99.614471
3128.000000	99.619296
3127.000000	99.624126
3126.000000	99.627389
3125.000000	99.628489
3124.000000	99.628128
3123.000000	99.627740
3122.000000	99.628379
3121.000000	99.629899
3120.000000	99.631201
3119.000000	99.631442
3118.000000	99.631165
3117.000000	99.631921
3116.000000	99.634462
3115.000000	99.637720
3114.000000	99.639984
3113.000000	99.641018
3112.000000	99.642279
3111.000000	99.645031
3110.000000	99.648972
3109.000000	99.652808
3108.000000	99.655665
3107.000000	99.657550
3106.000000	99.658784
3105.000000	99.659659
3104.000000	99.660592
3103.000000	99.662102
3102.000000	99.664423
3101.000000	99.667332
3100.000000	99.670485
3099.000000	99.673761
3098.000000	99.677245
3097.000000	99.681026
3096.000000	99.684953
3095.000000	99.688429
3094.000000	99.690680
3093.000000	99.691461
3092.000000	99.691497
3091.000000	99.691947
3090.000000	99.693299
3089.000000	99.695189
3088.000000	99.697178
3087.000000	99.699235
3086.000000	99.701375
3085.000000	99.703318
3084.000000	99.704723
3083.000000	99.705450
3082.000000	99.705536
3081.000000	99.705297
3080.000000	99.705614
3079.000000	99.707501
3078.000000	99.710886
3077.000000	99.714210
3076.000000	99.715919
3075.000000	99.716192
3074.000000	99.716556
3073.000000	99.717889
3072.000000	99.719486
3071.000000	99.720306
3070.000000	99.720356
3069.000000	99.720436
3068.000000	99.721114
3067.000000	99.722460
3066.000000	99.724498
3065.000000	99.727293
3064.000000	99.730693
3063.000000	99.734459
3062.000000	99.738471
3061.000000	99.742450
3060.000000	99.745603
3059.000000	99.747117
3058.000000	99.747203
3057.000000	99.747186
3056.000000	99.748092
3055.000000	99.749442
3054.000000	99.749987
3053.000000	99.749511
3052.000000	99.749474
3051.000000	99.751636
3050.000000	99.756208
3049.000000	99.761535
3048.000000	99.765616
3047.000000	99.767682
3046.000000	99.768167
3045.000000	99.767729
3044.000000	99.766948
3043.000000	99.766568
3042.000000	99.766967
3041.000000	99.767210
3040.000000	99.765777
3039.000000	99.762954
3038.000000	99.761496
3037.000000	99.763804
3036.000000	99.769116
3035.000000	99.774716
3034.000000	99.779577
3033.000000	99.785117
3032.000000	99.792190
3031.000000	99.799215
3030.000000	99.804222
3029.000000	99.807380
3028.000000	99.810143
3027.000000	99.812644
3026.000000	99.813182
3025.000000	99.810082
3024.000000	99.803270
3023.000000	99.794348
3022.000000	99.786065
3021.000000	99.781601
3020.000000	99.783228
3019.000000	99.790997
3018.000000	99.802754
3017.000000	99.815521
3016.000000	99.826890
3015.000000	99.835267
3014.000000	99.839798
3013.000000	99.841065
3012.000000	99.841505
3011.000000	99.844020
3010.000000	99.849466
3009.000000	99.855812
3008.000000	99.860445
3007.000000	99.863479
3006.000000	99.868233
3005.000000	99.877787
3004.000000	99.891235
3003.000000	99.904025
3002.000000	99.912095
3001.000000	99.915200
3000.000000	99.916342
2999.000000	99.918922
2998.000000	99.924651
2997.000000	99.933122
2996.000000	99.942676
2995.000000	99.952252
2994.000000	99.962985
2993.000000	99.977300
2992.000000	99.995733
2991.000000	100.015308
2990.000000	100.032112
2989.000000	100.045246
2988.000000	100.057396
2987.000000	100.071995
2986.000000	100.091007
2985.000000	100.115141
2984.000000	100.144223
2983.000000	100.176270
2982.000000	100.207372
2981.000000	100.234204
2980.000000	100.256970
2979.000000	100.278934
2978.000000	100.302095
2977.000000	100.323014
2976.000000	100.333567
2975.000000	100.327183
2974.000000	100.305473
2973.000000	100.278691
2972.000000	100.258030
2971.000000	100.246268
2970.000000	100.236628
2969.000000	100.220634
2968.000000	100.195998
2967.000000	100.167443
2966.000000	100.141901
2965.000000	100.123936
2964.000000	100.113966
2963.000000	100.108254
2962.000000	100.100634
2961.000000	100.086578
2960.000000	100.066951
2959.000000	100.047236
2958.000000	100.032554
2957.000000	100.023950
2956.000000	100.019468
2955.000000	100.017389
2954.000000	100.017606
2953.000000	100.020709
2952.000000	100.026942
2951.000000	100.035682
2950.000000	100.044810
2949.000000	100.050864
2948.000000	100.051132
2947.000000	100.046101
2946.000000	100.039275
2945.000000	100.034294
2944.000000	100.032616
2943.000000	100.033900
2942.000000	100.037587
2941.000000	100.043298
2940.000000	100.050140
2939.000000	100.056352
2938.000000	100.059881
2937.000000	100.059548
2936.000000	100.056221
2935.000000	100.052873
2934.000000	100.052644
2933.000000	100.056456
2932.000000	100.062928
2931.000000	100.070700
2930.000000	100.079632
2929.000000	100.088874
2928.000000	100.095330
2927.000000	100.096090
2926.000000	100.091982
2925.000000	100.087022
2924.000000	100.084010
2923.000000	100.082318
2922.000000	100.080611
2921.000000	100.079802
2920.000000	100.081845
2919.000000	100.086852
2918.000000	100.093065
2917.000000	100.099107
2916.000000	100.104731
2915.000000	100.109615
2914.000000	100.113149
2913.000000	100.115865
2912.000000	100.119771
2911.000000	100.126227
2910.000000	100.133797
2909.000000	100.138993
2908.000000	100.139544
2907.000000	100.136769
2906.000000	100.134794
2905.000000	100.137025
2904.000000	100.143331
2903.000000	100.150499
2902.000000	100.155499
2901.000000	100.158211
2900.000000	100.160836
2899.000000	100.165097
2898.000000	100.170198
2897.000000	100.173593
2896.000000	100.173624
2895.000000	100.171433
2894.000000	100.170363
2893.000000	100.173099
2892.000000	100.179127
2891.000000	100.185114
2890.000000	100.188000
2889.000000	100.187464
2888.000000	100.185231
2887.000000	100.182715
2886.000000	100.180220
2885.000000	100.178174
2884.000000	100.177706
2883.000000	100.179194
2882.000000	100.180921
2881.000000	100.180239
2880.000000	100.176176
2879.000000	100.170573
2878.000000	100.166615
2877.000000	100.166198
2876.000000	100.168564
2875.000000	100.171196
2874.000000	100.171984
2873.000000	100.170539
2872.000000	100.167555
2871.000000	100.163447
2870.000000	100.158190
2869.000000	100.152344
2868.000000	100.147305
2867.000000	100.144120
2866.000000	100.142667
2865.000000	100.142426
2864.000000	100.143303
2863.000000	100.144793
2862.000000	100.144704
2861.000000	100.140197
2860.000000	100.130722
2859.000000	100.119520
2858.000000	100.111429
2857.000000	100.108831
2856.000000	100.110166
2855.000000	100.111849
2854.000000	100.111533
2853.000000	100.109551
2852.000000	100.107508
2851.000000	100.106217
2850.000000	100.105255
2849.000000	100.104104
2848.000000	100.103157
2847.000000	100.103219
2846.000000	100.104328
2845.000000	100.105644
2844.000000	100.106549
2843.000000	100.107393
2842.000000	100.108814
2841.000000	100.110585
2840.000000	100.111664
2839.000000	100.111436
2838.000000	100.110325
2837.000000	100.109018
2836.000000	100.107620
2835.000000	100.106078
2834.000000	100.105051
2833.000000	100.105490
2832.000000	100.107278
2831.000000	100.108900
2830.000000	100.108838
2829.000000	100.107015
2828.000000	100.104752
2827.000000	100.103622
2826.000000	100.104354
2825.000000	100.106572
2824.000000	100.109048
2823.000000	100.110483
2822.000000	100.110500
2821.000000	100.109843
2820.000000	100.109516
2819.000000	100.109696
2818.000000	100.109782
2817.000000	100.109412
2816.000000	100.108949
2815.000000	100.108916
2814.000000	100.109393
2813.000000	100.110157
2812.000000	100.111090
2811.000000	100.112209
2810.000000	100.113441
2809.000000	100.114595
2808.000000	100.115522
2807.000000	100.116208
2806.000000	100.116727
2805.000000	100.117140
2804.000000	100.117447
2803.000000	100.117684
2802.000000	100.118079
2801.000000	100.118982
2800.000000	100.120466
2799.000000	100.122014
2798.000000	100.122927
2797.000000	100.123053
2796.000000	100.122867
2795.000000	100.122781
2794.000000	100.122875
2793.000000	100.123422
2792.000000	100.124904
2791.000000	100.127121
2790.000000	100.128993
2789.000000	100.129915
2788.000000	100.130704
2787.000000	100.132336
2786.000000	100.134228
2785.000000	100.134834
2784.000000	100.133825
2783.000000	100.132623
2782.000000	100.132599
2781.000000	100.133755
2780.000000	100.135443
2779.000000	100.137420
2778.000000	100.139857
2777.000000	100.142859
2776.000000	100.146297
2775.000000	100.149651
2774.000000	100.151855
2773.000000	100.152054
2772.000000	100.150938
2771.000000	100.150751
2770.000000	100.153276
2769.000000	100.158031
2768.000000	100.162758
2767.000000	100.165700
2766.000000	100.167084
2765.000000	100.168478
2764.000000	100.170978
2763.000000	100.173963
2762.000000	100.175693
2761.000000	100.175261
2760.000000	100.173753
2759.000000	100.173114
2758.000000	100.173775
2757.000000	100.174117
2756.000000	100.172588
2755.000000	100.169710
2754.000000	100.167555
2753.000000	100.167461
2752.000000	100.168822
2751.000000	100.169996
2750.000000	100.169959
2749.000000	100.168967
2748.000000	100.167921
2747.000000	100.167380
2746.000000	100.167323
2745.000000	100.167708
2744.000000	100.168828
2743.000000	100.170781
2742.000000	100.172825
2741.000000	100.173849
2740.000000	100.173678
2739.000000	100.173473
2738.000000	100.174556
2737.000000	100.177071
2736.000000	100.179906
2735.000000	100.181748
2734.000000	100.182140
2733.000000	100.181568
2732.000000	100.180916
2731.000000	100.180702
2730.000000	100.180711
2729.000000	100.180428
2728.000000	100.179804
2727.000000	100.179447
2726.000000	100.179928
2725.000000	100.181180
2724.000000	100.182705
2723.000000	100.184103
2722.000000	100.185244
2721.000000	100.186042
2720.000000	100.186404
2719.000000	100.186400
2718.000000	100.186270
2717.000000	100.186278
2716.000000	100.186549
2715.000000	100.187073
2714.000000	100.187787
2713.000000	100.188575
2712.000000	100.189291
2711.000000	100.189840
2710.000000	100.190227
2709.000000	100.190528
2708.000000	100.190838
2707.000000	100.191231
2706.000000	100.191730
2705.000000	100.192292
2704.000000	100.192847
2703.000000	100.193355
2702.000000	100.193827
2701.000000	100.194285
2700.000000	100.194731
2699.000000	100.195153
2698.000000	100.195544
2697.000000	100.195913
2696.000000	100.196273
2695.000000	100.196636
2694.000000	100.197011
2693.000000	100.197400
2692.000000	100.197799
2691.000000	100.198196
2690.000000	100.198581
2689.000000	100.198952
2688.000000	100.199317
2687.000000	100.199681
2686.000000	100.200047
2685.000000	100.200412
2684.000000	100.200769
2683.000000	100.201116
2682.000000	100.201449
2681.000000	100.201771
2680.000000	100.202088
2679.000000	100.202409
2678.000000	100.202744
2677.000000	100.203094
2676.000000	100.203449
2675.000000	100.203786
2674.000000	100.204077
2673.000000	100.204300
2672.000000	100.204486
2671.000000	100.204702
2670.000000	100.205009
2669.000000	100.205395
2668.000000	100.205770
2667.000000	100.206029
2666.000000	100.206125
2665.000000	100.206162
2664.000000	100.206347
2663.000000	100.206801
2662.000000	100.207438
2661.000000	100.208077
2660.000000	100.208654
2659.000000	100.209218
2658.000000	100.209787
2657.000000	100.210331
2656.000000	100.210911
2655.000000	100.211668
2654.000000	100.212612
2653.000000	100.213459
2652.000000	100.213801
2651.000000	100.213494
2650.000000	100.212885
2649.000000	100.212602
2648.000000	100.213086
2647.000000	100.214264
2646.000000	100.215549
2645.000000	100.216140
2644.000000	100.215501
2643.000000	100.213757
2642.000000	100.211692
2641.000000	100.210102
2640.000000	100.209031
2639.000000	100.207883
2638.000000	100.206450
2637.000000	100.205506
2636.000000	100.205911
2635.000000	100.207336
2634.000000	100.208418
2633.000000	100.208216
2632.000000	100.207000
2631.000000	100.205649
2630.000000	100.204879
2629.000000	100.205253
2628.000000	100.207106
2627.000000	100.210101
2626.000000	100.213259
2625.000000	100.215610
2624.000000	100.216716
2623.000000	100.216619
2622.000000	100.215662
2621.000000	100.214430
2620.000000	100.213412
2619.000000	100.212606
2618.000000	100.211903
2617.000000	100.211838
2616.000000	100.213322
2615.000000	100.216346
2614.000000	100.219414
2613.000000	100.220785
2612.000000	100.219979
2611.000000	100.217752
2610.000000	100.214999
2609.000000	100.212126
2608.000000	100.209383
2607.000000	100.207266
2606.000000	100.206380
2605.000000	100.206977
2604.000000	100.208646
2603.000000	100.210449
2602.000000	100.211535
2601.000000	100.211731
2600.000000	100.211470
2599.000000	100.211232
2598.000000	100.211348
2597.000000	100.212215
2596.000000	100.214093
2595.000000	100.216491
2594.000000	100.218246
2593.000000	100.218738
2592.000000	100.218637
2591.000000	100.218991
2590.000000	100.219908
2589.000000	100.220699
2588.000000	100.221072
2587.000000	100.221499
2586.000000	100.222363
2585.000000	100.223310
2584.000000	100.223700
2583.000000	100.223396
2582.000000	100.222848
2581.000000	100.222610
2580.000000	100.222882
2579.000000	100.223507
2578.000000	100.224220
2577.000000	100.224862
2576.000000	100.225423
2575.000000	100.225918
2574.000000	100.226299
2573.000000	100.226547
2572.000000	100.226754
2571.000000	100.227044
2570.000000	100.227445
2569.000000	100.227913
2568.000000	100.228407
2567.000000	100.228909
2566.000000	100.229413
2565.000000	100.229909
2564.000000	100.230390
2563.000000	100.230854
2562.000000	100.231303
2561.000000	100.231739
2560.000000	100.232164
2559.000000	100.232581
2558.000000	100.232992
2557.000000	100.233403
2556.000000	100.233815
2555.000000	100.234225
2554.000000	100.234629
2553.000000	100.235020
2552.000000	100.235390
2551.000000	100.235734
2550.000000	100.236059
2549.000000	100.236379
2548.000000	100.236708
2547.000000	100.237051
2546.000000	100.237403
2545.000000	100.237758
2544.000000	100.238111
2543.000000	100.238464
2542.000000	100.238821
2541.000000	100.239188
2540.000000	100.239569
2539.000000	100.239966
2538.000000	100.240374
2537.000000	100.240790
2536.000000	100.241210
2535.000000	100.241629
2534.000000	100.242038
2533.000000	100.242428
2532.000000	100.242813
2531.000000	100.243246
2530.000000	100.243790
2529.000000	100.244450
2528.000000	100.245149
2527.000000	100.245752
2526.000000	100.246119
2525.000000	100.246204
2524.000000	100.246158
2523.000000	100.246252
2522.000000	100.246610
2521.000000	100.247073
2520.000000	100.247400
2519.000000	100.247591
2518.000000	100.247894
2517.000000	100.248440
2516.000000	100.248998
2515.000000	100.249182
2514.000000	100.248957
2513.000000	100.248814
2512.000000	100.249294
2511.000000	100.250391
2510.000000	100.251605
2509.000000	100.252614
2508.000000	100.253671
2507.000000	100.255189
2506.000000	100.257129
2505.000000	100.258925
2504.000000	100.260049
2503.000000	100.260441
2502.000000	100.260401
2501.000000	100.260321
2500.000000	100.260499
2499.000000	100.261123
2498.000000	100.262230
2497.000000	100.263583
2496.000000	100.264656
2495.000000	100.264964
2494.000000	100.264479
2493.000000	100.263721
2492.000000	100.263349
2491.000000	100.263608
2490.000000	100.264352
2489.000000	100.265485
2488.000000	100.267074
2487.000000	100.268933
2486.000000	100.270508
2485.000000	100.271444
2484.000000	100.272054
2483.000000	100.272946
2482.000000	100.274228
2481.000000	100.275360
2480.000000	100.275873
2479.000000	100.275913
2478.000000	100.275985
2477.000000	100.276337
2476.000000	100.276823
2475.000000	100.277325
2474.000000	100.278020
2473.000000	100.279147
2472.000000	100.280647
2471.000000	100.282086
2470.000000	100.283023
2469.000000	100.283396
2468.000000	100.283477
2467.000000	100.283557
2466.000000	100.283687
2465.000000	100.283825
2464.000000	100.284061
2463.000000	100.284569
2462.000000	100.285348
2461.000000	100.286158
2460.000000	100.286757
2459.000000	100.287121
2458.000000	100.287391
2457.000000	100.287705
2456.000000	100.288138
2455.000000	100.288734
2454.000000	100.289518
2453.000000	100.290458
2452.000000	100.291465
2451.000000	100.292410
2450.000000	100.293144
2449.000000	100.293542
2448.000000	100.293591
2447.000000	100.293453
2446.000000	100.293399
2445.000000	100.293618
2444.000000	100.294093
2443.000000	100.294604
2442.000000	100.294916
2441.000000	100.294998
2440.000000	100.295075
2439.000000	100.295422
2438.000000	100.296075
2437.000000	100.296739
2436.000000	100.297011
2435.000000	100.296731
2434.000000	100.296156
2433.000000	100.295832
2432.000000	100.296201
2431.000000	100.297322
2430.000000	100.298795
2429.000000	100.300068
2428.000000	100.300932
2427.000000	100.301630
2426.000000	100.302460
2425.000000	100.303294
2424.000000	100.303634
2423.000000	100.303125
2422.000000	100.301888
2421.000000	100.300450
2420.000000	100.299467
2419.000000	100.299424
2418.000000	100.300430
2417.000000	100.302121
2416.000000	100.303808
2415.000000	100.304846
2414.000000	100.304872
2413.000000	100.303812
2412.000000	100.301959
2411.000000	100.300015
2410.000000	100.298590
2409.000000	100.297765
2408.000000	100.297272
2407.000000	100.296871
2406.000000	100.296545
2405.000000	100.296224
2404.000000	100.295687
2403.000000	100.294930
2402.000000	100.294171
2401.000000	100.293542
2400.000000	100.292949
2399.000000	100.292223
2398.000000	100.291299
2397.000000	100.290235
2396.000000	100.289110
2395.000000	100.287956
2394.000000	100.286770
2393.000000	100.285539
2392.000000	100.284253
2391.000000	100.282900
2390.000000	100.281467
2389.000000	100.279943
2388.000000	100.278334
2387.000000	100.276657
2386.000000	100.274926
2385.000000	100.273144
2384.000000	100.271302
2383.000000	100.269391
2382.000000	100.267415
2381.000000	100.265391
2380.000000	100.263335
2379.000000	100.261262
2378.000000	100.259170
2377.000000	100.257049
2376.000000	100.254887
2375.000000	100.252682
2374.000000	100.250449
2373.000000	100.248209
2372.000000	100.245978
2371.000000	100.243764
2370.000000	100.241570
2369.000000	100.239407
2368.000000	100.237291
2367.000000	100.235245
2366.000000	100.233282
2365.000000	100.231392
2364.000000	100.229529
2363.000000	100.227632
2362.000000	100.225669
2361.000000	100.223661
2360.000000	100.221656
2359.000000	100.219691
2358.000000	100.217770
2357.000000	100.215884
2356.000000	100.214030
2355.000000	100.212213
2354.000000	100.210437
2353.000000	100.208705
2352.000000	100.207018
2351.000000	100.205379
2350.000000	100.203788
2349.000000	100.202251
2348.000000	100.200782
2347.000000	100.199400
2346.000000	100.198116
2345.000000	100.196923
2344.000000	100.195802
2343.000000	100.194716
2342.000000	100.193664
2341.000000	100.192749
2340.000000	100.192085
2339.000000	100.191682
2338.000000	100.191414
2337.000000	100.191168
2336.000000	100.190908
2335.000000	100.190680
2334.000000	100.190550
2333.000000	100.190577
2332.000000	100.190759
2331.000000	100.191100
2330.000000	100.191572
2329.000000	100.192302
2328.000000	100.193204
2327.000000	100.194046
2326.000000	100.194444
2325.000000	100.194337
2324.000000	100.193944
2323.000000	100.193535
2322.000000	100.193452
2321.000000	100.193975
2320.000000	100.195310
2319.000000	100.197170
2318.000000	100.198808
2317.000000	100.199784
2316.000000	100.200084
2315.000000	100.200192
2314.000000	100.200453
2313.000000	100.201132
2312.000000	100.202200
2311.000000	100.203726
2310.000000	100.205448
2309.000000	100.207200
2308.000000	100.208783
2307.000000	100.210341
2306.000000	100.211883
2305.000000	100.213416
2304.000000	100.214793
2303.000000	100.216052
2302.000000	100.217212
2301.000000	100.218490
2300.000000	100.219958
2299.000000	100.221653
2298.000000	100.223232
2297.000000	100.224534
2296.000000	100.225721
2295.000000	100.227518
2294.000000	100.230195
2293.000000	100.233219
2292.000000	100.235589
2291.000000	100.236910
2290.000000	100.237400
2289.000000	100.237273
2288.000000	100.236452
2287.000000	100.235085
2286.000000	100.234022
2285.000000	100.234247
2284.000000	100.236102
2283.000000	100.238884
2282.000000	100.241478
2281.000000	100.243208
2280.000000	100.244235
2279.000000	100.245031
2278.000000	100.245759
2277.000000	100.246229
2276.000000	100.246646
2275.000000	100.247840
2274.000000	100.250149
2273.000000	100.252546
2272.000000	100.253301
2271.000000	100.251731
2270.000000	100.248751
2269.000000	100.245823
2268.000000	100.243669
2267.000000	100.242156
2266.000000	100.240761
2265.000000	100.239043
2264.000000	100.236939
2263.000000	100.234973
2262.000000	100.233764
2261.000000	100.233398
2260.000000	100.233702
2259.000000	100.234847
2258.000000	100.237116
2257.000000	100.239653
2256.000000	100.240682
2255.000000	100.239482
2254.000000	100.237611
2253.000000	100.237309
2252.000000	100.238769
2251.000000	100.240031
2250.000000	100.239357
2249.000000	100.236918
2248.000000	100.233817
2247.000000	100.230465
2246.000000	100.226538
2245.000000	100.222363
2244.000000	100.219359
2243.000000	100.218828
2242.000000	100.220689
2241.000000	100.223535
2240.000000	100.225958
2239.000000	100.227638
2238.000000	100.229004
2237.000000	100.230204
2236.000000	100.230847
2235.000000	100.230732
2234.000000	100.230400
2233.000000	100.230601
2232.000000	100.231335
2231.000000	100.231844
2230.000000	100.231564
2229.000000	100.230645
2228.000000	100.229462
2227.000000	100.227994
2226.000000	100.225989
2225.000000	100.223615
2224.000000	100.221645
2223.000000	100.220971
2222.000000	100.221987
2221.000000	100.224278
2220.000000	100.226714
2219.000000	100.228165
2218.000000	100.228418
2217.000000	100.228337
2216.000000	100.228895
2215.000000	100.230082
2214.000000	100.231053
2213.000000	100.231262
2212.000000	100.231009
2211.000000	100.230780
2210.000000	100.230490
2209.000000	100.229776
2208.000000	100.228843
2207.000000	100.228551
2206.000000	100.229520
2205.000000	100.231466
2204.000000	100.233444
2203.000000	100.234640
2202.000000	100.234852
2201.000000	100.234450
2200.000000	100.234179
2199.000000	100.234775
2198.000000	100.236473
2197.000000	100.238777
2196.000000	100.240840
2195.000000	100.242240
2194.000000	100.243181
2193.000000	100.243922
2192.000000	100.244294
2191.000000	100.244046
2190.000000	100.243464
2189.000000	100.243256
2188.000000	100.243754
2187.000000	100.244566
2186.000000	100.245146
2185.000000	100.245522
2184.000000	100.246190
2183.000000	100.247377
2182.000000	100.248702
2181.000000	100.249687
2180.000000	100.250370
2179.000000	100.251118
2178.000000	100.251894
2177.000000	100.252075
2176.000000	100.251234
2175.000000	100.249785
2174.000000	100.248731
2173.000000	100.248664
2172.000000	100.249332
2171.000000	100.250058
2170.000000	100.250445
2169.000000	100.250606
2168.000000	100.250801
2167.000000	100.251159
2166.000000	100.251738
2165.000000	100.252559
2164.000000	100.253476
2163.000000	100.254160
2162.000000	100.254397
2161.000000	100.254331
2160.000000	100.254364
2159.000000	100.254742
2158.000000	100.255340
2157.000000	100.255863
2156.000000	100.256150
2155.000000	100.256257
2154.000000	100.256314
2153.000000	100.256394
2152.000000	100.256532
2151.000000	100.256769
2150.000000	100.257120
2149.000000	100.257538
2148.000000	100.257943
2147.000000	100.258307
2146.000000	100.258664
2145.000000	100.259047
2144.000000	100.259445
2143.000000	100.259814
2142.000000	100.260128
2141.000000	100.260405
2140.000000	100.260690
2139.000000	100.261031
2138.000000	100.261441
2137.000000	100.261896
2136.000000	100.262372
2135.000000	100.262865
2134.000000	100.263380
2133.000000	100.263917
2132.000000	100.264472
2131.000000	100.265041
2130.000000	100.265618
2129.000000	100.266199
2128.000000	100.266783
2127.000000	100.267370
2126.000000	100.267959
2125.000000	100.268549
2124.000000	100.269139
2123.000000	100.269729
2122.000000	100.270325
2121.000000	100.270932
2120.000000	100.271556
2119.000000	100.272197
2118.000000	100.272852
2117.000000	100.273519
2116.000000	100.274199
2115.000000	100.274895
2114.000000	100.275607
2113.000000	100.276334
2112.000000	100.277075
2111.000000	100.277826
2110.000000	100.278583
2109.000000	100.279349
2108.000000	100.280128
2107.000000	100.280921
2106.000000	100.281726
2105.000000	100.282536
2104.000000	100.283350
2103.000000	100.284154
2102.000000	100.284905
2101.000000	100.285614
2100.000000	100.286364
2099.000000	100.287189
2098.000000	100.287986
2097.000000	100.288675
2096.000000	100.289353
2095.000000	100.290139
2094.000000	100.290948
2093.000000	100.291609
2092.000000	100.292187
2091.000000	100.293026
2090.000000	100.294380
2089.000000	100.296019
2088.000000	100.297281
2087.000000	100.297670
2086.000000	100.297348
2085.000000	100.296919
2084.000000	100.296648
2083.000000	100.296279
2082.000000	100.295816
2081.000000	100.296030
2080.000000	100.297607
2079.000000	100.300010
2078.000000	100.301821
2077.000000	100.302412
2076.000000	100.302519
2075.000000	100.302956
2074.000000	100.303360
2073.000000	100.302891
2072.000000	100.301704
2071.000000	100.301014
2070.000000	100.301731
2069.000000	100.303481
2068.000000	100.304991
2067.000000	100.305213
2066.000000	100.304012
2065.000000	100.302017
2064.000000	100.300022
2063.000000	100.298471
2062.000000	100.297443
2061.000000	100.296913
2060.000000	100.296776
2059.000000	100.296685
2058.000000	100.296118
2057.000000	100.294749
2056.000000	100.292713
2055.000000	100.290485
2054.000000	100.288608
2053.000000	100.287418
2052.000000	100.286831
2051.000000	100.286381
2050.000000	100.285556
2049.000000	100.284132
2048.000000	100.282144
2047.000000	100.279748
2046.000000	100.277265
2045.000000	100.275179
2044.000000	100.273813
2043.000000	100.272922
2042.000000	100.271790
2041.000000	100.269865
2040.000000	100.267223
2039.000000	100.264435
2038.000000	100.262100
2037.000000	100.260376
2036.000000	100.258948
2035.000000	100.257342
2034.000000	100.255374
2033.000000	100.253237
2032.000000	100.251172
2031.000000	100.249181
2030.000000	100.247137
2029.000000	100.245055
2028.000000	100.243075
2027.000000	100.241225
2026.000000	100.239368
2025.000000	100.237410
2024.000000	100.235420
2023.000000	100.233509
2022.000000	100.231708
2021.000000	100.230003
2020.000000	100.228389
2019.000000	100.226811
2018.000000	100.225087
2017.000000	100.223057
2016.000000	100.220824
2015.000000	100.218733
2014.000000	100.217038
2013.000000	100.215702
2012.000000	100.214438
2011.000000	100.212884
2010.000000	100.210871
2009.000000	100.208698
2008.000000	100.206984
2007.000000	100.206001
2006.000000	100.205301
2005.000000	100.204279
2004.000000	100.203079
2003.000000	100.202392
2002.000000	100.202364
2001.000000	100.202168
2000.000000	100.200931
1999.000000	100.198741
1998.000000	100.196503
1997.000000	100.194950
1996.000000	100.194102
1995.000000	100.193602
1994.000000	100.193129
1993.000000	100.192536
1992.000000	100.191918
1991.000000	100.191661
1990.000000	100.192142
1989.000000	100.193260
1988.000000	100.194342
1987.000000	100.194653
1986.000000	100.193988
1985.000000	100.192670
1984.000000	100.191115
1983.000000	100.189556
1982.000000	100.188197
1981.000000	100.187361
1980.000000	100.187204
1979.000000	100.187493
1978.000000	100.187958
1977.000000	100.188713
1976.000000	100.189961
1975.000000	100.191342
1974.000000	100.192064
1973.000000	100.191819
1972.000000	100.191216
1971.000000	100.191119
1970.000000	100.191786
1969.000000	100.192756
1968.000000	100.193274
1967.000000	100.192801
1966.000000	100.191531
1965.000000	100.190515
1964.000000	100.190716
1963.000000	100.191872
1962.000000	100.192859
1961.000000	100.193313
1960.000000	100.194136
1959.000000	100.195751
1958.000000	100.196671
1957.000000	100.194921
1956.000000	100.190583
1955.000000	100.186036
1954.000000	100.183659
1953.000000	100.184045
1952.000000	100.186443
1951.000000	100.189824
1950.000000	100.193426
1949.000000	100.197019
1948.000000	100.200798
1947.000000	100.204636
1946.000000	100.207587
1945.000000	100.208633
1944.000000	100.207770
1943.000000	100.205908
1942.000000	100.203800
1941.000000	100.201741
1940.000000	100.200107
1939.000000	100.199137
1938.000000	100.198281
1937.000000	100.196712
1936.000000	100.194606
1935.000000	100.193120
1934.000000	100.192818
1933.000000	100.192855
1932.000000	100.192197
1931.000000	100.190906
1930.000000	100.189779
1929.000000	100.189236
1928.000000	100.188758
1927.000000	100.187246
1926.000000	100.183568
1925.000000	100.177512
1924.000000	100.170762
1923.000000	100.166349
1922.000000	100.166026
1921.000000	100.168553
1920.000000	100.171088
1919.000000	100.171522
1918.000000	100.169154
1917.000000	100.164089
1916.000000	100.156878
1915.000000	100.148813
1914.000000	100.141933
1913.000000	100.137869
1912.000000	100.136459
1911.000000	100.136018
1910.000000	100.135107
1909.000000	100.133342
1908.000000	100.130390
1907.000000	100.125589
1906.000000	100.119035
1905.000000	100.112225
1904.000000	100.106474
1903.000000	100.101137
1902.000000	100.094722
1901.000000	100.087359
1900.000000	100.080708
1899.000000	100.075711
1898.000000	100.071866
1897.000000	100.068803
1896.000000	100.066898
1895.000000	100.065650
1894.000000	100.063233
1893.000000	100.058852
1892.000000	100.054074
1891.000000	100.050804
1890.000000	100.048985
1889.000000	100.047100
1888.000000	100.044668
1887.000000	100.042644
1886.000000	100.041466
1885.000000	100.040410
1884.000000	100.038746
1883.000000	100.036464
1882.000000	100.034064
1881.000000	100.032481
1880.000000	100.032757
1879.000000	100.034717
1878.000000	100.036088
1877.000000	100.034351
1876.000000	100.030024
1875.000000	100.026841
1874.000000	100.028015
1873.000000	100.033137
1872.000000	100.038926
1871.000000	100.042192
1870.000000	100.041917
1869.000000	100.039629
1868.000000	100.037928
1867.000000	100.038256
1866.000000	100.040217
1865.000000	100.042495
1864.000000	100.044017
1863.000000	100.044783
1862.000000	100.045944
1861.000000	100.048965
1860.000000	100.054444
1859.000000	100.061546
1858.000000	100.068602
1857.000000	100.074280
1856.000000	100.078171
1855.000000	100.080488
1854.000000	100.081772
1853.000000	100.083272
1852.000000	100.086397
1851.000000	100.091567
1850.000000	100.098049
1849.000000	100.105315
1848.000000	100.113942
1847.000000	100.124280
1846.000000	100.134604
1845.000000	100.141545
1844.000000	100.143377
1843.000000	100.142117
1842.000000	100.140629
1841.000000	100.139733
1840.000000	100.139382
1839.000000	100.139973
1838.000000	100.141591
1837.000000	100.143563
1836.000000	100.145413
1835.000000	100.147388
1834.000000	100.149717
1833.000000	100.152369
1832.000000	100.155670
1831.000000	100.160319
1830.000000	100.165648
1829.000000	100.169268
1828.000000	100.170517
1827.000000	100.170713
1826.000000	100.169492
1825.000000	100.164555
1824.000000	100.156185
1823.000000	100.148994
1822.000000	100.146745
1821.000000	100.148448
1820.000000	100.150672
1819.000000	100.151899
1818.000000	100.152954
1817.000000	100.154065
1816.000000	100.154122
1815.000000	100.152970
1814.000000	100.152008
1813.000000	100.151785
1812.000000	100.151243
1811.000000	100.150079
1810.000000	100.149839
1809.000000	100.151198
1808.000000	100.151886
1807.000000	100.149358
1806.000000	100.144463
1805.000000	100.140695
1804.000000	100.140050
1803.000000	100.141182
1802.000000	100.142211
1801.000000	100.143458
1800.000000	100.146347
1799.000000	100.150586
1798.000000	100.154175
1797.000000	100.155691
1796.000000	100.155427
1795.000000	100.154704
1794.000000	100.154947
1793.000000	100.157166
1792.000000	100.161247
1791.000000	100.165374
1790.000000	100.167903
1789.000000	100.169106
1788.000000	100.170206
1787.000000	100.171779
1786.000000	100.173384
1785.000000	100.174523
1784.000000	100.175601
1783.000000	100.177332
1782.000000	100.179830
1781.000000	100.182425
1780.000000	100.184621
1779.000000	100.186831
1778.000000	100.189607
1777.000000	100.192704
1776.000000	100.195435
1775.000000	100.197771
1774.000000	100.200342
1773.000000	100.203148
1772.000000	100.205033
1771.000000	100.205671
1770.000000	100.206481
1769.000000	100.208521
1768.000000	100.211433
1767.000000	100.214524
1766.000000	100.218167
1765.000000	100.223206
1764.000000	100.229178
1763.000000	100.233635
1762.000000	100.234241
1761.000000	100.231765
1760.000000	100.229693
1759.000000	100.230152
1758.000000	100.232540
1757.000000	100.235299
1756.000000	100.237732
1755.000000	100.240349
1754.000000	100.243302
1753.000000	100.245224
1752.000000	100.243903
1751.000000	100.239060
1750.000000	100.234056
1749.000000	100.232719
1748.000000	100.235488
1747.000000	100.239889
1746.000000	100.243186
1745.000000	100.243948
1744.000000	100.242443
1743.000000	100.240476
1742.000000	100.240156
1741.000000	100.242084
1740.000000	100.244751
1739.000000	100.245879
1738.000000	100.245162
1737.000000	100.244315
1736.000000	100.244621
1735.000000	100.244667
1734.000000	100.241136
1733.000000	100.234219
1732.000000	100.228210
1731.000000	100.224638
1730.000000	100.221752
1729.000000	100.217863
1728.000000	100.213085
1727.000000	100.208762
1726.000000	100.205572
1725.000000	100.202864
1724.000000	100.200173
1723.000000	100.198105
1722.000000	100.197157
1721.000000	100.196601
1720.000000	100.195182
1719.000000	100.192664
1718.000000	100.190145
1717.000000	100.187807
1716.000000	100.184532
1715.000000	100.179607
1714.000000	100.173293
1713.000000	100.166896
1712.000000	100.161708
1711.000000	100.157655
1710.000000	100.153831
1709.000000	100.150185
1708.000000	100.147713
1707.000000	100.146712
1706.000000	100.144953
1705.000000	100.139459
1704.000000	100.130835
1703.000000	100.122197
1702.000000	100.114424
1701.000000	100.104692
1700.000000	100.092101
1699.000000	100.081031
1698.000000	100.074153
1697.000000	100.070376
1696.000000	100.067235
1695.000000	100.062324
1694.000000	100.055830
1693.000000	100.048802
1692.000000	100.041757
1691.000000	100.035135
1690.000000	100.028809
1689.000000	100.021953
1688.000000	100.013845
1687.000000	100.004809
1686.000000	99.995531
1685.000000	99.986822
1684.000000	99.980150
1683.000000	99.975577
1682.000000	99.971691
1681.000000	99.967442
1680.000000	99.962516
1679.000000	99.957117
1678.000000	99.951612
1677.000000	99.945833
1676.000000	99.938781
1675.000000	99.929795
1674.000000	99.920151
1673.000000	99.911735
1672.000000	99.905395
1671.000000	99.901134
1670.000000	99.897734
1669.000000	99.892551
1668.000000	99.884356
1667.000000	99.875053
1666.000000	99.867163
1665.000000	99.861561
1664.000000	99.857281
1663.000000	99.852126
1662.000000	99.844679
1661.000000	99.835910
1660.000000	99.827637
1659.000000	99.820762
1658.000000	99.815238
1657.000000	99.810722
1656.000000	99.807051
1655.000000	99.803855
1654.000000	99.798453
1653.000000	99.786430
1652.000000	99.772690
1651.000000	99.766399
1650.000000	99.765139
1649.000000	99.761786
1648.000000	99.751914
1647.000000	99.738057
1646.000000	99.729097
1645.000000	99.728763
1644.000000	99.732100
1643.000000	99.733582
1642.000000	99.732467
1641.000000	99.731192
1640.000000	99.731022
1639.000000	99.730496
1638.000000	99.727882
1637.000000	99.724196
1636.000000	99.722598
1635.000000	99.723173
1634.000000	99.723278
1633.000000	99.722006
1632.000000	99.719757
1631.000000	99.716832
1630.000000	99.713954
1629.000000	99.713180
1628.000000	99.716655
1627.000000	99.723185
1626.000000	99.728557
1625.000000	99.729476
1624.000000	99.726561
1623.000000	99.724132
1622.000000	99.725919
1621.000000	99.731392
1620.000000	99.737320
1619.000000	99.741326
1618.000000	99.743443
1617.000000	99.745950
1616.000000	99.750119
1615.000000	99.754236
1614.000000	99.756796
1613.000000	99.759413
1612.000000	99.765370
1611.000000	99.775753
1610.000000	99.787963
1609.000000	99.798737
1608.000000	99.807055
1607.000000	99.812873
1606.000000	99.816011
1605.000000	99.817607
1604.000000	99.820603
1603.000000	99.826955
1602.000000	99.834993
1601.000000	99.841551
1600.000000	99.845975
1599.000000	99.849821
1598.000000	99.853599
1597.000000	99.856290
1596.000000	99.858204
1595.000000	99.861873
1594.000000	99.868882
1593.000000	99.877440
1592.000000	99.884396
1591.000000	99.888545
1590.000000	99.891045
1589.000000	99.893701
1588.000000	99.897655
1587.000000	99.903315
1586.000000	99.910389
1585.000000	99.917913
1584.000000	99.924738
1583.000000	99.930445
1582.000000	99.935477
1581.000000	99.940276
1580.000000	99.944650
1579.000000	99.948222
1578.000000	99.951148
1577.000000	99.954395
1576.000000	99.959462
1575.000000	99.967117
1574.000000	99.976372
1573.000000	99.985061
1572.000000	99.991497
1571.000000	99.995353
1570.000000	99.998137
1569.000000	100.001565
1568.000000	100.005101
1567.000000	100.007882
1566.000000	100.010738
1565.000000	100.014951
1564.000000	100.019858
1563.000000	100.023577
1562.000000	100.025755
1561.000000	100.027879
1560.000000	100.030958
1559.000000	100.035975
1558.000000	100.038593
1557.000000	100.038509
1556.000000	100.039170
1555.000000	100.040837
1554.000000	100.042864
1553.000000	100.045346
1552.000000	100.048957
1551.000000	100.053549
1550.000000	100.057840
1549.000000	100.061072
1548.000000	100.064311
1547.000000	100.069010
1546.000000	100.074827
1545.000000	100.079677
1544.000000	100.081552
1543.000000	100.080230
1542.000000	100.077096
1541.000000	100.074727
1540.000000	100.074782
1539.000000	100.074973
1538.000000	100.074080
1537.000000	100.073550
1536.000000	100.074602
1535.000000	100.077821
1534.000000	100.082222
1533.000000	100.084595
1532.000000	100.083287
1531.000000	100.080551
1530.000000	100.079242
1529.000000	100.080422
1528.000000	100.083566
1527.000000	100.087086
1526.000000	100.089330
1525.000000	100.089882
1524.000000	100.089737
1523.000000	100.090116
1522.000000	100.091240
1521.000000	100.091972
1520.000000	100.091884
1519.000000	100.092154
1518.000000	100.093653
1517.000000	100.096150
1516.000000	100.098677
1515.000000	100.100909
1514.000000	100.103635
1513.000000	100.107419
1512.000000	100.112091
1511.000000	100.117283
1510.000000	100.122637
1509.000000	100.127411
1508.000000	100.130105
1507.000000	100.129754
1506.000000	100.127488
1505.000000	100.126870
1504.000000	100.128944
1503.000000	100.132016
1502.000000	100.134787
1501.000000	100.136949
1500.000000	100.138834
1499.000000	100.141050
1498.000000	100.144297
1497.000000	100.148727
1496.000000	100.153463
1495.000000	100.157320
1494.000000	100.159924
1493.000000	100.161576
1492.000000	100.162702
1491.000000	100.163725
1490.000000	100.165161
1489.000000	100.167073
1488.000000	100.169248
1487.000000	100.171901
1486.000000	100.175268
1485.000000	100.179350
1484.000000	100.183895
1483.000000	100.188470
1482.000000	100.192520
1481.000000	100.195741
1480.000000	100.198670
1479.000000	100.202178
1478.000000	100.206043
1477.000000	100.208448
1476.000000	100.207650
1475.000000	100.203917
1474.000000	100.199747
1473.000000	100.198141
1472.000000	100.199310
1471.000000	100.200348
1470.000000	100.199406
1469.000000	100.197160
1468.000000	100.195196
1467.000000	100.194825
1466.000000	100.196873
1465.000000	100.201808
1464.000000	100.208963
1463.000000	100.216573
1462.000000	100.222843
1461.000000	100.226462
1460.000000	100.227067
1459.000000	100.225833
1458.000000	100.225365
1457.000000	100.226884
1456.000000	100.228464
1455.000000	100.228632
1454.000000	100.226921
1453.000000	100.223057
1452.000000	100.218778
1451.000000	100.217151
1450.000000	100.218710
1449.000000	100.219594
1448.000000	100.215944
1447.000000	100.209340
1446.000000	100.204872
1445.000000	100.204131
1444.000000	100.204107
1443.000000	100.201979
1442.000000	100.198483
1441.000000	100.196569
1440.000000	100.197790
1439.000000	100.201254
1438.000000	100.204353
1437.000000	100.204111
1436.000000	100.200010
1435.000000	100.194914
1434.000000	100.191354
1433.000000	100.189150
1432.000000	100.186651
1431.000000	100.182762
1430.000000	100.178282
1429.000000	100.174947
1428.000000	100.173741
1427.000000	100.174537
1426.000000	100.176722
1425.000000	100.179278
1424.000000	100.180614
1423.000000	100.179719
1422.000000	100.177525
1421.000000	100.176140
1420.000000	100.176976
1419.000000	100.179967
1418.000000	100.183019
1417.000000	100.184220
1416.000000	100.184227
1415.000000	100.184613
1414.000000	100.185660
1413.000000	100.186199
1412.000000	100.185327
1411.000000	100.184095
1410.000000	100.184842
1409.000000	100.188959
1408.000000	100.195868
1407.000000	100.203522
1406.000000	100.209729
1405.000000	100.213430
1404.000000	100.215103
1403.000000	100.215997
1402.000000	100.216468
1401.000000	100.215693
1400.000000	100.214027
1399.000000	100.215190
1398.000000	100.222955
1397.000000	100.236181
1396.000000	100.249712
1395.000000	100.258981
1394.000000	100.263765
1393.000000	100.267231
1392.000000	100.271423
1391.000000	100.275748
1390.000000	100.279014
1389.000000	100.281288
1388.000000	100.284473
1387.000000	100.290869
1386.000000	100.299995
1385.000000	100.308214
1384.000000	100.312256
1383.000000	100.312087
1382.000000	100.310317
1381.000000	100.308588
1380.000000	100.305387
1379.000000	100.299087
1378.000000	100.291633
1377.000000	100.286735
1376.000000	100.285430
1375.000000	100.285801
1374.000000	100.286231
1373.000000	100.286492
1372.000000	100.286298
1371.000000	100.285122
1370.000000	100.283462
1369.000000	100.282485
1368.000000	100.281815
1367.000000	100.279246
1366.000000	100.273420
1365.000000	100.265383
1364.000000	100.257714
1363.000000	100.253249
1362.000000	100.253205
1361.000000	100.255731
1360.000000	100.257511
1359.000000	100.257118
1358.000000	100.256592
1357.000000	100.259471
1356.000000	100.266912
1355.000000	100.276306
1354.000000	100.284155
1353.000000	100.289195
1352.000000	100.291960
1351.000000	100.292975
1350.000000	100.292960
1349.000000	100.293445
1348.000000	100.295250
1347.000000	100.296841
1346.000000	100.295784
1345.000000	100.291877
1344.000000	100.287793
1343.000000	100.286413
1342.000000	100.288209
1341.000000	100.291342
1340.000000	100.293739
1339.000000	100.295033
1338.000000	100.296471
1337.000000	100.298854
1336.000000	100.301180
1335.000000	100.302029
1334.000000	100.301891
1333.000000	100.302960
1332.000000	100.306186
1331.000000	100.309693
1330.000000	100.311128
1329.000000	100.310466
1328.000000	100.309117
1327.000000	100.307222
1326.000000	100.303788
1325.000000	100.299321
1324.000000	100.296366
1323.000000	100.296833
1322.000000	100.300064
1321.000000	100.304097
1320.000000	100.307541
1319.000000	100.309379
1318.000000	100.308313
1317.000000	100.304047
1316.000000	100.298781
1315.000000	100.295942
1314.000000	100.297123
1313.000000	100.300923
1312.000000	100.304853
1311.000000	100.307477
1310.000000	100.308356
1309.000000	100.307167
1308.000000	100.304095
1307.000000	100.300474
1306.000000	100.297608
1305.000000	100.295031
1304.000000	100.291380
1303.000000	100.287353
1302.000000	100.286287
1301.000000	100.290583
1300.000000	100.298287
1299.000000	100.304468
1298.000000	100.305709
1297.000000	100.302042
1296.000000	100.295008
1295.000000	100.285951
1294.000000	100.276623
1293.000000	100.269205
1292.000000	100.264100
1291.000000	100.258978
1290.000000	100.251706
1289.000000	100.243354
1288.000000	100.236442
1287.000000	100.231034
1286.000000	100.225052
1285.000000	100.218268
1284.000000	100.213077
1283.000000	100.210604
1282.000000	100.208731
1281.000000	100.205547
1280.000000	100.202457
1279.000000	100.201626
1278.000000	100.202095
1277.000000	100.201109
1276.000000	100.198234
1275.000000	100.195329
1274.000000	100.192811
1273.000000	100.188505
1272.000000	100.180564
1271.000000	100.169725
1270.000000	100.158497
1269.000000	100.149575
1268.000000	100.144880
1267.000000	100.144230
1266.000000	100.144903
1265.000000	100.144285
1264.000000	100.142524
1263.000000	100.140509
1262.000000	100.136310
1261.000000	100.127204
1260.000000	100.115413
1259.000000	100.107679
1258.000000	100.107056
1257.000000	100.108126
1256.000000	100.102571
1255.000000	100.087289
1254.000000	100.065373
1253.000000	100.041259
1252.000000	100.017522
1251.000000	99.995452
1250.000000	99.976001
1249.000000	99.959716
1248.000000	99.946803
1247.000000	99.936992
1246.000000	99.928887
1245.000000	99.920524
1244.000000	99.911471
1243.000000	99.903284
1242.000000	99.896792
1241.000000	99.889723
1240.000000	99.877943
1239.000000	99.858650
1238.000000	99.832495
1237.000000	99.803928
1236.000000	99.779433
1235.000000	99.763031
1234.000000	99.752019
1233.000000	99.738889
1232.000000	99.718870
1231.000000	99.694210
1230.000000	99.669959
1229.000000	99.647058
1228.000000	99.621388
1227.000000	99.588496
1226.000000	99.547437
1225.000000	99.500699
1224.000000	99.451818
1223.000000	99.402609
1222.000000	99.351820
1221.000000	99.297010
1220.000000	99.237833
1219.000000	99.175688
1218.000000	99.109629
1217.000000	99.035618
1216.000000	98.952316
1215.000000	98.865801
1214.000000	98.785447
1213.000000	98.715292
1212.000000	98.651242
1211.000000	98.585866
1210.000000	98.514337
1209.000000	98.436929
1208.000000	98.357826
1207.000000	98.281196
1206.000000	98.207212
1205.000000	98.132288
1204.000000	98.053247
1203.000000	97.969888
1202.000000	97.883879
1201.000000	97.797775
1200.000000	97.715533
1199.000000	97.640891
1198.000000	97.573487
1197.000000	97.508305
1196.000000	97.439740
1195.000000	97.364900
1194.000000	97.283953
1193.000000	97.200170
1192.000000	97.118990
1191.000000	97.043282
1190.000000	96.969210
1189.000000	96.890124
1188.000000	96.804291
1187.000000	96.715130
1186.000000	96.624826
1185.000000	96.533139
1184.000000	96.442600
1183.000000	96.358210
1182.000000	96.279546
1181.000000	96.198489
1180.000000	96.107559
1179.000000	96.006428
1178.000000	95.898625
1177.000000	95.786780
1176.000000	95.673402
1175.000000	95.561299
1174.000000	95.450139
1173.000000	95.336653
1172.000000	95.220510
1171.000000	95.105523
1170.000000	94.993256
1169.000000	94.881009
1168.000000	94.769089
1167.000000	94.665063
1166.000000	94.577835
1165.000000	94.512323
1164.000000	94.472387
1163.000000	94.463137
1162.000000	94.485889
1161.000000	94.533419
1160.000000	94.591595
1159.000000	94.643064
1158.000000	94.671003
1157.000000	94.665377
1156.000000	94.626982
1155.000000	94.562740
1154.000000	94.478212
1153.000000	94.378337
1152.000000	94.272363
1151.000000	94.169654
1150.000000	94.070367
1149.000000	93.968322
1148.000000	93.863639
1147.000000	93.763666
1146.000000	93.670093
1145.000000	93.574960
1144.000000	93.472827
1143.000000	93.368052
1142.000000	93.266138
1141.000000	93.166044
1140.000000	93.065509
1139.000000	92.966446
1138.000000	92.870319
1137.000000	92.774436
1136.000000	92.676519
1135.000000	92.577206
1134.000000	92.475995
1133.000000	92.371508
1132.000000	92.267117
1131.000000	92.168021
1130.000000	92.071232
1129.000000	91.968020
1128.000000	91.858449
1127.000000	91.752731
1126.000000	91.654556
1125.000000	91.554344
1124.000000	91.444299
1123.000000	91.329754
1122.000000	91.219475
1121.000000	91.114495
1120.000000	91.013014
1119.000000	90.916946
1118.000000	90.826840
1117.000000	90.738787
1116.000000	90.652090
1115.000000	90.571492
1114.000000	90.497029
1113.000000	90.421267
1112.000000	90.341265
1111.000000	90.262440
1110.000000	90.185771
1109.000000	90.103493
1108.000000	90.013886
1107.000000	89.928536
1106.000000	89.856907
1105.000000	89.794050
1104.000000	89.731107
1103.000000	89.668141
1102.000000	89.608699
1101.000000	89.551310
1100.000000	89.494810
1099.000000	89.443816
1098.000000	89.400760
1097.000000	89.359303
1096.000000	89.312377
1095.000000	89.260330
1094.000000	89.205561
1093.000000	89.145889
1092.000000	89.078892
1091.000000	89.007014
1090.000000	88.934055
1089.000000	88.861951
1088.000000	88.793092
1087.000000	88.728602
1086.000000	88.662760
1085.000000	88.587842
1084.000000	88.506435
1083.000000	88.430233
1082.000000	88.365055
1081.000000	88.306363
1080.000000	88.250354
1079.000000	88.197775
1078.000000	88.144685
1077.000000	88.081562
1076.000000	88.005161
1075.000000	87.920686
1074.000000	87.829687
1073.000000	87.726867
1072.000000	87.610974
1071.000000	87.486253
1070.000000	87.349738
1069.000000	87.189949
1068.000000	87.003394
1067.000000	86.801355
1066.000000	86.595198
1065.000000	86.385482
1064.000000	86.171398
1063.000000	85.960601
1062.000000	85.763472
1061.000000	85.585704
1060.000000	85.429740
1059.000000	85.293964
1058.000000	85.168195
1057.000000	85.040237
1056.000000	84.908174
1055.000000	84.775679
1054.000000	84.636025
1053.000000	84.474798
1052.000000	84.289773
1051.000000	84.092465
1050.000000	83.886953
1049.000000	83.664926
1048.000000	83.425860
1047.000000	83.182976
1046.000000	82.944281
1045.000000	82.704851
1044.000000	82.461236
1043.000000	82.217704
1042.000000	81.975804
1041.000000	81.733485
1040.000000	81.497561
1039.000000	81.281350
1038.000000	81.086554
1037.000000	80.902363
1036.000000	80.724304
1035.000000	80.558239
1034.000000	80.405236
1033.000000	80.260545
1032.000000	80.128960
1031.000000	80.022653
1030.000000	79.941792
1029.000000	79.874842
1028.000000	79.818285
1027.000000	79.776886
1026.000000	79.744378
1025.000000	79.705427
1024.000000	79.658957
1023.000000	79.618871
1022.000000	79.589531
1021.000000	79.560721
1020.000000	79.528049
1019.000000	79.496936
1018.000000	79.464629
1017.000000	79.420546
1016.000000	79.367405
1015.000000	79.320149
1014.000000	79.280446
1013.000000	79.233823
1012.000000	79.175789
1011.000000	79.119293
1010.000000	79.072481
1009.000000	79.031181
1008.000000	78.997715
1007.000000	78.984252
1006.000000	78.990622
1005.000000	78.999873
1004.000000	79.003218
1003.000000	79.010603
1002.000000	79.030640
1001.000000	79.059600
1000.000000	79.096300
999.000000	79.148374
998.000000	79.215896
997.000000	79.285522
996.000000	79.348083
995.000000	79.408204
994.000000	79.472621
993.000000	79.543361
992.000000	79.624119
991.000000	79.717177
990.000000	79.812550
989.000000	79.897439
988.000000	79.978308
987.000000	80.075896
986.000000	80.196959
985.000000	80.329106
984.000000	80.464981
983.000000	80.612231
982.000000	80.775944
981.000000	80.949960
980.000000	81.130045
979.000000	81.318686
978.000000	81.513037
977.000000	81.704744
976.000000	81.895790
975.000000	82.099343
974.000000	82.321906
973.000000	82.558400
972.000000	82.804867
971.000000	83.059944
970.000000	83.313832
969.000000	83.554401
968.000000	83.786934
967.000000	84.030449
966.000000	84.290554
965.000000	84.551423
964.000000	84.798195
963.000000	85.032314
962.000000	85.261300
961.000000	85.488040
960.000000	85.714511
959.000000	85.942682
958.000000	86.166949
957.000000	86.377000
956.000000	86.571619
955.000000	86.759472
954.000000	86.944480
953.000000	87.120829
952.000000	87.283306
951.000000	87.431282
950.000000	87.562129
949.000000	87.672813
948.000000	87.769747
947.000000	87.865974
946.000000	87.966170
945.000000	88.063854
944.000000	88.153986
943.000000	88.238399
942.000000	88.318918
941.000000	88.395256
940.000000	88.469453
939.000000	88.543026
938.000000	88.612064
937.000000	88.675444
936.000000	88.743763
935.000000	88.826727
934.000000	88.915235
933.000000	88.991923
932.000000	89.057536
931.000000	89.129902
930.000000	89.216455
929.000000	89.304690
928.000000	89.381958
927.000000	89.448384
926.000000	89.507192
925.000000	89.557818
924.000000	89.603075
923.000000	89.649493
922.000000	89.696173
921.000000	89.735392
920.000000	89.766854
919.000000	89.798681
918.000000	89.832447
917.000000	89.861506
916.000000	89.887194
915.000000	89.922254
914.000000	89.974318
913.000000	90.040100
912.000000	90.119938
911.000000	90.223273
910.000000	90.353815
909.000000	90.502757
908.000000	90.662774
907.000000	90.836618
906.000000	91.026239
905.000000	91.225118
904.000000	91.426789
903.000000	91.631000
902.000000	91.838112
901.000000	92.047757
900.000000	92.264831
899.000000	92.494244
898.000000	92.726214
897.000000	92.939242
896.000000	93.123177
895.000000	93.289702
894.000000	93.456218
893.000000	93.628739
892.000000	93.804386
891.000000	93.980501
890.000000	94.155315
889.000000	94.326876
888.000000	94.495983
887.000000	94.664812
886.000000	94.830628
885.000000	94.986930
884.000000	95.131458
883.000000	95.265993
882.000000	95.388833
881.000000	95.496887
880.000000	95.595865
879.000000	95.697568
878.000000	95.803847
877.000000	95.903653
876.000000	95.990435
875.000000	96.073452
874.000000	96.167217
873.000000	96.276821
872.000000	96.397368
871.000000	96.521325
870.000000	96.643573
869.000000	96.764416
868.000000	96.888408
867.000000	97.015558
866.000000	97.135971
865.000000	97.240428
864.000000	97.333737
863.000000	97.428845
862.000000	97.529831
861.000000	97.630819
860.000000	97.730211
859.000000	97.833416
858.000000	97.939739
857.000000	98.039126
856.000000	98.126796
855.000000	98.210682
854.000000	98.298417
853.000000	98.385046
852.000000	98.459694
851.000000	98.517847
850.000000	98.561732
849.000000	98.594768
848.000000	98.620871
847.000000	98.643378
846.000000	98.659587
845.000000	98.662002
844.000000	98.650036
843.000000	98.634834
842.000000	98.626649
841.000000	98.622425
840.000000	98.612355
839.000000	98.594592
838.000000	98.575976
837.000000	98.559759
836.000000	98.539417
835.000000	98.505924
834.000000	98.458051
833.000000	98.405114
832.000000	98.361286
831.000000	98.336369
830.000000	98.330055
829.000000	98.335752
828.000000	98.350778
827.000000	98.380490
826.000000	98.429764
825.000000	98.490321
824.000000	98.538146
823.000000	98.547503
822.000000	98.513257
821.000000	98.459779
820.000000	98.421570
819.000000	98.411057
818.000000	98.406883
817.000000	98.374273
816.000000	98.292780
815.000000	98.163756
814.000000	97.999812
813.000000	97.813928
812.000000	97.611648
811.000000	97.381265
810.000000	97.092205
809.000000	96.715224
808.000000	96.248699
807.000000	95.719517
806.000000	95.158098
805.000000	94.582039
804.000000	94.006531
803.000000	93.457059
802.000000	92.961596
801.000000	92.537730
800.000000	92.195043
799.000000	91.942998
798.000000	91.789252
797.000000	91.734167
796.000000	91.768370
795.000000	91.869389
794.000000	92.003356
793.000000	92.142021
792.000000	92.278404
791.000000	92.415825
790.000000	92.543767
789.000000	92.636419
788.000000	92.673399
787.000000	92.649276
786.000000	92.564130
785.000000	92.420288
784.000000	92.232229
783.000000	92.026591
782.000000	91.825879
781.000000	91.641004
780.000000	91.483385
779.000000	91.373767
778.000000	91.333261
777.000000	91.372054
776.000000	91.487317
775.000000	91.662428
774.000000	91.868634
773.000000	92.080196
772.000000	92.290425
771.000000	92.503639
770.000000	92.713111
769.000000	92.899951
768.000000	93.054176
767.000000	93.183211
766.000000	93.297177
765.000000	93.398721
764.000000	93.490749
763.000000	93.581262
762.000000	93.674457
761.000000	93.766866
760.000000	93.857397
759.000000	93.952093
758.000000	94.054205
757.000000	94.158032
756.000000	94.257201
755.000000	94.351686
754.000000	94.443256
753.000000	94.531684
752.000000	94.618690
751.000000	94.708148
750.000000	94.799054
749.000000	94.885031
748.000000	94.963636
747.000000	95.040190
746.000000	95.120969
745.000000	95.209699
744.000000	95.311917
743.000000	95.433809
742.000000	95.572882
741.000000	95.716123
740.000000	95.849938
739.000000	95.967215
738.000000	96.066556
737.000000	96.153612
736.000000	96.242580
735.000000	96.345599
734.000000	96.457964
733.000000	96.561211
732.000000	96.642081
731.000000	96.701728
730.000000	96.747075
729.000000	96.783161
728.000000	96.815933
727.000000	96.853195
726.000000	96.898341
725.000000	96.948325
724.000000	96.999393
723.000000	97.049295
722.000000	97.094376
721.000000	97.132848
720.000000	97.172316
719.000000	97.224184
718.000000	97.288148
717.000000	97.352599
716.000000	97.411232
715.000000	97.468280
714.000000	97.524530
713.000000	97.567721
712.000000	97.583578
711.000000	97.571365
710.000000	97.543916
709.000000	97.517085
708.000000	97.501983
707.000000	97.500132
706.000000	97.500372
705.000000	97.483637
704.000000	97.434919
703.000000	97.348887
702.000000	97.222307
701.000000	97.045455
700.000000	96.804625
699.000000	96.493188
698.000000	96.126001
697.000000	95.750123
696.000000	95.436604
695.000000	95.248085
694.000000	95.206586
693.000000	95.290798
692.000000	95.458828
691.000000	95.669854
690.000000	95.891729
689.000000	96.101942
688.000000	96.289025
687.000000	96.450420
686.000000	96.587768
685.000000	96.708944
684.000000	96.830295
683.000000	96.964464
682.000000	97.104640
681.000000	97.230027
680.000000	97.329245
679.000000	97.409287
678.000000	97.479110
677.000000	97.537100
676.000000	97.582522
675.000000	97.629853
674.000000	97.698224
673.000000	97.790372
672.000000	97.892618
671.000000	97.995771
670.000000	98.101025
669.000000	98.215308
668.000000	98.343865
667.000000	98.443114
666.000000	98.475284
665.000000	98.483588
664.000000	98.510352
663.000000	98.553041
662.000000	98.589238
661.000000	98.608787
660.000000	98.620604
659.000000	98.630140
658.000000	98.632360
657.000000	98.630115
656.000000	98.641872
655.000000	98.677750
654.000000	98.719719
653.000000	98.743774
652.000000	98.752940
651.000000	98.767019
650.000000	98.787400
