4000.000000	100.488205
3999.000000	100.484930
3998.000000	100.482285
3997.000000	100.481831
3996.000000	100.484158
3995.000000	100.488299
3994.000000	100.491941
3993.000000	100.492907
3992.000000	100.490455
3991.000000	100.485835
3990.000000	100.481398
3989.000000	100.478693
3988.000000	100.477733
3987.000000	100.477629
3986.000000	100.477571
3985.000000	100.477330
3984.000000	100.477041
3983.000000	100.476593
3982.000000	100.475350
3981.000000	100.472674
3980.000000	100.468638
3979.000000	100.463909
3978.000000	100.458919
3977.000000	100.453621
3976.000000	100.448345
3975.000000	100.444493
3974.000000	100.443682
3973.000000	100.446046
3972.000000	100.449655
3971.000000	100.451848
3970.000000	100.451231
3969.000000	100.448498
3968.000000	100.445732
3967.000000	100.444970
3966.000000	100.447001
3965.000000	100.450977
3964.000000	100.454912
3963.000000	100.456926
3962.000000	100.456491
3961.000000	100.454707
3960.000000	100.453240
3959.000000	100.452702
3958.000000	100.452048
3957.000000	100.449768
3956.000000	100.445659
3955.000000	100.441398
3954.000000	100.439228
3953.000000	100.440217
3952.000000	100.443722
3951.000000	100.447911
3950.000000	100.450767
3949.000000	100.451038
3948.000000	100.448747
3947.000000	100.444928
3946.000000	100.440830
3945.000000	100.437495
3944.000000	100.435988
3943.000000	100.437274
3942.000000	100.441382
3941.000000	100.446947
3940.000000	100.452129
3939.000000	100.456047
3938.000000	100.459010
3937.000000	100.461537
3936.000000	100.463393
3935.000000	100.463758
3934.000000	100.462254
3933.000000	100.459558
3932.000000	100.456905
3931.000000	100.455039
3930.000000	100.453936
3929.000000	100.453432
3928.000000	100.453694
3927.000000	100.454892
3926.000000	100.456479
3925.000000	100.457126
3924.000000	100.455818
3923.000000	100.452891
3922.000000	100.449853
3921.000000	100.447943
3920.000000	100.447106
3919.000000	100.446429
3918.000000	100.445337
3917.000000	100.444280
3916.000000	100.444111
3915.000000	100.444974
3914.000000	100.446035
3913.000000	100.446245
3912.000000	100.445277
3911.000000	100.443832
3910.000000	100.442990
3909.000000	100.443288
3908.000000	100.444388
3907.000000	100.445352
3906.000000	100.445251
3905.000000	100.443757
3904.000000	100.441387
3903.000000	100.439238
3902.000000	100.438347
3901.000000	100.439184
3900.000000	100.441250
3899.000000	100.443199
3898.000000	100.443936
3897.000000	100.443464
3896.000000	100.442623
3895.000000	100.442123
3894.000000	100.441957
3893.000000	100.441717
3892.000000	100.441383
3891.000000	100.441520
3890.000000	100.442434
3889.000000	100.443879
3888.000000	100.445515
3887.000000	100.447339
3886.000000	100.449625
3885.000000	100.452015
3884.000000	100.453005
3883.000000	100.451315
3882.000000	100.447409
3881.000000	100.443677
3880.000000	100.442628
3879.000000	100.444703
3878.000000	100.448651
3877.000000	100.453221
3876.000000	100.457814
3875.000000	100.462201
3874.000000	100.465855
3873.000000	100.467826
3872.000000	100.467897
3871.000000	100.467620
3870.000000	100.469353
3869.000000	100.473869
3868.000000	100.479637
3867.000000	100.484578
3866.000000	100.487024
3865.000000	100.486234
3864.000000	100.483128
3863.000000	100.479378
3862.000000	100.475648
3861.000000	100.471800
3860.000000	100.468300
3859.000000	100.466818
3858.000000	100.469070
3857.000000	100.475256
3856.000000	100.482894
3855.000000	100.487418
3854.000000	100.486831
3853.000000	100.484878
3852.000000	100.484764
3851.000000	100.485172
3850.000000	100.484255
3849.000000	100.480926
3848.000000	100.475401
3847.000000	100.469609
3846.000000	100.466253
3845.000000	100.466942
3844.000000	100.470972
3843.000000	100.475881
3842.000000	100.479715
3841.000000	100.482670
3840.000000	100.486105
3839.000000	100.490409
3838.000000	100.494026
3837.000000	100.494875
3836.000000	100.492298
3835.000000	100.487224
3834.000000	100.481027
3833.000000	100.474875
3832.000000	100.469827
3831.000000	100.466846
3830.000000	100.466355
3829.000000	100.467886
3828.000000	100.470071
3827.000000	100.471235
3826.000000	100.470407
3825.000000	100.468102
3824.000000	100.466133
3823.000000	100.466339
3822.000000	100.468909
3821.000000	100.471716
3820.000000	100.471789
3819.000000	100.468729
3818.000000	100.465589
3817.000000	100.465086
3816.000000	100.466937
3815.000000	100.468651
3814.000000	100.468419
3813.000000	100.466844
3812.000000	100.465247
3811.000000	100.463860
3810.000000	100.462359
3809.000000	100.461264
3808.000000	100.462177
3807.000000	100.466132
3806.000000	100.471552
3805.000000	100.475419
3804.000000	100.476376
3803.000000	100.475053
3802.000000	100.473343
3801.000000	100.472919
3800.000000	100.472580
3799.000000	100.470241
3798.000000	100.465620
3797.000000	100.459554
3796.000000	100.453712
3795.000000	100.449801
3794.000000	100.448257
3793.000000	100.447950
3792.000000	100.447127
3791.000000	100.445022
3790.000000	100.442514
3789.000000	100.441038
3788.000000	100.441202
3787.000000	100.442541
3786.000000	100.444288
3785.000000	100.445990
3784.000000	100.447616
3783.000000	100.449616
3782.000000	100.452663
3781.000000	100.456515
3780.000000	100.459277
3779.000000	100.458655
3778.000000	100.454121
3777.000000	100.447978
3776.000000	100.443768
3775.000000	100.443343
3774.000000	100.446083
3773.000000	100.450018
3772.000000	100.452950
3771.000000	100.453050
3770.000000	100.449558
3769.000000	100.443427
3768.000000	100.437174
3767.000000	100.433903
3766.000000	100.435082
3765.000000	100.439268
3764.000000	100.443194
3763.000000	100.443932
3762.000000	100.440182
3761.000000	100.432660
3760.000000	100.424701
3759.000000	100.420874
3758.000000	100.422708
3757.000000	100.427731
3756.000000	100.433124
3755.000000	100.438832
3754.000000	100.446960
3753.000000	100.458551
3752.000000	100.471381
3751.000000	100.481322
3750.000000	100.485301
3749.000000	100.483494
3748.000000	100.480053
3747.000000	100.478679
3746.000000	100.477691
3745.000000	100.472165
3744.000000	100.461899
3743.000000	100.451525
3742.000000	100.444916
3741.000000	100.443623
3740.000000	100.447410
3739.000000	100.455018
3738.000000	100.463781
3737.000000	100.470249
3736.000000	100.471382
3735.000000	100.465188
3734.000000	100.451424
3733.000000	100.433044
3732.000000	100.415121
3731.000000	100.400866
3730.000000	100.390284
3729.000000	100.381452
3728.000000	100.371668
3727.000000	100.359179
3726.000000	100.345442
3725.000000	100.333821
3724.000000	100.325686
3723.000000	100.319155
3722.000000	100.311901
3721.000000	100.303863
3720.000000	100.296556
3719.000000	100.291132
3718.000000	100.287409
3717.000000	100.284344
3716.000000	100.280648
3715.000000	100.275107
3714.000000	100.266800
3713.000000	100.256475
3712.000000	100.247887
3711.000000	100.243973
3710.000000	100.241561
3709.000000	100.235627
3708.000000	100.225596
3707.000000	100.213697
3706.000000	100.201566
3705.000000	100.189673
3704.000000	100.178355
3703.000000	100.168528
3702.000000	100.160989
3701.000000	100.155089
3700.000000	100.149124
3699.000000	100.142865
3698.000000	100.137662
3697.000000	100.134488
3696.000000	100.133234
3695.000000	100.133611
3694.000000	100.135841
3693.000000	100.139711
3692.000000	100.143018
3691.000000	100.142185
3690.000000	100.135960
3689.000000	100.128050
3688.000000	100.123167
3687.000000	100.122049
3686.000000	100.122333
3685.000000	100.121159
3684.000000	100.116560
3683.000000	100.107756
3682.000000	100.095594
3681.000000	100.083211
3680.000000	100.074845
3679.000000	100.072966
3678.000000	100.076675
3677.000000	100.081813
3676.000000	100.083390
3675.000000	100.078682
3674.000000	100.068012
3673.000000	100.056440
3672.000000	100.049568
3671.000000	100.046722
3670.000000	100.043065
3669.000000	100.034777
3668.000000	100.022085
3667.000000	100.008916
3666.000000	99.997474
3665.000000	99.985771
3664.000000	99.971512
3663.000000	99.955929
3662.000000	99.943172
3661.000000	99.936171
3660.000000	99.933625
3659.000000	99.931075
3658.000000	99.924963
3657.000000	99.916003
3656.000000	99.908111
3655.000000	99.903083
3654.000000	99.898885
3653.000000	99.892922
3652.000000	99.884995
3651.000000	99.878710
3650.000000	99.879510
3649.000000	99.887183
3648.000000	99.892512
3647.000000	99.888305
3646.000000	99.877084
3645.000000	99.865138
3644.000000	99.856126
3643.000000	99.850390
3642.000000	99.846661
3641.000000	99.843345
3640.000000	99.839136
3639.000000	99.833349
3638.000000	99.825680
3637.000000	99.816067
3636.000000	99.805567
3635.000000	99.796797
3634.000000	99.791887
3633.000000	99.789366
3632.000000	99.784286
3631.000000	99.772530
3630.000000	99.756558
3629.000000	99.745932
3628.000000	99.745305
3627.000000	99.748590
3626.000000	99.750895
3625.000000	99.752364
3624.000000	99.753901
3623.000000	99.755953
3622.000000	99.759240
3621.000000	99.765599
3620.000000	99.776408
3619.000000	99.789549
3618.000000	99.799915
3617.000000	99.804810
3616.000000	99.806204
3615.000000	99.807222
3614.000000	99.809242
3613.000000	99.811365
3612.000000	99.811141
3611.000000	99.806627
3610.000000	99.798857
3609.000000	99.792770
3608.000000	99.794287
3607.000000	99.804193
3606.000000	99.816667
3605.000000	99.825184
3604.000000	99.827754
3603.000000	99.827239
3602.000000	99.828222
3601.000000	99.833137
3600.000000	99.840729
3599.000000	99.848245
3598.000000	99.854495
3597.000000	99.860185
3596.000000	99.866172
3595.000000	99.872024
3594.000000	99.876458
3593.000000	99.879029
3592.000000	99.880756
3591.000000	99.882637
3590.000000	99.884268
3589.000000	99.884613
3588.000000	99.884268
3587.000000	99.885503
3586.000000	99.889284
3585.000000	99.894109
3584.000000	99.897604
3583.000000	99.898501
3582.000000	99.897789
3581.000000	99.897869
3580.000000	99.900416
3579.000000	99.905204
3578.000000	99.910699
3577.000000	99.915254
3576.000000	99.917796
3575.000000	99.917963
3574.000000	99.916236
3573.000000	99.913868
3572.000000	99.912253
3571.000000	99.912053
3570.000000	99.912821
3569.000000	99.913263
3568.000000	99.912116
3567.000000	99.909389
3566.000000	99.906879
3565.000000	99.906952
3564.000000	99.910655
3563.000000	99.916922
3562.000000	99.923352
3561.000000	99.927952
3560.000000	99.930200
3559.000000	99.930556
3558.000000	99.929611
3557.000000	99.927829
3556.000000	99.925741
3555.000000	99.924046
3554.000000	99.923393
3553.000000	99.924136
3552.000000	99.926196
3551.000000	99.928985
3550.000000	99.931507
3549.000000	99.932796
3548.000000	99.932540
3547.000000	99.931451
3546.000000	99.930817
3545.000000	99.931327
3544.000000	99.932582
3543.000000	99.933787
3542.000000	99.934623
3541.000000	99.935265
3540.000000	99.935826
3539.000000	99.936085
3538.000000	99.935766
3537.000000	99.934930
3536.000000	99.934009
3535.000000	99.933435
3534.000000	99.933353
3533.000000	99.933719
3532.000000	99.934487
3531.000000	99.935662
3530.000000	99.937211
3529.000000	99.938937
3528.000000	99.940494
3527.000000	99.941572
3526.000000	99.942110
3525.000000	99.942282
3524.000000	99.942292
3523.000000	99.942212
3522.000000	99.942099
3521.000000	99.942161
3520.000000	99.942658
3519.000000	99.943591
3518.000000	99.944555
3517.000000	99.945041
3516.000000	99.944902
3515.000000	99.944440
3514.000000	99.944059
3513.000000	99.943910
3512.000000	99.943930
3511.000000	99.944086
3510.000000	99.944383
3509.000000	99.944652
3508.000000	99.944590
3507.000000	99.944168
3506.000000	99.943850
3505.000000	99.944174
3504.000000	99.945103
3503.000000	99.945902
3502.000000	99.945794
3501.000000	99.944603
3500.000000	99.942697
3499.000000	99.940707
3498.000000	99.939393
3497.000000	99.939416
3496.000000	99.940867
3495.000000	99.942982
3494.000000	99.944608
3493.000000	99.945254
3492.000000	99.945321
3491.000000	99.945460
3490.000000	99.945860
3489.000000	99.946178
3488.000000	99.946053
3487.000000	99.945482
3486.000000	99.944764
3485.000000	99.944285
3484.000000	99.944364
3483.000000	99.945085
3482.000000	99.946089
3481.000000	99.946681
3480.000000	99.946350
3479.000000	99.945168
3478.000000	99.943659
3477.000000	99.942366
3476.000000	99.941600
3475.000000	99.941539
3474.000000	99.942369
3473.000000	99.944192
3472.000000	99.946798
3471.000000	99.949506
3470.000000	99.951331
3469.000000	99.951538
3468.000000	99.950127
3467.000000	99.947889
3466.000000	99.945879
3465.000000	99.944729
3464.000000	99.944502
3463.000000	99.944983
3462.000000	99.945895
3461.000000	99.946853
3460.000000	99.947334
3459.000000	99.946912
3458.000000	99.945620
3457.000000	99.944019
3456.000000	99.942784
3455.000000	99.942215
3454.000000	99.942146
3453.000000	99.942235
3452.000000	99.942364
3451.000000	99.942667
3450.000000	99.943144
3449.000000	99.943414
3448.000000	99.943079
3447.000000	99.942309
3446.000000	99.941863
3445.000000	99.942357
3444.000000	99.943591
3443.000000	99.944804
3442.000000	99.945595
3441.000000	99.946233
3440.000000	99.947033
3439.000000	99.947781
3438.000000	99.948027
3437.000000	99.947749
3436.000000	99.947362
3435.000000	99.947101
3434.000000	99.946792
3433.000000	99.946286
3432.000000	99.945798
3431.000000	99.945644
3430.000000	99.945846
3429.000000	99.946204
3428.000000	99.946637
3427.000000	99.947237
3426.000000	99.947972
3425.000000	99.948512
3424.000000	99.948469
3423.000000	99.947762
3422.000000	99.946666
3421.000000	99.945622
3420.000000	99.944986
3419.000000	99.944894
3418.000000	99.945291
3417.000000	99.945944
3416.000000	99.946495
3415.000000	99.946661
3414.000000	99.946406
3413.000000	99.945925
3412.000000	99.945477
3411.000000	99.945205
3410.000000	99.945100
3409.000000	99.945077
3408.000000	99.945051
3407.000000	99.944937
3406.000000	99.944625
3405.000000	99.944054
3404.000000	99.943377
3403.000000	99.942991
3402.000000	99.943201
3401.000000	99.943931
3400.000000	99.944749
3399.000000	99.945242
3398.000000	99.945341
3397.000000	99.945244
3396.000000	99.945211
3395.000000	99.945350
3394.000000	99.945567
3393.000000	99.945674
3392.000000	99.945565
3391.000000	99.945332
3390.000000	99.945206
3389.000000	99.945324
3388.000000	99.945608
3387.000000	99.945914
3386.000000	99.946265
3385.000000	99.946822
3384.000000	99.947600
3383.000000	99.948290
3382.000000	99.948538
3381.000000	99.948296
3380.000000	99.947853
3379.000000	99.947587
3378.000000	99.947640
3377.000000	99.947926
3376.000000	99.948243
3375.000000	99.948393
3374.000000	99.948267
3373.000000	99.947900
3372.000000	99.947471
3371.000000	99.947201
3370.000000	99.947188
3369.000000	99.947386
3368.000000	99.947722
3367.000000	99.948199
3366.000000	99.948842
3365.000000	99.949552
3364.000000	99.950077
3363.000000	99.950185
3362.000000	99.949861
3361.000000	99.949301
3360.000000	99.948744
3359.000000	99.948347
3358.000000	99.948184
3357.000000	99.948255
3356.000000	99.948453
3355.000000	99.948577
3354.000000	99.948501
3353.000000	99.948280
3352.000000	99.948061
3351.000000	99.947933
3350.000000	99.947850
3349.000000	99.947724
3348.000000	99.947521
3347.000000	99.947267
3346.000000	99.947010
3345.000000	99.946793
3344.000000	99.946631
3343.000000	99.946497
3342.000000	99.946337
3341.000000	99.946124
3340.000000	99.945888
3339.000000	99.945670
3338.000000	99.945498
3337.000000	99.945371
3336.000000	99.945273
3335.000000	99.945199
3334.000000	99.945147
3333.000000	99.945114
3332.000000	99.945088
3331.000000	99.945064
3330.000000	99.945045
3329.000000	99.945025
3328.000000	99.944995
3327.000000	99.944951
3326.000000	99.944892
3325.000000	99.944822
3324.000000	99.944743
3323.000000	99.944657
3322.000000	99.944568
3321.000000	99.944487
3320.000000	99.944426
3319.000000	99.944392
3318.000000	99.944380
3317.000000	99.944367
3316.000000	99.944317
3315.000000	99.944217
3314.000000	99.944095
3313.000000	99.944003
3312.000000	99.943983
3311.000000	99.944032
3310.000000	99.944067
3309.000000	99.943991
3308.000000	99.943778
3307.000000	99.943557
3306.000000	99.943485
3305.000000	99.943577
3304.000000	99.943701
3303.000000	99.943809
3302.000000	99.944023
3301.000000	99.944432
3300.000000	99.944910
3299.000000	99.945255
3298.000000	99.945394
3297.000000	99.945319
3296.000000	99.944941
3295.000000	99.944199
3294.000000	99.943344
3293.000000	99.942857
3292.000000	99.942998
3291.000000	99.943575
3290.000000	99.944072
3289.000000	99.944074
3288.000000	99.943461
3287.000000	99.942395
3286.000000	99.941251
3285.000000	99.940443
3284.000000	99.940235
3283.000000	99.940588
3282.000000	99.941227
3281.000000	99.941887
3280.000000	99.942499
3279.000000	99.943122
3278.000000	99.943744
3277.000000	99.944212
3276.000000	99.944364
3275.000000	99.944235
3274.000000	99.944083
3273.000000	99.944188
3272.000000	99.944593
3271.000000	99.945107
3270.000000	99.945487
3269.000000	99.945635
3268.000000	99.945613
3267.000000	99.945534
3266.000000	99.945479
3265.000000	99.945470
3264.000000	99.945478
3263.000000	99.945476
3262.000000	99.945475
3261.000000	99.945508
3260.000000	99.945609
3259.000000	99.945784
3258.000000	99.946018
3257.000000	99.946278
3256.000000	99.946534
3255.000000	99.946776
3254.000000	99.947011
3253.000000	99.947247
3252.000000	99.947494
3251.000000	99.947749
3250.000000	99.948001
3249.000000	99.948235
3248.000000	99.948446
3247.000000	99.948645
3246.000000	99.948852
3245.000000	99.949082
3244.000000	99.949331
3243.000000	99.949584
3242.000000	99.949807
3241.000000	99.949963
3240.000000	99.950026
3239.000000	99.949997
3238.000000	99.949902
3237.000000	99.949789
3236.000000	99.949717
3235.000000	99.949737
3234.000000	99.949861
3233.000000	99.950040
3232.000000	99.950213
3231.000000	99.950353
3230.000000	99.950480
3229.000000	99.950637
3228.000000	99.950849
3227.000000	99.951097
3226.000000	99.951318
3225.000000	99.951465
3224.000000	99.951584
3223.000000	99.951796
3222.000000	99.952143
3221.000000	99.952534
3220.000000	99.952925
3219.000000	99.953455
3218.000000	99.954209
3217.000000	99.954903
3216.000000	99.955041
3215.000000	99.954403
3214.000000	99.953184
3213.000000	99.951646
3212.000000	99.950024
3211.000000	99.948862
3210.000000	99.948928
3209.000000	99.950374
3208.000000	99.952162
3207.000000	99.953017
3206.000000	99.952901
3205.000000	99.952917
3204.000000	99.953839
3203.000000	99.955290
3202.000000	99.956359
3201.000000	99.956559
3200.000000	99.956023
3199.000000	99.955271
3198.000000	99.955148
3197.000000	99.956537
3196.000000	99.959655
3195.000000	99.963719
3194.000000	99.967497
3193.000000	99.970178
3192.000000	99.971585
3191.000000	99.971667
3190.000000	99.970192
3189.000000	99.967127
3188.000000	99.963135
3187.000000	99.959508
3186.000000	99.957452
3185.000000	99.957332
3184.000000	99.958619
3183.000000	99.960607
3182.000000	99.963112
3181.000000	99.966327
3180.000000	99.970117
3179.000000	99.973838
3178.000000	99.976884
3177.000000	99.979088
3176.000000	99.980575
3175.000000	99.981612
3174.000000	99.982627
3173.000000	99.983889
3172.000000	99.984945
3171.000000	99.984862
3170.000000	99.983365
3169.000000	99.981400
3168.000000	99.980180
3167.000000	99.979946
3166.000000	99.980160
3165.000000	99.980614
3164.000000	99.981607
3163.000000	99.982972
3162.000000	99.983682
3161.000000	99.982879
3160.000000	99.981022
3159.000000	99.979648
3158.000000	99.980016
3157.000000	99.982169
3156.000000	99.985266
3155.000000	99.988495
3154.000000	99.991531
3153.000000	99.994259
3152.000000	99.996289
3151.000000	99.997029
3150.000000	99.996405
3149.000000	99.995265
3148.000000	99.994813
3147.000000	99.995567
3146.000000	99.996921
3145.000000	99.997746
3144.000000	99.997421
3143.000000	99.996325
3142.000000	99.995468
3141.000000	99.995615
3140.000000	99.996667
3139.000000	99.997912
3138.000000	99.998866
3137.000000	99.999753
3136.000000	100.001007
3135.000000	100.002491
3134.000000	100.003507
3133.000000	100.003558
3132.000000	100.002846
3131.000000	100.002056
3130.000000	100.001870
3129.000000	100.002719
3128.000000	100.004715
3127.000000	100.007526
3126.000000	100.010435
3125.000000	100.012805
3124.000000	100.014534
3123.000000	100.015958
3122.000000	100.017402
3121.000000	100.018847
3120.000000	100.020005
3119.000000	100.020664
3118.000000	100.020960
3117.000000	100.021365
3116.000000	100.022329
3115.000000	100.023933
3114.000000	100.025890
3113.000000	100.027777
3112.000000	100.029340
3111.000000	100.030586
3110.000000	100.031698
3109.000000	100.032924
3108.000000	100.034416
3107.000000	100.036103
3106.000000	100.037702
3105.000000	100.038981
3104.000000	100.040004
3103.000000	100.041106
3102.000000	100.042550
3101.000000	100.044277
3100.000000	100.045954
3099.000000	100.047322
3098.000000	100.048404
3097.000000	100.049395
3096.000000	100.050435
3095.000000	100.051548
3094.000000	100.052710
3093.000000	100.053879
3092.000000	100.054967
3091.000000	100.055920
3090.000000	100.056826
3089.000000	100.057860
3088.000000	100.059104
3087.000000	100.060515
3086.000000	100.062020
3085.000000	100.063560
3084.000000	100.065057
3083.000000	100.066410
3082.000000	100.067592
3081.000000	100.068691
3080.000000	100.069797
3079.000000	100.070873
3078.000000	100.071831
3077.000000	100.072719
3076.000000	100.073757
3075.000000	100.075123
3074.000000	100.076741
3073.000000	100.078267
3072.000000	100.079355
3071.000000	100.079955
3070.000000	100.080332
3069.000000	100.080825
3068.000000	100.081540
3067.000000	100.082309
3066.000000	100.082919
3065.000000	100.083349
3064.000000	100.083760
3063.000000	100.084319
3062.000000	100.085075
3061.000000	100.085965
3060.000000	100.086909
3059.000000	100.087871
3058.000000	100.088828
3057.000000	100.089733
3056.000000	100.090563
3055.000000	100.091394
3054.000000	100.092357
3053.000000	100.093481
3052.000000	100.094611
3051.000000	100.095528
3050.000000	100.096192
3049.000000	100.096749
3048.000000	100.097414
3047.000000	100.098223
3046.000000	100.099058
3045.000000	100.099793
3044.000000	100.100413
3043.000000	100.100967
3042.000000	100.101482
3041.000000	100.101974
3040.000000	100.102515
3039.000000	100.103159
3038.000000	100.103877
3037.000000	100.104566
3036.000000	100.105178
3035.000000	100.105771
3034.000000	100.106438
3033.000000	100.107215
3032.000000	100.108055
3031.000000	100.108888
3030.000000	100.109658
3029.000000	100.110352
3028.000000	100.110994
3027.000000	100.111627
3026.000000	100.112275
3025.000000	100.112939
3024.000000	100.113628
3023.000000	100.114358
3022.000000	100.115124
3021.000000	100.115886
3020.000000	100.116610
3019.000000	100.117312
3018.000000	100.118042
3017.000000	100.118825
3016.000000	100.119634
3015.000000	100.120436
3014.000000	100.121230
3013.000000	100.122054
3012.000000	100.122939
3011.000000	100.123906
3010.000000	100.124962
3009.000000	100.126085
3008.000000	100.127220
3007.000000	100.128314
3006.000000	100.129366
3005.000000	100.130416
3004.000000	100.131495
3003.000000	100.132617
3002.000000	100.133821
3001.000000	100.135137
3000.000000	100.136517
2999.000000	100.137836
2998.000000	100.139005
2997.000000	100.140077
2996.000000	100.141256
2995.000000	100.142681
2994.000000	100.144322
2993.000000	100.146014
2992.000000	100.147614
2991.000000	100.149045
2990.000000	100.150245
2989.000000	100.151244
2988.000000	100.152277
2987.000000	100.153660
2986.000000	100.155524
2985.000000	100.157694
2984.000000	100.159914
2983.000000	100.162117
2982.000000	100.164318
2981.000000	100.166380
2980.000000	100.168059
2979.000000	100.169304
2978.000000	100.170410
2977.000000	100.171832
2976.000000	100.173817
2975.000000	100.176214
2974.000000	100.178618
2973.000000	100.180715
2972.000000	100.182451
2971.000000	100.183880
2970.000000	100.184959
2969.000000	100.185632
2968.000000	100.186091
2967.000000	100.186815
2966.000000	100.188401
2965.000000	100.191328
2964.000000	100.195553
2963.000000	100.200007
2962.000000	100.203039
2961.000000	100.204017
2960.000000	100.204174
2959.000000	100.205130
2958.000000	100.206793
2957.000000	100.207873
2956.000000	100.208244
2955.000000	100.209185
2954.000000	100.210856
2953.000000	100.211397
2952.000000	100.209645
2951.000000	100.207450
2950.000000	100.207756
2949.000000	100.211089
2948.000000	100.215182
2947.000000	100.217718
2946.000000	100.218492
2945.000000	100.219015
2944.000000	100.221261
2943.000000	100.226716
2942.000000	100.235367
2941.000000	100.244989
2940.000000	100.252186
2939.000000	100.254899
2938.000000	100.253794
2937.000000	100.251488
2936.000000	100.250747
2935.000000	100.253169
2934.000000	100.258822
2933.000000	100.266468
2932.000000	100.274236
2931.000000	100.280506
2930.000000	100.284426
2929.000000	100.286008
2928.000000	100.286128
2927.000000	100.286194
2926.000000	100.287038
2925.000000	100.287757
2924.000000	100.286207
2923.000000	100.281285
2922.000000	100.274784
2921.000000	100.270451
2920.000000	100.270607
2919.000000	100.273938
2918.000000	100.276869
2917.000000	100.277135
2916.000000	100.275445
2915.000000	100.273687
2914.000000	100.272409
2913.000000	100.270871
2912.000000	100.268893
2911.000000	100.267299
2910.000000	100.266405
2909.000000	100.265349
2908.000000	100.263610
2907.000000	100.262431
2906.000000	100.263652
2905.000000	100.267328
2904.000000	100.271174
2903.000000	100.272602
2902.000000	100.271123
2901.000000	100.268610
2900.000000	100.267461
2899.000000	100.268364
2898.000000	100.269810
2897.000000	100.269779
2896.000000	100.267887
2895.000000	100.265705
2894.000000	100.265040
2893.000000	100.266269
2892.000000	100.268405
2891.000000	100.270223
2890.000000	100.271091
2889.000000	100.271034
2888.000000	100.270542
2887.000000	100.270298
2886.000000	100.270712
2885.000000	100.271629
2884.000000	100.272612
2883.000000	100.273455
2882.000000	100.274327
2881.000000	100.275417
2880.000000	100.276595
2879.000000	100.277505
2878.000000	100.277955
2877.000000	100.278132
2876.000000	100.278398
2875.000000	100.278986
2874.000000	100.279972
2873.000000	100.281296
2872.000000	100.282712
2871.000000	100.283826
2870.000000	100.284332
2869.000000	100.284235
2868.000000	100.283795
2867.000000	100.283324
2866.000000	100.283114
2865.000000	100.283486
2864.000000	100.284659
2863.000000	100.286508
2862.000000	100.288532
2861.000000	100.290206
2860.000000	100.291330
2859.000000	100.292062
2858.000000	100.292760
2857.000000	100.293819
2856.000000	100.295490
2855.000000	100.297672
2854.000000	100.299866
2853.000000	100.301475
2852.000000	100.302122
2851.000000	100.301702
2850.000000	100.300413
2849.000000	100.298872
2848.000000	100.298023
2847.000000	100.298552
2846.000000	100.300288
2845.000000	100.302225
2844.000000	100.303295
2843.000000	100.303183
2842.000000	100.302422
2841.000000	100.301844
2840.000000	100.301892
2839.000000	100.302434
2838.000000	100.303092
2837.000000	100.303662
2836.000000	100.304135
2835.000000	100.304382
2834.000000	100.304099
2833.000000	100.303230
2832.000000	100.302270
2831.000000	100.301863
2830.000000	100.302114
2829.000000	100.302590
2828.000000	100.303023
2827.000000	100.303672
2826.000000	100.304836
2825.000000	100.306266
2824.000000	100.307295
2823.000000	100.307499
2822.000000	100.306977
2821.000000	100.306085
2820.000000	100.305137
2819.000000	100.304392
2818.000000	100.304155
2817.000000	100.304652
2816.000000	100.305788
2815.000000	100.307145
2814.000000	100.308273
2813.000000	100.308987
2812.000000	100.309386
2811.000000	100.309691
2810.000000	100.310127
2809.000000	100.310860
2808.000000	100.311923
2807.000000	100.313161
2806.000000	100.314301
2805.000000	100.315151
2804.000000	100.315736
2803.000000	100.316229
2802.000000	100.316831
2801.000000	100.317719
2800.000000	100.318994
2799.000000	100.320593
2798.000000	100.322231
2797.000000	100.323557
2796.000000	100.324454
2795.000000	100.325057
2794.000000	100.325600
2793.000000	100.326252
2792.000000	100.327104
2791.000000	100.328183
2790.000000	100.329407
2789.000000	100.330592
2788.000000	100.331611
2787.000000	100.332510
2786.000000	100.333442
2785.000000	100.334507
2784.000000	100.335670
2783.000000	100.336822
2782.000000	100.337890
2781.000000	100.338887
2780.000000	100.339865
2779.000000	100.340861
2778.000000	100.341888
2777.000000	100.342953
2776.000000	100.344063
2775.000000	100.345222
2774.000000	100.346411
2773.000000	100.347596
2772.000000	100.348746
2771.000000	100.349843
2770.000000	100.350879
2769.000000	100.351850
2768.000000	100.352766
2767.000000	100.353656
2766.000000	100.354542
2765.000000	100.355419
2764.000000	100.356292
2763.000000	100.357212
2762.000000	100.358221
2761.000000	100.359258
2760.000000	100.360172
2759.000000	100.360889
2758.000000	100.361474
2757.000000	100.362080
2756.000000	100.362793
2755.000000	100.363584
2754.000000	100.364384
2753.000000	100.365138
2752.000000	100.365821
2751.000000	100.366434
2750.000000	100.366995
2749.000000	100.367545
2748.000000	100.368117
2747.000000	100.368712
2746.000000	100.369304
2745.000000	100.369873
2744.000000	100.370444
2743.000000	100.371062
2742.000000	100.371745
2741.000000	100.372459
2740.000000	100.373145
2739.000000	100.373770
2738.000000	100.374344
2737.000000	100.374895
2736.000000	100.375448
2735.000000	100.376006
2734.000000	100.376556
2733.000000	100.377075
2732.000000	100.377542
2731.000000	100.377965
2730.000000	100.378367
2729.000000	100.378776
2728.000000	100.379199
2727.000000	100.379631
2726.000000	100.380065
2725.000000	100.380503
2724.000000	100.380945
2723.000000	100.381372
2722.000000	100.381751
2721.000000	100.382069
2720.000000	100.382339
2719.000000	100.382597
2718.000000	100.382864
2717.000000	100.383147
2716.000000	100.383445
2715.000000	100.383749
2714.000000	100.384039
2713.000000	100.384301
2712.000000	100.384552
2711.000000	100.384855
2710.000000	100.385255
2709.000000	100.385757
2708.000000	100.386304
2707.000000	100.386803
2706.000000	100.387172
2705.000000	100.387380
2704.000000	100.387457
2703.000000	100.387501
2702.000000	100.387635
2701.000000	100.387950
2700.000000	100.388438
2699.000000	100.388981
2698.000000	100.389456
2697.000000	100.389829
2696.000000	100.390146
2695.000000	100.390459
2694.000000	100.390774
2693.000000	100.391061
2692.000000	100.391312
2691.000000	100.391563
2690.000000	100.391900
2689.000000	100.392449
2688.000000	100.393316
2687.000000	100.394436
2686.000000	100.395465
2685.000000	100.395983
2684.000000	100.395885
2683.000000	100.395466
2682.000000	100.395055
2681.000000	100.394649
2680.000000	100.394143
2679.000000	100.393743
2678.000000	100.393782
2677.000000	100.394182
2676.000000	100.394514
2675.000000	100.394748
2674.000000	100.395430
2673.000000	100.396846
2672.000000	100.398438
2671.000000	100.399372
2670.000000	100.399547
2669.000000	100.399615
2668.000000	100.400052
2667.000000	100.400606
2666.000000	100.400937
2665.000000	100.401303
2664.000000	100.402157
2663.000000	100.403353
2662.000000	100.404264
2661.000000	100.404591
2660.000000	100.404518
2659.000000	100.404136
2658.000000	100.403315
2657.000000	100.402302
2656.000000	100.401860
2655.000000	100.402388
2654.000000	100.403233
2653.000000	100.403287
2652.000000	100.402270
2651.000000	100.401019
2650.000000	100.400523
2649.000000	100.400886
2648.000000	100.401547
2647.000000	100.402132
2646.000000	100.402699
2645.000000	100.403231
2644.000000	100.403480
2643.000000	100.403393
2642.000000	100.403243
2641.000000	100.403125
2640.000000	100.402766
2639.000000	100.402160
2638.000000	100.402015
2637.000000	100.402978
2636.000000	100.404739
2635.000000	100.406228
2634.000000	100.406872
2633.000000	100.407130
2632.000000	100.407695
2631.000000	100.408542
2630.000000	100.409158
2629.000000	100.409369
2628.000000	100.409353
2627.000000	100.409040
2626.000000	100.408129
2625.000000	100.406737
2624.000000	100.405549
2623.000000	100.405149
2622.000000	100.405497
2621.000000	100.406239
2620.000000	100.407158
2619.000000	100.408154
2618.000000	100.408989
2617.000000	100.409393
2616.000000	100.409384
2615.000000	100.409297
2614.000000	100.409466
2613.000000	100.409892
2612.000000	100.410335
2611.000000	100.410628
2610.000000	100.410809
2609.000000	100.411000
2608.000000	100.411266
2607.000000	100.411616
2606.000000	100.412023
2605.000000	100.412425
2604.000000	100.412757
2603.000000	100.413015
2602.000000	100.413258
2601.000000	100.413534
2600.000000	100.413824
2599.000000	100.414083
2598.000000	100.414308
2597.000000	100.414519
2596.000000	100.414725
2595.000000	100.414924
2594.000000	100.415119
2593.000000	100.415314
2592.000000	100.415518
2591.000000	100.415740
2590.000000	100.415977
2589.000000	100.416227
2588.000000	100.416491
2587.000000	100.416776
2586.000000	100.417088
2585.000000	100.417428
2584.000000	100.417792
2583.000000	100.418172
2582.000000	100.418546
2581.000000	100.418887
2580.000000	100.419179
2579.000000	100.419426
2578.000000	100.419642
2577.000000	100.419840
2576.000000	100.420029
2575.000000	100.420220
2574.000000	100.420423
2573.000000	100.420642
2572.000000	100.420870
2571.000000	100.421099
2570.000000	100.421336
2569.000000	100.421592
2568.000000	100.421870
2567.000000	100.422163
2566.000000	100.422456
2565.000000	100.422749
2564.000000	100.423044
2563.000000	100.423349
2562.000000	100.423666
2561.000000	100.423994
2560.000000	100.424334
2559.000000	100.424681
2558.000000	100.425026
2557.000000	100.425367
2556.000000	100.425713
2555.000000	100.426072
2554.000000	100.426442
2553.000000	100.426809
2552.000000	100.427161
2551.000000	100.427497
2550.000000	100.427825
2549.000000	100.428147
2548.000000	100.428460
2547.000000	100.428762
2546.000000	100.429060
2545.000000	100.429365
2544.000000	100.429681
2543.000000	100.430011
2542.000000	100.430357
2541.000000	100.430714
2540.000000	100.431080
2539.000000	100.431451
2538.000000	100.431834
2537.000000	100.432236
2536.000000	100.432661
2535.000000	100.433103
2534.000000	100.433557
2533.000000	100.434015
2532.000000	100.434472
2531.000000	100.434923
2530.000000	100.435370
2529.000000	100.435823
2528.000000	100.436301
2527.000000	100.436814
2526.000000	100.437328
2525.000000	100.437781
2524.000000	100.438142
2523.000000	100.438461
2522.000000	100.438815
2521.000000	100.439217
2520.000000	100.439622
2519.000000	100.439998
2518.000000	100.440354
2517.000000	100.440697
2516.000000	100.441012
2515.000000	100.441314
2514.000000	100.441661
2513.000000	100.442042
2512.000000	100.442274
2511.000000	100.442145
2510.000000	100.441734
2509.000000	100.441458
2508.000000	100.441598
2507.000000	100.442131
2506.000000	100.442932
2505.000000	100.443947
2504.000000	100.444955
2503.000000	100.445557
2502.000000	100.445631
2501.000000	100.445495
2500.000000	100.445424
2499.000000	100.445244
2498.000000	100.444795
2497.000000	100.444494
2496.000000	100.444911
2495.000000	100.445880
2494.000000	100.446536
2493.000000	100.446379
2492.000000	100.445848
2491.000000	100.445653
2490.000000	100.445975
2489.000000	100.446623
2488.000000	100.447553
2487.000000	100.448753
2486.000000	100.449838
2485.000000	100.450243
2484.000000	100.449864
2483.000000	100.449225
2482.000000	100.449013
2481.000000	100.449560
2480.000000	100.450672
2479.000000	100.451753
2478.000000	100.452145
2477.000000	100.451545
2476.000000	100.450065
2475.000000	100.447894
2474.000000	100.445124
2473.000000	100.442117
2472.000000	100.439905
2471.000000	100.439710
2470.000000	100.441890
2469.000000	100.445349
2468.000000	100.448150
2467.000000	100.449197
2466.000000	100.449207
2465.000000	100.449920
2464.000000	100.452192
2463.000000	100.455004
2462.000000	100.456600
2461.000000	100.456391
2460.000000	100.455195
2459.000000	100.453866
2458.000000	100.452382
2457.000000	100.450590
2456.000000	100.449013
2455.000000	100.448246
2454.000000	100.448044
2453.000000	100.447815
2452.000000	100.447891
2451.000000	100.449452
2450.000000	100.452998
2449.000000	100.457433
2448.000000	100.460918
2447.000000	100.462484
2446.000000	100.462462
2445.000000	100.461674
2444.000000	100.460538
2443.000000	100.459073
2442.000000	100.457597
2441.000000	100.456914
2440.000000	100.457458
2439.000000	100.458526
2438.000000	100.458869
2437.000000	100.458239
2436.000000	100.457787
2435.000000	100.458573
2434.000000	100.460203
2433.000000	100.461456
2432.000000	100.461919
2431.000000	100.462251
2430.000000	100.462964
2429.000000	100.463774
2428.000000	100.464358
2427.000000	100.465026
2426.000000	100.466213
2425.000000	100.467717
2424.000000	100.468910
2423.000000	100.469536
2422.000000	100.469957
2421.000000	100.470731
2420.000000	100.472221
2419.000000	100.474421
2418.000000	100.476797
2417.000000	100.478439
2416.000000	100.478699
2415.000000	100.477673
2414.000000	100.476002
2413.000000	100.474366
2412.000000	100.473400
2411.000000	100.473880
2410.000000	100.476355
2409.000000	100.480323
2408.000000	100.484168
2407.000000	100.486433
2406.000000	100.487143
2405.000000	100.487611
2404.000000	100.488356
2403.000000	100.488561
2402.000000	100.487771
2401.000000	100.486779
2400.000000	100.486459
2399.000000	100.486503
2398.000000	100.485910
2397.000000	100.484571
2396.000000	100.483594
2395.000000	100.483801
2394.000000	100.484561
2393.000000	100.484619
2392.000000	100.483725
2391.000000	100.482790
2390.000000	100.482558
2389.000000	100.482796
2388.000000	100.482962
2387.000000	100.483056
2386.000000	100.483377
2385.000000	100.483901
2384.000000	100.484412
2383.000000	100.484942
2382.000000	100.485666
2381.000000	100.486467
2380.000000	100.486982
2379.000000	100.487187
2378.000000	100.487576
2377.000000	100.488492
2376.000000	100.489589
2375.000000	100.490255
2374.000000	100.490319
2373.000000	100.490044
2372.000000	100.489591
2371.000000	100.488942
2370.000000	100.488286
2369.000000	100.487919
2368.000000	100.487679
2367.000000	100.487002
2366.000000	100.485880
2365.000000	100.485362
2364.000000	100.486456
2363.000000	100.489034
2362.000000	100.491953
2361.000000	100.494047
2360.000000	100.495051
2359.000000	100.495313
2358.000000	100.495438
2357.000000	100.495809
2356.000000	100.496375
2355.000000	100.496934
2354.000000	100.497345
2353.000000	100.497668
2352.000000	100.498067
2351.000000	100.498728
2350.000000	100.499709
2349.000000	100.500771
2348.000000	100.501628
2347.000000	100.502143
2346.000000	100.502476
2345.000000	100.503017
2344.000000	100.504034
2343.000000	100.505501
2342.000000	100.506937
2341.000000	100.507774
2340.000000	100.507782
2339.000000	100.507165
2338.000000	100.506471
2337.000000	100.506130
2336.000000	100.506195
2335.000000	100.506479
2334.000000	100.506757
2333.000000	100.506925
2332.000000	100.506981
2331.000000	100.506920
2330.000000	100.506764
2329.000000	100.506575
2328.000000	100.506467
2327.000000	100.506426
2326.000000	100.506352
2325.000000	100.506202
2324.000000	100.506047
2323.000000	100.506005
2322.000000	100.506049
2321.000000	100.506049
2320.000000	100.505830
2319.000000	100.505315
2318.000000	100.504527
2317.000000	100.503581
2316.000000	100.502652
2315.000000	100.501846
2314.000000	100.501180
2313.000000	100.500556
2312.000000	100.499887
2311.000000	100.499165
2310.000000	100.498419
2309.000000	100.497601
2308.000000	100.496641
2307.000000	100.495600
2306.000000	100.494652
2305.000000	100.493892
2304.000000	100.493177
2303.000000	100.492287
2302.000000	100.491121
2301.000000	100.489760
2300.000000	100.488360
2299.000000	100.487060
2298.000000	100.486070
2297.000000	100.485541
2296.000000	100.485375
2295.000000	100.485357
2294.000000	100.485419
2293.000000	100.485643
2292.000000	100.485946
2291.000000	100.485918
2290.000000	100.485118
2289.000000	100.483615
2288.000000	100.481804
2287.000000	100.479981
2286.000000	100.478156
2285.000000	100.476387
2284.000000	100.474939
2283.000000	100.474057
2282.000000	100.473572
2281.000000	100.473027
2280.000000	100.472212
2279.000000	100.471429
2278.000000	100.470945
2277.000000	100.470359
2276.000000	100.468881
2275.000000	100.466204
2274.000000	100.462905
2273.000000	100.459934
2272.000000	100.457915
2271.000000	100.456980
2270.000000	100.457051
2269.000000	100.457859
2268.000000	100.458782
2267.000000	100.459168
2266.000000	100.458879
2265.000000	100.458271
2264.000000	100.457645
2263.000000	100.456954
2262.000000	100.456137
2261.000000	100.455467
2260.000000	100.455297
2259.000000	100.455598
2258.000000	100.455925
2257.000000	100.455845
2256.000000	100.455271
2255.000000	100.454417
2254.000000	100.453546
2253.000000	100.452846
2252.000000	100.452453
2251.000000	100.452399
2250.000000	100.452495
2249.000000	100.452327
2248.000000	100.451563
2247.000000	100.450238
2246.000000	100.448774
2245.000000	100.447740
2244.000000	100.447413
2243.000000	100.447676
2242.000000	100.448166
2241.000000	100.448520
2240.000000	100.448579
2239.000000	100.448402
2238.000000	100.448176
2237.000000	100.448074
2236.000000	100.448116
2235.000000	100.448184
2234.000000	100.448181
2233.000000	100.448139
2232.000000	100.448155
2231.000000	100.448264
2230.000000	100.448414
2229.000000	100.448545
2228.000000	100.448656
2227.000000	100.448783
2226.000000	100.448950
2225.000000	100.449149
2224.000000	100.449359
2223.000000	100.449567
2222.000000	100.449774
2221.000000	100.449983
2220.000000	100.450185
2219.000000	100.450364
2218.000000	100.450516
2217.000000	100.450648
2216.000000	100.450767
2215.000000	100.450881
2214.000000	100.451003
2213.000000	100.451136
2212.000000	100.451271
2211.000000	100.451399
2210.000000	100.451511
2209.000000	100.451614
2208.000000	100.451723
2207.000000	100.451854
2206.000000	100.452013
2205.000000	100.452192
2204.000000	100.452377
2203.000000	100.452553
2202.000000	100.452712
2201.000000	100.452855
2200.000000	100.452986
2199.000000	100.453110
2198.000000	100.453226
2197.000000	100.453333
2196.000000	100.453430
2195.000000	100.453518
2194.000000	100.453600
2193.000000	100.453681
2192.000000	100.453767
2191.000000	100.453862
2190.000000	100.453968
2189.000000	100.454084
2188.000000	100.454205
2187.000000	100.454330
2186.000000	100.454454
2185.000000	100.454578
2184.000000	100.454697
2183.000000	100.454815
2182.000000	100.454936
2181.000000	100.455061
2180.000000	100.455184
2179.000000	100.455300
2178.000000	100.455417
2177.000000	100.455553
2176.000000	100.455715
2175.000000	100.455885
2174.000000	100.456014
2173.000000	100.456055
2172.000000	100.456038
2171.000000	100.456079
2170.000000	100.456284
2169.000000	100.456683
2168.000000	100.457258
2167.000000	100.457903
2166.000000	100.458403
2165.000000	100.458587
2164.000000	100.458491
2163.000000	100.458409
2162.000000	100.458578
2161.000000	100.458920
2160.000000	100.459177
2159.000000	100.459241
2158.000000	100.459257
2157.000000	100.459424
2156.000000	100.459785
2155.000000	100.460231
2154.000000	100.460643
2153.000000	100.460978
2152.000000	100.461269
2151.000000	100.461592
2150.000000	100.461975
2149.000000	100.462323
2148.000000	100.462473
2147.000000	100.462384
2146.000000	100.462183
2145.000000	100.462021
2144.000000	100.461939
2143.000000	100.461922
2142.000000	100.462046
2141.000000	100.462404
2140.000000	100.462935
2139.000000	100.463404
2138.000000	100.463610
2137.000000	100.463565
2136.000000	100.463445
2135.000000	100.463457
2134.000000	100.463690
2133.000000	100.464109
2132.000000	100.464576
2131.000000	100.464952
2130.000000	100.465199
2129.000000	100.465408
2128.000000	100.465703
2127.000000	100.466122
2126.000000	100.466620
2125.000000	100.467156
2124.000000	100.467720
2123.000000	100.468276
2122.000000	100.468761
2121.000000	100.469160
2120.000000	100.469538
2119.000000	100.469970
2118.000000	100.470452
2117.000000	100.470914
2116.000000	100.471300
2115.000000	100.471636
2114.000000	100.472029
2113.000000	100.472582
2112.000000	100.473303
2111.000000	100.474068
2110.000000	100.474718
2109.000000	100.475213
2108.000000	100.475629
2107.000000	100.476038
2106.000000	100.476398
2105.000000	100.476626
2104.000000	100.476764
2103.000000	100.477042
2102.000000	100.477690
2101.000000	100.478730
2100.000000	100.479899
2099.000000	100.480823
2098.000000	100.481348
2097.000000	100.481671
2096.000000	100.482176
2095.000000	100.483034
2094.000000	100.484058
2093.000000	100.484928
2092.000000	100.485425
2091.000000	100.485462
2090.000000	100.485087
2089.000000	100.484583
2088.000000	100.484368
2087.000000	100.484617
2086.000000	100.485082
2085.000000	100.485375
2084.000000	100.485413
2083.000000	100.485431
2082.000000	100.485596
2081.000000	100.485802
2080.000000	100.485902
2079.000000	100.485981
2078.000000	100.486262
2077.000000	100.486785
2076.000000	100.487303
2075.000000	100.487543
2074.000000	100.487529
2073.000000	100.487498
2072.000000	100.487480
2071.000000	100.487170
2070.000000	100.486454
2069.000000	100.485852
2068.000000	100.485957
2067.000000	100.486479
2066.000000	100.486414
2065.000000	100.485326
2064.000000	100.483894
2063.000000	100.482949
2062.000000	100.482452
2061.000000	100.481908
2060.000000	100.481284
2059.000000	100.480895
2058.000000	100.480625
2057.000000	100.479929
2056.000000	100.478611
2055.000000	100.477180
2054.000000	100.476334
2053.000000	100.476362
2052.000000	100.476912
2051.000000	100.477060
2050.000000	100.475891
2049.000000	100.473352
2048.000000	100.470563
2047.000000	100.468751
2046.000000	100.467860
2045.000000	100.466810
2044.000000	100.464964
2043.000000	100.462754
2042.000000	100.460804
2041.000000	100.459102
2040.000000	100.457378
2039.000000	100.455736
2038.000000	100.454439
2037.000000	100.453341
2036.000000	100.451987
2035.000000	100.450178
2034.000000	100.448141
2033.000000	100.446199
2032.000000	100.444385
2031.000000	100.442372
2030.000000	100.439752
2029.000000	100.436594
2028.000000	100.433777
2027.000000	100.432396
2026.000000	100.432765
2025.000000	100.434063
2024.000000	100.435001
2023.000000	100.434835
2022.000000	100.433506
2021.000000	100.431343
2020.000000	100.428955
2019.000000	100.427094
2018.000000	100.426116
2017.000000	100.425518
2016.000000	100.424325
2015.000000	100.422033
2014.000000	100.418917
2013.000000	100.415505
2012.000000	100.412066
2011.000000	100.408761
2010.000000	100.406029
2009.000000	100.404414
2008.000000	100.403916
2007.000000	100.403728
2006.000000	100.402921
2005.000000	100.401433
2004.000000	100.400037
2003.000000	100.399333
2002.000000	100.399113
2001.000000	100.398924
2000.000000	100.398746
1999.000000	100.398719
1998.000000	100.398474
1997.000000	100.397381
1996.000000	100.395611
1995.000000	100.394337
1994.000000	100.394455
1993.000000	100.395397
1992.000000	100.395559
1991.000000	100.394030
1990.000000	100.391429
1989.000000	100.389060
1988.000000	100.387669
1987.000000	100.387263
1986.000000	100.387651
1985.000000	100.388683
1984.000000	100.389904
1983.000000	100.390405
1982.000000	100.389528
1981.000000	100.387689
1980.000000	100.386140
1979.000000	100.385697
1978.000000	100.386029
1977.000000	100.386326
1976.000000	100.386453
1975.000000	100.386998
1974.000000	100.388233
1973.000000	100.389584
1972.000000	100.390270
1971.000000	100.390097
1970.000000	100.389474
1969.000000	100.388998
1968.000000	100.389174
1967.000000	100.390199
1966.000000	100.391652
1965.000000	100.392640
1964.000000	100.392592
1963.000000	100.391749
1962.000000	100.390765
1961.000000	100.389940
1960.000000	100.389100
1959.000000	100.388184
1958.000000	100.387494
1957.000000	100.387212
1956.000000	100.387022
1955.000000	100.386477
1954.000000	100.385601
1953.000000	100.384838
1952.000000	100.384464
1951.000000	100.384280
1950.000000	100.383915
1949.000000	100.383258
1948.000000	100.382406
1947.000000	100.381394
1946.000000	100.380265
1945.000000	100.379236
1944.000000	100.378534
1943.000000	100.378142
1942.000000	100.377956
1941.000000	100.378096
1940.000000	100.378629
1939.000000	100.379003
1938.000000	100.378293
1937.000000	100.376374
1936.000000	100.374541
1935.000000	100.374324
1934.000000	100.375761
1933.000000	100.377194
1932.000000	100.376946
1931.000000	100.374763
1930.000000	100.371612
1929.000000	100.368802
1928.000000	100.367171
1927.000000	100.366945
1926.000000	100.367829
1925.000000	100.369226
1924.000000	100.370463
1923.000000	100.370757
1922.000000	100.369435
1921.000000	100.366494
1920.000000	100.362824
1919.000000	100.359636
1918.000000	100.357576
1917.000000	100.356325
1916.000000	100.355159
1915.000000	100.353818
1914.000000	100.352600
1913.000000	100.351850
1912.000000	100.351470
1911.000000	100.350535
1910.000000	100.347669
1909.000000	100.342483
1908.000000	100.336378
1907.000000	100.331400
1906.000000	100.328016
1905.000000	100.324939
1904.000000	100.321153
1903.000000	100.317217
1902.000000	100.314520
1901.000000	100.313708
1900.000000	100.314236
1899.000000	100.315244
1898.000000	100.315894
1897.000000	100.315119
1896.000000	100.312209
1895.000000	100.307784
1894.000000	100.303722
1893.000000	100.301485
1892.000000	100.300816
1891.000000	100.300062
1890.000000	100.297581
1889.000000	100.293336
1888.000000	100.289169
1887.000000	100.287141
1886.000000	100.287573
1885.000000	100.288510
1884.000000	100.287511
1883.000000	100.284424
1882.000000	100.281649
1881.000000	100.281156
1880.000000	100.281874
1879.000000	100.281100
1878.000000	100.277867
1877.000000	100.273798
1876.000000	100.270974
1875.000000	100.269727
1874.000000	100.268941
1873.000000	100.268037
1872.000000	100.267713
1871.000000	100.268900
1870.000000	100.271716
1869.000000	100.275463
1868.000000	100.279124
1867.000000	100.281920
1866.000000	100.283828
1865.000000	100.285480
1864.000000	100.287494
1863.000000	100.289932
1862.000000	100.292318
1861.000000	100.294243
1860.000000	100.295880
1859.000000	100.297817
1858.000000	100.300562
1857.000000	100.304270
1856.000000	100.308620
1855.000000	100.312768
1854.000000	100.315614
1853.000000	100.316825
1852.000000	100.317182
1851.000000	100.318013
1850.000000	100.319882
1849.000000	100.321828
1848.000000	100.322700
1847.000000	100.322899
1846.000000	100.324635
1845.000000	100.330386
1844.000000	100.340150
1843.000000	100.349919
1842.000000	100.355479
1841.000000	100.356657
1840.000000	100.356422
1839.000000	100.358242
1838.000000	100.362973
1837.000000	100.367818
1836.000000	100.369502
1835.000000	100.367657
1834.000000	100.364377
1833.000000	100.361206
1832.000000	100.357873
1831.000000	100.354102
1830.000000	100.351237
1829.000000	100.350806
1828.000000	100.352592
1827.000000	100.355470
1826.000000	100.358530
1825.000000	100.360799
1824.000000	100.361407
1823.000000	100.360351
1822.000000	100.358680
1821.000000	100.357645
1820.000000	100.357749
1819.000000	100.358548
1818.000000	100.359096
1817.000000	100.359013
1816.000000	100.358846
1815.000000	100.359003
1814.000000	100.359136
1813.000000	100.358659
1812.000000	100.357848
1811.000000	100.357738
1810.000000	100.358634
1809.000000	100.359794
1808.000000	100.360432
1807.000000	100.360328
1806.000000	100.359612
1805.000000	100.358598
1804.000000	100.358080
1803.000000	100.359090
1802.000000	100.361955
1801.000000	100.365212
1800.000000	100.366628
1799.000000	100.365599
1798.000000	100.363526
1797.000000	100.362232
1796.000000	100.362319
1795.000000	100.363128
1794.000000	100.363674
1793.000000	100.363406
1792.000000	100.362695
1791.000000	100.362452
1790.000000	100.363116
1789.000000	100.364547
1788.000000	100.366445
1787.000000	100.368611
1786.000000	100.371008
1785.000000	100.373527
1784.000000	100.375814
1783.000000	100.377478
1782.000000	100.378626
1781.000000	100.379525
1780.000000	100.380269
1779.000000	100.380926
1778.000000	100.381658
1777.000000	100.382784
1776.000000	100.384459
1775.000000	100.386677
1774.000000	100.389349
1773.000000	100.391961
1772.000000	100.393778
1771.000000	100.394908
1770.000000	100.396327
1769.000000	100.398661
1768.000000	100.401478
1767.000000	100.403597
1766.000000	100.404380
1765.000000	100.404293
1764.000000	100.404182
1763.000000	100.404362
1762.000000	100.404715
1761.000000	100.405348
1760.000000	100.407018
1759.000000	100.410377
1758.000000	100.414973
1757.000000	100.419052
1756.000000	100.420906
1755.000000	100.420755
1754.000000	100.420128
1753.000000	100.419903
1752.000000	100.419777
1751.000000	100.419496
1750.000000	100.419524
1749.000000	100.420546
1748.000000	100.422794
1747.000000	100.425881
1746.000000	100.429189
1745.000000	100.431774
1744.000000	100.432905
1743.000000	100.432845
1742.000000	100.432595
1741.000000	100.432811
1740.000000	100.433232
1739.000000	100.433112
1738.000000	100.432323
1737.000000	100.431527
1736.000000	100.431138
1735.000000	100.430795
1734.000000	100.430622
1733.000000	100.431006
1732.000000	100.431662
1731.000000	100.432205
1730.000000	100.431989
1729.000000	100.430938
1728.000000	100.429891
1727.000000	100.429116
1726.000000	100.427553
1725.000000	100.423655
1724.000000	100.417781
1723.000000	100.412563
1722.000000	100.410379
1721.000000	100.411834
1720.000000	100.416081
1719.000000	100.421136
1718.000000	100.423870
1717.000000	100.422841
1716.000000	100.420440
1715.000000	100.419144
1714.000000	100.418420
1713.000000	100.416774
1712.000000	100.413762
1711.000000	100.409492
1710.000000	100.403808
1709.000000	100.396939
1708.000000	100.390252
1707.000000	100.385581
1706.000000	100.383323
1705.000000	100.381988
1704.000000	100.379964
1703.000000	100.377083
1702.000000	100.373665
1701.000000	100.369550
1700.000000	100.365522
1699.000000	100.362828
1698.000000	100.361616
1697.000000	100.361003
1696.000000	100.359656
1695.000000	100.357215
1694.000000	100.354455
1693.000000	100.351961
1692.000000	100.349575
1691.000000	100.346974
1690.000000	100.344293
1689.000000	100.341888
1688.000000	100.339746
1687.000000	100.337598
1686.000000	100.335223
1685.000000	100.332609
1684.000000	100.330110
1683.000000	100.327916
1682.000000	100.325785
1681.000000	100.323495
1680.000000	100.320991
1679.000000	100.318352
1678.000000	100.315722
1677.000000	100.313184
1676.000000	100.310745
1675.000000	100.308368
1674.000000	100.306013
1673.000000	100.303662
1672.000000	100.301324
1671.000000	100.299011
1670.000000	100.296741
1669.000000	100.294531
1668.000000	100.292392
1667.000000	100.290328
1666.000000	100.288324
1665.000000	100.286333
1664.000000	100.284281
1663.000000	100.282127
1662.000000	100.279945
1661.000000	100.277809
1660.000000	100.275679
1659.000000	100.273581
1658.000000	100.271724
1657.000000	100.270282
1656.000000	100.269053
1655.000000	100.267470
1654.000000	100.264770
1653.000000	100.261249
1652.000000	100.257926
1651.000000	100.254693
1650.000000	100.251762
1649.000000	100.249512
1648.000000	100.248174
1647.000000	100.248300
1646.000000	100.249399
1645.000000	100.250089
1644.000000	100.249888
1643.000000	100.249083
1642.000000	100.247923
1641.000000	100.246729
1640.000000	100.245786
1639.000000	100.245217
1638.000000	100.244677
1637.000000	100.243396
1636.000000	100.240812
1635.000000	100.237915
1634.000000	100.235952
1633.000000	100.235248
1632.000000	100.235791
1631.000000	100.237018
1630.000000	100.238240
1629.000000	100.238585
1628.000000	100.237210
1627.000000	100.234379
1626.000000	100.231762
1625.000000	100.230857
1624.000000	100.231941
1623.000000	100.234304
1622.000000	100.236702
1621.000000	100.237955
1620.000000	100.237457
1619.000000	100.235483
1618.000000	100.233272
1617.000000	100.232781
1616.000000	100.234376
1615.000000	100.236650
1614.000000	100.239284
1613.000000	100.242862
1612.000000	100.247371
1611.000000	100.252320
1610.000000	100.257331
1609.000000	100.261845
1608.000000	100.265010
1607.000000	100.266545
1606.000000	100.267192
1605.000000	100.267526
1604.000000	100.267295
1603.000000	100.266632
1602.000000	100.266529
1601.000000	100.267667
1600.000000	100.269477
1599.000000	100.271131
1598.000000	100.272824
1597.000000	100.275493
1596.000000	100.279683
1595.000000	100.284983
1594.000000	100.290285
1593.000000	100.294318
1592.000000	100.296305
1591.000000	100.296569
1590.000000	100.296695
1589.000000	100.298347
1588.000000	100.301687
1587.000000	100.305471
1586.000000	100.308509
1585.000000	100.310793
1584.000000	100.312889
1583.000000	100.315051
1582.000000	100.317082
1581.000000	100.318733
1580.000000	100.320013
1579.000000	100.321167
1578.000000	100.322465
1577.000000	100.324157
1576.000000	100.326587
1575.000000	100.329619
1574.000000	100.332766
1573.000000	100.335799
1572.000000	100.338627
1571.000000	100.341091
1570.000000	100.342891
1569.000000	100.343891
1568.000000	100.344576
1567.000000	100.346079
1566.000000	100.349085
1565.000000	100.352979
1564.000000	100.356222
1563.000000	100.358240
1562.000000	100.359961
1561.000000	100.362719
1560.000000	100.366302
1559.000000	100.368592
1558.000000	100.368953
1557.000000	100.369094
1556.000000	100.370086
1555.000000	100.371119
1554.000000	100.371185
1553.000000	100.370495
1552.000000	100.370183
1551.000000	100.371080
1550.000000	100.372963
1549.000000	100.375012
1548.000000	100.376608
1547.000000	100.377692
1546.000000	100.378345
1545.000000	100.378593
1544.000000	100.378814
1543.000000	100.379641
1542.000000	100.381184
1541.000000	100.382680
1540.000000	100.383211
1539.000000	100.382903
1538.000000	100.382407
1537.000000	100.381992
1536.000000	100.381649
1535.000000	100.381422
1534.000000	100.381842
1533.000000	100.383127
1532.000000	100.384614
1531.000000	100.385751
1530.000000	100.386568
1529.000000	100.387200
1528.000000	100.387638
1527.000000	100.387857
1526.000000	100.388009
1525.000000	100.388341
1524.000000	100.388939
1523.000000	100.389684
1522.000000	100.390307
1521.000000	100.390615
1520.000000	100.390701
1519.000000	100.390827
1518.000000	100.391132
1517.000000	100.391506
1516.000000	100.391739
1515.000000	100.391819
1514.000000	100.392068
1513.000000	100.392780
1512.000000	100.393906
1511.000000	100.395038
1510.000000	100.395819
1509.000000	100.396286
1508.000000	100.396832
1507.000000	100.397859
1506.000000	100.399094
1505.000000	100.400003
1504.000000	100.400817
1503.000000	100.401946
1502.000000	100.403413
1501.000000	100.405127
1500.000000	100.406999
1499.000000	100.408745
1498.000000	100.409719
1497.000000	100.409355
1496.000000	100.408151
1495.000000	100.407623
1494.000000	100.408525
1493.000000	100.410393
1492.000000	100.412101
1491.000000	100.412708
1490.000000	100.412224
1489.000000	100.411452
1488.000000	100.410951
1487.000000	100.410909
1486.000000	100.411689
1485.000000	100.413485
1484.000000	100.415677
1483.000000	100.417465
1482.000000	100.418816
1481.000000	100.420385
1480.000000	100.422580
1479.000000	100.425147
1478.000000	100.427743
1477.000000	100.430151
1476.000000	100.431867
1475.000000	100.432031
1474.000000	100.430381
1473.000000	100.428217
1472.000000	100.427574
1471.000000	100.428638
1470.000000	100.430076
1469.000000	100.431181
1468.000000	100.432074
1467.000000	100.432833
1466.000000	100.433041
1465.000000	100.432135
1464.000000	100.430250
1463.000000	100.428288
1462.000000	100.426950
1461.000000	100.426507
1460.000000	100.427215
1459.000000	100.429443
1458.000000	100.432923
1457.000000	100.435388
1456.000000	100.434702
1455.000000	100.431864
1454.000000	100.429262
1453.000000	100.427584
1452.000000	100.426182
1451.000000	100.424446
1450.000000	100.422541
1449.000000	100.421098
1448.000000	100.420509
1447.000000	100.420448
1446.000000	100.420452
1445.000000	100.420334
1444.000000	100.419932
1443.000000	100.419049
1442.000000	100.417757
1441.000000	100.416675
1440.000000	100.416442
1439.000000	100.417045
1438.000000	100.417595
1437.000000	100.417080
1436.000000	100.415552
1435.000000	100.413925
1434.000000	100.412644
1433.000000	100.411460
1432.000000	100.409985
1431.000000	100.408125
1430.000000	100.406268
1429.000000	100.405246
1428.000000	100.405876
1427.000000	100.408119
1426.000000	100.411053
1425.000000	100.413171
1424.000000	100.413332
1423.000000	100.411882
1422.000000	100.410089
1421.000000	100.408818
1420.000000	100.408204
1419.000000	100.408330
1418.000000	100.409362
1417.000000	100.411324
1416.000000	100.414070
1415.000000	100.416945
1414.000000	100.419057
1413.000000	100.420285
1412.000000	100.421752
1411.000000	100.424662
1410.000000	100.428404
1409.000000	100.430661
1408.000000	100.429743
1407.000000	100.426042
1406.000000	100.421967
1405.000000	100.420061
1404.000000	100.420910
1403.000000	100.423258
1402.000000	100.425768
1401.000000	100.428200
1400.000000	100.430887
1399.000000	100.434075
1398.000000	100.437686
1397.000000	100.441429
1396.000000	100.444795
1395.000000	100.447088
1394.000000	100.448379
1393.000000	100.449708
1392.000000	100.451852
1391.000000	100.454380
1390.000000	100.456275
1389.000000	100.457411
1388.000000	100.458944
1387.000000	100.461498
1386.000000	100.463632
1385.000000	100.463767
1384.000000	100.462444
1383.000000	100.461577
1382.000000	100.462050
1381.000000	100.463016
1380.000000	100.463622
1379.000000	100.464484
1378.000000	100.466600
1377.000000	100.469553
1376.000000	100.471916
1375.000000	100.473188
1374.000000	100.474398
1373.000000	100.476163
1372.000000	100.477543
1371.000000	100.477735
1370.000000	100.477476
1369.000000	100.477899
1368.000000	100.478763
1367.000000	100.478966
1366.000000	100.478491
1365.000000	100.478688
1364.000000	100.480515
1363.000000	100.483072
1362.000000	100.484297
1361.000000	100.483295
1360.000000	100.480945
1359.000000	100.478573
1358.000000	100.476944
1357.000000	100.476318
1356.000000	100.476783
1355.000000	100.478247
1354.000000	100.480251
1353.000000	100.482156
1352.000000	100.483705
1351.000000	100.485086
1350.000000	100.486493
1349.000000	100.487662
1348.000000	100.488201
1347.000000	100.488258
1346.000000	100.488318
1345.000000	100.488360
1344.000000	100.487853
1343.000000	100.486854
1342.000000	100.486409
1341.000000	100.487251
1340.000000	100.488406
1339.000000	100.488205
1338.000000	100.486724
1337.000000	100.485799
1336.000000	100.486474
1335.000000	100.487848
1334.000000	100.488616
1333.000000	100.488707
1332.000000	100.488692
1331.000000	100.488307
1330.000000	100.486812
1329.000000	100.484696
1328.000000	100.483797
1327.000000	100.485266
1326.000000	100.488113
1325.000000	100.490159
1324.000000	100.490329
1323.000000	100.489287
1322.000000	100.488081
1321.000000	100.486967
1320.000000	100.485949
1319.000000	100.485690
1318.000000	100.486893
1317.000000	100.488949
1316.000000	100.490197
1315.000000	100.489746
1314.000000	100.488320
1313.000000	100.487211
1312.000000	100.486823
1311.000000	100.486805
1310.000000	100.487130
1309.000000	100.488071
1308.000000	100.489201
1307.000000	100.489365
1306.000000	100.488055
1305.000000	100.486078
1304.000000	100.484681
1303.000000	100.484262
1302.000000	100.484368
1301.000000	100.484603
1300.000000	100.485040
1299.000000	100.485745
1298.000000	100.486344
1297.000000	100.486395
1296.000000	100.485951
1295.000000	100.485332
1294.000000	100.484360
1293.000000	100.482477
1292.000000	100.479995
1291.000000	100.478514
1290.000000	100.479203
1289.000000	100.480844
1288.000000	100.480566
1287.000000	100.477168
1286.000000	100.472904
1285.000000	100.471122
1284.000000	100.472626
1283.000000	100.475213
1282.000000	100.476269
1281.000000	100.475016
1280.000000	100.472219
1279.000000	100.468942
1278.000000	100.466291
1277.000000	100.465412
1276.000000	100.466567
1275.000000	100.468604
1274.000000	100.470280
1273.000000	100.471555
1272.000000	100.472309
1271.000000	100.470460
1270.000000	100.463717
1269.000000	100.453732
1268.000000	100.446312
1267.000000	100.445969
1266.000000	100.451355
1265.000000	100.457323
1264.000000	100.460374
1263.000000	100.460239
1262.000000	100.457370
1261.000000	100.452007
1260.000000	100.446347
1259.000000	100.444848
1258.000000	100.449906
1257.000000	100.457864
1256.000000	100.461012
1255.000000	100.454110
1254.000000	100.438813
1253.000000	100.421953
1252.000000	100.409690
1251.000000	100.403110
1250.000000	100.398664
1249.000000	100.391956
1248.000000	100.380958
1247.000000	100.366614
1246.000000	100.351789
1245.000000	100.340156
1244.000000	100.335012
1243.000000	100.337219
1242.000000	100.343449
1241.000000	100.347290
1240.000000	100.343181
1239.000000	100.330097
1238.000000	100.312042
1237.000000	100.294733
1236.000000	100.281163
1235.000000	100.269997
1234.000000	100.258071
1233.000000	100.244021
1232.000000	100.228941
1231.000000	100.214009
1230.000000	100.198886
1229.000000	100.182884
1228.000000	100.166335
1227.000000	100.149805
1226.000000	100.132678
1225.000000	100.113221
1224.000000	100.089330
1223.000000	100.058992
1222.000000	100.021803
1221.000000	99.981275
1220.000000	99.943908
1219.000000	99.913608
1218.000000	99.888030
1217.000000	99.862457
1216.000000	99.835456
1215.000000	99.807408
1214.000000	99.775304
1213.000000	99.734516
1212.000000	99.686559
1211.000000	99.639664
1210.000000	99.598477
1209.000000	99.557319
1208.000000	99.507948
1207.000000	99.451329
1206.000000	99.397464
1205.000000	99.354633
1204.000000	99.322812
1203.000000	99.296699
1202.000000	99.270741
1201.000000	99.240493
1200.000000	99.202927
1199.000000	99.158613
1198.000000	99.112580
1197.000000	99.070453
1196.000000	99.033349
1195.000000	98.997840
1194.000000	98.960939
1193.000000	98.923118
1192.000000	98.885001
1191.000000	98.843436
1190.000000	98.794827
1189.000000	98.742094
1188.000000	98.693511
1187.000000	98.652617
1186.000000	98.613810
1185.000000	98.571664
1184.000000	98.529824
1183.000000	98.494412
1182.000000	98.461916
1181.000000	98.422031
1180.000000	98.372219
1179.000000	98.320868
1178.000000	98.273878
1177.000000	98.225990
1176.000000	98.169674
1175.000000	98.106089
1174.000000	98.041816
1173.000000	97.979641
1172.000000	97.918887
1171.000000	97.861291
1170.000000	97.809237
1169.000000	97.759508
1168.000000	97.705975
1167.000000	97.650151
1166.000000	97.603970
1165.000000	97.579089
1164.000000	97.575988
1163.000000	97.585447
1162.000000	97.599414
1161.000000	97.617691
1160.000000	97.642331
1159.000000	97.668120
1158.000000	97.683222
1157.000000	97.679639
1156.000000	97.658355
1155.000000	97.622859
1154.000000	97.573559
1153.000000	97.513123
1152.000000	97.452137
1151.000000	97.400891
1150.000000	97.356313
1149.000000	97.305280
1148.000000	97.241817
1147.000000	97.173918
1146.000000	97.112191
1145.000000	97.059619
1144.000000	97.015908
1143.000000	96.982944
1142.000000	96.958143
1141.000000	96.927876
1140.000000	96.877048
1139.000000	96.805317
1138.000000	96.728576
1137.000000	96.663228
1136.000000	96.611890
1135.000000	96.564938
1134.000000	96.512181
1133.000000	96.451216
1132.000000	96.386531
1131.000000	96.323606
1130.000000	96.265155
1129.000000	96.211418
1128.000000	96.160721
1127.000000	96.108556
1126.000000	96.049670
1125.000000	95.984312
1124.000000	95.919948
1123.000000	95.863134
1122.000000	95.811902
1121.000000	95.760195
1120.000000	95.706908
1119.000000	95.654244
1118.000000	95.599439
1117.000000	95.536894
1116.000000	95.469378
1115.000000	95.408737
1114.000000	95.362216
1113.000000	95.324657
1112.000000	95.287262
1111.000000	95.247825
1110.000000	95.208029
1109.000000	95.166156
1108.000000	95.118380
1107.000000	95.065022
1106.000000	95.011652
1105.000000	94.964660
1104.000000	94.926085
1103.000000	94.890123
1102.000000	94.845574
1101.000000	94.786702
1100.000000	94.721725
1099.000000	94.665796
1098.000000	94.625988
1097.000000	94.597912
1096.000000	94.574837
1095.000000	94.552440
1094.000000	94.525685
1093.000000	94.490828
1092.000000	94.452187
1091.000000	94.418444
1090.000000	94.390085
1089.000000	94.358224
1088.000000	94.317697
1087.000000	94.273264
1086.000000	94.230945
1085.000000	94.191472
1084.000000	94.155164
1083.000000	94.124835
1082.000000	94.099576
1081.000000	94.072264
1080.000000	94.037226
1079.000000	93.995629
1078.000000	93.951747
1077.000000	93.909149
1076.000000	93.870887
1075.000000	93.836507
1074.000000	93.798260
1073.000000	93.747462
1072.000000	93.684429
1071.000000	93.614740
1070.000000	93.536925
1069.000000	93.444177
1068.000000	93.338478
1067.000000	93.230767
1066.000000	93.123718
1065.000000	93.006382
1064.000000	92.872209
1063.000000	92.732834
1062.000000	92.607458
1061.000000	92.504997
1060.000000	92.421136
1059.000000	92.344953
1058.000000	92.263950
1057.000000	92.170384
1056.000000	92.067582
1055.000000	91.964771
1054.000000	91.863402
1053.000000	91.755425
1052.000000	91.636585
1051.000000	91.511905
1050.000000	91.385232
1049.000000	91.254564
1048.000000	91.121494
1047.000000	90.993107
1046.000000	90.870569
1045.000000	90.747451
1044.000000	90.622295
1043.000000	90.501200
1042.000000	90.384645
1041.000000	90.263830
1040.000000	90.135238
1039.000000	90.007705
1038.000000	89.889120
1037.000000	89.777029
1036.000000	89.669322
1035.000000	89.574323
1034.000000	89.502328
1033.000000	89.454112
1032.000000	89.422681
1031.000000	89.399058
1030.000000	89.373138
1029.000000	89.337846
1028.000000	89.297212
1027.000000	89.263197
1026.000000	89.241389
1025.000000	89.226714
1024.000000	89.214704
1023.000000	89.208131
1022.000000	89.209320
1021.000000	89.213342
1020.000000	89.211341
1019.000000	89.195283
1018.000000	89.161034
1017.000000	89.114460
1016.000000	89.071687
1015.000000	89.043109
1014.000000	89.019494
1013.000000	88.985475
1012.000000	88.944081
1011.000000	88.913104
1010.000000	88.898249
1009.000000	88.886433
1008.000000	88.867594
1007.000000	88.846928
1006.000000	88.831372
1005.000000	88.819767
1004.000000	88.812316
1003.000000	88.815250
1002.000000	88.828842
1001.000000	88.843408
1000.000000	88.854737
999.000000	88.872520
998.000000	88.906156
997.000000	88.952025
996.000000	89.001049
995.000000	89.049196
994.000000	89.094081
993.000000	89.130586
992.000000	89.157931
991.000000	89.185098
990.000000	89.222983
989.000000	89.275175
988.000000	89.338634
987.000000	89.407031
986.000000	89.471973
985.000000	89.529054
984.000000	89.585521
983.000000	89.654999
982.000000	89.742564
981.000000	89.841486
980.000000	89.945057
979.000000	90.053265
978.000000	90.166844
977.000000	90.284287
976.000000	90.407261
975.000000	90.540241
974.000000	90.681976
973.000000	90.825161
972.000000	90.967047
971.000000	91.112835
970.000000	91.266142
969.000000	91.423320
968.000000	91.579603
967.000000	91.733894
966.000000	91.885040
965.000000	92.029980
964.000000	92.168459
963.000000	92.304009
962.000000	92.437777
961.000000	92.565830
960.000000	92.684556
959.000000	92.795391
958.000000	92.903566
957.000000	93.015141
956.000000	93.133772
955.000000	93.255600
954.000000	93.368872
953.000000	93.464132
952.000000	93.543863
951.000000	93.617818
950.000000	93.691241
949.000000	93.762958
948.000000	93.831041
947.000000	93.891529
946.000000	93.934109
945.000000	93.950383
944.000000	93.948617
943.000000	93.951937
942.000000	93.977512
941.000000	94.022188
940.000000	94.070221
939.000000	94.109146
938.000000	94.137006
937.000000	94.160389
936.000000	94.187918
935.000000	94.222267
934.000000	94.258274
933.000000	94.291360
932.000000	94.324242
931.000000	94.360397
930.000000	94.395997
929.000000	94.426300
928.000000	94.454823
927.000000	94.485307
926.000000	94.509258
925.000000	94.516367
924.000000	94.516274
923.000000	94.532796
922.000000	94.571801
921.000000	94.610043
920.000000	94.624150
919.000000	94.619000
918.000000	94.617176
917.000000	94.629574
916.000000	94.648593
915.000000	94.665246
914.000000	94.681706
913.000000	94.706736
912.000000	94.746040
911.000000	94.798879
910.000000	94.861057
909.000000	94.930829
908.000000	95.011660
907.000000	95.107125
906.000000	95.214415
905.000000	95.326528
904.000000	95.439615
903.000000	95.554279
902.000000	95.672030
901.000000	95.795528
900.000000	95.929073
899.000000	96.071553
898.000000	96.210992
897.000000	96.334069
896.000000	96.439351
895.000000	96.533920
894.000000	96.620598
893.000000	96.698852
892.000000	96.776322
891.000000	96.866240
890.000000	96.970752
889.000000	97.077901
888.000000	97.178259
887.000000	97.273515
886.000000	97.365002
885.000000	97.446479
884.000000	97.516059
883.000000	97.584472
882.000000	97.660747
881.000000	97.737139
880.000000	97.800101
879.000000	97.851872
878.000000	97.909391
877.000000	97.983034
876.000000	98.067672
875.000000	98.154999
874.000000	98.243094
873.000000	98.329422
872.000000	98.403437
871.000000	98.455685
870.000000	98.493155
869.000000	98.538075
868.000000	98.607655
867.000000	98.698111
866.000000	98.792136
865.000000	98.879560
864.000000	98.963250
863.000000	99.043598
862.000000	99.108149
861.000000	99.146062
860.000000	99.167130
859.000000	99.194776
858.000000	99.239973
857.000000	99.292790
856.000000	99.341085
855.000000	99.384493
854.000000	99.424130
853.000000	99.450954
852.000000	99.456736
851.000000	99.450747
850.000000	99.453265
849.000000	99.473506
848.000000	99.503839
847.000000	99.535067
846.000000	99.566542
845.000000	99.598019
844.000000	99.620576
843.000000	99.622985
842.000000	99.603619
841.000000	99.570222
840.000000	99.529847
839.000000	99.485048
838.000000	99.439751
837.000000	99.401842
836.000000	99.375392
835.000000	99.353663
834.000000	99.325862
833.000000	99.290678
832.000000	99.257362
831.000000	99.232599
830.000000	99.214113
829.000000	99.201562
828.000000	99.204123
827.000000	99.225834
826.000000	99.250204
825.000000	99.256990
824.000000	99.253228
823.000000	99.267293
822.000000	99.307902
821.000000	99.349688
820.000000	99.366357
819.000000	99.358048
818.000000	99.336396
817.000000	99.299109
816.000000	99.235476
815.000000	99.150036
814.000000	99.063171
813.000000	98.985059
812.000000	98.899920
811.000000	98.780400
810.000000	98.610554
809.000000	98.391818
808.000000	98.134155
807.000000	97.847633
806.000000	97.539660
805.000000	97.216448
804.000000	96.888193
803.000000	96.573070
802.000000	96.293216
801.000000	96.066230
800.000000	95.902030
799.000000	95.804536
798.000000	95.770557
797.000000	95.786633
796.000000	95.831173
795.000000	95.884225
794.000000	95.938806
793.000000	96.002863
792.000000	96.086314
791.000000	96.183922
790.000000	96.273526
789.000000	96.332490
788.000000	96.350325
787.000000	96.323098
786.000000	96.247083
785.000000	96.129935
784.000000	96.001600
783.000000	95.897081
782.000000	95.825627
781.000000	95.769479
780.000000	95.716397
779.000000	95.679916
778.000000	95.680428
777.000000	95.719844
776.000000	95.787148
775.000000	95.879587
774.000000	96.002509
773.000000	96.149345
772.000000	96.294872
771.000000	96.413293
770.000000	96.497400
769.000000	96.556945
768.000000	96.604259
767.000000	96.647596
766.000000	96.695405
765.000000	96.757471
764.000000	96.835074
763.000000	96.912468
762.000000	96.966979
761.000000	96.992317
760.000000	97.007127
759.000000	97.035082
758.000000	97.079950
757.000000	97.126978
756.000000	97.166085
755.000000	97.204211
754.000000	97.253433
753.000000	97.315401
752.000000	97.381426
751.000000	97.441798
750.000000	97.491105
749.000000	97.529754
748.000000	97.565205
747.000000	97.608146
746.000000	97.662785
745.000000	97.723151
744.000000	97.782056
743.000000	97.839853
742.000000	97.899747
741.000000	97.958948
740.000000	98.012545
739.000000	98.064919
738.000000	98.128279
737.000000	98.206588
736.000000	98.287653
735.000000	98.357210
734.000000	98.416410
733.000000	98.476430
732.000000	98.537616
731.000000	98.585952
730.000000	98.614310
729.000000	98.635828
728.000000	98.666331
727.000000	98.702172
726.000000	98.730104
725.000000	98.753476
724.000000	98.788485
723.000000	98.832767
722.000000	98.859970
721.000000	98.856304
720.000000	98.845532
719.000000	98.858089
718.000000	98.889974
717.000000	98.919067
716.000000	98.945066
715.000000	98.982880
714.000000	99.023281
713.000000	99.033318
712.000000	99.004622
711.000000	98.972558
710.000000	98.969551
709.000000	98.982109
708.000000	98.976854
707.000000	98.951539
706.000000	98.933374
705.000000	98.932194
704.000000	98.923410
703.000000	98.882192
702.000000	98.810357
701.000000	98.717038
700.000000	98.591739
699.000000	98.417205
698.000000	98.204487
697.000000	97.998931
696.000000	97.846349
695.000000	97.764098
694.000000	97.748885
693.000000	97.797857
692.000000	97.906995
691.000000	98.053110
690.000000	98.197375
689.000000	98.317262
688.000000	98.421402
687.000000	98.520873
686.000000	98.600921
685.000000	98.643652
684.000000	98.669293
683.000000	98.723402
682.000000	98.819951
681.000000	98.922651
680.000000	98.994170
679.000000	99.042419
678.000000	99.095019
677.000000	99.145351
676.000000	99.158974
675.000000	99.129420
674.000000	99.095484
673.000000	99.095044
672.000000	99.124628
671.000000	99.162680
670.000000	99.211855
669.000000	99.309019
668.000000	99.444243
667.000000	99.515397
666.000000	99.510241
665.000000	99.494275
664.000000	99.502804
663.000000	99.532428
662.000000	99.564164
661.000000	99.598770
660.000000	99.656596
659.000000	99.735951
658.000000	99.797996
657.000000	99.811379
656.000000	99.790925
655.000000	99.776566
654.000000	99.786676
653.000000	99.809632
652.000000	99.833653
651.000000	99.860741
650.000000	99.890781
