4000.000000	100.616343
3999.000000	100.614063
3998.000000	100.612423
3997.000000	100.611058
3996.000000	100.609122
3995.000000	100.606143
3994.000000	100.602351
3993.000000	100.598377
3992.000000	100.594837
3991.000000	100.592175
3990.000000	100.590613
3989.000000	100.590098
3988.000000	100.590407
3987.000000	100.591259
3986.000000	100.592254
3985.000000	100.592767
3984.000000	100.592057
3983.000000	100.589644
3982.000000	100.585710
3981.000000	100.581235
3980.000000	100.577485
3979.000000	100.574998
3978.000000	100.572975
3977.000000	100.569838
3976.000000	100.564808
3975.000000	100.559031
3974.000000	100.554854
3973.000000	100.553857
3972.000000	100.555792
3971.000000	100.558994
3970.000000	100.561456
3969.000000	100.561706
3968.000000	100.559229
3967.000000	100.554729
3966.000000	100.550152
3965.000000	100.547880
3964.000000	100.549392
3963.000000	100.554453
3962.000000	100.561159
3961.000000	100.566948
3960.000000	100.570019
3959.000000	100.569931
3958.000000	100.567346
3957.000000	100.563448
3956.000000	100.559462
3955.000000	100.556347
3954.000000	100.554614
3953.000000	100.554364
3952.000000	100.555356
3951.000000	100.557005
3950.000000	100.558372
3949.000000	100.558407
3948.000000	100.556482
3947.000000	100.552830
3946.000000	100.548560
3945.000000	100.545272
3944.000000	100.544403
3943.000000	100.546433
3942.000000	100.550487
3941.000000	100.554857
3940.000000	100.558291
3939.000000	100.560670
3938.000000	100.562552
3937.000000	100.564189
3936.000000	100.565219
3935.000000	100.565527
3934.000000	100.566040
3933.000000	100.568178
3932.000000	100.572063
3931.000000	100.575756
3930.000000	100.577053
3929.000000	100.575673
3928.000000	100.573386
3927.000000	100.572063
3926.000000	100.571363
3925.000000	100.568625
3924.000000	100.562174
3923.000000	100.554048
3922.000000	100.548006
3921.000000	100.545173
3920.000000	100.543532
3919.000000	100.541484
3918.000000	100.540298
3917.000000	100.542065
3916.000000	100.546604
3915.000000	100.551571
3914.000000	100.554984
3913.000000	100.556264
3912.000000	100.556250
3911.000000	100.556432
3910.000000	100.557800
3909.000000	100.559844
3908.000000	100.560801
3907.000000	100.559026
3906.000000	100.554147
3905.000000	100.547140
3904.000000	100.539590
3903.000000	100.533339
3902.000000	100.530265
3901.000000	100.531136
3900.000000	100.534161
3899.000000	100.536110
3898.000000	100.535727
3897.000000	100.534542
3896.000000	100.534570
3895.000000	100.536483
3894.000000	100.540248
3893.000000	100.545630
3892.000000	100.551515
3891.000000	100.555051
3890.000000	100.554049
3889.000000	100.549727
3888.000000	100.545427
3887.000000	100.543781
3886.000000	100.544915
3885.000000	100.546432
3884.000000	100.546553
3883.000000	100.546187
3882.000000	100.546616
3881.000000	100.547355
3880.000000	100.546437
3879.000000	100.542709
3878.000000	100.537994
3877.000000	100.535605
3876.000000	100.537594
3875.000000	100.542810
3874.000000	100.546683
3873.000000	100.546133
3872.000000	100.544513
3871.000000	100.548423
3870.000000	100.559760
3869.000000	100.573510
3868.000000	100.585012
3867.000000	100.593924
3866.000000	100.599566
3865.000000	100.599899
3864.000000	100.595377
3863.000000	100.588416
3862.000000	100.579807
3861.000000	100.568158
3860.000000	100.554046
3859.000000	100.541712
3858.000000	100.535727
3857.000000	100.537178
3856.000000	100.542750
3855.000000	100.546624
3854.000000	100.545951
3853.000000	100.543862
3852.000000	100.545799
3851.000000	100.553927
3850.000000	100.564582
3849.000000	100.571833
3848.000000	100.573499
3847.000000	100.572024
3846.000000	100.571624
3845.000000	100.574564
3844.000000	100.579772
3843.000000	100.584095
3842.000000	100.585494
3841.000000	100.584519
3840.000000	100.582839
3839.000000	100.581368
3838.000000	100.580158
3837.000000	100.579099
3836.000000	100.578170
3835.000000	100.577367
3834.000000	100.576624
3833.000000	100.575887
3832.000000	100.575156
3831.000000	100.574611
3830.000000	100.574568
3829.000000	100.575095
3828.000000	100.575791
3827.000000	100.576067
3826.000000	100.575819
3825.000000	100.575495
3824.000000	100.575422
3823.000000	100.575490
3822.000000	100.575594
3821.000000	100.575755
3820.000000	100.575940
3819.000000	100.576142
3818.000000	100.576376
3817.000000	100.576647
3816.000000	100.576920
3815.000000	100.577146
3814.000000	100.577287
3813.000000	100.577336
3812.000000	100.577299
3811.000000	100.577183
3810.000000	100.576994
3809.000000	100.576749
3808.000000	100.576480
3807.000000	100.576218
3806.000000	100.575982
3805.000000	100.575777
3804.000000	100.575605
3803.000000	100.575455
3802.000000	100.575311
3801.000000	100.575159
3800.000000	100.575001
3799.000000	100.574848
3798.000000	100.574707
3797.000000	100.574570
3796.000000	100.574426
3795.000000	100.574278
3794.000000	100.574138
3793.000000	100.574015
3792.000000	100.573893
3791.000000	100.573772
3790.000000	100.573632
3789.000000	100.573442
3788.000000	100.573190
3787.000000	100.572945
3786.000000	100.572855
3785.000000	100.572985
3784.000000	100.573128
3783.000000	100.572975
3782.000000	100.572579
3781.000000	100.572424
3780.000000	100.572869
3779.000000	100.573549
3778.000000	100.573867
3777.000000	100.573847
3776.000000	100.573897
3775.000000	100.573656
3774.000000	100.572250
3773.000000	100.569746
3772.000000	100.567432
3771.000000	100.566550
3770.000000	100.566905
3769.000000	100.567132
3768.000000	100.566483
3767.000000	100.565573
3766.000000	100.565166
3765.000000	100.564890
3764.000000	100.563776
3763.000000	100.561802
3762.000000	100.560039
3761.000000	100.559046
3760.000000	100.558130
3759.000000	100.556573
3758.000000	100.554842
3757.000000	100.553698
3756.000000	100.552877
3755.000000	100.551427
3754.000000	100.548456
3753.000000	100.543822
3752.000000	100.539029
3751.000000	100.536299
3750.000000	100.534977
3749.000000	100.531858
3748.000000	100.526343
3747.000000	100.522350
3746.000000	100.523609
3745.000000	100.528022
3744.000000	100.528253
3743.000000	100.522588
3742.000000	100.518237
3741.000000	100.518650
3740.000000	100.519055
3739.000000	100.514750
3738.000000	100.507003
3737.000000	100.500769
3736.000000	100.497219
3735.000000	100.492704
3734.000000	100.485986
3733.000000	100.480282
3732.000000	100.476665
3731.000000	100.472609
3730.000000	100.467166
3729.000000	100.462686
3728.000000	100.461043
3727.000000	100.460808
3726.000000	100.459341
3725.000000	100.456956
3724.000000	100.455992
3723.000000	100.455789
3722.000000	100.452613
3721.000000	100.443940
3720.000000	100.431131
3719.000000	100.417729
3718.000000	100.405679
3717.000000	100.393689
3716.000000	100.379688
3715.000000	100.363329
3714.000000	100.345994
3713.000000	100.330684
3712.000000	100.321487
3711.000000	100.319312
3710.000000	100.319391
3709.000000	100.315924
3708.000000	100.307010
3707.000000	100.294455
3706.000000	100.281694
3705.000000	100.271750
3704.000000	100.265489
3703.000000	100.260793
3702.000000	100.253832
3701.000000	100.242559
3700.000000	100.229772
3699.000000	100.221531
3698.000000	100.221202
3697.000000	100.225498
3696.000000	100.227329
3695.000000	100.222980
3694.000000	100.214853
3693.000000	100.207388
3692.000000	100.202684
3691.000000	100.199813
3690.000000	100.196947
3689.000000	100.193311
3688.000000	100.189079
3687.000000	100.184613
3686.000000	100.180222
3685.000000	100.175449
3684.000000	100.168755
3683.000000	100.159144
3682.000000	100.147911
3681.000000	100.137274
3680.000000	100.126367
3679.000000	100.112320
3678.000000	100.095889
3677.000000	100.082220
3676.000000	100.073723
3675.000000	100.063895
3674.000000	100.048185
3673.000000	100.033311
3672.000000	100.025745
3671.000000	100.023511
3670.000000	100.019592
3669.000000	100.009221
3668.000000	99.996326
3667.000000	99.987381
3666.000000	99.981926
3665.000000	99.974330
3664.000000	99.960628
3663.000000	99.942142
3662.000000	99.923395
3661.000000	99.907226
3660.000000	99.892534
3659.000000	99.877248
3658.000000	99.861479
3657.000000	99.846853
3656.000000	99.832342
3655.000000	99.814396
3654.000000	99.792308
3653.000000	99.769719
3652.000000	99.752136
3651.000000	99.744509
3650.000000	99.747134
3649.000000	99.752097
3648.000000	99.750762
3647.000000	99.742970
3646.000000	99.733736
3645.000000	99.726178
3644.000000	99.720136
3643.000000	99.714141
3642.000000	99.707657
3641.000000	99.701870
3640.000000	99.698185
3639.000000	99.695306
3638.000000	99.688589
3637.000000	99.674679
3636.000000	99.655946
3635.000000	99.638377
3634.000000	99.624572
3633.000000	99.611214
3632.000000	99.594027
3631.000000	99.572930
3630.000000	99.553726
3629.000000	99.543844
3628.000000	99.543932
3627.000000	99.550088
3626.000000	99.558208
3625.000000	99.562737
3624.000000	99.560880
3623.000000	99.556330
3622.000000	99.556834
3621.000000	99.567807
3620.000000	99.586552
3619.000000	99.602906
3618.000000	99.608264
3617.000000	99.603764
3616.000000	99.597722
3615.000000	99.597841
3614.000000	99.605832
3613.000000	99.616549
3612.000000	99.623057
3611.000000	99.623079
3610.000000	99.619912
3609.000000	99.619059
3608.000000	99.624678
3607.000000	99.637386
3606.000000	99.655034
3605.000000	99.674589
3604.000000	99.693203
3603.000000	99.709191
3602.000000	99.722154
3601.000000	99.732453
3600.000000	99.740958
3599.000000	99.749063
3598.000000	99.756253
3597.000000	99.759100
3596.000000	99.754747
3595.000000	99.744914
3594.000000	99.734778
3593.000000	99.728521
3592.000000	99.726728
3591.000000	99.728237
3590.000000	99.732681
3589.000000	99.740161
3588.000000	99.749143
3587.000000	99.756661
3586.000000	99.761856
3585.000000	99.766210
3584.000000	99.769669
3583.000000	99.770348
3582.000000	99.767371
3581.000000	99.761986
3580.000000	99.756525
3579.000000	99.753365
3578.000000	99.754292
3577.000000	99.759444
3576.000000	99.766638
3575.000000	99.772433
3574.000000	99.774601
3573.000000	99.773299
3572.000000	99.769847
3571.000000	99.765229
3570.000000	99.760197
3569.000000	99.755764
3568.000000	99.752547
3567.000000	99.750071
3566.000000	99.748325
3565.000000	99.749128
3564.000000	99.753848
3563.000000	99.760960
3562.000000	99.766929
3561.000000	99.769212
3560.000000	99.768211
3559.000000	99.766328
3558.000000	99.765495
3557.000000	99.765714
3556.000000	99.765917
3555.000000	99.765575
3554.000000	99.765253
3553.000000	99.765861
3552.000000	99.767604
3551.000000	99.769564
3550.000000	99.770347
3549.000000	99.769260
3548.000000	99.766864
3547.000000	99.764572
3546.000000	99.763426
3545.000000	99.763233
3544.000000	99.763198
3543.000000	99.762921
3542.000000	99.762598
3541.000000	99.762471
3540.000000	99.762452
3539.000000	99.762279
3538.000000	99.761863
3537.000000	99.761392
3536.000000	99.761096
3535.000000	99.760975
3534.000000	99.760803
3533.000000	99.760376
3532.000000	99.759704
3531.000000	99.759031
3530.000000	99.758670
3529.000000	99.758717
3528.000000	99.758993
3527.000000	99.759189
3526.000000	99.759157
3525.000000	99.758955
3524.000000	99.758682
3523.000000	99.758377
3522.000000	99.758035
3521.000000	99.757681
3520.000000	99.757376
3519.000000	99.757153
3518.000000	99.756967
3517.000000	99.756745
3516.000000	99.756458
3515.000000	99.756092
3514.000000	99.755614
3513.000000	99.754999
3512.000000	99.754321
3511.000000	99.753771
3510.000000	99.753524
3509.000000	99.753583
3508.000000	99.753700
3507.000000	99.753570
3506.000000	99.753070
3505.000000	99.752375
3504.000000	99.751764
3503.000000	99.751297
3502.000000	99.750805
3501.000000	99.750086
3500.000000	99.749036
3499.000000	99.747704
3498.000000	99.746336
3497.000000	99.745271
3496.000000	99.744674
3495.000000	99.744376
3494.000000	99.744039
3493.000000	99.743485
3492.000000	99.742762
3491.000000	99.741939
3490.000000	99.740990
3489.000000	99.739923
3488.000000	99.738873
3487.000000	99.737905
3486.000000	99.736846
3485.000000	99.735620
3484.000000	99.734695
3483.000000	99.734721
3482.000000	99.735463
3481.000000	99.735539
3480.000000	99.733653
3479.000000	99.729796
3478.000000	99.725227
3477.000000	99.721503
3476.000000	99.719589
3475.000000	99.719569
3474.000000	99.720823
3473.000000	99.722493
3472.000000	99.723946
3471.000000	99.724801
3470.000000	99.724763
3469.000000	99.723732
3468.000000	99.721928
3467.000000	99.719493
3466.000000	99.716148
3465.000000	99.711891
3464.000000	99.708028
3463.000000	99.706528
3462.000000	99.707736
3461.000000	99.709477
3460.000000	99.709209
3459.000000	99.706721
3458.000000	99.703818
3457.000000	99.701712
3456.000000	99.699646
3455.000000	99.696270
3454.000000	99.691464
3453.000000	99.686216
3452.000000	99.681324
3451.000000	99.676990
3450.000000	99.673438
3449.000000	99.671186
3448.000000	99.670522
3447.000000	99.671051
3446.000000	99.672053
3445.000000	99.672977
3444.000000	99.673663
3443.000000	99.674751
3442.000000	99.677747
3441.000000	99.683735
3440.000000	99.691664
3439.000000	99.698352
3438.000000	99.700853
3437.000000	99.698795
3436.000000	99.694275
3435.000000	99.689775
3434.000000	99.686392
3433.000000	99.683975
3432.000000	99.682155
3431.000000	99.680747
3430.000000	99.679612
3429.000000	99.678707
3428.000000	99.678289
3427.000000	99.678615
3426.000000	99.679405
3425.000000	99.679895
3424.000000	99.679549
3423.000000	99.678486
3422.000000	99.677157
3421.000000	99.675925
3420.000000	99.675150
3419.000000	99.675280
3418.000000	99.676447
3417.000000	99.678009
3416.000000	99.678887
3415.000000	99.678477
3414.000000	99.677066
3413.000000	99.675426
3412.000000	99.674162
3411.000000	99.673463
3410.000000	99.673281
3409.000000	99.673473
3408.000000	99.673758
3407.000000	99.673718
3406.000000	99.673031
3405.000000	99.671678
3404.000000	99.669983
3403.000000	99.668552
3402.000000	99.667850
3401.000000	99.667899
3400.000000	99.668309
3399.000000	99.668643
3398.000000	99.668773
3397.000000	99.668780
3396.000000	99.668717
3395.000000	99.668557
3394.000000	99.668267
3393.000000	99.667861
3392.000000	99.667379
3391.000000	99.666894
3390.000000	99.666488
3389.000000	99.666194
3388.000000	99.665973
3387.000000	99.665810
3386.000000	99.665786
3385.000000	99.665982
3384.000000	99.666301
3383.000000	99.666452
3382.000000	99.666219
3381.000000	99.665689
3380.000000	99.665202
3379.000000	99.665042
3378.000000	99.665172
3377.000000	99.665290
3376.000000	99.665107
3375.000000	99.664595
3374.000000	99.664004
3373.000000	99.663671
3372.000000	99.663789
3371.000000	99.664309
3370.000000	99.664991
3369.000000	99.665567
3368.000000	99.665946
3367.000000	99.666285
3366.000000	99.666820
3365.000000	99.667596
3364.000000	99.668396
3363.000000	99.668947
3362.000000	99.669189
3361.000000	99.669262
3360.000000	99.669289
3359.000000	99.669320
3358.000000	99.669420
3357.000000	99.669658
3356.000000	99.670033
3355.000000	99.670432
3354.000000	99.670737
3353.000000	99.670960
3352.000000	99.671216
3351.000000	99.671594
3350.000000	99.672085
3349.000000	99.672613
3348.000000	99.673096
3347.000000	99.673492
3346.000000	99.673825
3345.000000	99.674182
3344.000000	99.674651
3343.000000	99.675255
3342.000000	99.675897
3341.000000	99.676424
3340.000000	99.676747
3339.000000	99.676904
3338.000000	99.677053
3337.000000	99.677325
3336.000000	99.677780
3335.000000	99.678452
3334.000000	99.679372
3333.000000	99.680468
3332.000000	99.681497
3331.000000	99.682201
3330.000000	99.682494
3329.000000	99.682488
3328.000000	99.682344
3327.000000	99.682165
3326.000000	99.682057
3325.000000	99.682141
3324.000000	99.682374
3323.000000	99.682508
3322.000000	99.682407
3321.000000	99.682341
3320.000000	99.682753
3319.000000	99.683666
3318.000000	99.684560
3317.000000	99.684960
3316.000000	99.684966
3315.000000	99.684995
3314.000000	99.685252
3313.000000	99.685704
3312.000000	99.686312
3311.000000	99.686875
3310.000000	99.686834
3309.000000	99.685877
3308.000000	99.684806
3307.000000	99.685141
3306.000000	99.687510
3305.000000	99.690867
3304.000000	99.693719
3303.000000	99.695866
3302.000000	99.698218
3301.000000	99.701024
3300.000000	99.703166
3299.000000	99.703522
3298.000000	99.702300
3297.000000	99.700550
3296.000000	99.698615
3295.000000	99.695858
3294.000000	99.692009
3293.000000	99.688137
3292.000000	99.685917
3291.000000	99.686377
3290.000000	99.689327
3289.000000	99.693504
3288.000000	99.697156
3287.000000	99.698921
3286.000000	99.698646
3285.000000	99.697228
3284.000000	99.695514
3283.000000	99.693452
3282.000000	99.690543
3281.000000	99.686956
3280.000000	99.683859
3279.000000	99.682534
3278.000000	99.683367
3277.000000	99.685722
3276.000000	99.688587
3275.000000	99.691399
3274.000000	99.694264
3273.000000	99.697390
3272.000000	99.700393
3271.000000	99.702349
3270.000000	99.702631
3269.000000	99.701564
3268.000000	99.700161
3267.000000	99.699299
3266.000000	99.699172
3265.000000	99.699370
3264.000000	99.699281
3263.000000	99.698561
3262.000000	99.697454
3261.000000	99.696637
3260.000000	99.696605
3259.000000	99.697294
3258.000000	99.698367
3257.000000	99.699653
3256.000000	99.701055
3255.000000	99.702179
3254.000000	99.702539
3253.000000	99.702297
3252.000000	99.702481
3251.000000	99.703991
3250.000000	99.706620
3249.000000	99.709053
3248.000000	99.710130
3247.000000	99.709857
3246.000000	99.709269
3245.000000	99.709424
3244.000000	99.710542
3243.000000	99.712114
3242.000000	99.713488
3241.000000	99.714350
3240.000000	99.714831
3239.000000	99.715233
3238.000000	99.715602
3237.000000	99.715693
3236.000000	99.715459
3235.000000	99.715396
3234.000000	99.716061
3233.000000	99.717302
3232.000000	99.718298
3231.000000	99.718567
3230.000000	99.718677
3229.000000	99.719614
3228.000000	99.721525
3227.000000	99.723360
3226.000000	99.724040
3225.000000	99.723993
3224.000000	99.725187
3223.000000	99.729302
3222.000000	99.735912
3221.000000	99.742644
3220.000000	99.747464
3219.000000	99.750534
3218.000000	99.753539
3217.000000	99.757416
3216.000000	99.761072
3215.000000	99.762339
3214.000000	99.759872
3213.000000	99.754281
3212.000000	99.747967
3211.000000	99.743620
3210.000000	99.742264
3209.000000	99.742789
3208.000000	99.743635
3207.000000	99.744886
3206.000000	99.748065
3205.000000	99.753584
3204.000000	99.759291
3203.000000	99.762382
3202.000000	99.762128
3201.000000	99.760084
3200.000000	99.758114
3199.000000	99.756975
3198.000000	99.756833
3197.000000	99.758178
3196.000000	99.761672
3195.000000	99.767381
3194.000000	99.774474
3193.000000	99.781551
3192.000000	99.787299
3191.000000	99.791114
3190.000000	99.793330
3189.000000	99.794751
3188.000000	99.795863
3187.000000	99.796643
3186.000000	99.797040
3185.000000	99.797299
3184.000000	99.797830
3183.000000	99.799008
3182.000000	99.801116
3181.000000	99.804147
3180.000000	99.807581
3179.000000	99.810675
3178.000000	99.813078
3177.000000	99.814923
3176.000000	99.816383
3175.000000	99.817489
3174.000000	99.818470
3173.000000	99.819847
3172.000000	99.821927
3171.000000	99.824380
3170.000000	99.826520
3169.000000	99.827940
3168.000000	99.828783
3167.000000	99.829558
3166.000000	99.830779
3165.000000	99.832646
3164.000000	99.834817
3163.000000	99.836527
3162.000000	99.837215
3161.000000	99.837096
3160.000000	99.837066
3159.000000	99.837982
3158.000000	99.840073
3157.000000	99.843042
3156.000000	99.846386
3155.000000	99.849631
3154.000000	99.852423
3153.000000	99.854493
3152.000000	99.855584
3151.000000	99.855559
3150.000000	99.854760
3149.000000	99.854212
3148.000000	99.854999
3147.000000	99.857374
3146.000000	99.860496
3145.000000	99.863126
3144.000000	99.864773
3143.000000	99.866040
3142.000000	99.867972
3141.000000	99.871064
3140.000000	99.874741
3139.000000	99.877758
3138.000000	99.879300
3137.000000	99.879641
3136.000000	99.879674
3135.000000	99.879835
3134.000000	99.879849
3133.000000	99.879499
3132.000000	99.879088
3131.000000	99.878943
3130.000000	99.879026
3129.000000	99.879460
3128.000000	99.880922
3127.000000	99.883884
3126.000000	99.887746
3125.000000	99.891344
3124.000000	99.894346
3123.000000	99.897488
3122.000000	99.901227
3121.000000	99.904691
3120.000000	99.906398
3119.000000	99.905937
3118.000000	99.904664
3117.000000	99.904583
3116.000000	99.906539
3115.000000	99.909742
3114.000000	99.912899
3113.000000	99.915580
3112.000000	99.918145
3111.000000	99.920741
3110.000000	99.923144
3109.000000	99.925529
3108.000000	99.928563
3107.000000	99.932343
3106.000000	99.935770
3105.000000	99.937623
3104.000000	99.938123
3103.000000	99.938852
3102.000000	99.941013
3101.000000	99.944126
3100.000000	99.946686
3099.000000	99.947881
3098.000000	99.948303
3097.000000	99.949047
3096.000000	99.950425
3095.000000	99.951854
3094.000000	99.952776
3093.000000	99.953279
3092.000000	99.953865
3091.000000	99.954952
3090.000000	99.956706
3089.000000	99.959039
3088.000000	99.961576
3087.000000	99.963794
3086.000000	99.965433
3085.000000	99.966707
3084.000000	99.968027
3083.000000	99.969580
3082.000000	99.971262
3081.000000	99.972938
3080.000000	99.974611
3079.000000	99.976329
3078.000000	99.978085
3077.000000	99.979887
3076.000000	99.981784
3075.000000	99.983751
3074.000000	99.985669
3073.000000	99.987411
3072.000000	99.988969
3071.000000	99.990423
3070.000000	99.991901
3069.000000	99.993488
3068.000000	99.995183
3067.000000	99.996926
3066.000000	99.998633
3065.000000	100.000270
3064.000000	100.001851
3063.000000	100.003412
3062.000000	100.004965
3061.000000	100.006516
3060.000000	100.008086
3059.000000	100.009699
3058.000000	100.011360
3057.000000	100.013062
3056.000000	100.014798
3055.000000	100.016572
3054.000000	100.018379
3053.000000	100.020195
3052.000000	100.021958
3051.000000	100.023578
3050.000000	100.025018
3049.000000	100.026408
3048.000000	100.027991
3047.000000	100.029918
3046.000000	100.032104
3045.000000	100.034257
3044.000000	100.036158
3043.000000	100.037756
3042.000000	100.039089
3041.000000	100.040258
3040.000000	100.041486
3039.000000	100.042998
3038.000000	100.044790
3037.000000	100.046611
3036.000000	100.048191
3035.000000	100.049407
3034.000000	100.050281
3033.000000	100.051061
3032.000000	100.052240
3031.000000	100.054174
3030.000000	100.056747
3029.000000	100.059570
3028.000000	100.062487
3027.000000	100.065520
3026.000000	100.068403
3025.000000	100.070734
3024.000000	100.072530
3023.000000	100.074172
3022.000000	100.075842
3021.000000	100.077381
3020.000000	100.078760
3019.000000	100.080295
3018.000000	100.082202
3017.000000	100.084271
3016.000000	100.086226
3015.000000	100.088183
3014.000000	100.090435
3013.000000	100.092859
3012.000000	100.094841
3011.000000	100.095978
3010.000000	100.096699
3009.000000	100.097915
3008.000000	100.100093
3007.000000	100.102950
3006.000000	100.105949
3005.000000	100.108782
3004.000000	100.111213
3003.000000	100.112849
3002.000000	100.113566
3001.000000	100.114163
3000.000000	100.115813
2999.000000	100.118477
2998.000000	100.120465
2997.000000	100.120367
2996.000000	100.119172
2995.000000	100.119610
2994.000000	100.123255
2993.000000	100.129106
2992.000000	100.134687
2991.000000	100.138153
2990.000000	100.139111
2989.000000	100.138486
2988.000000	100.138257
2987.000000	100.140294
2986.000000	100.144564
2985.000000	100.148961
2984.000000	100.151653
2983.000000	100.153062
2982.000000	100.154708
2981.000000	100.156782
2980.000000	100.158036
2979.000000	100.157901
2978.000000	100.157441
2977.000000	100.158101
2976.000000	100.160467
2975.000000	100.164396
2974.000000	100.169317
2973.000000	100.173837
2972.000000	100.175844
2971.000000	100.173901
2970.000000	100.168610
2969.000000	100.162408
2968.000000	100.157917
2967.000000	100.156404
2966.000000	100.157572
2965.000000	100.160132
2964.000000	100.162183
2963.000000	100.161598
2962.000000	100.157256
2961.000000	100.150540
2960.000000	100.144842
2959.000000	100.142339
2958.000000	100.141663
2957.000000	100.139832
2956.000000	100.136228
2955.000000	100.133185
2954.000000	100.132495
2953.000000	100.133177
2952.000000	100.133511
2951.000000	100.133574
2950.000000	100.134318
2949.000000	100.135383
2948.000000	100.135534
2947.000000	100.134724
2946.000000	100.134129
2945.000000	100.134273
2944.000000	100.134600
2943.000000	100.134897
2942.000000	100.135743
2941.000000	100.137102
2940.000000	100.137712
2939.000000	100.136663
2938.000000	100.134974
2937.000000	100.134787
2936.000000	100.137195
2935.000000	100.141255
2934.000000	100.144886
2933.000000	100.146439
2932.000000	100.145580
2931.000000	100.143199
2930.000000	100.140871
2929.000000	100.140240
2928.000000	100.142290
2927.000000	100.146589
2926.000000	100.151158
2925.000000	100.153693
2924.000000	100.153417
2923.000000	100.151557
2922.000000	100.150036
2921.000000	100.150020
2920.000000	100.151821
2919.000000	100.155316
2918.000000	100.159863
2917.000000	100.164275
2916.000000	100.167615
2915.000000	100.170018
2914.000000	100.172305
2913.000000	100.175036
2912.000000	100.178282
2911.000000	100.181930
2910.000000	100.185577
2909.000000	100.188395
2908.000000	100.189938
2907.000000	100.191099
2906.000000	100.193535
2905.000000	100.197866
2904.000000	100.202919
2903.000000	100.206917
2902.000000	100.209007
2901.000000	100.209403
2900.000000	100.208690
2899.000000	100.207325
2898.000000	100.205647
2897.000000	100.203954
2896.000000	100.202656
2895.000000	100.202415
2894.000000	100.203856
2893.000000	100.206933
2892.000000	100.210718
2891.000000	100.213990
2890.000000	100.216044
2889.000000	100.216936
2888.000000	100.217234
2887.000000	100.217659
2886.000000	100.218671
2885.000000	100.220045
2884.000000	100.220903
2883.000000	100.220456
2882.000000	100.218783
2881.000000	100.216834
2880.000000	100.215715
2879.000000	100.216097
2878.000000	100.218201
2877.000000	100.221877
2876.000000	100.226441
2875.000000	100.230732
2874.000000	100.233771
2873.000000	100.235429
2872.000000	100.236275
2871.000000	100.236760
2870.000000	100.236724
2869.000000	100.235849
2868.000000	100.234387
2867.000000	100.233233
2866.000000	100.233299
2865.000000	100.234944
2864.000000	100.237946
2863.000000	100.241736
2862.000000	100.245551
2861.000000	100.248601
2860.000000	100.250338
2859.000000	100.250730
2858.000000	100.250353
2857.000000	100.250121
2856.000000	100.250692
2855.000000	100.251966
2854.000000	100.253158
2853.000000	100.253506
2852.000000	100.253001
2851.000000	100.252481
2850.000000	100.253033
2849.000000	100.255300
2848.000000	100.259188
2847.000000	100.263935
2846.000000	100.268509
2845.000000	100.272232
2844.000000	100.275052
2843.000000	100.277231
2842.000000	100.278838
2841.000000	100.279748
2840.000000	100.280131
2839.000000	100.280646
2838.000000	100.282055
2837.000000	100.284638
2836.000000	100.287985
2835.000000	100.291249
2834.000000	100.293659
2833.000000	100.295015
2832.000000	100.295693
2831.000000	100.296224
2830.000000	100.296919
2829.000000	100.297915
2828.000000	100.299416
2827.000000	100.301622
2826.000000	100.304434
2825.000000	100.307410
2824.000000	100.310084
2823.000000	100.312287
2822.000000	100.314103
2821.000000	100.315654
2820.000000	100.317037
2819.000000	100.318373
2818.000000	100.319808
2817.000000	100.321428
2816.000000	100.323201
2815.000000	100.325028
2814.000000	100.326827
2813.000000	100.328586
2812.000000	100.330336
2811.000000	100.332093
2810.000000	100.333846
2809.000000	100.335576
2808.000000	100.337277
2807.000000	100.338949
2806.000000	100.340596
2805.000000	100.342221
2804.000000	100.343830
2803.000000	100.345430
2802.000000	100.347028
2801.000000	100.348630
2800.000000	100.350246
2799.000000	100.351882
2798.000000	100.353532
2797.000000	100.355176
2796.000000	100.356793
2795.000000	100.358370
2794.000000	100.359912
2793.000000	100.361433
2792.000000	100.362950
2791.000000	100.364470
2790.000000	100.365987
2789.000000	100.367490
2788.000000	100.368969
2787.000000	100.370418
2786.000000	100.371835
2785.000000	100.373226
2784.000000	100.374573
2783.000000	100.375844
2782.000000	100.377045
2781.000000	100.378232
2780.000000	100.379437
2779.000000	100.380607
2778.000000	100.381648
2777.000000	100.382566
2776.000000	100.383526
2775.000000	100.384688
2774.000000	100.386059
2773.000000	100.387492
2772.000000	100.388873
2771.000000	100.390165
2770.000000	100.391300
2769.000000	100.392184
2768.000000	100.392878
2767.000000	100.393646
2766.000000	100.394698
2765.000000	100.395955
2764.000000	100.397217
2763.000000	100.398517
2762.000000	100.400074
2761.000000	100.401876
2760.000000	100.403539
2759.000000	100.404702
2758.000000	100.405349
2757.000000	100.405643
2756.000000	100.405740
2755.000000	100.405921
2754.000000	100.406532
2753.000000	100.407556
2752.000000	100.408454
2751.000000	100.408732
2750.000000	100.408469
2749.000000	100.408223
2748.000000	100.408442
2747.000000	100.409088
2746.000000	100.409897
2745.000000	100.410677
2744.000000	100.411380
2743.000000	100.412031
2742.000000	100.412687
2741.000000	100.413411
2740.000000	100.414206
2739.000000	100.414993
2738.000000	100.415690
2737.000000	100.416294
2736.000000	100.416874
2735.000000	100.417494
2734.000000	100.418144
2733.000000	100.418783
2732.000000	100.419388
2731.000000	100.419962
2730.000000	100.420521
2729.000000	100.421073
2728.000000	100.421628
2727.000000	100.422190
2726.000000	100.422761
2725.000000	100.423336
2724.000000	100.423910
2723.000000	100.424477
2722.000000	100.425032
2721.000000	100.425573
2720.000000	100.426101
2719.000000	100.426616
2718.000000	100.427114
2717.000000	100.427595
2716.000000	100.428063
2715.000000	100.428523
2714.000000	100.428985
2713.000000	100.429453
2712.000000	100.429929
2711.000000	100.430423
2710.000000	100.430940
2709.000000	100.431478
2708.000000	100.432023
2707.000000	100.432551
2706.000000	100.433052
2705.000000	100.433530
2704.000000	100.434001
2703.000000	100.434483
2702.000000	100.434984
2701.000000	100.435503
2700.000000	100.436035
2699.000000	100.436567
2698.000000	100.437094
2697.000000	100.437617
2696.000000	100.438141
2695.000000	100.438690
2694.000000	100.439282
2693.000000	100.439906
2692.000000	100.440549
2691.000000	100.441224
2690.000000	100.441930
2689.000000	100.442651
2688.000000	100.443372
2687.000000	100.444085
2686.000000	100.444747
2685.000000	100.445303
2684.000000	100.445777
2683.000000	100.446261
2682.000000	100.446763
2681.000000	100.447140
2680.000000	100.447273
2679.000000	100.447294
2678.000000	100.447499
2677.000000	100.448002
2676.000000	100.448616
2675.000000	100.449192
2674.000000	100.449878
2673.000000	100.450845
2672.000000	100.451883
2671.000000	100.452526
2670.000000	100.452626
2669.000000	100.452615
2668.000000	100.453010
2667.000000	100.453828
2666.000000	100.454773
2665.000000	100.455831
2664.000000	100.457175
2663.000000	100.458551
2662.000000	100.459377
2661.000000	100.459541
2660.000000	100.459614
2659.000000	100.460029
2658.000000	100.460476
2657.000000	100.460589
2656.000000	100.460725
2655.000000	100.461468
2654.000000	100.462549
2653.000000	100.462989
2652.000000	100.462347
2651.000000	100.461188
2650.000000	100.460414
2649.000000	100.460315
2648.000000	100.460635
2647.000000	100.461123
2646.000000	100.461673
2645.000000	100.462056
2644.000000	100.461960
2643.000000	100.461409
2642.000000	100.460826
2641.000000	100.460540
2640.000000	100.460475
2639.000000	100.460546
2638.000000	100.461049
2637.000000	100.462229
2636.000000	100.463748
2635.000000	100.464850
2634.000000	100.465159
2633.000000	100.464977
2632.000000	100.464776
2631.000000	100.464586
2630.000000	100.464206
2629.000000	100.463747
2628.000000	100.463522
2627.000000	100.463507
2626.000000	100.463331
2625.000000	100.462831
2624.000000	100.462298
2623.000000	100.462083
2622.000000	100.462196
2621.000000	100.462448
2620.000000	100.462771
2619.000000	100.463187
2618.000000	100.463595
2617.000000	100.463826
2616.000000	100.463861
2615.000000	100.463856
2614.000000	100.463953
2613.000000	100.464133
2612.000000	100.464293
2611.000000	100.464393
2610.000000	100.464480
2609.000000	100.464606
2608.000000	100.464782
2607.000000	100.464988
2606.000000	100.465203
2605.000000	100.465417
2604.000000	100.465635
2603.000000	100.465867
2602.000000	100.466128
2601.000000	100.466425
2600.000000	100.466750
2599.000000	100.467077
2598.000000	100.467387
2597.000000	100.467681
2596.000000	100.467977
2595.000000	100.468293
2594.000000	100.468638
2593.000000	100.469013
2592.000000	100.469424
2591.000000	100.469871
2590.000000	100.470347
2589.000000	100.470837
2588.000000	100.471333
2587.000000	100.471838
2586.000000	100.472351
2585.000000	100.472873
2584.000000	100.473400
2583.000000	100.473931
2582.000000	100.474455
2581.000000	100.474957
2580.000000	100.475428
2579.000000	100.475872
2578.000000	100.476302
2577.000000	100.476731
2576.000000	100.477169
2575.000000	100.477628
2574.000000	100.478118
2573.000000	100.478638
2572.000000	100.479172
2571.000000	100.479709
2570.000000	100.480252
2569.000000	100.480814
2568.000000	100.481395
2567.000000	100.481983
2566.000000	100.482564
2565.000000	100.483133
2564.000000	100.483700
2563.000000	100.484275
2562.000000	100.484864
2561.000000	100.485461
2560.000000	100.486059
2559.000000	100.486643
2558.000000	100.487206
2557.000000	100.487755
2556.000000	100.488305
2555.000000	100.488868
2554.000000	100.489439
2553.000000	100.489996
2552.000000	100.490522
2551.000000	100.491023
2550.000000	100.491514
2549.000000	100.492008
2548.000000	100.492507
2547.000000	100.493011
2546.000000	100.493521
2545.000000	100.494036
2544.000000	100.494553
2543.000000	100.495066
2542.000000	100.495574
2541.000000	100.496076
2540.000000	100.496569
2539.000000	100.497059
2538.000000	100.497553
2537.000000	100.498057
2536.000000	100.498573
2535.000000	100.499091
2534.000000	100.499619
2533.000000	100.500170
2532.000000	100.500717
2531.000000	100.501183
2530.000000	100.501502
2529.000000	100.501700
2528.000000	100.501908
2527.000000	100.502253
2526.000000	100.502781
2525.000000	100.503437
2524.000000	100.504161
2523.000000	100.504944
2522.000000	100.505758
2521.000000	100.506481
2520.000000	100.506967
2519.000000	100.507240
2518.000000	100.507478
2517.000000	100.507795
2516.000000	100.508156
2515.000000	100.508534
2514.000000	100.508949
2513.000000	100.509283
2512.000000	100.509257
2511.000000	100.508823
2510.000000	100.508443
2509.000000	100.508712
2508.000000	100.509697
2507.000000	100.511000
2506.000000	100.512258
2505.000000	100.513358
2504.000000	100.514159
2503.000000	100.514414
2502.000000	100.514087
2501.000000	100.513529
2500.000000	100.513179
2499.000000	100.513289
2498.000000	100.514076
2497.000000	100.515780
2496.000000	100.518251
2495.000000	100.520652
2494.000000	100.522061
2493.000000	100.522358
2492.000000	100.522294
2491.000000	100.522688
2490.000000	100.523701
2489.000000	100.525034
2488.000000	100.526513
2487.000000	100.528192
2486.000000	100.529977
2485.000000	100.531414
2484.000000	100.532018
2483.000000	100.531831
2482.000000	100.531653
2481.000000	100.532565
2480.000000	100.534997
2479.000000	100.538177
2478.000000	100.540600
2477.000000	100.541366
2476.000000	100.540757
2475.000000	100.539675
2474.000000	100.538679
2473.000000	100.537834
2472.000000	100.537307
2471.000000	100.537539
2470.000000	100.538757
2469.000000	100.540679
2468.000000	100.542862
2467.000000	100.545200
2466.000000	100.547902
2465.000000	100.551052
2464.000000	100.554284
2463.000000	100.556902
2462.000000	100.558400
2461.000000	100.558874
2460.000000	100.558810
2459.000000	100.558463
2458.000000	100.557762
2457.000000	100.556932
2456.000000	100.556646
2455.000000	100.557246
2454.000000	100.558199
2453.000000	100.558751
2452.000000	100.559049
2451.000000	100.560003
2450.000000	100.561986
2449.000000	100.564316
2448.000000	100.566059
2447.000000	100.566984
2446.000000	100.567515
2445.000000	100.568131
2444.000000	100.569008
2443.000000	100.570071
2442.000000	100.571150
2441.000000	100.572091
2440.000000	100.572871
2439.000000	100.573613
2438.000000	100.574478
2437.000000	100.575523
2436.000000	100.576668
2435.000000	100.577798
2434.000000	100.578842
2433.000000	100.579813
2432.000000	100.580765
2431.000000	100.581729
2430.000000	100.582699
2429.000000	100.583663
2428.000000	100.584616
2427.000000	100.585548
2426.000000	100.586459
2425.000000	100.587356
2424.000000	100.588249
2423.000000	100.589151
2422.000000	100.590071
2421.000000	100.591020
2420.000000	100.592002
2419.000000	100.593017
2418.000000	100.594053
2417.000000	100.595093
2416.000000	100.596116
2415.000000	100.597109
2414.000000	100.598074
2413.000000	100.599021
2412.000000	100.599965
2411.000000	100.600921
2410.000000	100.601890
2409.000000	100.602856
2408.000000	100.603789
2407.000000	100.604667
2406.000000	100.605491
2405.000000	100.606277
2404.000000	100.607047
2403.000000	100.607813
2402.000000	100.608586
2401.000000	100.609368
2400.000000	100.610156
2399.000000	100.610935
2398.000000	100.611689
2397.000000	100.612409
2396.000000	100.613099
2395.000000	100.613768
2394.000000	100.614423
2393.000000	100.615068
2392.000000	100.615709
2391.000000	100.616357
2390.000000	100.617017
2389.000000	100.617676
2388.000000	100.618313
2387.000000	100.618919
2386.000000	100.619501
2385.000000	100.620079
2384.000000	100.620672
2383.000000	100.621290
2382.000000	100.621935
2381.000000	100.622595
2380.000000	100.623234
2379.000000	100.623805
2378.000000	100.624284
2377.000000	100.624676
2376.000000	100.625005
2375.000000	100.625305
2374.000000	100.625608
2373.000000	100.625927
2372.000000	100.626247
2371.000000	100.626556
2370.000000	100.626889
2369.000000	100.627251
2368.000000	100.627509
2367.000000	100.627478
2366.000000	100.627125
2365.000000	100.626804
2364.000000	100.626935
2363.000000	100.627649
2362.000000	100.628724
2361.000000	100.629807
2360.000000	100.630688
2359.000000	100.631170
2358.000000	100.631079
2357.000000	100.630525
2356.000000	100.629921
2355.000000	100.629575
2354.000000	100.629439
2353.000000	100.629397
2352.000000	100.629555
2351.000000	100.630049
2350.000000	100.630728
2349.000000	100.631182
2348.000000	100.631171
2347.000000	100.630926
2346.000000	100.630935
2345.000000	100.631369
2344.000000	100.631926
2343.000000	100.632634
2342.000000	100.633919
2341.000000	100.635742
2340.000000	100.637184
2339.000000	100.637267
2338.000000	100.635904
2337.000000	100.633666
2336.000000	100.631119
2335.000000	100.628573
2334.000000	100.626477
2333.000000	100.625182
2332.000000	100.624666
2331.000000	100.624692
2330.000000	100.625731
2329.000000	100.628291
2328.000000	100.631800
2327.000000	100.634344
2326.000000	100.634430
2325.000000	100.632372
2324.000000	100.630126
2323.000000	100.629601
2322.000000	100.630878
2321.000000	100.632372
2320.000000	100.632399
2319.000000	100.630482
2318.000000	100.627317
2317.000000	100.623871
2316.000000	100.620936
2315.000000	100.618993
2314.000000	100.618593
2313.000000	100.619910
2312.000000	100.622376
2311.000000	100.624632
2310.000000	100.625667
2309.000000	100.625305
2308.000000	100.624080
2307.000000	100.622575
2306.000000	100.621350
2305.000000	100.620761
2304.000000	100.620744
2303.000000	100.620566
2302.000000	100.619512
2301.000000	100.617511
2300.000000	100.615081
2299.000000	100.612449
2298.000000	100.609445
2297.000000	100.606112
2296.000000	100.603184
2295.000000	100.601379
2294.000000	100.600491
2293.000000	100.599452
2292.000000	100.597433
2291.000000	100.594748
2290.000000	100.592582
2289.000000	100.591846
2288.000000	100.592261
2287.000000	100.592495
2286.000000	100.591260
2285.000000	100.588435
2284.000000	100.585036
2283.000000	100.582269
2282.000000	100.580588
2281.000000	100.579640
2280.000000	100.578684
2279.000000	100.576914
2278.000000	100.573804
2277.000000	100.569468
2276.000000	100.564691
2275.000000	100.560292
2274.000000	100.556713
2273.000000	100.554247
2272.000000	100.553228
2271.000000	100.553630
2270.000000	100.554655
2269.000000	100.555156
2268.000000	100.554532
2267.000000	100.553024
2266.000000	100.551299
2265.000000	100.549959
2264.000000	100.549299
2263.000000	100.549244
2262.000000	100.549415
2261.000000	100.549367
2260.000000	100.548795
2259.000000	100.547685
2258.000000	100.546444
2257.000000	100.545825
2256.000000	100.546289
2255.000000	100.547219
2254.000000	100.547168
2253.000000	100.545306
2252.000000	100.542435
2251.000000	100.540175
2250.000000	100.539121
2249.000000	100.538330
2248.000000	100.536652
2247.000000	100.534051
2246.000000	100.531439
2245.000000	100.529633
2244.000000	100.528894
2243.000000	100.529179
2242.000000	100.530195
2241.000000	100.531223
2240.000000	100.531403
2239.000000	100.530597
2238.000000	100.529750
2237.000000	100.530005
2236.000000	100.531465
2235.000000	100.533037
2234.000000	100.533568
2233.000000	100.532958
2232.000000	100.531950
2231.000000	100.531159
2230.000000	100.530594
2229.000000	100.530123
2228.000000	100.529903
2227.000000	100.530108
2226.000000	100.530486
2225.000000	100.530535
2224.000000	100.530115
2223.000000	100.529621
2222.000000	100.529578
2221.000000	100.530238
2220.000000	100.531509
2219.000000	100.533021
2218.000000	100.534242
2217.000000	100.534807
2216.000000	100.534841
2215.000000	100.534852
2214.000000	100.535264
2213.000000	100.536073
2212.000000	100.536950
2211.000000	100.537549
2210.000000	100.537720
2209.000000	100.537550
2208.000000	100.537304
2207.000000	100.537271
2206.000000	100.537571
2205.000000	100.538120
2204.000000	100.538754
2203.000000	100.539348
2202.000000	100.539834
2201.000000	100.540177
2200.000000	100.540404
2199.000000	100.540614
2198.000000	100.540903
2197.000000	100.541271
2196.000000	100.541646
2195.000000	100.541988
2194.000000	100.542319
2193.000000	100.542653
2192.000000	100.542945
2191.000000	100.543128
2190.000000	100.543198
2189.000000	100.543222
2188.000000	100.543302
2187.000000	100.543508
2186.000000	100.543831
2185.000000	100.544208
2184.000000	100.544563
2183.000000	100.544851
2182.000000	100.545069
2181.000000	100.545232
2180.000000	100.545368
2179.000000	100.545497
2178.000000	100.545629
2177.000000	100.545758
2176.000000	100.545858
2175.000000	100.545894
2174.000000	100.545864
2173.000000	100.545831
2172.000000	100.545886
2171.000000	100.546089
2170.000000	100.546429
2169.000000	100.546842
2168.000000	100.547246
2167.000000	100.547576
2166.000000	100.547806
2165.000000	100.547971
2164.000000	100.548161
2163.000000	100.548455
2162.000000	100.548844
2161.000000	100.549233
2160.000000	100.549542
2159.000000	100.549801
2158.000000	100.550122
2157.000000	100.550573
2156.000000	100.551117
2155.000000	100.551676
2154.000000	100.552195
2153.000000	100.552641
2152.000000	100.553008
2151.000000	100.553351
2150.000000	100.553743
2149.000000	100.554183
2148.000000	100.554616
2147.000000	100.555101
2146.000000	100.555802
2145.000000	100.556702
2144.000000	100.557464
2143.000000	100.557806
2142.000000	100.557927
2141.000000	100.558301
2140.000000	100.559035
2139.000000	100.559703
2138.000000	100.559917
2137.000000	100.559878
2136.000000	100.560170
2135.000000	100.561160
2134.000000	100.562771
2133.000000	100.564659
2132.000000	100.566421
2131.000000	100.567776
2130.000000	100.568713
2129.000000	100.569477
2128.000000	100.570334
2127.000000	100.571381
2126.000000	100.572604
2125.000000	100.574022
2124.000000	100.575627
2123.000000	100.577199
2122.000000	100.578402
2121.000000	100.579115
2120.000000	100.579599
2119.000000	100.580289
2118.000000	100.581314
2117.000000	100.582421
2116.000000	100.583335
2115.000000	100.584069
2114.000000	100.584866
2113.000000	100.585899
2112.000000	100.587098
2111.000000	100.588251
2110.000000	100.589255
2109.000000	100.590193
2108.000000	100.591194
2107.000000	100.592292
2106.000000	100.593433
2105.000000	100.594556
2104.000000	100.595627
2103.000000	100.596656
2102.000000	100.597683
2101.000000	100.598743
2100.000000	100.599817
2099.000000	100.600837
2098.000000	100.601756
2097.000000	100.602604
2096.000000	100.603439
2095.000000	100.604281
2094.000000	100.605099
2093.000000	100.605860
2092.000000	100.606546
2091.000000	100.607148
2090.000000	100.607675
2089.000000	100.608184
2088.000000	100.608755
2087.000000	100.609417
2086.000000	100.610110
2085.000000	100.610735
2084.000000	100.611259
2083.000000	100.611730
2082.000000	100.612167
2081.000000	100.612507
2080.000000	100.612685
2079.000000	100.612753
2078.000000	100.612884
2077.000000	100.613222
2076.000000	100.613763
2075.000000	100.614311
2074.000000	100.614653
2073.000000	100.614736
2072.000000	100.614655
2071.000000	100.614508
2070.000000	100.614369
2069.000000	100.614363
2068.000000	100.614578
2067.000000	100.614865
2066.000000	100.614920
2065.000000	100.614622
2064.000000	100.614179
2063.000000	100.613905
2062.000000	100.613894
2061.000000	100.614051
2060.000000	100.614297
2059.000000	100.614594
2058.000000	100.614803
2057.000000	100.614685
2056.000000	100.614147
2055.000000	100.613395
2054.000000	100.612801
2053.000000	100.612600
2052.000000	100.612715
2051.000000	100.612784
2050.000000	100.612446
2049.000000	100.611691
2048.000000	100.610892
2047.000000	100.610384
2046.000000	100.610008
2045.000000	100.609244
2044.000000	100.607782
2043.000000	100.605807
2042.000000	100.603852
2041.000000	100.602411
2040.000000	100.601640
2039.000000	100.601284
2038.000000	100.600836
2037.000000	100.599955
2036.000000	100.598681
2035.000000	100.597264
2034.000000	100.595886
2033.000000	100.594622
2032.000000	100.593522
2031.000000	100.592488
2030.000000	100.591195
2029.000000	100.589468
2028.000000	100.587737
2027.000000	100.586764
2026.000000	100.586795
2025.000000	100.587267
2024.000000	100.587426
2023.000000	100.586997
2022.000000	100.586077
2021.000000	100.584694
2020.000000	100.582801
2019.000000	100.580658
2018.000000	100.578850
2017.000000	100.577749
2016.000000	100.577033
2015.000000	100.575880
2014.000000	100.573789
2013.000000	100.571125
2012.000000	100.568712
2011.000000	100.566890
2010.000000	100.565260
2009.000000	100.563546
2008.000000	100.562225
2007.000000	100.561826
2006.000000	100.562008
2005.000000	100.561870
2004.000000	100.561021
2003.000000	100.559887
2002.000000	100.559020
2001.000000	100.558616
2000.000000	100.558691
1999.000000	100.559141
1998.000000	100.559374
1997.000000	100.558506
1996.000000	100.556347
1995.000000	100.553897
1994.000000	100.552493
1993.000000	100.552569
1992.000000	100.553540
1991.000000	100.554664
1990.000000	100.555675
1989.000000	100.556456
1988.000000	100.556679
1987.000000	100.556152
1986.000000	100.555351
1985.000000	100.555225
1984.000000	100.556303
1983.000000	100.558075
1982.000000	100.559357
1981.000000	100.559349
1980.000000	100.558179
1979.000000	100.556477
1978.000000	100.554728
1977.000000	100.553207
1976.000000	100.552315
1975.000000	100.552476
1974.000000	100.553537
1973.000000	100.554594
1972.000000	100.554763
1971.000000	100.554100
1970.000000	100.553597
1969.000000	100.554284
1968.000000	100.556374
1967.000000	100.559059
1966.000000	100.561099
1965.000000	100.561826
1964.000000	100.561464
1963.000000	100.560630
1962.000000	100.559607
1961.000000	100.558283
1960.000000	100.556747
1959.000000	100.555565
1958.000000	100.555201
1957.000000	100.555369
1956.000000	100.555261
1955.000000	100.554497
1954.000000	100.553568
1953.000000	100.553170
1952.000000	100.553301
1951.000000	100.553392
1950.000000	100.553087
1949.000000	100.552468
1948.000000	100.551555
1947.000000	100.550160
1946.000000	100.548495
1945.000000	100.547435
1944.000000	100.547657
1943.000000	100.548796
1942.000000	100.549907
1941.000000	100.550606
1940.000000	100.550946
1939.000000	100.550396
1938.000000	100.548178
1937.000000	100.544850
1936.000000	100.542508
1935.000000	100.542605
1934.000000	100.544197
1933.000000	100.545054
1932.000000	100.544139
1931.000000	100.542179
1930.000000	100.540083
1929.000000	100.537934
1928.000000	100.535760
1927.000000	100.534318
1926.000000	100.534693
1925.000000	100.537091
1924.000000	100.540239
1923.000000	100.541963
1922.000000	100.540938
1921.000000	100.537945
1920.000000	100.534951
1919.000000	100.533192
1918.000000	100.532595
1917.000000	100.532865
1916.000000	100.534091
1915.000000	100.535627
1914.000000	100.535547
1913.000000	100.532229
1912.000000	100.526082
1911.000000	100.518903
1910.000000	100.511815
1909.000000	100.504942
1908.000000	100.498468
1907.000000	100.492460
1906.000000	100.486122
1905.000000	100.478751
1904.000000	100.471810
1903.000000	100.468333
1902.000000	100.469483
1901.000000	100.472829
1900.000000	100.474725
1899.000000	100.473754
1898.000000	100.470909
1897.000000	100.467304
1896.000000	100.463234
1895.000000	100.459185
1894.000000	100.456298
1893.000000	100.455250
1892.000000	100.455449
1891.000000	100.455764
1890.000000	100.455790
1889.000000	100.456208
1888.000000	100.457683
1887.000000	100.459575
1886.000000	100.459982
1885.000000	100.457072
1884.000000	100.450868
1883.000000	100.443892
1882.000000	100.439597
1881.000000	100.439838
1880.000000	100.443424
1879.000000	100.446797
1878.000000	100.446809
1877.000000	100.443380
1876.000000	100.439348
1875.000000	100.437544
1874.000000	100.438270
1873.000000	100.439856
1872.000000	100.441209
1871.000000	100.442976
1870.000000	100.446165
1869.000000	100.450273
1868.000000	100.453481
1867.000000	100.454784
1866.000000	100.454980
1865.000000	100.455768
1864.000000	100.458536
1863.000000	100.463387
1862.000000	100.468748
1861.000000	100.472405
1860.000000	100.473636
1859.000000	100.474174
1858.000000	100.476688
1857.000000	100.482439
1856.000000	100.490293
1855.000000	100.497706
1854.000000	100.502661
1853.000000	100.505040
1852.000000	100.506519
1851.000000	100.508610
1850.000000	100.511237
1849.000000	100.513296
1848.000000	100.514347
1847.000000	100.515283
1846.000000	100.517566
1845.000000	100.522322
1844.000000	100.529293
1843.000000	100.536221
1842.000000	100.540677
1841.000000	100.542695
1840.000000	100.544832
1839.000000	100.549565
1838.000000	100.556221
1837.000000	100.561154
1836.000000	100.562010
1835.000000	100.560098
1834.000000	100.557927
1833.000000	100.556154
1832.000000	100.554230
1831.000000	100.552646
1830.000000	100.552935
1829.000000	100.555053
1828.000000	100.557106
1827.000000	100.558395
1826.000000	100.560128
1825.000000	100.563145
1824.000000	100.566307
1823.000000	100.567814
1822.000000	100.566985
1821.000000	100.564051
1820.000000	100.559559
1819.000000	100.554601
1818.000000	100.550991
1817.000000	100.550283
1816.000000	100.552407
1815.000000	100.555468
1814.000000	100.557276
1813.000000	100.557220
1812.000000	100.556598
1811.000000	100.557182
1810.000000	100.559224
1809.000000	100.561309
1808.000000	100.562073
1807.000000	100.561149
1806.000000	100.558798
1805.000000	100.555751
1804.000000	100.553429
1803.000000	100.553393
1802.000000	100.556010
1801.000000	100.559932
1800.000000	100.563111
1799.000000	100.564674
1798.000000	100.565180
1797.000000	100.565635
1796.000000	100.566739
1795.000000	100.568446
1794.000000	100.569773
1793.000000	100.569510
1792.000000	100.567919
1791.000000	100.567012
1790.000000	100.567773
1789.000000	100.569340
1788.000000	100.570992
1787.000000	100.573284
1786.000000	100.577067
1785.000000	100.581902
1784.000000	100.586172
1783.000000	100.588938
1782.000000	100.590634
1781.000000	100.592224
1780.000000	100.594005
1779.000000	100.595636
1778.000000	100.596674
1777.000000	100.596998
1776.000000	100.597120
1775.000000	100.598095
1774.000000	100.600728
1773.000000	100.604176
1772.000000	100.605984
1771.000000	100.605163
1770.000000	100.603364
1769.000000	100.602474
1768.000000	100.603241
1767.000000	100.605348
1766.000000	100.607784
1765.000000	100.609504
1764.000000	100.609833
1763.000000	100.608853
1762.000000	100.607700
1761.000000	100.607992
1760.000000	100.610115
1759.000000	100.613074
1758.000000	100.615375
1757.000000	100.616050
1756.000000	100.615454
1755.000000	100.614820
1754.000000	100.614778
1753.000000	100.614855
1752.000000	100.614225
1751.000000	100.612724
1750.000000	100.611175
1749.000000	100.610074
1748.000000	100.609147
1747.000000	100.607987
1746.000000	100.606497
1745.000000	100.605139
1744.000000	100.604807
1743.000000	100.606125
1742.000000	100.608018
1741.000000	100.607709
1740.000000	100.603213
1739.000000	100.596173
1738.000000	100.590280
1737.000000	100.587082
1736.000000	100.585987
1735.000000	100.585820
1734.000000	100.584863
1733.000000	100.582316
1732.000000	100.579133
1731.000000	100.576447
1730.000000	100.574583
1729.000000	100.573137
1728.000000	100.571561
1727.000000	100.569534
1726.000000	100.566765
1725.000000	100.562826
1724.000000	100.557730
1723.000000	100.552736
1722.000000	100.549090
1721.000000	100.546336
1720.000000	100.542608
1719.000000	100.536225
1718.000000	100.527965
1717.000000	100.522205
1716.000000	100.522241
1715.000000	100.526039
1714.000000	100.528989
1713.000000	100.527870
1712.000000	100.522479
1711.000000	100.514393
1710.000000	100.504928
1709.000000	100.494947
1708.000000	100.485816
1707.000000	100.479177
1706.000000	100.475580
1705.000000	100.473319
1704.000000	100.470085
1703.000000	100.465209
1702.000000	100.458850
1701.000000	100.450404
1700.000000	100.439782
1699.000000	100.429445
1698.000000	100.420070
1697.000000	100.410167
1696.000000	100.399211
1695.000000	100.388743
1694.000000	100.379869
1693.000000	100.371971
1692.000000	100.364489
1691.000000	100.357717
1690.000000	100.351888
1689.000000	100.346471
1688.000000	100.340839
1687.000000	100.334845
1686.000000	100.328462
1685.000000	100.320771
1684.000000	100.311655
1683.000000	100.303429
1682.000000	100.295927
1681.000000	100.287030
1680.000000	100.275792
1679.000000	100.263042
1678.000000	100.250369
1677.000000	100.239150
1676.000000	100.230823
1675.000000	100.226019
1674.000000	100.222116
1673.000000	100.215175
1672.000000	100.203735
1671.000000	100.189354
1670.000000	100.175668
1669.000000	100.165845
1668.000000	100.160028
1667.000000	100.156437
1666.000000	100.152769
1665.000000	100.146258
1664.000000	100.135327
1663.000000	100.122703
1662.000000	100.113579
1661.000000	100.108373
1660.000000	100.103127
1659.000000	100.096569
1658.000000	100.091389
1657.000000	100.089405
1656.000000	100.088616
1655.000000	100.085406
1654.000000	100.077590
1653.000000	100.065866
1652.000000	100.053304
1651.000000	100.041312
1650.000000	100.031210
1649.000000	100.024054
1648.000000	100.020052
1647.000000	100.017560
1646.000000	100.014853
1645.000000	100.012585
1644.000000	100.011469
1643.000000	100.010452
1642.000000	100.008138
1641.000000	100.005071
1640.000000	100.002981
1639.000000	100.002126
1638.000000	100.000387
1637.000000	99.994674
1636.000000	99.985137
1635.000000	99.978158
1634.000000	99.978214
1633.000000	99.982039
1632.000000	99.984766
1631.000000	99.983721
1630.000000	99.979115
1629.000000	99.973741
1628.000000	99.971111
1627.000000	99.972713
1626.000000	99.977119
1625.000000	99.981586
1624.000000	99.983608
1623.000000	99.983091
1622.000000	99.983425
1621.000000	99.987502
1620.000000	99.994175
1619.000000	99.999637
1618.000000	100.000499
1617.000000	99.997435
1616.000000	99.995770
1615.000000	99.998166
1614.000000	100.002105
1613.000000	100.005607
1612.000000	100.009528
1611.000000	100.015296
1610.000000	100.022325
1609.000000	100.028603
1608.000000	100.033185
1607.000000	100.036866
1606.000000	100.040520
1605.000000	100.044143
1604.000000	100.047433
1603.000000	100.050829
1602.000000	100.055311
1601.000000	100.061020
1600.000000	100.066830
1599.000000	100.071424
1598.000000	100.074469
1597.000000	100.076815
1596.000000	100.079979
1595.000000	100.085431
1594.000000	100.093528
1593.000000	100.102841
1592.000000	100.111090
1591.000000	100.117036
1590.000000	100.121337
1589.000000	100.125471
1588.000000	100.130094
1587.000000	100.134921
1586.000000	100.139804
1585.000000	100.144984
1584.000000	100.150298
1583.000000	100.154854
1582.000000	100.158193
1581.000000	100.160962
1580.000000	100.163870
1579.000000	100.166715
1578.000000	100.169310
1577.000000	100.172889
1576.000000	100.179303
1575.000000	100.187813
1574.000000	100.195516
1573.000000	100.201241
1572.000000	100.205593
1571.000000	100.209333
1570.000000	100.212657
1569.000000	100.215812
1568.000000	100.219738
1567.000000	100.225176
1566.000000	100.231889
1565.000000	100.238567
1564.000000	100.243839
1563.000000	100.247442
1562.000000	100.250259
1561.000000	100.253469
1560.000000	100.257822
1559.000000	100.262756
1558.000000	100.266923
1557.000000	100.269524
1556.000000	100.271061
1555.000000	100.272124
1554.000000	100.273150
1553.000000	100.274764
1552.000000	100.277455
1551.000000	100.281227
1550.000000	100.285471
1549.000000	100.289298
1548.000000	100.292466
1547.000000	100.295410
1546.000000	100.298439
1545.000000	100.301368
1544.000000	100.304071
1543.000000	100.307066
1542.000000	100.311093
1541.000000	100.316183
1540.000000	100.321147
1539.000000	100.324720
1538.000000	100.327105
1537.000000	100.329072
1536.000000	100.331074
1535.000000	100.333541
1534.000000	100.336999
1533.000000	100.341264
1532.000000	100.345252
1531.000000	100.348505
1530.000000	100.351494
1529.000000	100.354562
1528.000000	100.357472
1527.000000	100.360011
1526.000000	100.362736
1525.000000	100.366522
1524.000000	100.371555
1523.000000	100.377320
1522.000000	100.382846
1521.000000	100.386892
1520.000000	100.389175
1519.000000	100.390646
1518.000000	100.392264
1517.000000	100.394166
1516.000000	100.395643
1515.000000	100.396460
1514.000000	100.398039
1513.000000	100.402450
1512.000000	100.410245
1511.000000	100.419357
1510.000000	100.426875
1509.000000	100.431773
1508.000000	100.434944
1507.000000	100.437690
1506.000000	100.440230
1505.000000	100.442515
1504.000000	100.445735
1503.000000	100.450741
1502.000000	100.457308
1501.000000	100.464969
1500.000000	100.473286
1499.000000	100.481128
1498.000000	100.486016
1497.000000	100.485604
1496.000000	100.481722
1495.000000	100.480014
1494.000000	100.482823
1493.000000	100.487876
1492.000000	100.492334
1491.000000	100.495575
1490.000000	100.498537
1489.000000	100.500705
1488.000000	100.500286
1487.000000	100.497928
1486.000000	100.496368
1485.000000	100.496877
1484.000000	100.498420
1483.000000	100.500025
1482.000000	100.502708
1481.000000	100.507846
1480.000000	100.514616
1479.000000	100.520859
1478.000000	100.525563
1477.000000	100.528632
1476.000000	100.529138
1475.000000	100.525545
1474.000000	100.518231
1473.000000	100.511200
1472.000000	100.508413
1471.000000	100.508215
1470.000000	100.506914
1469.000000	100.504201
1468.000000	100.502046
1467.000000	100.501622
1466.000000	100.501587
1465.000000	100.499325
1464.000000	100.494291
1463.000000	100.488705
1462.000000	100.484603
1461.000000	100.482558
1460.000000	100.482702
1459.000000	100.485260
1458.000000	100.489388
1457.000000	100.491327
1456.000000	100.488277
1455.000000	100.482901
1454.000000	100.478868
1453.000000	100.477132
1452.000000	100.476621
1451.000000	100.475715
1450.000000	100.473776
1449.000000	100.471557
1448.000000	100.470102
1447.000000	100.469480
1446.000000	100.468771
1445.000000	100.467127
1444.000000	100.464089
1443.000000	100.459881
1442.000000	100.455906
1441.000000	100.454030
1440.000000	100.454833
1439.000000	100.456885
1438.000000	100.457835
1437.000000	100.456511
1436.000000	100.454370
1435.000000	100.453050
1434.000000	100.451904
1433.000000	100.449839
1432.000000	100.446978
1431.000000	100.444299
1430.000000	100.442449
1429.000000	100.441594
1428.000000	100.442106
1427.000000	100.444171
1426.000000	100.446795
1425.000000	100.448408
1424.000000	100.448419
1423.000000	100.447760
1422.000000	100.447217
1421.000000	100.446521
1420.000000	100.445641
1419.000000	100.445970
1418.000000	100.448820
1417.000000	100.453213
1416.000000	100.457757
1415.000000	100.462192
1414.000000	100.466684
1413.000000	100.471372
1412.000000	100.476635
1411.000000	100.482573
1410.000000	100.487639
1409.000000	100.489248
1408.000000	100.486532
1407.000000	100.482008
1406.000000	100.479833
1405.000000	100.482018
1404.000000	100.486885
1403.000000	100.491539
1402.000000	100.495140
1401.000000	100.498671
1400.000000	100.503059
1399.000000	100.508205
1398.000000	100.513168
1397.000000	100.517042
1396.000000	100.519591
1395.000000	100.521388
1394.000000	100.523445
1393.000000	100.526116
1392.000000	100.528794
1391.000000	100.530926
1390.000000	100.532684
1389.000000	100.534741
1388.000000	100.537437
1387.000000	100.540237
1386.000000	100.542345
1385.000000	100.543796
1384.000000	100.545367
1383.000000	100.547680
1382.000000	100.550613
1381.000000	100.553505
1380.000000	100.555967
1379.000000	100.558318
1378.000000	100.561055
1377.000000	100.564141
1376.000000	100.567039
1375.000000	100.569367
1374.000000	100.571397
1373.000000	100.573745
1372.000000	100.576565
1371.000000	100.579468
1370.000000	100.582028
1369.000000	100.584056
1368.000000	100.585494
1367.000000	100.586456
1366.000000	100.587423
1365.000000	100.589104
1364.000000	100.591890
1363.000000	100.595290
1362.000000	100.598043
1361.000000	100.599386
1360.000000	100.599676
1359.000000	100.599823
1358.000000	100.600452
1357.000000	100.601723
1356.000000	100.603564
1355.000000	100.605773
1354.000000	100.607901
1353.000000	100.609328
1352.000000	100.609845
1351.000000	100.610178
1350.000000	100.611423
1349.000000	100.613613
1348.000000	100.615227
1347.000000	100.614797
1346.000000	100.612663
1345.000000	100.610666
1344.000000	100.610230
1343.000000	100.611499
1342.000000	100.614115
1341.000000	100.617532
1340.000000	100.620218
1339.000000	100.620126
1338.000000	100.617117
1337.000000	100.613711
1336.000000	100.612408
1335.000000	100.613297
1334.000000	100.614884
1333.000000	100.616046
1332.000000	100.616258
1331.000000	100.614827
1330.000000	100.611693
1329.000000	100.608925
1328.000000	100.609375
1327.000000	100.613148
1326.000000	100.616824
1325.000000	100.617487
1324.000000	100.616286
1323.000000	100.616469
1322.000000	100.618456
1321.000000	100.619011
1320.000000	100.615865
1319.000000	100.611300
1318.000000	100.609796
1317.000000	100.612568
1316.000000	100.616592
1315.000000	100.618707
1314.000000	100.618639
1313.000000	100.617746
1312.000000	100.616541
1311.000000	100.614885
1310.000000	100.613742
1309.000000	100.614633
1308.000000	100.617106
1307.000000	100.618417
1306.000000	100.616733
1305.000000	100.613457
1304.000000	100.611187
1303.000000	100.610169
1302.000000	100.608413
1301.000000	100.605274
1300.000000	100.603026
1299.000000	100.603993
1298.000000	100.607341
1297.000000	100.609995
1296.000000	100.610090
1295.000000	100.607944
1294.000000	100.604013
1293.000000	100.598025
1292.000000	100.590936
1291.000000	100.585783
1290.000000	100.584601
1289.000000	100.585241
1288.000000	100.583348
1287.000000	100.577765
1286.000000	100.572123
1285.000000	100.570287
1284.000000	100.571946
1283.000000	100.574006
1282.000000	100.574842
1281.000000	100.575060
1280.000000	100.574340
1279.000000	100.570083
1278.000000	100.560645
1277.000000	100.548626
1276.000000	100.539267
1275.000000	100.535587
1274.000000	100.536030
1273.000000	100.536475
1272.000000	100.533392
1271.000000	100.525313
1270.000000	100.513213
1269.000000	100.500468
1268.000000	100.491264
1267.000000	100.487584
1266.000000	100.487780
1265.000000	100.488772
1264.000000	100.489143
1263.000000	100.489206
1262.000000	100.488832
1261.000000	100.487053
1260.000000	100.484024
1259.000000	100.481712
1258.000000	100.481453
1257.000000	100.481177
1256.000000	100.475914
1255.000000	100.461659
1254.000000	100.439391
1253.000000	100.415392
1252.000000	100.396754
1251.000000	100.385786
1250.000000	100.378970
1249.000000	100.371546
1248.000000	100.361900
1247.000000	100.350480
1246.000000	100.336360
1245.000000	100.318144
1244.000000	100.298395
1243.000000	100.283763
1242.000000	100.278317
1241.000000	100.278185
1240.000000	100.274892
1239.000000	100.263494
1238.000000	100.246156
1237.000000	100.228390
1236.000000	100.213387
1235.000000	100.200120
1234.000000	100.185341
1233.000000	100.166348
1232.000000	100.142538
1231.000000	100.115658
1230.000000	100.088765
1229.000000	100.063981
1228.000000	100.040494
1227.000000	100.015299
1226.000000	99.986756
1225.000000	99.956478
1224.000000	99.925555
1223.000000	99.889542
1222.000000	99.841126
1221.000000	99.779811
1220.000000	99.716165
1219.000000	99.662780
1218.000000	99.621827
1217.000000	99.584842
1216.000000	99.543115
1215.000000	99.493537
1214.000000	99.435534
1213.000000	99.368820
1212.000000	99.296127
1211.000000	99.222752
1210.000000	99.149949
1209.000000	99.072955
1208.000000	98.989419
1207.000000	98.906243
1206.000000	98.833239
1205.000000	98.771706
1204.000000	98.713860
1203.000000	98.652845
1202.000000	98.589538
1201.000000	98.529019
1200.000000	98.473123
1199.000000	98.418203
1198.000000	98.359593
1197.000000	98.296710
1196.000000	98.232552
1195.000000	98.168984
1194.000000	98.105138
1193.000000	98.040996
1192.000000	97.978525
1191.000000	97.916478
1190.000000	97.848000
1189.000000	97.768379
1188.000000	97.682750
1187.000000	97.600916
1186.000000	97.526386
1185.000000	97.456283
1184.000000	97.389431
1183.000000	97.325909
1182.000000	97.259379
1181.000000	97.180082
1180.000000	97.088343
1179.000000	96.996664
1178.000000	96.914354
1177.000000	96.837198
1176.000000	96.756021
1175.000000	96.667620
1174.000000	96.572292
1173.000000	96.468262
1172.000000	96.356044
1171.000000	96.243080
1170.000000	96.136440
1169.000000	96.034329
1168.000000	95.931777
1167.000000	95.832423
1166.000000	95.748314
1165.000000	95.689386
1164.000000	95.658404
1163.000000	95.654684
1162.000000	95.677343
1161.000000	95.723098
1160.000000	95.781544
1159.000000	95.833800
1158.000000	95.859803
1157.000000	95.850464
1156.000000	95.811070
1155.000000	95.750987
1154.000000	95.673819
1153.000000	95.582455
1152.000000	95.488533
1151.000000	95.405444
1150.000000	95.331279
1149.000000	95.250180
1148.000000	95.154145
1147.000000	95.053637
1146.000000	94.962574
1145.000000	94.882909
1144.000000	94.810442
1143.000000	94.745130
1142.000000	94.685282
1141.000000	94.618896
1140.000000	94.533014
1139.000000	94.429845
1138.000000	94.324871
1137.000000	94.229166
1136.000000	94.140449
1135.000000	94.051278
1134.000000	93.959142
1133.000000	93.866602
1132.000000	93.775413
1131.000000	93.683086
1130.000000	93.585112
1129.000000	93.480486
1128.000000	93.373852
1127.000000	93.270468
1126.000000	93.170783
1125.000000	93.073290
1124.000000	92.980152
1123.000000	92.894160
1122.000000	92.811945
1121.000000	92.727478
1120.000000	92.641197
1119.000000	92.557105
1118.000000	92.471565
1117.000000	92.375792
1116.000000	92.271219
1115.000000	92.171414
1114.000000	92.084714
1113.000000	92.005279
1112.000000	91.925668
1111.000000	91.847201
1110.000000	91.771436
1109.000000	91.691666
1108.000000	91.601933
1107.000000	91.507951
1106.000000	91.420904
1105.000000	91.344537
1104.000000	91.273726
1103.000000	91.201053
1102.000000	91.120924
1101.000000	91.032885
1100.000000	90.944942
1099.000000	90.868579
1098.000000	90.807154
1097.000000	90.753135
1096.000000	90.697217
1095.000000	90.634200
1094.000000	90.560823
1093.000000	90.476933
1092.000000	90.389838
1091.000000	90.308792
1090.000000	90.234048
1089.000000	90.159980
1088.000000	90.088532
1087.000000	90.028126
1086.000000	89.978103
1085.000000	89.926581
1084.000000	89.867143
1083.000000	89.806791
1082.000000	89.753902
1081.000000	89.707916
1080.000000	89.663885
1079.000000	89.617931
1078.000000	89.566268
1077.000000	89.507869
1076.000000	89.448695
1075.000000	89.393380
1074.000000	89.333081
1073.000000	89.252992
1072.000000	89.150831
1071.000000	89.035804
1070.000000	88.910931
1069.000000	88.770987
1068.000000	88.618099
1067.000000	88.462197
1066.000000	88.302227
1065.000000	88.123907
1064.000000	87.922900
1063.000000	87.716236
1062.000000	87.524156
1061.000000	87.352622
1060.000000	87.199154
1059.000000	87.061738
1058.000000	86.934716
1057.000000	86.807773
1056.000000	86.675234
1055.000000	86.537145
1054.000000	86.389566
1053.000000	86.226339
1052.000000	86.052263
1051.000000	85.878903
1050.000000	85.703984
1049.000000	85.513505
1048.000000	85.308144
1047.000000	85.106640
1046.000000	84.918318
1045.000000	84.732230
1044.000000	84.537519
1043.000000	84.335749
1042.000000	84.129142
1041.000000	83.915542
1040.000000	83.701333
1039.000000	83.501216
1038.000000	83.317411
1037.000000	83.136029
1036.000000	82.951575
1035.000000	82.778222
1034.000000	82.629497
1033.000000	82.504155
1032.000000	82.399323
1031.000000	82.319446
1030.000000	82.262665
1029.000000	82.214096
1028.000000	82.162540
1027.000000	82.111401
1026.000000	82.066477
1025.000000	82.026162
1024.000000	81.989216
1023.000000	81.959028
1022.000000	81.935004
1021.000000	81.911353
1020.000000	81.886526
1019.000000	81.861335
1018.000000	81.828386
1017.000000	81.779268
1016.000000	81.721806
1015.000000	81.672771
1014.000000	81.633384
1013.000000	81.590300
1012.000000	81.540792
1011.000000	81.496437
1010.000000	81.460463
1009.000000	81.423239
1008.000000	81.383726
1007.000000	81.353907
1006.000000	81.337288
1005.000000	81.324270
1004.000000	81.314152
1003.000000	81.320042
1002.000000	81.344772
1001.000000	81.372869
1000.000000	81.395250
999.000000	81.423034
998.000000	81.467243
997.000000	81.522018
996.000000	81.577297
995.000000	81.632857
994.000000	81.691313
993.000000	81.751117
992.000000	81.814200
991.000000	81.887832
990.000000	81.972534
989.000000	82.059998
988.000000	82.147091
987.000000	82.239578
986.000000	82.339685
985.000000	82.444177
984.000000	82.557062
983.000000	82.688825
982.000000	82.839798
981.000000	82.999532
980.000000	83.165993
979.000000	83.349736
978.000000	83.555117
977.000000	83.772965
976.000000	83.996458
975.000000	84.229447
974.000000	84.474014
973.000000	84.723674
972.000000	84.974094
971.000000	85.228259
970.000000	85.487112
969.000000	85.747063
968.000000	86.009531
967.000000	86.279869
966.000000	86.553106
965.000000	86.813833
964.000000	87.054978
963.000000	87.284999
962.000000	87.512301
961.000000	87.733918
960.000000	87.945133
959.000000	88.149787
958.000000	88.353975
957.000000	88.556771
956.000000	88.752666
955.000000	88.937224
954.000000	89.107007
953.000000	89.260084
952.000000	89.399877
951.000000	89.533430
950.000000	89.663611
949.000000	89.787154
948.000000	89.900140
947.000000	89.999687
946.000000	90.081320
945.000000	90.142855
944.000000	90.192416
943.000000	90.245783
942.000000	90.312958
941.000000	90.391048
940.000000	90.469863
939.000000	90.539556
938.000000	90.595042
937.000000	90.640000
936.000000	90.685628
935.000000	90.739661
934.000000	90.798721
933.000000	90.857026
932.000000	90.917709
931.000000	90.987224
930.000000	91.063438
929.000000	91.139049
928.000000	91.211731
927.000000	91.279804
926.000000	91.334249
925.000000	91.370611
924.000000	91.405179
923.000000	91.460848
922.000000	91.535058
921.000000	91.598614
920.000000	91.631040
919.000000	91.642512
918.000000	91.655127
917.000000	91.677316
916.000000	91.706281
915.000000	91.743517
914.000000	91.795145
913.000000	91.861516
912.000000	91.935956
911.000000	92.013324
910.000000	92.096504
909.000000	92.196280
908.000000	92.324837
907.000000	92.484751
906.000000	92.663939
905.000000	92.845635
904.000000	93.022681
903.000000	93.198594
902.000000	93.379625
901.000000	93.571681
900.000000	93.778676
899.000000	93.994406
898.000000	94.200891
897.000000	94.385739
896.000000	94.557095
895.000000	94.730625
894.000000	94.906124
893.000000	95.069681
892.000000	95.215909
891.000000	95.353598
890.000000	95.490080
889.000000	95.624797
888.000000	95.760016
887.000000	95.902648
886.000000	96.050117
885.000000	96.188039
884.000000	96.309611
883.000000	96.426015
882.000000	96.548537
881.000000	96.669236
880.000000	96.770870
879.000000	96.851637
878.000000	96.929384
877.000000	97.021589
876.000000	97.130328
875.000000	97.248795
874.000000	97.373593
873.000000	97.503126
872.000000	97.627384
871.000000	97.730980
870.000000	97.812841
869.000000	97.895213
868.000000	98.001938
867.000000	98.130556
866.000000	98.258214
865.000000	98.374356
864.000000	98.490072
863.000000	98.609190
862.000000	98.710252
861.000000	98.774283
860.000000	98.816957
859.000000	98.872745
858.000000	98.952520
857.000000	99.037622
856.000000	99.113313
855.000000	99.183880
854.000000	99.250473
853.000000	99.297565
852.000000	99.315612
851.000000	99.322248
850.000000	99.344679
849.000000	99.388054
848.000000	99.435252
847.000000	99.473163
846.000000	99.505293
845.000000	99.537470
844.000000	99.562115
843.000000	99.563240
842.000000	99.533968
841.000000	99.484404
840.000000	99.431403
839.000000	99.382837
838.000000	99.334082
837.000000	99.278700
836.000000	99.217854
835.000000	99.157632
834.000000	99.102690
833.000000	99.056592
832.000000	99.022944
831.000000	99.000351
830.000000	98.982211
829.000000	98.969525
828.000000	98.975972
827.000000	99.006720
826.000000	99.039201
825.000000	99.045788
824.000000	99.033524
823.000000	99.036758
822.000000	99.067956
821.000000	99.101972
820.000000	99.113960
819.000000	99.106228
818.000000	99.088204
817.000000	99.051180
816.000000	98.978161
815.000000	98.867049
814.000000	98.728717
813.000000	98.566402
812.000000	98.369091
811.000000	98.123175
810.000000	97.820801
809.000000	97.458217
808.000000	97.036025
807.000000	96.563084
806.000000	96.054612
805.000000	95.527034
804.000000	94.999364
803.000000	94.496083
802.000000	94.041696
801.000000	93.654545
800.000000	93.349790
799.000000	93.141830
798.000000	93.036505
797.000000	93.023749
796.000000	93.080853
795.000000	93.180200
794.000000	93.297239
793.000000	93.420451
792.000000	93.553111
791.000000	93.696388
790.000000	93.831008
789.000000	93.923823
788.000000	93.950793
787.000000	93.905471
786.000000	93.791904
785.000000	93.625830
784.000000	93.441315
783.000000	93.275557
782.000000	93.138799
781.000000	93.013434
780.000000	92.890347
779.000000	92.791904
778.000000	92.749922
777.000000	92.775839
776.000000	92.864583
775.000000	93.013304
774.000000	93.217724
773.000000	93.454753
772.000000	93.684928
771.000000	93.876281
770.000000	94.021480
769.000000	94.133129
768.000000	94.229252
767.000000	94.324182
766.000000	94.426555
765.000000	94.538993
764.000000	94.655685
763.000000	94.760960
762.000000	94.837811
761.000000	94.885513
760.000000	94.926301
759.000000	94.986789
758.000000	95.073136
757.000000	95.170997
756.000000	95.267113
755.000000	95.360216
754.000000	95.450967
753.000000	95.534388
752.000000	95.607812
751.000000	95.676844
750.000000	95.747222
749.000000	95.817678
748.000000	95.886536
747.000000	95.959162
746.000000	96.042942
745.000000	96.139715
744.000000	96.247940
743.000000	96.366345
742.000000	96.488767
741.000000	96.601162
740.000000	96.693745
739.000000	96.775464
738.000000	96.868283
737.000000	96.983731
736.000000	97.108783
735.000000	97.217969
734.000000	97.297400
733.000000	97.353661
732.000000	97.401633
731.000000	97.450403
730.000000	97.503337
729.000000	97.564103
728.000000	97.632750
727.000000	97.699032
726.000000	97.751864
725.000000	97.796967
724.000000	97.852407
723.000000	97.921422
722.000000	97.982931
721.000000	98.018022
720.000000	98.034579
719.000000	98.051464
718.000000	98.070977
717.000000	98.090070
716.000000	98.125098
715.000000	98.195221
714.000000	98.282414
713.000000	98.339139
712.000000	98.346397
711.000000	98.337396
710.000000	98.348188
709.000000	98.366702
708.000000	98.354872
707.000000	98.305886
706.000000	98.250691
705.000000	98.209616
704.000000	98.163895
703.000000	98.081974
702.000000	97.952375
701.000000	97.776224
700.000000	97.543683
699.000000	97.242995
698.000000	96.896270
697.000000	96.569719
696.000000	96.333718
695.000000	96.217232
694.000000	96.208035
693.000000	96.285858
692.000000	96.435157
691.000000	96.627113
690.000000	96.818082
689.000000	96.987726
688.000000	97.160181
687.000000	97.358059
686.000000	97.549794
685.000000	97.679609
684.000000	97.745621
683.000000	97.808154
682.000000	97.913497
681.000000	98.043963
680.000000	98.158795
679.000000	98.254057
678.000000	98.347193
677.000000	98.422736
676.000000	98.442511
675.000000	98.409537
674.000000	98.384151
673.000000	98.416643
672.000000	98.488750
671.000000	98.547352
670.000000	98.580800
669.000000	98.654488
668.000000	98.812799
667.000000	98.941945
666.000000	98.993078
665.000000	99.014135
664.000000	99.040667
663.000000	99.078790
662.000000	99.113806
661.000000	99.153508
660.000000	99.235736
659.000000	99.364648
658.000000	99.475776
657.000000	99.509117
656.000000	99.487975
655.000000	99.481007
654.000000	99.509011
653.000000	99.536714
652.000000	99.546276
651.000000	99.563997
650.000000	99.608690
