4000.000000	100.753855
3999.000000	100.753288
3998.000000	100.750750
3997.000000	100.747558
3996.000000	100.745727
3995.000000	100.746190
3994.000000	100.748143
3993.000000	100.750049
3992.000000	100.751180
3991.000000	100.751858
3990.000000	100.752680
3989.000000	100.753731
3988.000000	100.754381
3987.000000	100.753898
3986.000000	100.752242
3985.000000	100.750226
3984.000000	100.748828
3983.000000	100.748255
3982.000000	100.747881
3981.000000	100.747025
3980.000000	100.745629
3979.000000	100.744166
3978.000000	100.743093
3977.000000	100.742540
3976.000000	100.742341
3975.000000	100.742153
3974.000000	100.741575
3973.000000	100.740424
3972.000000	100.739071
3971.000000	100.738411
3970.000000	100.739232
3969.000000	100.741512
3968.000000	100.744257
3967.000000	100.746143
3966.000000	100.746546
3965.000000	100.745982
3964.000000	100.745606
3963.000000	100.746128
3962.000000	100.747038
3961.000000	100.746969
3960.000000	100.744969
3959.000000	100.741374
3958.000000	100.737696
3957.000000	100.735505
3956.000000	100.735260
3955.000000	100.736158
3954.000000	100.736774
3953.000000	100.736147
3952.000000	100.734255
3951.000000	100.731733
3950.000000	100.729391
3949.000000	100.727861
3948.000000	100.727420
3947.000000	100.727880
3946.000000	100.728732
3945.000000	100.729474
3944.000000	100.729823
3943.000000	100.729630
3942.000000	100.728755
3941.000000	100.727208
3940.000000	100.725373
3939.000000	100.723901
3938.000000	100.723235
3937.000000	100.723219
3936.000000	100.723274
3935.000000	100.722897
3934.000000	100.722019
3933.000000	100.720902
3932.000000	100.719857
3931.000000	100.719107
3930.000000	100.718813
3929.000000	100.719144
3928.000000	100.720242
3927.000000	100.722031
3926.000000	100.723933
3925.000000	100.724930
3924.000000	100.724308
3923.000000	100.722340
3922.000000	100.720212
3921.000000	100.719105
3920.000000	100.719264
3919.000000	100.719902
3918.000000	100.719863
3917.000000	100.718562
3916.000000	100.716338
3915.000000	100.714044
3914.000000	100.712390
3913.000000	100.711710
3912.000000	100.711957
3911.000000	100.712759
3910.000000	100.713369
3909.000000	100.712950
3908.000000	100.711375
3907.000000	100.709785
3906.000000	100.710046
3905.000000	100.712990
3904.000000	100.717211
3903.000000	100.720138
3902.000000	100.720599
3901.000000	100.719837
3900.000000	100.720030
3899.000000	100.722121
3898.000000	100.725267
3897.000000	100.727995
3896.000000	100.729499
3895.000000	100.729972
3894.000000	100.730186
3893.000000	100.730796
3892.000000	100.731579
3891.000000	100.731779
3890.000000	100.731219
3889.000000	100.730658
3888.000000	100.731271
3887.000000	100.733486
3886.000000	100.736114
3885.000000	100.737615
3884.000000	100.737915
3883.000000	100.738081
3882.000000	100.738798
3881.000000	100.739458
3880.000000	100.738872
3879.000000	100.736635
3878.000000	100.733389
3877.000000	100.730486
3876.000000	100.729341
3875.000000	100.730465
3874.000000	100.733115
3873.000000	100.736058
3872.000000	100.738673
3871.000000	100.740826
3870.000000	100.742175
3869.000000	100.742530
3868.000000	100.742294
3867.000000	100.742072
3866.000000	100.742095
3865.000000	100.742203
3864.000000	100.742392
3863.000000	100.743006
3862.000000	100.744127
3861.000000	100.745361
3860.000000	100.746237
3859.000000	100.746587
3858.000000	100.746467
3857.000000	100.746057
3856.000000	100.745885
3855.000000	100.746626
3854.000000	100.748191
3853.000000	100.749547
3852.000000	100.749990
3851.000000	100.749607
3850.000000	100.748804
3849.000000	100.747961
3848.000000	100.747319
3847.000000	100.747036
3846.000000	100.747147
3845.000000	100.747546
3844.000000	100.748064
3843.000000	100.748584
3842.000000	100.749091
3841.000000	100.749626
3840.000000	100.750199
3839.000000	100.750763
3838.000000	100.751287
3837.000000	100.751782
3836.000000	100.752230
3835.000000	100.752557
3834.000000	100.752687
3833.000000	100.752606
3832.000000	100.752356
3831.000000	100.752003
3830.000000	100.751622
3829.000000	100.751310
3828.000000	100.751178
3827.000000	100.751246
3826.000000	100.751386
3825.000000	100.751454
3824.000000	100.751488
3823.000000	100.751690
3822.000000	100.752057
3821.000000	100.752307
3820.000000	100.752301
3819.000000	100.752177
3818.000000	100.752172
3817.000000	100.752332
3816.000000	100.752370
3815.000000	100.752051
3814.000000	100.751532
3813.000000	100.751138
3812.000000	100.750994
3811.000000	100.750936
3810.000000	100.750792
3809.000000	100.750575
3808.000000	100.750393
3807.000000	100.750294
3806.000000	100.750256
3805.000000	100.750225
3804.000000	100.750162
3803.000000	100.750036
3802.000000	100.749792
3801.000000	100.749414
3800.000000	100.748955
3799.000000	100.748471
3798.000000	100.747989
3797.000000	100.747512
3796.000000	100.747045
3795.000000	100.746582
3794.000000	100.746111
3793.000000	100.745625
3792.000000	100.745128
3791.000000	100.744627
3790.000000	100.744130
3789.000000	100.743639
3788.000000	100.743153
3787.000000	100.742675
3786.000000	100.742205
3785.000000	100.741735
3784.000000	100.741255
3783.000000	100.740754
3782.000000	100.740225
3781.000000	100.739665
3780.000000	100.739079
3779.000000	100.738472
3778.000000	100.737854
3777.000000	100.737226
3776.000000	100.736592
3775.000000	100.735962
3774.000000	100.735356
3773.000000	100.734790
3772.000000	100.734262
3771.000000	100.733747
3770.000000	100.733218
3769.000000	100.732632
3768.000000	100.731955
3767.000000	100.731250
3766.000000	100.730654
3765.000000	100.730230
3764.000000	100.729807
3763.000000	100.729121
3762.000000	100.728042
3761.000000	100.726690
3760.000000	100.725243
3759.000000	100.723830
3758.000000	100.722608
3757.000000	100.721626
3756.000000	100.720702
3755.000000	100.719646
3754.000000	100.718624
3753.000000	100.717997
3752.000000	100.717695
3751.000000	100.717240
3750.000000	100.716404
3749.000000	100.715093
3748.000000	100.712887
3747.000000	100.710021
3746.000000	100.708523
3745.000000	100.708934
3744.000000	100.708457
3743.000000	100.705999
3742.000000	100.703601
3741.000000	100.703053
3740.000000	100.703957
3739.000000	100.704540
3738.000000	100.703695
3737.000000	100.701140
3736.000000	100.697065
3735.000000	100.692922
3734.000000	100.690538
3733.000000	100.689674
3732.000000	100.688220
3731.000000	100.684695
3730.000000	100.679171
3729.000000	100.672397
3728.000000	100.665089
3727.000000	100.657806
3726.000000	100.651839
3725.000000	100.649152
3724.000000	100.650239
3723.000000	100.652803
3722.000000	100.653325
3721.000000	100.649870
3720.000000	100.642990
3719.000000	100.634649
3718.000000	100.626268
3717.000000	100.617841
3716.000000	100.609029
3715.000000	100.600648
3714.000000	100.594643
3713.000000	100.591934
3712.000000	100.590220
3711.000000	100.585800
3710.000000	100.577873
3709.000000	100.569336
3708.000000	100.563362
3707.000000	100.560182
3706.000000	100.557219
3705.000000	100.551874
3704.000000	100.544276
3703.000000	100.537187
3702.000000	100.532764
3701.000000	100.529653
3700.000000	100.524477
3699.000000	100.516175
3698.000000	100.507432
3697.000000	100.501441
3696.000000	100.498575
3695.000000	100.496842
3694.000000	100.494662
3693.000000	100.492565
3692.000000	100.492147
3691.000000	100.493471
3690.000000	100.493415
3689.000000	100.488148
3688.000000	100.478226
3687.000000	100.468676
3686.000000	100.463397
3685.000000	100.461578
3684.000000	100.459152
3683.000000	100.452925
3682.000000	100.443751
3681.000000	100.434861
3680.000000	100.427393
3679.000000	100.419652
3678.000000	100.411911
3677.000000	100.408035
3676.000000	100.408126
3675.000000	100.406905
3674.000000	100.401100
3673.000000	100.391444
3672.000000	100.380740
3671.000000	100.370495
3670.000000	100.358894
3669.000000	100.345393
3668.000000	100.332417
3667.000000	100.321590
3666.000000	100.312588
3665.000000	100.304702
3664.000000	100.298028
3663.000000	100.293290
3662.000000	100.290366
3661.000000	100.286747
3660.000000	100.278607
3659.000000	100.264120
3658.000000	100.246192
3657.000000	100.230503
3656.000000	100.220059
3655.000000	100.212419
3654.000000	100.202392
3653.000000	100.187550
3652.000000	100.171123
3651.000000	100.159281
3650.000000	100.155450
3649.000000	100.156787
3648.000000	100.155836
3647.000000	100.148087
3646.000000	100.135759
3645.000000	100.123980
3644.000000	100.116439
3643.000000	100.113563
3642.000000	100.112650
3641.000000	100.110170
3640.000000	100.104763
3639.000000	100.097772
3638.000000	100.091564
3637.000000	100.087861
3636.000000	100.087058
3635.000000	100.087412
3634.000000	100.084895
3633.000000	100.075692
3632.000000	100.059963
3631.000000	100.044042
3630.000000	100.034470
3629.000000	100.030250
3628.000000	100.028019
3627.000000	100.028196
3626.000000	100.032460
3625.000000	100.040701
3624.000000	100.050315
3623.000000	100.057712
3622.000000	100.060858
3621.000000	100.059854
3620.000000	100.056267
3619.000000	100.053554
3618.000000	100.055873
3617.000000	100.064116
3616.000000	100.075172
3615.000000	100.084979
3614.000000	100.091080
3613.000000	100.093798
3612.000000	100.095824
3611.000000	100.100572
3610.000000	100.110606
3609.000000	100.126303
3608.000000	100.145026
3607.000000	100.161913
3606.000000	100.172303
3605.000000	100.174239
3604.000000	100.169848
3603.000000	100.164562
3602.000000	100.163979
3601.000000	100.170063
3600.000000	100.180498
3599.000000	100.191588
3598.000000	100.201148
3597.000000	100.208541
3596.000000	100.213467
3595.000000	100.215664
3594.000000	100.215680
3593.000000	100.215139
3592.000000	100.215606
3591.000000	100.217928
3590.000000	100.222564
3589.000000	100.229499
3588.000000	100.237998
3587.000000	100.246899
3586.000000	100.254315
3585.000000	100.257818
3584.000000	100.256397
3583.000000	100.251794
3582.000000	100.247700
3581.000000	100.247027
3580.000000	100.249838
3579.000000	100.253967
3578.000000	100.257237
3577.000000	100.259040
3576.000000	100.260191
3575.000000	100.261935
3574.000000	100.264925
3573.000000	100.268651
3572.000000	100.271749
3571.000000	100.273238
3570.000000	100.273633
3569.000000	100.274568
3568.000000	100.276985
3567.000000	100.279941
3566.000000	100.281685
3565.000000	100.281695
3564.000000	100.281063
3563.000000	100.281347
3562.000000	100.283387
3561.000000	100.287021
3560.000000	100.291371
3559.000000	100.295291
3558.000000	100.297915
3557.000000	100.299086
3556.000000	100.299408
3555.000000	100.299938
3554.000000	100.301513
3553.000000	100.304207
3552.000000	100.307389
3551.000000	100.310364
3550.000000	100.312946
3549.000000	100.315302
3548.000000	100.317379
3547.000000	100.318769
3546.000000	100.319260
3545.000000	100.319344
3544.000000	100.319906
3543.000000	100.321518
3542.000000	100.324154
3541.000000	100.327290
3540.000000	100.330184
3539.000000	100.332247
3538.000000	100.333343
3537.000000	100.333765
3536.000000	100.333915
3535.000000	100.334126
3534.000000	100.334959
3533.000000	100.337385
3532.000000	100.342194
3531.000000	100.349048
3530.000000	100.356236
3529.000000	100.361744
3528.000000	100.364558
3527.000000	100.364874
3526.000000	100.363341
3525.000000	100.360586
3524.000000	100.357396
3523.000000	100.354859
3522.000000	100.353981
3521.000000	100.355105
3520.000000	100.357869
3519.000000	100.361418
3518.000000	100.364615
3517.000000	100.366400
3516.000000	100.366433
3515.000000	100.365404
3514.000000	100.364426
3513.000000	100.363949
3512.000000	100.363494
3511.000000	100.362677
3510.000000	100.362238
3509.000000	100.363392
3508.000000	100.366111
3507.000000	100.368652
3506.000000	100.369099
3505.000000	100.366987
3504.000000	100.363389
3503.000000	100.359847
3502.000000	100.357461
3501.000000	100.356850
3500.000000	100.358274
3499.000000	100.361489
3498.000000	100.365850
3497.000000	100.370762
3496.000000	100.375711
3495.000000	100.379747
3494.000000	100.381590
3493.000000	100.380823
3492.000000	100.378765
3491.000000	100.377624
3490.000000	100.378482
3489.000000	100.380552
3488.000000	100.382458
3487.000000	100.383824
3486.000000	100.385181
3485.000000	100.386639
3484.000000	100.387370
3483.000000	100.386621
3482.000000	100.384882
3481.000000	100.383740
3480.000000	100.384290
3479.000000	100.386006
3478.000000	100.387355
3477.000000	100.387492
3476.000000	100.387172
3475.000000	100.387941
3474.000000	100.390584
3473.000000	100.394511
3472.000000	100.398295
3471.000000	100.400839
3470.000000	100.402045
3469.000000	100.402594
3468.000000	100.403276
3467.000000	100.404407
3466.000000	100.405788
3465.000000	100.407042
3464.000000	100.407860
3463.000000	100.408110
3462.000000	100.407911
3461.000000	100.407618
3460.000000	100.407636
3459.000000	100.408112
3458.000000	100.408849
3457.000000	100.409517
3456.000000	100.409991
3455.000000	100.410510
3454.000000	100.411503
3453.000000	100.413164
3452.000000	100.415159
3451.000000	100.416806
3450.000000	100.417652
3449.000000	100.417846
3448.000000	100.417912
3447.000000	100.418245
3446.000000	100.418885
3445.000000	100.419761
3444.000000	100.420911
3443.000000	100.422384
3442.000000	100.424098
3441.000000	100.425921
3440.000000	100.427711
3439.000000	100.429132
3438.000000	100.429639
3437.000000	100.429011
3436.000000	100.427924
3435.000000	100.427634
3434.000000	100.428923
3433.000000	100.431489
3432.000000	100.434197
3431.000000	100.435970
3430.000000	100.436561
3429.000000	100.436624
3428.000000	100.437150
3427.000000	100.438480
3426.000000	100.439730
3425.000000	100.439437
3424.000000	100.436996
3423.000000	100.433456
3422.000000	100.430815
3421.000000	100.430316
3420.000000	100.431746
3419.000000	100.433987
3418.000000	100.435955
3417.000000	100.437116
3416.000000	100.437614
3415.000000	100.438247
3414.000000	100.439921
3413.000000	100.442700
3412.000000	100.445523
3411.000000	100.447139
3410.000000	100.447267
3409.000000	100.446768
3408.000000	100.446901
3407.000000	100.448513
3406.000000	100.451632
3405.000000	100.455356
3404.000000	100.458190
3403.000000	100.459004
3402.000000	100.457905
3401.000000	100.456084
3400.000000	100.454674
3399.000000	100.453771
3398.000000	100.452653
3397.000000	100.450790
3396.000000	100.448560
3395.000000	100.447014
3394.000000	100.447039
3393.000000	100.448739
3392.000000	100.451385
3391.000000	100.453743
3390.000000	100.454550
3389.000000	100.453015
3388.000000	100.449351
3387.000000	100.445044
3386.000000	100.442081
3385.000000	100.441439
3384.000000	100.442382
3383.000000	100.443263
3382.000000	100.443035
3381.000000	100.441903
3380.000000	100.440622
3379.000000	100.439523
3378.000000	100.438390
3377.000000	100.437090
3376.000000	100.436099
3375.000000	100.436209
3374.000000	100.437730
3373.000000	100.440038
3372.000000	100.441908
3371.000000	100.442357
3370.000000	100.441287
3369.000000	100.439547
3368.000000	100.438462
3367.000000	100.439005
3366.000000	100.441118
3365.000000	100.443668
3364.000000	100.445227
3363.000000	100.445267
3362.000000	100.444476
3361.000000	100.443857
3360.000000	100.443670
3359.000000	100.443427
3358.000000	100.442810
3357.000000	100.442157
3356.000000	100.441881
3355.000000	100.441765
3354.000000	100.441280
3353.000000	100.440523
3352.000000	100.440342
3351.000000	100.441334
3350.000000	100.443013
3349.000000	100.444224
3348.000000	100.444234
3347.000000	100.443198
3346.000000	100.441809
3345.000000	100.440772
3344.000000	100.440541
3343.000000	100.441260
3342.000000	100.442673
3341.000000	100.444088
3340.000000	100.444585
3339.000000	100.443496
3338.000000	100.440876
3337.000000	100.437632
3336.000000	100.434942
3335.000000	100.433322
3334.000000	100.432390
3333.000000	100.431545
3332.000000	100.430715
3331.000000	100.430282
3330.000000	100.430414
3329.000000	100.430812
3328.000000	100.431069
3327.000000	100.430920
3326.000000	100.430057
3325.000000	100.428132
3324.000000	100.425273
3323.000000	100.422413
3322.000000	100.420701
3321.000000	100.420587
3320.000000	100.421580
3319.000000	100.422735
3318.000000	100.423331
3317.000000	100.423150
3316.000000	100.422406
3315.000000	100.421538
3314.000000	100.420825
3313.000000	100.420055
3312.000000	100.418671
3311.000000	100.416406
3310.000000	100.413727
3309.000000	100.411566
3308.000000	100.410452
3307.000000	100.410012
3306.000000	100.409425
3305.000000	100.408435
3304.000000	100.407739
3303.000000	100.408147
3302.000000	100.409437
3301.000000	100.410280
3300.000000	100.409608
3299.000000	100.407712
3298.000000	100.405728
3297.000000	100.404141
3296.000000	100.402284
3295.000000	100.399452
3294.000000	100.395924
3293.000000	100.392750
3292.000000	100.390726
3291.000000	100.389870
3290.000000	100.389721
3289.000000	100.389741
3288.000000	100.389419
3287.000000	100.388258
3286.000000	100.385963
3285.000000	100.382751
3284.000000	100.379366
3283.000000	100.376663
3282.000000	100.375081
3281.000000	100.374511
3280.000000	100.374552
3279.000000	100.374717
3278.000000	100.374501
3277.000000	100.373539
3276.000000	100.371827
3275.000000	100.369781
3274.000000	100.367938
3273.000000	100.366530
3272.000000	100.365393
3271.000000	100.364196
3270.000000	100.362716
3269.000000	100.360956
3268.000000	100.359120
3267.000000	100.357458
3266.000000	100.356039
3265.000000	100.354701
3264.000000	100.353262
3263.000000	100.351780
3262.000000	100.350497
3261.000000	100.349532
3260.000000	100.348744
3259.000000	100.347902
3258.000000	100.346907
3257.000000	100.345785
3256.000000	100.344552
3255.000000	100.343184
3254.000000	100.341684
3253.000000	100.340149
3252.000000	100.338722
3251.000000	100.337482
3250.000000	100.336390
3249.000000	100.335390
3248.000000	100.334521
3247.000000	100.333881
3246.000000	100.333462
3245.000000	100.333046
3244.000000	100.332345
3243.000000	100.331282
3242.000000	100.330026
3241.000000	100.328857
3240.000000	100.327905
3239.000000	100.327108
3238.000000	100.326316
3237.000000	100.325397
3236.000000	100.324315
3235.000000	100.323138
3234.000000	100.322000
3233.000000	100.320990
3232.000000	100.320094
3231.000000	100.319220
3230.000000	100.318294
3229.000000	100.317320
3228.000000	100.316368
3227.000000	100.315499
3226.000000	100.314696
3225.000000	100.313893
3224.000000	100.313084
3223.000000	100.312339
3222.000000	100.311690
3221.000000	100.311039
3220.000000	100.310248
3219.000000	100.309312
3218.000000	100.308376
3217.000000	100.307542
3216.000000	100.306751
3215.000000	100.305944
3214.000000	100.305266
3213.000000	100.304921
3212.000000	100.304823
3211.000000	100.304541
3210.000000	100.303698
3209.000000	100.302374
3208.000000	100.301075
3207.000000	100.300298
3206.000000	100.300192
3205.000000	100.300531
3204.000000	100.300920
3203.000000	100.301056
3202.000000	100.300899
3201.000000	100.300581
3200.000000	100.300136
3199.000000	100.299408
3198.000000	100.298256
3197.000000	100.296798
3196.000000	100.295302
3195.000000	100.293909
3194.000000	100.292687
3193.000000	100.291916
3192.000000	100.292083
3191.000000	100.293462
3190.000000	100.295699
3189.000000	100.297863
3188.000000	100.299019
3187.000000	100.298773
3186.000000	100.297280
3185.000000	100.294874
3184.000000	100.291870
3183.000000	100.288779
3182.000000	100.286474
3181.000000	100.285706
3180.000000	100.286413
3179.000000	100.287618
3178.000000	100.288209
3177.000000	100.287817
3176.000000	100.286766
3175.000000	100.285531
3174.000000	100.284485
3173.000000	100.283988
3172.000000	100.284345
3171.000000	100.285572
3170.000000	100.287303
3169.000000	100.288875
3168.000000	100.289459
3167.000000	100.288403
3166.000000	100.285782
3165.000000	100.282639
3164.000000	100.280284
3163.000000	100.279181
3162.000000	100.278899
3161.000000	100.279027
3160.000000	100.279672
3159.000000	100.280872
3158.000000	100.282145
3157.000000	100.283005
3156.000000	100.283537
3155.000000	100.284095
3154.000000	100.284736
3153.000000	100.285352
3152.000000	100.286053
3151.000000	100.286846
3150.000000	100.287099
3149.000000	100.286029
3148.000000	100.283814
3147.000000	100.281735
3146.000000	100.280913
3145.000000	100.281349
3144.000000	100.282228
3143.000000	100.282805
3142.000000	100.282844
3141.000000	100.282596
3140.000000	100.282620
3139.000000	100.283295
3138.000000	100.284231
3137.000000	100.284471
3136.000000	100.283680
3135.000000	100.282830
3134.000000	100.283257
3133.000000	100.285149
3132.000000	100.287405
3131.000000	100.289023
3130.000000	100.290337
3129.000000	100.292582
3128.000000	100.296291
3127.000000	100.300282
3126.000000	100.302488
3125.000000	100.301877
3124.000000	100.299481
3123.000000	100.297443
3122.000000	100.296797
3121.000000	100.296513
3120.000000	100.294866
3119.000000	100.291526
3118.000000	100.288099
3117.000000	100.286522
3116.000000	100.287186
3115.000000	100.288876
3114.000000	100.290399
3113.000000	100.291850
3112.000000	100.294080
3111.000000	100.297488
3110.000000	100.301876
3109.000000	100.307038
3108.000000	100.312572
3107.000000	100.317114
3106.000000	100.318801
3105.000000	100.316971
3104.000000	100.312912
3103.000000	100.308736
3102.000000	100.305729
3101.000000	100.304268
3100.000000	100.304596
3099.000000	100.306721
3098.000000	100.309917
3097.000000	100.313202
3096.000000	100.316335
3095.000000	100.319547
3094.000000	100.322256
3093.000000	100.323034
3092.000000	100.321263
3091.000000	100.318186
3090.000000	100.315865
3089.000000	100.315159
3088.000000	100.315253
3087.000000	100.314993
3086.000000	100.314246
3085.000000	100.313850
3084.000000	100.314451
3083.000000	100.315700
3082.000000	100.316724
3081.000000	100.317330
3080.000000	100.318359
3079.000000	100.320556
3078.000000	100.323360
3077.000000	100.325226
3076.000000	100.325194
3075.000000	100.323724
3074.000000	100.322081
3073.000000	100.321231
3072.000000	100.321383
3071.000000	100.322184
3070.000000	100.323040
3069.000000	100.323564
3068.000000	100.323969
3067.000000	100.324777
3066.000000	100.325926
3065.000000	100.326575
3064.000000	100.326259
3063.000000	100.325991
3062.000000	100.327553
3061.000000	100.331667
3060.000000	100.337102
3059.000000	100.341555
3058.000000	100.343544
3057.000000	100.343279
3056.000000	100.342063
3055.000000	100.340966
3054.000000	100.340158
3053.000000	100.339524
3052.000000	100.339438
3051.000000	100.340408
3050.000000	100.342044
3049.000000	100.343137
3048.000000	100.343199
3047.000000	100.343272
3046.000000	100.344445
3045.000000	100.345843
3044.000000	100.345158
3043.000000	100.341353
3042.000000	100.336070
3041.000000	100.331880
3040.000000	100.329564
3039.000000	100.327964
3038.000000	100.326278
3037.000000	100.325582
3036.000000	100.327508
3035.000000	100.331958
3034.000000	100.336993
3033.000000	100.341020
3032.000000	100.344286
3031.000000	100.347796
3030.000000	100.351622
3029.000000	100.355093
3028.000000	100.357998
3027.000000	100.360498
3026.000000	100.362160
3025.000000	100.362086
3024.000000	100.359938
3023.000000	100.356026
3022.000000	100.350572
3021.000000	100.343969
3020.000000	100.337793
3019.000000	100.334394
3018.000000	100.334997
3017.000000	100.339063
3016.000000	100.345641
3015.000000	100.353770
3014.000000	100.361335
3013.000000	100.365625
3012.000000	100.365973
3011.000000	100.364295
3010.000000	100.362306
3009.000000	100.360160
3008.000000	100.358833
3007.000000	100.361404
3006.000000	100.369622
3005.000000	100.380482
3004.000000	100.388805
3003.000000	100.392960
3002.000000	100.395673
3001.000000	100.399233
3000.000000	100.402302
2999.000000	100.402318
2998.000000	100.399405
2997.000000	100.396701
2996.000000	100.397668
2995.000000	100.403934
2994.000000	100.415118
2993.000000	100.429492
2992.000000	100.444405
2991.000000	100.456884
2990.000000	100.465269
2989.000000	100.471329
2988.000000	100.480105
2987.000000	100.495952
2986.000000	100.518208
2985.000000	100.541837
2984.000000	100.562640
2983.000000	100.580351
2982.000000	100.596432
2981.000000	100.611343
2980.000000	100.625709
2979.000000	100.641835
2978.000000	100.660536
2977.000000	100.676724
2976.000000	100.681422
2975.000000	100.669449
2974.000000	100.644093
2973.000000	100.614054
2972.000000	100.586457
2971.000000	100.562476
2970.000000	100.538158
2969.000000	100.508725
2968.000000	100.473466
2967.000000	100.437602
2966.000000	100.408534
2965.000000	100.389273
2964.000000	100.375797
2963.000000	100.361029
2962.000000	100.340941
2961.000000	100.316846
2960.000000	100.293001
2959.000000	100.273046
2958.000000	100.258334
2957.000000	100.248534
2956.000000	100.242923
2955.000000	100.240732
2954.000000	100.240685
2953.000000	100.241444
2952.000000	100.243167
2951.000000	100.247446
2950.000000	100.254069
2949.000000	100.258311
2948.000000	100.253468
2947.000000	100.236936
2946.000000	100.213151
2945.000000	100.190252
2944.000000	100.174350
2943.000000	100.166491
2942.000000	100.163173
2941.000000	100.158600
2940.000000	100.147318
2939.000000	100.126491
2938.000000	100.096864
2937.000000	100.062498
2936.000000	100.029599
2935.000000	100.003742
2934.000000	99.985983
2933.000000	99.971663
2932.000000	99.954934
2931.000000	99.935064
2930.000000	99.916759
2929.000000	99.903871
2928.000000	99.894857
2927.000000	99.885696
2926.000000	99.875502
2925.000000	99.867416
2924.000000	99.864907
2923.000000	99.869234
2922.000000	99.880345
2921.000000	99.898660
2920.000000	99.925357
2919.000000	99.961052
2918.000000	100.003674
2917.000000	100.047241
2916.000000	100.084041
2915.000000	100.109902
2914.000000	100.127732
2913.000000	100.145107
2912.000000	100.167788
2911.000000	100.195137
2910.000000	100.221046
2909.000000	100.239046
2908.000000	100.247696
2907.000000	100.252381
2906.000000	100.261701
2905.000000	100.280550
2904.000000	100.305891
2903.000000	100.329479
2902.000000	100.345053
2901.000000	100.353112
2900.000000	100.359287
2899.000000	100.368726
2898.000000	100.381753
2897.000000	100.394138
2896.000000	100.401269
2895.000000	100.402532
2894.000000	100.402010
2893.000000	100.404854
2892.000000	100.412819
2891.000000	100.423260
2890.000000	100.432008
2889.000000	100.436737
2888.000000	100.437975
2887.000000	100.438120
2886.000000	100.440041
2885.000000	100.445636
2884.000000	100.454265
2883.000000	100.462197
2882.000000	100.464483
2881.000000	100.458594
2880.000000	100.446792
2879.000000	100.434852
2878.000000	100.427883
2877.000000	100.426662
2876.000000	100.427668
2875.000000	100.426709
2874.000000	100.422789
2873.000000	100.418667
2872.000000	100.417590
2871.000000	100.419412
2870.000000	100.420205
2869.000000	100.415819
2868.000000	100.405555
2867.000000	100.392153
2866.000000	100.378507
2865.000000	100.364914
2864.000000	100.349366
2863.000000	100.329747
2862.000000	100.305446
2861.000000	100.277573
2860.000000	100.248620
2859.000000	100.222043
2858.000000	100.201325
2857.000000	100.188597
2856.000000	100.183510
2855.000000	100.183462
2854.000000	100.185688
2853.000000	100.189994
2852.000000	100.199140
2851.000000	100.215616
2850.000000	100.238100
2849.000000	100.262220
2848.000000	100.285284
2847.000000	100.308769
2846.000000	100.334834
2845.000000	100.361572
2844.000000	100.383648
2843.000000	100.397542
2842.000000	100.404646
2841.000000	100.409353
2840.000000	100.415748
2839.000000	100.426109
2838.000000	100.440204
2837.000000	100.454654
2836.000000	100.464767
2835.000000	100.469105
2834.000000	100.471537
2833.000000	100.476941
2832.000000	100.485102
2831.000000	100.490911
2830.000000	100.490707
2829.000000	100.486396
2828.000000	100.482619
2827.000000	100.481785
2826.000000	100.483556
2825.000000	100.487725
2824.000000	100.494826
2823.000000	100.503692
2822.000000	100.510758
2821.000000	100.513323
2820.000000	100.512559
2819.000000	100.511967
2818.000000	100.513196
2817.000000	100.514653
2816.000000	100.514301
2815.000000	100.512443
2814.000000	100.510932
2813.000000	100.510481
2812.000000	100.510151
2811.000000	100.509650
2810.000000	100.510916
2809.000000	100.516357
2808.000000	100.525724
2807.000000	100.535420
2806.000000	100.541264
2805.000000	100.541696
2804.000000	100.538314
2803.000000	100.534069
2802.000000	100.531301
2801.000000	100.531023
2800.000000	100.532996
2799.000000	100.536041
2798.000000	100.538892
2797.000000	100.541171
2796.000000	100.543249
2795.000000	100.545029
2794.000000	100.545460
2793.000000	100.543670
2792.000000	100.540176
2791.000000	100.536584
2790.000000	100.534271
2789.000000	100.533769
2788.000000	100.535053
2787.000000	100.537714
2786.000000	100.540805
2785.000000	100.543063
2784.000000	100.543756
2783.000000	100.543329
2782.000000	100.543126
2781.000000	100.544287
2780.000000	100.546847
2779.000000	100.549851
2778.000000	100.552269
2777.000000	100.553830
2776.000000	100.554896
2775.000000	100.555746
2774.000000	100.556283
2773.000000	100.556480
2772.000000	100.556774
2771.000000	100.557706
2770.000000	100.559310
2769.000000	100.561148
2768.000000	100.562911
2767.000000	100.564687
2766.000000	100.566647
2765.000000	100.568726
2764.000000	100.570631
2763.000000	100.571952
2762.000000	100.572374
2761.000000	100.572010
2760.000000	100.571517
2759.000000	100.571620
2758.000000	100.572396
2757.000000	100.573273
2756.000000	100.573743
2755.000000	100.573958
2754.000000	100.574523
2753.000000	100.575826
2752.000000	100.577734
2751.000000	100.579722
2750.000000	100.581224
2749.000000	100.582023
2748.000000	100.582334
2747.000000	100.582621
2746.000000	100.583237
2745.000000	100.584242
2744.000000	100.585533
2743.000000	100.586936
2742.000000	100.588166
2741.000000	100.588927
2740.000000	100.589176
2739.000000	100.589201
2738.000000	100.589346
2737.000000	100.589706
2736.000000	100.590198
2735.000000	100.590783
2734.000000	100.591474
2733.000000	100.592229
2732.000000	100.592968
2731.000000	100.593643
2730.000000	100.594125
2729.000000	100.594149
2728.000000	100.593595
2727.000000	100.592743
2726.000000	100.592080
2725.000000	100.591853
2724.000000	100.592006
2723.000000	100.592452
2722.000000	100.593183
2721.000000	100.594101
2720.000000	100.594906
2719.000000	100.595309
2718.000000	100.595238
2717.000000	100.594856
2716.000000	100.594469
2715.000000	100.594295
2714.000000	100.594308
2713.000000	100.594308
2712.000000	100.594183
2711.000000	100.594045
2710.000000	100.594038
2709.000000	100.594129
2708.000000	100.594213
2707.000000	100.594294
2706.000000	100.594387
2705.000000	100.594420
2704.000000	100.594341
2703.000000	100.594192
2702.000000	100.594036
2701.000000	100.593872
2700.000000	100.593691
2699.000000	100.593523
2698.000000	100.593388
2697.000000	100.593280
2696.000000	100.593190
2695.000000	100.593108
2694.000000	100.593031
2693.000000	100.592960
2692.000000	100.592894
2691.000000	100.592836
2690.000000	100.592788
2689.000000	100.592752
2688.000000	100.592726
2687.000000	100.592705
2686.000000	100.592690
2685.000000	100.592679
2684.000000	100.592668
2683.000000	100.592649
2682.000000	100.592609
2681.000000	100.592545
2680.000000	100.592458
2679.000000	100.592360
2678.000000	100.592265
2677.000000	100.592180
2676.000000	100.592101
2675.000000	100.592018
2674.000000	100.591925
2673.000000	100.591823
2672.000000	100.591721
2671.000000	100.591626
2670.000000	100.591543
2669.000000	100.591476
2668.000000	100.591419
2667.000000	100.591347
2666.000000	100.591220
2665.000000	100.591044
2664.000000	100.590902
2663.000000	100.590893
2662.000000	100.591036
2661.000000	100.591259
2660.000000	100.591504
2659.000000	100.591781
2658.000000	100.592126
2657.000000	100.592491
2656.000000	100.592722
2655.000000	100.592679
2654.000000	100.592372
2653.000000	100.591969
2652.000000	100.591665
2651.000000	100.591581
2650.000000	100.591742
2649.000000	100.592052
2648.000000	100.592289
2647.000000	100.592245
2646.000000	100.591914
2645.000000	100.591505
2644.000000	100.591194
2643.000000	100.590925
2642.000000	100.590557
2641.000000	100.590110
2640.000000	100.589722
2639.000000	100.589429
2638.000000	100.589211
2637.000000	100.589208
2636.000000	100.589682
2635.000000	100.590665
2634.000000	100.591760
2633.000000	100.592415
2632.000000	100.592371
2631.000000	100.591868
2630.000000	100.591511
2629.000000	100.591807
2628.000000	100.592755
2627.000000	100.593817
2626.000000	100.594399
2625.000000	100.594359
2624.000000	100.593980
2623.000000	100.593595
2622.000000	100.593328
2621.000000	100.593234
2620.000000	100.593395
2619.000000	100.593791
2618.000000	100.594232
2617.000000	100.594535
2616.000000	100.594681
2615.000000	100.594693
2614.000000	100.594518
2613.000000	100.594139
2612.000000	100.593707
2611.000000	100.593408
2610.000000	100.593240
2609.000000	100.593072
2608.000000	100.592922
2607.000000	100.593011
2606.000000	100.593457
2605.000000	100.594119
2604.000000	100.594750
2603.000000	100.595189
2602.000000	100.595375
2601.000000	100.595308
2600.000000	100.595104
2599.000000	100.594996
2598.000000	100.595158
2597.000000	100.595588
2596.000000	100.596120
2595.000000	100.596545
2594.000000	100.596753
2593.000000	100.596766
2592.000000	100.596701
2591.000000	100.596685
2590.000000	100.596750
2589.000000	100.596820
2588.000000	100.596840
2587.000000	100.596907
2586.000000	100.597180
2585.000000	100.597673
2584.000000	100.598236
2583.000000	100.598745
2582.000000	100.599209
2581.000000	100.599691
2580.000000	100.600212
2579.000000	100.600741
2578.000000	100.601194
2577.000000	100.601510
2576.000000	100.601783
2575.000000	100.602196
2574.000000	100.602652
2573.000000	100.602673
2572.000000	100.601938
2571.000000	100.600851
2570.000000	100.600263
2569.000000	100.600580
2568.000000	100.601577
2567.000000	100.602967
2566.000000	100.604669
2565.000000	100.606400
2564.000000	100.607596
2563.000000	100.608076
2562.000000	100.608349
2561.000000	100.608860
2560.000000	100.609265
2559.000000	100.608947
2558.000000	100.607993
2557.000000	100.607185
2556.000000	100.607159
2555.000000	100.608032
2554.000000	100.609662
2553.000000	100.611721
2552.000000	100.613550
2551.000000	100.614615
2550.000000	100.615210
2549.000000	100.616265
2548.000000	100.618305
2547.000000	100.620832
2546.000000	100.622816
2545.000000	100.623664
2544.000000	100.623471
2543.000000	100.622690
2542.000000	100.621856
2541.000000	100.621458
2540.000000	100.621789
2539.000000	100.622804
2538.000000	100.624161
2537.000000	100.625473
2536.000000	100.626558
2535.000000	100.627462
2534.000000	100.628298
2533.000000	100.629069
2532.000000	100.629636
2531.000000	100.629870
2530.000000	100.629862
2529.000000	100.629931
2528.000000	100.630358
2527.000000	100.631151
2526.000000	100.632081
2525.000000	100.632909
2524.000000	100.633555
2523.000000	100.634087
2522.000000	100.634598
2521.000000	100.635146
2520.000000	100.635764
2519.000000	100.636459
2518.000000	100.637147
2517.000000	100.637645
2516.000000	100.637838
2515.000000	100.637917
2514.000000	100.638297
2513.000000	100.639220
2512.000000	100.640483
2511.000000	100.641523
2510.000000	100.641969
2509.000000	100.641909
2508.000000	100.641739
2507.000000	100.641701
2506.000000	100.641727
2505.000000	100.641727
2504.000000	100.641769
2503.000000	100.641960
2502.000000	100.642308
2501.000000	100.642736
2500.000000	100.643183
2499.000000	100.643631
2498.000000	100.644055
2497.000000	100.644436
2496.000000	100.644815
2495.000000	100.645285
2494.000000	100.645909
2493.000000	100.646635
2492.000000	100.647314
2491.000000	100.647823
2490.000000	100.648201
2489.000000	100.648652
2488.000000	100.649349
2487.000000	100.650224
2486.000000	100.651045
2485.000000	100.651708
2484.000000	100.652359
2483.000000	100.653177
2482.000000	100.654136
2481.000000	100.655048
2480.000000	100.655811
2479.000000	100.656494
2478.000000	100.657188
2477.000000	100.657894
2476.000000	100.658566
2475.000000	100.659249
2474.000000	100.660097
2473.000000	100.661214
2472.000000	100.662554
2471.000000	100.663894
2470.000000	100.664991
2469.000000	100.665799
2468.000000	100.666446
2467.000000	100.667121
2466.000000	100.667895
2465.000000	100.668737
2464.000000	100.669643
2463.000000	100.670662
2462.000000	100.671823
2461.000000	100.673076
2460.000000	100.674334
2459.000000	100.675550
2458.000000	100.676724
2457.000000	100.677876
2456.000000	100.679029
2455.000000	100.680205
2454.000000	100.681401
2453.000000	100.682587
2452.000000	100.683720
2451.000000	100.684791
2450.000000	100.685816
2449.000000	100.686819
2448.000000	100.687819
2447.000000	100.688831
2446.000000	100.689864
2445.000000	100.690910
2444.000000	100.691953
2443.000000	100.692969
2442.000000	100.693945
2441.000000	100.694882
2440.000000	100.695806
2439.000000	100.696747
2438.000000	100.697718
2437.000000	100.698698
2436.000000	100.699635
2435.000000	100.700493
2434.000000	100.701270
2433.000000	100.701992
2432.000000	100.702688
2431.000000	100.703367
2430.000000	100.704015
2429.000000	100.704606
2428.000000	100.705141
2427.000000	100.705678
2426.000000	100.706295
2425.000000	100.707012
2424.000000	100.707777
2423.000000	100.708482
2422.000000	100.709017
2421.000000	100.709324
2420.000000	100.709461
2419.000000	100.709622
2418.000000	100.710008
2417.000000	100.710660
2416.000000	100.711370
2415.000000	100.711807
2414.000000	100.711761
2413.000000	100.711241
2412.000000	100.710432
2411.000000	100.709635
2410.000000	100.709104
2409.000000	100.708946
2408.000000	100.709041
2407.000000	100.709123
2406.000000	100.709046
2405.000000	100.708761
2404.000000	100.708376
2403.000000	100.707950
2402.000000	100.707468
2401.000000	100.706926
2400.000000	100.706310
2399.000000	100.705619
2398.000000	100.704859
2397.000000	100.704039
2396.000000	100.703169
2395.000000	100.702266
2394.000000	100.701341
2393.000000	100.700397
2392.000000	100.699432
2391.000000	100.698441
2390.000000	100.697422
2389.000000	100.696377
2388.000000	100.695310
2387.000000	100.694221
2386.000000	100.693106
2385.000000	100.691953
2384.000000	100.690748
2383.000000	100.689484
2382.000000	100.688161
2381.000000	100.686787
2380.000000	100.685379
2379.000000	100.683952
2378.000000	100.682525
2377.000000	100.681106
2376.000000	100.679689
2375.000000	100.678257
2374.000000	100.676801
2373.000000	100.675327
2372.000000	100.673847
2371.000000	100.672373
2370.000000	100.670909
2369.000000	100.669454
2368.000000	100.668002
2367.000000	100.666552
2366.000000	100.665102
2365.000000	100.663633
2364.000000	100.662103
2363.000000	100.660477
2362.000000	100.658762
2361.000000	100.657017
2360.000000	100.655316
2359.000000	100.653703
2358.000000	100.652186
2357.000000	100.650756
2356.000000	100.649404
2355.000000	100.648119
2354.000000	100.646883
2353.000000	100.645675
2352.000000	100.644483
2351.000000	100.643308
2350.000000	100.642161
2349.000000	100.641072
2348.000000	100.640076
2347.000000	100.639175
2346.000000	100.638298
2345.000000	100.637322
2344.000000	100.636154
2343.000000	100.634826
2342.000000	100.633513
2341.000000	100.632431
2340.000000	100.631714
2339.000000	100.631312
2338.000000	100.631128
2337.000000	100.631151
2336.000000	100.631364
2335.000000	100.631560
2334.000000	100.631446
2333.000000	100.630920
2332.000000	100.630234
2331.000000	100.629826
2330.000000	100.630078
2329.000000	100.631064
2328.000000	100.632262
2327.000000	100.632716
2326.000000	100.631694
2325.000000	100.629439
2324.000000	100.626955
2323.000000	100.625035
2322.000000	100.623852
2321.000000	100.623755
2320.000000	100.625587
2319.000000	100.629002
2318.000000	100.632308
2317.000000	100.634227
2316.000000	100.635035
2315.000000	100.635824
2314.000000	100.637245
2313.000000	100.639195
2312.000000	100.641362
2311.000000	100.643490
2310.000000	100.645291
2309.000000	100.646677
2308.000000	100.648000
2307.000000	100.649529
2306.000000	100.650712
2305.000000	100.650652
2304.000000	100.649371
2303.000000	100.648200
2302.000000	100.648727
2301.000000	100.651420
2300.000000	100.655449
2299.000000	100.659319
2298.000000	100.661708
2297.000000	100.662230
2296.000000	100.661696
2295.000000	100.661590
2294.000000	100.662699
2293.000000	100.664344
2292.000000	100.665200
2291.000000	100.664762
2290.000000	100.663613
2289.000000	100.662520
2288.000000	100.661783
2287.000000	100.661546
2286.000000	100.662061
2285.000000	100.663352
2284.000000	100.664898
2283.000000	100.666007
2282.000000	100.666539
2281.000000	100.666915
2280.000000	100.667493
2279.000000	100.668185
2278.000000	100.668689
2277.000000	100.668904
2276.000000	100.669066
2275.000000	100.669460
2274.000000	100.669984
2273.000000	100.670174
2272.000000	100.669733
2271.000000	100.668928
2270.000000	100.668409
2269.000000	100.668569
2268.000000	100.669167
2267.000000	100.669533
2266.000000	100.669141
2265.000000	100.668038
2264.000000	100.666864
2263.000000	100.666334
2262.000000	100.666554
2261.000000	100.666911
2260.000000	100.666857
2259.000000	100.666600
2258.000000	100.666674
2257.000000	100.666845
2256.000000	100.666123
2255.000000	100.663992
2254.000000	100.661177
2253.000000	100.658959
2252.000000	100.657883
2251.000000	100.657437
2250.000000	100.656797
2249.000000	100.655801
2248.000000	100.655021
2247.000000	100.654938
2246.000000	100.655245
2245.000000	100.655126
2244.000000	100.654260
2243.000000	100.653259
2242.000000	100.652912
2241.000000	100.653327
2240.000000	100.654126
2239.000000	100.655124
2238.000000	100.656259
2237.000000	100.656996
2236.000000	100.656580
2235.000000	100.655091
2234.000000	100.653706
2233.000000	100.653511
2232.000000	100.654348
2231.000000	100.655146
2230.000000	100.655073
2229.000000	100.654027
2228.000000	100.652234
2227.000000	100.649820
2226.000000	100.646852
2225.000000	100.643637
2224.000000	100.640972
2223.000000	100.639939
2222.000000	100.641044
2221.000000	100.643462
2220.000000	100.645419
2219.000000	100.645914
2218.000000	100.645751
2217.000000	100.646444
2216.000000	100.648314
2215.000000	100.650049
2214.000000	100.650185
2213.000000	100.648677
2212.000000	100.646888
2211.000000	100.646166
2210.000000	100.646616
2209.000000	100.647363
2208.000000	100.647789
2207.000000	100.648245
2206.000000	100.649389
2205.000000	100.651238
2204.000000	100.653151
2203.000000	100.654576
2202.000000	100.655367
2201.000000	100.655449
2200.000000	100.654747
2199.000000	100.653596
2198.000000	100.652850
2197.000000	100.653285
2196.000000	100.655089
2195.000000	100.657951
2194.000000	100.661264
2193.000000	100.664128
2192.000000	100.665656
2191.000000	100.665660
2190.000000	100.664906
2189.000000	100.664436
2188.000000	100.664650
2187.000000	100.665263
2186.000000	100.665854
2185.000000	100.666201
2184.000000	100.666339
2183.000000	100.666556
2182.000000	100.667160
2181.000000	100.668115
2180.000000	100.669086
2179.000000	100.669929
2178.000000	100.670758
2177.000000	100.671354
2176.000000	100.671017
2175.000000	100.669436
2174.000000	100.667345
2173.000000	100.665907
2172.000000	100.665579
2171.000000	100.666053
2170.000000	100.666933
2169.000000	100.667957
2168.000000	100.668782
2167.000000	100.669299
2166.000000	100.670183
2165.000000	100.672351
2164.000000	100.675740
2163.000000	100.678967
2162.000000	100.680591
2161.000000	100.680446
2160.000000	100.679537
2159.000000	100.678938
2158.000000	100.678831
2157.000000	100.678738
2156.000000	100.678367
2155.000000	100.678028
2154.000000	100.678256
2153.000000	100.679201
2152.000000	100.680538
2151.000000	100.681854
2150.000000	100.682880
2149.000000	100.683359
2148.000000	100.683080
2147.000000	100.682223
2146.000000	100.681426
2145.000000	100.681271
2144.000000	100.681809
2143.000000	100.682786
2142.000000	100.684067
2141.000000	100.685584
2140.000000	100.687103
2139.000000	100.688374
2138.000000	100.689400
2137.000000	100.690256
2136.000000	100.690817
2135.000000	100.690991
2134.000000	100.691058
2133.000000	100.691424
2132.000000	100.692097
2131.000000	100.692780
2130.000000	100.693424
2129.000000	100.694266
2128.000000	100.695339
2127.000000	100.696331
2126.000000	100.697007
2125.000000	100.697493
2124.000000	100.698055
2123.000000	100.698774
2122.000000	100.699603
2121.000000	100.700531
2120.000000	100.701532
2119.000000	100.702444
2118.000000	100.703116
2117.000000	100.703615
2116.000000	100.704180
2115.000000	100.704970
2114.000000	100.705979
2113.000000	100.707167
2112.000000	100.708517
2111.000000	100.709949
2110.000000	100.711263
2109.000000	100.712266
2108.000000	100.712937
2107.000000	100.713504
2106.000000	100.714260
2105.000000	100.715285
2104.000000	100.716407
2103.000000	100.717456
2102.000000	100.718482
2101.000000	100.719623
2100.000000	100.720829
2099.000000	100.721940
2098.000000	100.723035
2097.000000	100.724399
2096.000000	100.725992
2095.000000	100.727270
2094.000000	100.727806
2093.000000	100.727858
2092.000000	100.728087
2091.000000	100.728860
2090.000000	100.729989
2089.000000	100.730998
2088.000000	100.731532
2087.000000	100.731749
2086.000000	100.732373
2085.000000	100.733905
2084.000000	100.735620
2083.000000	100.735923
2082.000000	100.734176
2081.000000	100.731751
2080.000000	100.730768
2079.000000	100.731947
2078.000000	100.734342
2077.000000	100.736723
2076.000000	100.738677
2075.000000	100.740500
2074.000000	100.742611
2073.000000	100.745182
2072.000000	100.747971
2071.000000	100.750476
2070.000000	100.752406
2069.000000	100.753828
2068.000000	100.754729
2067.000000	100.754827
2066.000000	100.754109
2065.000000	100.753099
2064.000000	100.752155
2063.000000	100.751007
2062.000000	100.749492
2061.000000	100.748295
2060.000000	100.748332
2059.000000	100.749591
2058.000000	100.751059
2057.000000	100.751594
2056.000000	100.750597
2055.000000	100.748266
2054.000000	100.745726
2053.000000	100.744511
2052.000000	100.745221
2051.000000	100.746941
2050.000000	100.748339
2049.000000	100.749014
2048.000000	100.749178
2047.000000	100.748545
2046.000000	100.746646
2045.000000	100.744067
2044.000000	100.742295
2043.000000	100.741970
2042.000000	100.742026
2041.000000	100.740973
2040.000000	100.738580
2039.000000	100.735997
2038.000000	100.734567
2037.000000	100.734642
2036.000000	100.735276
2035.000000	100.734957
2034.000000	100.733000
2033.000000	100.730146
2032.000000	100.727692
2031.000000	100.726064
2030.000000	100.724694
2029.000000	100.723086
2028.000000	100.721352
2027.000000	100.719703
2026.000000	100.718076
2025.000000	100.716497
2024.000000	100.715286
2023.000000	100.714536
2022.000000	100.713778
2021.000000	100.712570
2020.000000	100.711144
2019.000000	100.710045
2018.000000	100.709325
2017.000000	100.708494
2016.000000	100.707257
2015.000000	100.705896
2014.000000	100.704841
2013.000000	100.704163
2012.000000	100.703577
2011.000000	100.702761
2010.000000	100.701608
2009.000000	100.700335
2008.000000	100.699340
2007.000000	100.698826
2006.000000	100.698570
2005.000000	100.698144
2004.000000	100.697360
2003.000000	100.696379
2002.000000	100.695406
2001.000000	100.694472
2000.000000	100.693579
1999.000000	100.692875
1998.000000	100.692505
1997.000000	100.692358
1996.000000	100.692164
1995.000000	100.691796
1994.000000	100.691291
1993.000000	100.690591
1992.000000	100.689523
1991.000000	100.688151
1990.000000	100.686901
1989.000000	100.686180
1988.000000	100.686066
1987.000000	100.686413
1986.000000	100.687039
1985.000000	100.687675
1984.000000	100.687935
1983.000000	100.687586
1982.000000	100.686892
1981.000000	100.686509
1980.000000	100.686891
1979.000000	100.687934
1978.000000	100.689156
1977.000000	100.690129
1976.000000	100.690632
1975.000000	100.690531
1974.000000	100.689771
1973.000000	100.688549
1972.000000	100.687402
1971.000000	100.686942
1970.000000	100.687348
1969.000000	100.688045
1968.000000	100.688051
1967.000000	100.687013
1966.000000	100.685829
1965.000000	100.685726
1964.000000	100.686734
1963.000000	100.687602
1962.000000	100.687397
1961.000000	100.686708
1960.000000	100.686681
1959.000000	100.687237
1958.000000	100.687077
1957.000000	100.685514
1956.000000	100.683607
1955.000000	100.683149
1954.000000	100.685020
1953.000000	100.688755
1952.000000	100.693051
1951.000000	100.696367
1950.000000	100.697705
1949.000000	100.697498
1948.000000	100.697425
1947.000000	100.698709
1946.000000	100.700822
1945.000000	100.702390
1944.000000	100.702952
1943.000000	100.703071
1942.000000	100.702924
1941.000000	100.701955
1940.000000	100.700209
1939.000000	100.698790
1938.000000	100.698480
1937.000000	100.698509
1936.000000	100.697371
1935.000000	100.694818
1934.000000	100.692347
1933.000000	100.691585
1932.000000	100.692680
1931.000000	100.694453
1930.000000	100.695818
1929.000000	100.696710
1928.000000	100.697502
1927.000000	100.697982
1926.000000	100.697343
1925.000000	100.695216
1924.000000	100.692330
1923.000000	100.689681
1922.000000	100.687300
1921.000000	100.684486
1920.000000	100.681108
1919.000000	100.678087
1918.000000	100.676213
1917.000000	100.674654
1916.000000	100.671637
1915.000000	100.666552
1914.000000	100.660750
1913.000000	100.656367
1912.000000	100.654524
1911.000000	100.654661
1910.000000	100.655263
1909.000000	100.654741
1908.000000	100.651899
1907.000000	100.646602
1906.000000	100.640333
1905.000000	100.635462
1904.000000	100.633182
1903.000000	100.632451
1902.000000	100.631613
1901.000000	100.630348
1900.000000	100.629032
1899.000000	100.627110
1898.000000	100.623725
1897.000000	100.619904
1896.000000	100.618330
1895.000000	100.619981
1894.000000	100.622374
1893.000000	100.622509
1892.000000	100.620360
1891.000000	100.618189
1890.000000	100.617297
1889.000000	100.616517
1888.000000	100.614174
1887.000000	100.610184
1886.000000	100.605630
1885.000000	100.601643
1884.000000	100.599005
1883.000000	100.597972
1882.000000	100.598066
1881.000000	100.598231
1880.000000	100.597398
1879.000000	100.595049
1878.000000	100.591380
1877.000000	100.587393
1876.000000	100.584888
1875.000000	100.585498
1874.000000	100.589205
1873.000000	100.594089
1872.000000	100.598100
1871.000000	100.601081
1870.000000	100.604541
1869.000000	100.609352
1868.000000	100.614124
1867.000000	100.616793
1866.000000	100.616712
1865.000000	100.614624
1864.000000	100.612001
1863.000000	100.610724
1862.000000	100.612398
1861.000000	100.617106
1860.000000	100.623006
1859.000000	100.628027
1858.000000	100.631884
1857.000000	100.635906
1856.000000	100.640937
1855.000000	100.646084
1854.000000	100.649712
1853.000000	100.651180
1852.000000	100.651183
1851.000000	100.650946
1850.000000	100.651435
1849.000000	100.653022
1848.000000	100.655499
1847.000000	100.658485
1846.000000	100.661960
1845.000000	100.666010
1844.000000	100.669676
1843.000000	100.671361
1842.000000	100.670932
1841.000000	100.669835
1840.000000	100.669512
1839.000000	100.670392
1838.000000	100.671984
1837.000000	100.673676
1836.000000	100.675191
1835.000000	100.676306
1834.000000	100.676792
1833.000000	100.676799
1832.000000	100.676965
1831.000000	100.677941
1830.000000	100.679684
1829.000000	100.681444
1828.000000	100.682721
1827.000000	100.683631
1826.000000	100.684339
1825.000000	100.684803
1824.000000	100.685105
1823.000000	100.685612
1822.000000	100.686573
1821.000000	100.687874
1820.000000	100.689147
1819.000000	100.690050
1818.000000	100.690489
1817.000000	100.690648
1816.000000	100.690898
1815.000000	100.691506
1814.000000	100.692477
1813.000000	100.693523
1812.000000	100.694256
1811.000000	100.694534
1810.000000	100.694581
1809.000000	100.694692
1808.000000	100.694817
1807.000000	100.694614
1806.000000	100.694007
1805.000000	100.693600
1804.000000	100.694224
1803.000000	100.696102
1802.000000	100.698476
1801.000000	100.700163
1800.000000	100.700682
1799.000000	100.700512
1798.000000	100.700322
1797.000000	100.700413
1796.000000	100.700867
1795.000000	100.701736
1794.000000	100.703052
1793.000000	100.704814
1792.000000	100.706936
1791.000000	100.708979
1790.000000	100.710047
1789.000000	100.709393
1788.000000	100.707232
1787.000000	100.704934
1786.000000	100.704172
1785.000000	100.705527
1784.000000	100.707989
1783.000000	100.710341
1782.000000	100.712712
1781.000000	100.715818
1780.000000	100.719089
1779.000000	100.720573
1778.000000	100.718833
1777.000000	100.714337
1776.000000	100.709091
1775.000000	100.705353
1774.000000	100.704253
1773.000000	100.704956
1772.000000	100.705028
1771.000000	100.703723
1770.000000	100.702989
1769.000000	100.703933
1768.000000	100.705229
1767.000000	100.705057
1766.000000	100.703661
1765.000000	100.702912
1764.000000	100.703692
1763.000000	100.704411
1762.000000	100.702348
1761.000000	100.697252
1760.000000	100.692384
1759.000000	100.690412
1758.000000	100.690737
1757.000000	100.690589
1756.000000	100.687628
1755.000000	100.681962
1754.000000	100.674606
1753.000000	100.665470
1752.000000	100.654171
1751.000000	100.642231
1750.000000	100.632998
1749.000000	100.628886
1748.000000	100.629541
1747.000000	100.632031
1746.000000	100.632631
1745.000000	100.629299
1744.000000	100.623367
1743.000000	100.618447
1742.000000	100.616663
1741.000000	100.616601
1740.000000	100.615345
1739.000000	100.612048
1738.000000	100.608757
1737.000000	100.607438
1736.000000	100.608828
1735.000000	100.613317
1734.000000	100.619114
1733.000000	100.622262
1732.000000	100.621904
1731.000000	100.619700
1730.000000	100.617201
1729.000000	100.615653
1728.000000	100.615184
1727.000000	100.614443
1726.000000	100.612052
1725.000000	100.608524
1724.000000	100.606358
1723.000000	100.607005
1722.000000	100.608622
1721.000000	100.608120
1720.000000	100.604210
1719.000000	100.598458
1718.000000	100.594362
1717.000000	100.594246
1716.000000	100.597547
1715.000000	100.600923
1714.000000	100.600563
1713.000000	100.595902
1712.000000	100.590130
1711.000000	100.586503
1710.000000	100.585718
1709.000000	100.586778
1708.000000	100.589078
1707.000000	100.592218
1706.000000	100.593752
1705.000000	100.590680
1704.000000	100.584367
1703.000000	100.578126
1702.000000	100.571645
1701.000000	100.561731
1700.000000	100.548670
1699.000000	100.538333
1698.000000	100.531857
1697.000000	100.525581
1696.000000	100.518556
1695.000000	100.512908
1694.000000	100.508405
1693.000000	100.501961
1692.000000	100.492678
1691.000000	100.483155
1690.000000	100.476362
1689.000000	100.471386
1688.000000	100.464410
1687.000000	100.453478
1686.000000	100.439411
1685.000000	100.424824
1684.000000	100.412697
1683.000000	100.404331
1682.000000	100.399084
1681.000000	100.395255
1680.000000	100.390868
1679.000000	100.384519
1678.000000	100.375503
1677.000000	100.363633
1676.000000	100.349970
1675.000000	100.337677
1674.000000	100.329136
1673.000000	100.322593
1672.000000	100.314875
1671.000000	100.304848
1670.000000	100.294194
1669.000000	100.285477
1668.000000	100.279054
1667.000000	100.273419
1666.000000	100.267289
1665.000000	100.259978
1664.000000	100.251184
1663.000000	100.241276
1662.000000	100.231584
1661.000000	100.223477
1660.000000	100.217170
1659.000000	100.212055
1658.000000	100.207345
1657.000000	100.202438
1656.000000	100.196906
1655.000000	100.190292
1654.000000	100.181523
1653.000000	100.169668
1652.000000	100.158242
1651.000000	100.150873
1650.000000	100.147092
1649.000000	100.145316
1648.000000	100.143841
1647.000000	100.140481
1646.000000	100.134224
1645.000000	100.126700
1644.000000	100.119688
1643.000000	100.113748
1642.000000	100.109060
1641.000000	100.105489
1640.000000	100.102190
1639.000000	100.097801
1638.000000	100.091392
1637.000000	100.083681
1636.000000	100.077765
1635.000000	100.075962
1634.000000	100.076694
1633.000000	100.076961
1632.000000	100.075423
1631.000000	100.071974
1630.000000	100.067202
1629.000000	100.062206
1628.000000	100.057838
1627.000000	100.053714
1626.000000	100.048582
1625.000000	100.041813
1624.000000	100.034871
1623.000000	100.031052
1622.000000	100.032139
1621.000000	100.036247
1620.000000	100.039972
1619.000000	100.041218
1618.000000	100.039926
1617.000000	100.038000
1616.000000	100.036990
1615.000000	100.036266
1614.000000	100.034599
1613.000000	100.032014
1612.000000	100.029826
1611.000000	100.029664
1610.000000	100.031992
1609.000000	100.035460
1608.000000	100.037862
1607.000000	100.037718
1606.000000	100.035235
1605.000000	100.031957
1604.000000	100.030091
1603.000000	100.031673
1602.000000	100.036793
1601.000000	100.042832
1600.000000	100.046703
1599.000000	100.047415
1598.000000	100.046024
1597.000000	100.043952
1596.000000	100.042579
1595.000000	100.043704
1594.000000	100.048317
1593.000000	100.054711
1592.000000	100.059530
1591.000000	100.061406
1590.000000	100.062517
1589.000000	100.065889
1588.000000	100.072347
1587.000000	100.081038
1586.000000	100.091346
1585.000000	100.102614
1584.000000	100.112890
1583.000000	100.120077
1582.000000	100.124166
1581.000000	100.126898
1580.000000	100.129282
1579.000000	100.131120
1578.000000	100.133191
1577.000000	100.138911
1576.000000	100.150688
1575.000000	100.164962
1574.000000	100.177042
1573.000000	100.186267
1572.000000	100.193738
1571.000000	100.200182
1570.000000	100.205762
1569.000000	100.210438
1568.000000	100.214609
1567.000000	100.219216
1566.000000	100.225253
1565.000000	100.232750
1564.000000	100.239973
1563.000000	100.244927
1562.000000	100.247030
1561.000000	100.247782
1560.000000	100.250974
1559.000000	100.259794
1558.000000	100.268789
1557.000000	100.274841
1556.000000	100.280076
1555.000000	100.285279
1554.000000	100.290037
1553.000000	100.294138
1552.000000	100.298185
1551.000000	100.302721
1550.000000	100.307539
1549.000000	100.312254
1548.000000	100.317080
1547.000000	100.322585
1546.000000	100.328967
1545.000000	100.335688
1544.000000	100.341775
1543.000000	100.346712
1542.000000	100.350804
1541.000000	100.354734
1540.000000	100.358835
1539.000000	100.362767
1538.000000	100.366611
1537.000000	100.370637
1536.000000	100.374917
1535.000000	100.379592
1534.000000	100.384830
1533.000000	100.390194
1532.000000	100.395175
1531.000000	100.400104
1530.000000	100.405499
1529.000000	100.411518
1528.000000	100.417922
1527.000000	100.424107
1526.000000	100.429434
1525.000000	100.433664
1524.000000	100.437162
1523.000000	100.440504
1522.000000	100.443723
1521.000000	100.446016
1520.000000	100.447662
1519.000000	100.450186
1518.000000	100.454277
1517.000000	100.458957
1516.000000	100.462304
1515.000000	100.463875
1514.000000	100.465170
1513.000000	100.468145
1512.000000	100.474521
1511.000000	100.484715
1510.000000	100.496286
1509.000000	100.505817
1508.000000	100.512195
1507.000000	100.518783
1506.000000	100.525533
1505.000000	100.529288
1504.000000	100.529561
1503.000000	100.528204
1502.000000	100.527190
1501.000000	100.527802
1500.000000	100.530451
1499.000000	100.534826
1498.000000	100.540098
1497.000000	100.545398
1496.000000	100.551279
1495.000000	100.558785
1494.000000	100.566830
1493.000000	100.572866
1492.000000	100.575474
1491.000000	100.575755
1490.000000	100.576335
1489.000000	100.578527
1488.000000	100.582717
1487.000000	100.589245
1486.000000	100.596717
1485.000000	100.602088
1484.000000	100.602810
1483.000000	100.598855
1482.000000	100.592772
1481.000000	100.587889
1480.000000	100.586098
1479.000000	100.586796
1478.000000	100.587497
1477.000000	100.585147
1476.000000	100.578149
1475.000000	100.567435
1474.000000	100.555433
1473.000000	100.544521
1472.000000	100.535697
1471.000000	100.528344
1470.000000	100.521256
1469.000000	100.514168
1468.000000	100.508379
1467.000000	100.506330
1466.000000	100.510189
1465.000000	100.519297
1464.000000	100.529456
1463.000000	100.537236
1462.000000	100.542347
1461.000000	100.545188
1460.000000	100.545391
1459.000000	100.543199
1458.000000	100.541708
1457.000000	100.544805
1456.000000	100.551055
1455.000000	100.556338
1454.000000	100.559225
1453.000000	100.559623
1452.000000	100.557649
1451.000000	100.554583
1450.000000	100.552452
1449.000000	100.552083
1448.000000	100.552242
1447.000000	100.551235
1446.000000	100.548936
1445.000000	100.546178
1444.000000	100.543409
1443.000000	100.540666
1442.000000	100.538047
1441.000000	100.536037
1440.000000	100.535232
1439.000000	100.536134
1438.000000	100.539187
1437.000000	100.544207
1436.000000	100.549003
1435.000000	100.551150
1434.000000	100.550644
1433.000000	100.549064
1432.000000	100.547989
1431.000000	100.548083
1430.000000	100.548714
1429.000000	100.549003
1428.000000	100.549186
1427.000000	100.550072
1426.000000	100.551898
1425.000000	100.554231
1424.000000	100.556435
1423.000000	100.558047
1422.000000	100.558718
1421.000000	100.558343
1420.000000	100.557653
1419.000000	100.557959
1418.000000	100.558864
1417.000000	100.558834
1416.000000	100.558406
1415.000000	100.559536
1414.000000	100.562634
1413.000000	100.565963
1412.000000	100.568115
1411.000000	100.569906
1410.000000	100.572548
1409.000000	100.575354
1408.000000	100.576980
1407.000000	100.577704
1406.000000	100.579128
1405.000000	100.582063
1404.000000	100.585911
1403.000000	100.590007
1402.000000	100.593733
1401.000000	100.595810
1400.000000	100.595662
1399.000000	100.595917
1398.000000	100.600566
1397.000000	100.609842
1396.000000	100.619539
1395.000000	100.625436
1394.000000	100.627702
1393.000000	100.629657
1392.000000	100.632996
1391.000000	100.636764
1390.000000	100.639429
1389.000000	100.640302
1388.000000	100.640212
1387.000000	100.641381
1386.000000	100.645511
1385.000000	100.651787
1384.000000	100.657812
1383.000000	100.662074
1382.000000	100.664834
1381.000000	100.666798
1380.000000	100.667417
1379.000000	100.665395
1378.000000	100.660765
1377.000000	100.655435
1376.000000	100.651755
1375.000000	100.651169
1374.000000	100.653546
1373.000000	100.657095
1372.000000	100.659960
1371.000000	100.661904
1370.000000	100.663872
1369.000000	100.666162
1368.000000	100.667626
1367.000000	100.667227
1366.000000	100.665501
1365.000000	100.663735
1364.000000	100.662904
1363.000000	100.663997
1362.000000	100.668017
1361.000000	100.674587
1360.000000	100.681649
1359.000000	100.687444
1358.000000	100.691964
1357.000000	100.695971
1356.000000	100.699439
1355.000000	100.702073
1354.000000	100.704710
1353.000000	100.708331
1352.000000	100.711895
1351.000000	100.713016
1350.000000	100.711428
1349.000000	100.710117
1348.000000	100.711799
1347.000000	100.715634
1346.000000	100.718716
1345.000000	100.719929
1344.000000	100.720986
1343.000000	100.724081
1342.000000	100.729689
1341.000000	100.736545
1340.000000	100.742718
1339.000000	100.746718
1338.000000	100.748506
1337.000000	100.749529
1336.000000	100.751379
1335.000000	100.754412
1334.000000	100.757456
1333.000000	100.758881
1332.000000	100.758254
1331.000000	100.756780
1330.000000	100.755816
1329.000000	100.755268
1328.000000	100.754031
1327.000000	100.751731
1326.000000	100.749358
1325.000000	100.748130
1324.000000	100.748357
1323.000000	100.749600
1322.000000	100.751214
1321.000000	100.752596
1320.000000	100.753471
1319.000000	100.754021
1318.000000	100.754255
1317.000000	100.753481
1316.000000	100.751255
1315.000000	100.748553
1314.000000	100.747011
1313.000000	100.747107
1312.000000	100.748133
1311.000000	100.749751
1310.000000	100.752036
1309.000000	100.754020
1308.000000	100.754136
1307.000000	100.752683
1306.000000	100.752074
1305.000000	100.753466
1304.000000	100.754604
1303.000000	100.752515
1302.000000	100.747346
1301.000000	100.742298
1300.000000	100.740321
1299.000000	100.741832
1298.000000	100.744975
1297.000000	100.746759
1296.000000	100.744618
1295.000000	100.738281
1294.000000	100.730512
1293.000000	100.724999
1292.000000	100.722875
1291.000000	100.722186
1290.000000	100.720572
1289.000000	100.717561
1288.000000	100.713960
1287.000000	100.710101
1286.000000	100.705701
1285.000000	100.700963
1284.000000	100.696784
1283.000000	100.693767
1282.000000	100.691659
1281.000000	100.689968
1280.000000	100.688694
1279.000000	100.688093
1278.000000	100.687931
1277.000000	100.687287
1276.000000	100.684982
1275.000000	100.679999
1274.000000	100.671757
1273.000000	100.660549
1272.000000	100.648082
1271.000000	100.637417
1270.000000	100.631608
1269.000000	100.631681
1268.000000	100.635657
1267.000000	100.639590
1266.000000	100.640406
1265.000000	100.638231
1264.000000	100.635527
1263.000000	100.633615
1262.000000	100.630748
1261.000000	100.624852
1260.000000	100.617724
1259.000000	100.614245
1258.000000	100.616362
1257.000000	100.619756
1256.000000	100.618199
1255.000000	100.609941
1254.000000	100.598110
1253.000000	100.585926
1252.000000	100.573986
1251.000000	100.562056
1250.000000	100.550691
1249.000000	100.540194
1248.000000	100.530259
1247.000000	100.521881
1246.000000	100.517809
1245.000000	100.519416
1244.000000	100.523965
1243.000000	100.526200
1242.000000	100.522337
1241.000000	100.512012
1240.000000	100.497286
1239.000000	100.480790
1238.000000	100.464454
1237.000000	100.449392
1236.000000	100.436795
1235.000000	100.427910
1234.000000	100.422114
1233.000000	100.416333
1232.000000	100.408469
1231.000000	100.400244
1230.000000	100.393407
1229.000000	100.383520
1228.000000	100.362295
1227.000000	100.327983
1226.000000	100.289949
1225.000000	100.260005
1224.000000	100.241338
1223.000000	100.228773
1222.000000	100.216571
1221.000000	100.201532
1220.000000	100.180373
1219.000000	100.149608
1218.000000	100.109202
1217.000000	100.063349
1216.000000	100.016762
1215.000000	99.972136
1214.000000	99.930736
1213.000000	99.892401
1212.000000	99.854640
1211.000000	99.814649
1210.000000	99.773268
1209.000000	99.734641
1208.000000	99.700949
1207.000000	99.669489
1206.000000	99.635886
1205.000000	99.598056
1204.000000	99.555804
1203.000000	99.509262
1202.000000	99.460415
1201.000000	99.414345
1200.000000	99.375596
1199.000000	99.343347
1198.000000	99.312405
1197.000000	99.278759
1196.000000	99.241692
1195.000000	99.200998
1194.000000	99.156070
1193.000000	99.109049
1192.000000	99.065319
1191.000000	99.027863
1190.000000	98.992895
1189.000000	98.953993
1188.000000	98.909289
1187.000000	98.861799
1186.000000	98.813826
1185.000000	98.764704
1184.000000	98.714379
1183.000000	98.665769
1182.000000	98.621852
1181.000000	98.582057
1180.000000	98.542400
1179.000000	98.497989
1178.000000	98.445536
1177.000000	98.385553
1176.000000	98.322639
1175.000000	98.261878
1174.000000	98.204327
1173.000000	98.147390
1172.000000	98.089332
1171.000000	98.031046
1170.000000	97.973296
1169.000000	97.915156
1168.000000	97.856249
1167.000000	97.798494
1166.000000	97.745016
1165.000000	97.699498
1164.000000	97.667052
1163.000000	97.652918
1162.000000	97.658600
1161.000000	97.680287
1160.000000	97.710782
1159.000000	97.741235
1158.000000	97.762235
1157.000000	97.766694
1156.000000	97.752691
1155.000000	97.722758
1154.000000	97.681392
1153.000000	97.634240
1152.000000	97.587101
1151.000000	97.542019
1150.000000	97.495310
1149.000000	97.443131
1148.000000	97.387997
1147.000000	97.335576
1146.000000	97.285847
1145.000000	97.233158
1144.000000	97.175547
1143.000000	97.118096
1142.000000	97.064974
1141.000000	97.013241
1140.000000	96.957582
1139.000000	96.897339
1138.000000	96.836017
1137.000000	96.776546
1136.000000	96.719174
1135.000000	96.661612
1134.000000	96.599978
1133.000000	96.532523
1132.000000	96.463642
1131.000000	96.401075
1130.000000	96.347726
1129.000000	96.298974
1128.000000	96.248408
1127.000000	96.192567
1126.000000	96.129895
1125.000000	96.060090
1124.000000	95.986591
1123.000000	95.915992
1122.000000	95.852874
1121.000000	95.797525
1120.000000	95.748479
1119.000000	95.703194
1118.000000	95.656738
1117.000000	95.605565
1116.000000	95.553271
1115.000000	95.506789
1114.000000	95.466010
1113.000000	95.423188
1112.000000	95.373841
1111.000000	95.321587
1110.000000	95.270077
1109.000000	95.217337
1108.000000	95.162060
1107.000000	95.109689
1106.000000	95.067022
1105.000000	95.033890
1104.000000	95.003427
1103.000000	94.968069
1102.000000	94.924220
1101.000000	94.875196
1100.000000	94.831312
1099.000000	94.802154
1098.000000	94.786019
1097.000000	94.770667
1096.000000	94.746135
1095.000000	94.712495
1094.000000	94.674007
1093.000000	94.631765
1092.000000	94.585361
1091.000000	94.536922
1090.000000	94.489390
1089.000000	94.443534
1088.000000	94.398801
1087.000000	94.354006
1086.000000	94.306205
1085.000000	94.253142
1084.000000	94.197916
1083.000000	94.146766
1082.000000	94.101065
1081.000000	94.055843
1080.000000	94.006862
1079.000000	93.954785
1078.000000	93.902680
1077.000000	93.854644
1076.000000	93.815950
1075.000000	93.787361
1074.000000	93.759244
1073.000000	93.719107
1072.000000	93.665403
1071.000000	93.606546
1070.000000	93.546078
1069.000000	93.477530
1068.000000	93.395563
1067.000000	93.302840
1066.000000	93.203265
1065.000000	93.098049
1064.000000	92.993056
1063.000000	92.900883
1062.000000	92.828922
1061.000000	92.771599
1060.000000	92.719578
1059.000000	92.670662
1058.000000	92.627493
1057.000000	92.590737
1056.000000	92.558670
1055.000000	92.527289
1054.000000	92.486441
1053.000000	92.422026
1052.000000	92.327917
1051.000000	92.212409
1050.000000	92.088849
1049.000000	91.963279
1048.000000	91.833893
1047.000000	91.696236
1046.000000	91.545647
1045.000000	91.381286
1044.000000	91.211325
1043.000000	91.048878
1042.000000	90.900181
1041.000000	90.761863
1040.000000	90.630576
1039.000000	90.507761
1038.000000	90.392852
1037.000000	90.280059
1036.000000	90.166029
1035.000000	90.055261
1034.000000	89.955733
1033.000000	89.874142
1032.000000	89.814962
1031.000000	89.776556
1030.000000	89.747886
1029.000000	89.716924
1028.000000	89.682584
1027.000000	89.651136
1026.000000	89.623328
1025.000000	89.595231
1024.000000	89.570127
1023.000000	89.557292
1022.000000	89.557595
1021.000000	89.560663
1020.000000	89.557554
1019.000000	89.546842
1018.000000	89.528645
1017.000000	89.503975
1016.000000	89.480243
1015.000000	89.465305
1014.000000	89.453963
1013.000000	89.431658
1012.000000	89.394378
1011.000000	89.354820
1010.000000	89.326770
1009.000000	89.313705
1008.000000	89.314450
1007.000000	89.328561
1006.000000	89.352250
1005.000000	89.378360
1004.000000	89.403340
1003.000000	89.426508
1002.000000	89.442943
1001.000000	89.448275
1000.000000	89.451470
999.000000	89.470559
998.000000	89.511801
997.000000	89.562695
996.000000	89.608320
995.000000	89.645583
994.000000	89.679213
993.000000	89.713919
992.000000	89.754155
991.000000	89.802773
990.000000	89.856518
989.000000	89.910267
988.000000	89.967041
987.000000	90.035225
986.000000	90.114993
985.000000	90.197111
984.000000	90.276893
983.000000	90.359713
982.000000	90.450978
981.000000	90.550817
980.000000	90.660546
979.000000	90.783120
978.000000	90.913265
977.000000	91.037541
976.000000	91.150049
975.000000	91.260726
974.000000	91.383392
973.000000	91.521868
972.000000	91.670714
971.000000	91.822462
970.000000	91.970601
969.000000	92.112242
968.000000	92.252392
967.000000	92.400698
966.000000	92.559689
965.000000	92.719382
964.000000	92.866348
963.000000	92.995733
962.000000	93.113441
961.000000	93.229602
960.000000	93.350712
959.000000	93.475400
958.000000	93.596775
957.000000	93.709841
956.000000	93.815402
955.000000	93.916062
954.000000	94.012179
953.000000	94.104251
952.000000	94.194264
951.000000	94.279749
950.000000	94.351480
949.000000	94.403652
948.000000	94.442533
947.000000	94.478634
946.000000	94.514322
945.000000	94.547236
944.000000	94.581808
943.000000	94.626228
942.000000	94.678593
941.000000	94.726730
940.000000	94.763022
939.000000	94.790961
938.000000	94.817095
937.000000	94.845787
936.000000	94.882792
935.000000	94.933236
934.000000	94.991821
933.000000	95.043766
932.000000	95.080368
931.000000	95.107668
930.000000	95.136728
929.000000	95.171643
928.000000	95.210322
927.000000	95.250218
926.000000	95.288445
925.000000	95.321367
924.000000	95.348667
923.000000	95.374410
922.000000	95.401050
921.000000	95.425903
920.000000	95.445963
919.000000	95.462545
918.000000	95.478705
917.000000	95.495444
916.000000	95.512700
915.000000	95.531551
914.000000	95.554278
913.000000	95.584880
912.000000	95.629569
911.000000	95.692958
910.000000	95.773047
909.000000	95.862965
908.000000	95.957335
907.000000	96.054036
906.000000	96.151976
905.000000	96.251869
904.000000	96.357178
903.000000	96.469191
902.000000	96.583421
901.000000	96.696246
900.000000	96.812113
899.000000	96.937039
898.000000	97.067120
897.000000	97.191023
896.000000	97.302917
895.000000	97.405983
894.000000	97.504423
893.000000	97.599720
892.000000	97.694680
891.000000	97.793860
890.000000	97.898770
889.000000	98.007536
888.000000	98.118276
887.000000	98.227370
886.000000	98.327181
885.000000	98.413068
884.000000	98.490364
883.000000	98.565935
882.000000	98.635003
881.000000	98.687433
880.000000	98.726444
879.000000	98.768108
878.000000	98.818998
877.000000	98.867061
876.000000	98.900941
875.000000	98.926867
874.000000	98.958940
873.000000	99.002158
872.000000	99.053614
871.000000	99.112363
870.000000	99.178594
869.000000	99.247886
868.000000	99.313833
867.000000	99.373439
866.000000	99.425473
865.000000	99.468100
864.000000	99.503267
863.000000	99.539289
862.000000	99.583189
861.000000	99.633274
860.000000	99.683853
859.000000	99.733330
858.000000	99.782500
857.000000	99.829331
856.000000	99.872636
855.000000	99.918165
854.000000	99.972739
853.000000	100.032124
852.000000	100.081759
851.000000	100.111233
850.000000	100.123437
849.000000	100.128560
848.000000	100.133382
847.000000	100.137822
846.000000	100.138115
845.000000	100.131317
844.000000	100.119194
843.000000	100.108794
842.000000	100.106427
841.000000	100.109521
840.000000	100.106480
839.000000	100.086850
838.000000	100.052020
837.000000	100.015261
836.000000	99.989751
835.000000	99.974899
834.000000	99.955286
833.000000	99.916664
832.000000	99.863860
831.000000	99.819085
830.000000	99.800282
829.000000	99.805113
828.000000	99.819145
827.000000	99.833357
826.000000	99.846474
825.000000	99.855273
824.000000	99.854649
823.000000	99.848353
822.000000	99.848966
821.000000	99.863036
820.000000	99.882746
819.000000	99.894311
818.000000	99.888805
817.000000	99.862942
816.000000	99.815120
815.000000	99.745902
814.000000	99.660322
813.000000	99.564310
812.000000	99.456970
811.000000	99.328378
810.000000	99.166930
809.000000	98.969134
808.000000	98.741787
807.000000	98.494247
806.000000	98.229644
805.000000	97.946632
804.000000	97.651011
803.000000	97.362036
802.000000	97.103228
801.000000	96.888268
800.000000	96.718654
799.000000	96.592691
798.000000	96.512694
797.000000	96.483125
796.000000	96.502616
795.000000	96.557877
794.000000	96.628207
793.000000	96.699599
792.000000	96.771990
791.000000	96.848511
790.000000	96.920904
789.000000	96.971749
788.000000	96.988972
787.000000	96.970920
786.000000	96.918786
785.000000	96.833716
784.000000	96.723986
783.000000	96.607133
782.000000	96.499765
781.000000	96.409202
780.000000	96.337617
779.000000	96.289215
778.000000	96.270565
777.000000	96.288446
776.000000	96.348261
775.000000	96.447754
774.000000	96.570766
773.000000	96.695307
772.000000	96.811146
771.000000	96.922892
770.000000	97.033989
769.000000	97.136447
768.000000	97.220559
767.000000	97.286262
766.000000	97.338732
765.000000	97.379821
764.000000	97.410881
763.000000	97.438525
762.000000	97.470121
761.000000	97.507301
760.000000	97.549780
759.000000	97.600638
758.000000	97.660958
757.000000	97.723871
756.000000	97.781430
755.000000	97.833294
754.000000	97.881393
753.000000	97.921521
752.000000	97.950616
751.000000	97.978944
750.000000	98.022659
749.000000	98.083299
748.000000	98.145091
747.000000	98.195017
746.000000	98.236607
745.000000	98.281364
744.000000	98.336035
743.000000	98.402443
742.000000	98.480112
741.000000	98.561677
740.000000	98.632533
739.000000	98.683397
738.000000	98.720677
737.000000	98.759449
736.000000	98.808907
735.000000	98.868771
734.000000	98.935163
733.000000	99.003143
732.000000	99.066077
731.000000	99.118997
730.000000	99.161256
729.000000	99.191239
728.000000	99.202089
727.000000	99.190749
726.000000	99.170276
725.000000	99.164007
724.000000	99.183839
723.000000	99.220268
722.000000	99.256344
721.000000	99.285859
720.000000	99.314870
719.000000	99.349484
718.000000	99.388028
717.000000	99.425283
716.000000	99.459059
715.000000	99.490705
714.000000	99.520147
713.000000	99.540873
712.000000	99.542445
711.000000	99.521741
710.000000	99.491105
709.000000	99.470914
708.000000	99.471406
707.000000	99.484415
706.000000	99.493322
705.000000	99.486651
704.000000	99.460261
703.000000	99.412092
702.000000	99.340120
701.000000	99.243131
700.000000	99.119536
699.000000	98.968424
698.000000	98.797838
697.000000	98.631023
696.000000	98.498206
695.000000	98.421078
694.000000	98.407394
693.000000	98.455369
692.000000	98.553739
691.000000	98.677616
690.000000	98.795018
689.000000	98.885028
688.000000	98.948101
687.000000	98.996971
686.000000	99.043215
685.000000	99.096311
684.000000	99.166276
683.000000	99.255850
682.000000	99.351049
681.000000	99.428014
680.000000	99.474640
679.000000	99.502720
678.000000	99.534378
677.000000	99.578134
676.000000	99.622618
675.000000	99.655246
674.000000	99.681106
673.000000	99.716587
672.000000	99.767402
671.000000	99.819124
670.000000	99.849209
669.000000	99.844786
668.000000	99.842081
667.000000	99.886104
666.000000	99.951917
665.000000	100.008396
664.000000	100.053516
663.000000	100.090063
662.000000	100.120364
661.000000	100.144722
660.000000	100.163081
659.000000	100.174784
658.000000	100.180025
657.000000	100.179992
656.000000	100.176007
655.000000	100.170818
654.000000	100.169733
653.000000	100.177828
652.000000	100.196436
651.000000	100.223002
650.000000	100.254002
