4000.000000	102.161852
3999.000000	102.159192
3998.000000	102.156838
3997.000000	102.155060
3996.000000	102.153917
3995.000000	102.153269
3994.000000	102.152756
3993.000000	102.151935
3992.000000	102.150581
3991.000000	102.148822
3990.000000	102.147016
3989.000000	102.145405
3988.000000	102.143946
3987.000000	102.142525
3986.000000	102.141166
3985.000000	102.140022
3984.000000	102.139200
3983.000000	102.138538
3982.000000	102.137643
3981.000000	102.136279
3980.000000	102.134694
3979.000000	102.133384
3978.000000	102.132479
3977.000000	102.131542
3976.000000	102.130150
3975.000000	102.128594
3974.000000	102.127753
3973.000000	102.128147
3972.000000	102.129230
3971.000000	102.129728
3970.000000	102.128649
3969.000000	102.125918
3968.000000	102.122397
3967.000000	102.119442
3966.000000	102.118146
3965.000000	102.118801
3964.000000	102.120798
3963.000000	102.123018
3962.000000	102.124571
3961.000000	102.125307
3960.000000	102.125792
3959.000000	102.126688
3958.000000	102.127940
3957.000000	102.128729
3956.000000	102.128280
3955.000000	102.126604
3954.000000	102.124350
3953.000000	102.122263
3952.000000	102.121046
3951.000000	102.121301
3950.000000	102.123012
3949.000000	102.124997
3948.000000	102.125386
3947.000000	102.122949
3946.000000	102.118034
3945.000000	102.112462
3944.000000	102.108581
3943.000000	102.107831
3942.000000	102.109854
3941.000000	102.113190
3940.000000	102.116979
3939.000000	102.121614
3938.000000	102.127431
3937.000000	102.133495
3936.000000	102.137948
3935.000000	102.139580
3934.000000	102.138713
3933.000000	102.136596
3932.000000	102.134209
3931.000000	102.131676
3930.000000	102.128812
3929.000000	102.125838
3928.000000	102.123412
3927.000000	102.122184
3926.000000	102.122147
3925.000000	102.122297
3924.000000	102.121601
3923.000000	102.120560
3922.000000	102.120866
3921.000000	102.122937
3920.000000	102.124871
3919.000000	102.124589
3918.000000	102.122390
3917.000000	102.120498
3916.000000	102.120443
3915.000000	102.121931
3914.000000	102.123891
3913.000000	102.125404
3912.000000	102.125714
3911.000000	102.124654
3910.000000	102.122886
3909.000000	102.121589
3908.000000	102.121381
3907.000000	102.121822
3906.000000	102.121732
3905.000000	102.120155
3904.000000	102.117117
3903.000000	102.113696
3902.000000	102.111368
3901.000000	102.110985
3900.000000	102.112172
3899.000000	102.113647
3898.000000	102.114470
3897.000000	102.114735
3896.000000	102.114977
3895.000000	102.115359
3894.000000	102.115695
3893.000000	102.116040
3892.000000	102.116659
3891.000000	102.117547
3890.000000	102.118285
3889.000000	102.118666
3888.000000	102.118908
3887.000000	102.119301
3886.000000	102.119884
3885.000000	102.120456
3884.000000	102.120861
3883.000000	102.121189
3882.000000	102.121573
3881.000000	102.122090
3880.000000	102.122736
3879.000000	102.123479
3878.000000	102.124289
3877.000000	102.125158
3876.000000	102.126084
3875.000000	102.127047
3874.000000	102.128012
3873.000000	102.128940
3872.000000	102.129822
3871.000000	102.130686
3870.000000	102.131573
3869.000000	102.132506
3868.000000	102.133462
3867.000000	102.134415
3866.000000	102.135358
3865.000000	102.136285
3864.000000	102.137195
3863.000000	102.138100
3862.000000	102.139008
3861.000000	102.139917
3860.000000	102.140829
3859.000000	102.141777
3858.000000	102.142788
3857.000000	102.143862
3856.000000	102.144952
3855.000000	102.146001
3854.000000	102.147019
3853.000000	102.148077
3852.000000	102.149178
3851.000000	102.150231
3850.000000	102.151159
3849.000000	102.151919
3848.000000	102.152506
3847.000000	102.153000
3846.000000	102.153548
3845.000000	102.154257
3844.000000	102.155160
3843.000000	102.156168
3842.000000	102.157108
3841.000000	102.157874
3840.000000	102.158486
3839.000000	102.159053
3838.000000	102.159592
3837.000000	102.159989
3836.000000	102.160140
3835.000000	102.160072
3834.000000	102.159888
3833.000000	102.159678
3832.000000	102.159500
3831.000000	102.159394
3830.000000	102.159393
3829.000000	102.159489
3828.000000	102.159621
3827.000000	102.159710
3826.000000	102.159725
3825.000000	102.159696
3824.000000	102.159671
3823.000000	102.159682
3822.000000	102.159728
3821.000000	102.159791
3820.000000	102.159830
3819.000000	102.159811
3818.000000	102.159735
3817.000000	102.159616
3816.000000	102.159448
3815.000000	102.159206
3814.000000	102.158873
3813.000000	102.158464
3812.000000	102.158013
3811.000000	102.157545
3810.000000	102.157079
3809.000000	102.156635
3808.000000	102.156235
3807.000000	102.155881
3806.000000	102.155546
3805.000000	102.155185
3804.000000	102.154765
3803.000000	102.154278
3802.000000	102.153735
3801.000000	102.153149
3800.000000	102.152530
3799.000000	102.151885
3798.000000	102.151230
3797.000000	102.150579
3796.000000	102.149944
3795.000000	102.149338
3794.000000	102.148773
3793.000000	102.148247
3792.000000	102.147751
3791.000000	102.147271
3790.000000	102.146788
3789.000000	102.146278
3788.000000	102.145743
3787.000000	102.145214
3786.000000	102.144727
3785.000000	102.144314
3784.000000	102.143980
3783.000000	102.143697
3782.000000	102.143486
3781.000000	102.143462
3780.000000	102.143596
3779.000000	102.143476
3778.000000	102.142590
3777.000000	102.141132
3776.000000	102.140279
3775.000000	102.140685
3774.000000	102.141034
3773.000000	102.139464
3772.000000	102.136398
3771.000000	102.134952
3770.000000	102.137387
3769.000000	102.141891
3768.000000	102.144548
3767.000000	102.143976
3766.000000	102.141350
3765.000000	102.137425
3764.000000	102.131596
3763.000000	102.124265
3762.000000	102.118016
3761.000000	102.114341
3760.000000	102.111396
3759.000000	102.108026
3758.000000	102.106917
3757.000000	102.111547
3756.000000	102.121292
3755.000000	102.131847
3754.000000	102.138324
3753.000000	102.137086
3752.000000	102.128045
3751.000000	102.117440
3750.000000	102.112251
3749.000000	102.110775
3748.000000	102.107112
3747.000000	102.100763
3746.000000	102.096418
3745.000000	102.098197
3744.000000	102.104903
3743.000000	102.108072
3742.000000	102.106951
3741.000000	102.110708
3740.000000	102.118636
3739.000000	102.121563
3738.000000	102.115980
3737.000000	102.108251
3736.000000	102.104453
3735.000000	102.099883
3734.000000	102.086036
3733.000000	102.064625
3732.000000	102.044978
3731.000000	102.031125
3730.000000	102.021134
3729.000000	102.013590
3728.000000	102.008207
3727.000000	102.003234
3726.000000	101.997029
3725.000000	101.990796
3724.000000	101.987904
3723.000000	101.987868
3722.000000	101.984678
3721.000000	101.973520
3720.000000	101.955673
3719.000000	101.936556
3718.000000	101.919885
3717.000000	101.904797
3716.000000	101.888441
3715.000000	101.870926
3714.000000	101.855044
3713.000000	101.842353
3712.000000	101.831735
3711.000000	101.819554
3710.000000	101.800831
3709.000000	101.775029
3708.000000	101.747885
3707.000000	101.724971
3706.000000	101.707025
3705.000000	101.691400
3704.000000	101.675202
3703.000000	101.657129
3702.000000	101.637681
3701.000000	101.618141
3700.000000	101.599962
3699.000000	101.586741
3698.000000	101.582753
3697.000000	101.587625
3696.000000	101.595416
3695.000000	101.600860
3694.000000	101.604128
3693.000000	101.606706
3692.000000	101.605910
3691.000000	101.598264
3690.000000	101.587770
3689.000000	101.584464
3688.000000	101.590360
3687.000000	101.596559
3686.000000	101.596806
3685.000000	101.592418
3684.000000	101.585334
3683.000000	101.573966
3682.000000	101.556863
3681.000000	101.537577
3680.000000	101.522024
3679.000000	101.511055
3678.000000	101.500877
3677.000000	101.488674
3676.000000	101.475138
3675.000000	101.459221
3674.000000	101.434791
3673.000000	101.405278
3672.000000	101.384072
3671.000000	101.377178
3670.000000	101.380462
3669.000000	101.383196
3668.000000	101.376423
3667.000000	101.361578
3666.000000	101.343283
3665.000000	101.322332
3664.000000	101.298870
3663.000000	101.275806
3662.000000	101.257323
3661.000000	101.244784
3660.000000	101.234814
3659.000000	101.221879
3658.000000	101.203367
3657.000000	101.181879
3656.000000	101.162012
3655.000000	101.143432
3654.000000	101.123354
3653.000000	101.102839
3652.000000	101.085588
3651.000000	101.074992
3650.000000	101.073320
3649.000000	101.078303
3648.000000	101.082285
3647.000000	101.080489
3646.000000	101.074391
3645.000000	101.066379
3644.000000	101.056357
3643.000000	101.043062
3642.000000	101.026218
3641.000000	101.007676
3640.000000	100.990353
3639.000000	100.975391
3638.000000	100.959707
3637.000000	100.938899
3636.000000	100.914876
3635.000000	100.897134
3634.000000	100.892232
3633.000000	100.893537
3632.000000	100.886080
3631.000000	100.860337
3630.000000	100.821903
3629.000000	100.790070
3628.000000	100.775355
3627.000000	100.768944
3626.000000	100.765965
3625.000000	100.768317
3624.000000	100.773982
3623.000000	100.780266
3622.000000	100.788641
3621.000000	100.803049
3620.000000	100.823072
3619.000000	100.841201
3618.000000	100.849930
3617.000000	100.851147
3616.000000	100.855138
3615.000000	100.869722
3614.000000	100.892961
3613.000000	100.914936
3612.000000	100.926127
3611.000000	100.924864
3610.000000	100.916758
3609.000000	100.908813
3608.000000	100.905867
3607.000000	100.909691
3606.000000	100.920009
3605.000000	100.935707
3604.000000	100.954117
3603.000000	100.971585
3602.000000	100.986511
3601.000000	101.000590
3600.000000	101.016265
3599.000000	101.034222
3598.000000	101.053343
3597.000000	101.070495
3596.000000	101.082247
3595.000000	101.087560
3594.000000	101.088386
3593.000000	101.087230
3592.000000	101.085669
3591.000000	101.084165
3590.000000	101.083284
3589.000000	101.084550
3588.000000	101.089969
3587.000000	101.099141
3586.000000	101.108722
3585.000000	101.117032
3584.000000	101.124495
3583.000000	101.129493
3582.000000	101.129378
3581.000000	101.124407
3580.000000	101.118722
3579.000000	101.117189
3578.000000	101.121498
3577.000000	101.128959
3576.000000	101.135341
3575.000000	101.138741
3574.000000	101.140311
3573.000000	101.141199
3572.000000	101.140108
3571.000000	101.134684
3570.000000	101.125070
3569.000000	101.115430
3568.000000	101.110331
3567.000000	101.109302
3566.000000	101.107837
3565.000000	101.105079
3564.000000	101.105839
3563.000000	101.113294
3562.000000	101.124639
3561.000000	101.134092
3560.000000	101.137890
3559.000000	101.136160
3558.000000	101.131373
3557.000000	101.126118
3556.000000	101.121739
3555.000000	101.118379
3554.000000	101.115845
3553.000000	101.114421
3552.000000	101.114617
3551.000000	101.116186
3550.000000	101.117816
3549.000000	101.118099
3548.000000	101.116748
3547.000000	101.114965
3546.000000	101.114153
3545.000000	101.114117
3544.000000	101.113477
3543.000000	101.111769
3542.000000	101.110021
3541.000000	101.109236
3540.000000	101.109074
3539.000000	101.108334
3538.000000	101.106344
3537.000000	101.103550
3536.000000	101.100942
3535.000000	101.099203
3534.000000	101.098430
3533.000000	101.098358
3532.000000	101.098596
3531.000000	101.098898
3530.000000	101.099318
3529.000000	101.099929
3528.000000	101.100397
3527.000000	101.100040
3526.000000	101.098544
3525.000000	101.096429
3524.000000	101.094498
3523.000000	101.093004
3522.000000	101.091667
3521.000000	101.090335
3520.000000	101.089293
3519.000000	101.088869
3518.000000	101.089062
3517.000000	101.089640
3516.000000	101.090406
3515.000000	101.091223
3514.000000	101.091818
3513.000000	101.091753
3512.000000	101.090701
3511.000000	101.088719
3510.000000	101.086319
3509.000000	101.084195
3508.000000	101.082781
3507.000000	101.082055
3506.000000	101.081736
3505.000000	101.081550
3504.000000	101.081374
3503.000000	101.081153
3502.000000	101.080714
3501.000000	101.079689
3500.000000	101.077665
3499.000000	101.074547
3498.000000	101.070961
3497.000000	101.068144
3496.000000	101.066882
3495.000000	101.066792
3494.000000	101.066657
3493.000000	101.065781
3492.000000	101.064665
3491.000000	101.064186
3490.000000	101.064543
3489.000000	101.065067
3488.000000	101.064857
3487.000000	101.063479
3486.000000	101.061078
3485.000000	101.058202
3484.000000	101.055596
3483.000000	101.053820
3482.000000	101.052774
3481.000000	101.051628
3480.000000	101.049576
3479.000000	101.046658
3478.000000	101.043730
3477.000000	101.041640
3476.000000	101.040590
3475.000000	101.040197
3474.000000	101.039911
3473.000000	101.039273
3472.000000	101.037902
3471.000000	101.035574
3470.000000	101.032481
3469.000000	101.029287
3468.000000	101.026682
3467.000000	101.024799
3466.000000	101.023168
3465.000000	101.021305
3464.000000	101.019264
3463.000000	101.017464
3462.000000	101.016115
3461.000000	101.015101
3460.000000	101.014417
3459.000000	101.014300
3458.000000	101.014677
3457.000000	101.014647
3456.000000	101.012943
3455.000000	101.009025
3454.000000	101.003743
3453.000000	100.998882
3452.000000	100.995724
3451.000000	100.994075
3450.000000	100.992672
3449.000000	100.990568
3448.000000	100.988207
3447.000000	100.986790
3446.000000	100.986659
3445.000000	100.986792
3444.000000	100.986024
3443.000000	100.984629
3442.000000	100.984394
3441.000000	100.986856
3440.000000	100.991468
3439.000000	100.995671
3438.000000	100.997062
3437.000000	100.995251
3436.000000	100.991673
3435.000000	100.987829
3434.000000	100.984149
3433.000000	100.980592
3432.000000	100.977632
3431.000000	100.976117
3430.000000	100.976468
3429.000000	100.978452
3428.000000	100.981582
3427.000000	100.985231
3426.000000	100.988327
3425.000000	100.989451
3424.000000	100.987742
3423.000000	100.983732
3422.000000	100.979165
3421.000000	100.975916
3420.000000	100.974899
3419.000000	100.975766
3418.000000	100.977327
3417.000000	100.978270
3416.000000	100.977822
3415.000000	100.975964
3414.000000	100.973264
3413.000000	100.970562
3412.000000	100.968584
3411.000000	100.967558
3410.000000	100.967110
3409.000000	100.966623
3408.000000	100.965733
3407.000000	100.964322
3406.000000	100.962070
3405.000000	100.958535
3404.000000	100.954109
3403.000000	100.950572
3402.000000	100.949944
3401.000000	100.952707
3400.000000	100.957360
3399.000000	100.961653
3398.000000	100.964154
3397.000000	100.964792
3396.000000	100.964634
3395.000000	100.965151
3394.000000	100.966973
3393.000000	100.969121
3392.000000	100.969989
3391.000000	100.969239
3390.000000	100.967996
3389.000000	100.966934
3388.000000	100.965220
3387.000000	100.962208
3386.000000	100.959352
3385.000000	100.959023
3384.000000	100.961466
3383.000000	100.964072
3382.000000	100.964145
3381.000000	100.961569
3380.000000	100.958292
3379.000000	100.956048
3378.000000	100.955251
3377.000000	100.955543
3376.000000	100.956225
3375.000000	100.956207
3374.000000	100.954670
3373.000000	100.952346
3372.000000	100.951502
3371.000000	100.953927
3370.000000	100.959245
3369.000000	100.965305
3368.000000	100.970181
3367.000000	100.973545
3366.000000	100.976136
3365.000000	100.978498
3364.000000	100.980332
3363.000000	100.980780
3362.000000	100.979175
3361.000000	100.975684
3360.000000	100.971529
3359.000000	100.968538
3358.000000	100.967973
3357.000000	100.969519
3356.000000	100.971410
3355.000000	100.971836
3354.000000	100.970521
3353.000000	100.968749
3352.000000	100.967900
3351.000000	100.968177
3350.000000	100.968875
3349.000000	100.969522
3348.000000	100.970282
3347.000000	100.971337
3346.000000	100.972546
3345.000000	100.973927
3344.000000	100.975946
3343.000000	100.978788
3342.000000	100.981544
3341.000000	100.982790
3340.000000	100.981996
3339.000000	100.979921
3338.000000	100.977769
3337.000000	100.976193
3336.000000	100.975408
3335.000000	100.975731
3334.000000	100.977437
3333.000000	100.980231
3332.000000	100.983194
3331.000000	100.985383
3330.000000	100.986431
3329.000000	100.986573
3328.000000	100.986394
3327.000000	100.986522
3326.000000	100.987210
3325.000000	100.988076
3324.000000	100.988404
3323.000000	100.987887
3322.000000	100.986984
3321.000000	100.986489
3320.000000	100.986736
3319.000000	100.987353
3318.000000	100.987806
3317.000000	100.988139
3316.000000	100.988963
3315.000000	100.990602
3314.000000	100.992457
3313.000000	100.993524
3312.000000	100.993445
3311.000000	100.992757
3310.000000	100.992084
3309.000000	100.991482
3308.000000	100.990846
3307.000000	100.990612
3306.000000	100.991506
3305.000000	100.993683
3304.000000	100.996693
3303.000000	101.000131
3302.000000	101.003706
3301.000000	101.006618
3300.000000	101.007622
3299.000000	101.006245
3298.000000	101.003616
3297.000000	101.001683
3296.000000	101.001372
3295.000000	101.002113
3294.000000	101.002992
3293.000000	101.003796
3292.000000	101.004865
3291.000000	101.006416
3290.000000	101.008287
3289.000000	101.010078
3288.000000	101.011349
3287.000000	101.011969
3286.000000	101.012414
3285.000000	101.013374
3284.000000	101.014837
3283.000000	101.015842
3282.000000	101.015470
3281.000000	101.013845
3280.000000	101.011918
3279.000000	101.010453
3278.000000	101.009591
3277.000000	101.009290
3276.000000	101.009651
3275.000000	101.010733
3274.000000	101.012429
3273.000000	101.014661
3272.000000	101.017364
3271.000000	101.020129
3270.000000	101.022292
3269.000000	101.023662
3268.000000	101.024950
3267.000000	101.027143
3266.000000	101.030370
3265.000000	101.033493
3264.000000	101.035042
3263.000000	101.034604
3262.000000	101.033208
3261.000000	101.032510
3260.000000	101.033303
3259.000000	101.035018
3258.000000	101.036524
3257.000000	101.037333
3256.000000	101.037962
3255.000000	101.039240
3254.000000	101.041569
3253.000000	101.044819
3252.000000	101.048501
3251.000000	101.051847
3250.000000	101.054042
3249.000000	101.054773
3248.000000	101.054564
3247.000000	101.054341
3246.000000	101.054638
3245.000000	101.055430
3244.000000	101.056583
3243.000000	101.058046
3242.000000	101.059577
3241.000000	101.060669
3240.000000	101.061054
3239.000000	101.061162
3238.000000	101.061823
3237.000000	101.063516
3236.000000	101.066018
3235.000000	101.068638
3234.000000	101.070628
3233.000000	101.071461
3232.000000	101.071055
3231.000000	101.070041
3230.000000	101.069672
3229.000000	101.071092
3228.000000	101.074457
3227.000000	101.078624
3226.000000	101.081995
3225.000000	101.083908
3224.000000	101.085111
3223.000000	101.086830
3222.000000	101.089467
3221.000000	101.092495
3220.000000	101.095542
3219.000000	101.098959
3218.000000	101.102889
3217.000000	101.106315
3216.000000	101.107722
3215.000000	101.106506
3214.000000	101.103357
3213.000000	101.099551
3212.000000	101.096375
3211.000000	101.095161
3210.000000	101.096897
3209.000000	101.101220
3208.000000	101.106188
3207.000000	101.109831
3206.000000	101.111914
3205.000000	101.113626
3204.000000	101.115878
3203.000000	101.118572
3202.000000	101.121441
3201.000000	101.124756
3200.000000	101.128694
3199.000000	101.132604
3198.000000	101.135566
3197.000000	101.137457
3196.000000	101.139000
3195.000000	101.140887
3194.000000	101.143347
3193.000000	101.146532
3192.000000	101.150691
3191.000000	101.155559
3190.000000	101.159946
3189.000000	101.162643
3188.000000	101.163684
3187.000000	101.164458
3186.000000	101.166458
3185.000000	101.169889
3184.000000	101.173701
3183.000000	101.176773
3182.000000	101.178924
3181.000000	101.180742
3180.000000	101.182777
3179.000000	101.185188
3178.000000	101.187978
3177.000000	101.191161
3176.000000	101.194555
3175.000000	101.197698
3174.000000	101.200210
3173.000000	101.202132
3172.000000	101.203799
3171.000000	101.205478
3170.000000	101.207302
3169.000000	101.209441
3168.000000	101.212015
3167.000000	101.214820
3166.000000	101.217426
3165.000000	101.219656
3164.000000	101.221741
3163.000000	101.223816
3162.000000	101.225509
3161.000000	101.226379
3160.000000	101.226768
3159.000000	101.227863
3158.000000	101.230646
3157.000000	101.235112
3156.000000	101.240395
3155.000000	101.245477
3154.000000	101.249694
3153.000000	101.252608
3152.000000	101.253878
3151.000000	101.253533
3150.000000	101.252336
3149.000000	101.251614
3148.000000	101.252411
3147.000000	101.254845
3146.000000	101.258132
3145.000000	101.261294
3144.000000	101.264039
3143.000000	101.266800
3142.000000	101.270013
3141.000000	101.273567
3140.000000	101.277005
3139.000000	101.280061
3138.000000	101.282813
3137.000000	101.285348
3136.000000	101.287500
3135.000000	101.289108
3134.000000	101.290436
3133.000000	101.292110
3132.000000	101.294526
3131.000000	101.297406
3130.000000	101.300114
3129.000000	101.302386
3128.000000	101.304605
3127.000000	101.307300
3126.000000	101.310528
3125.000000	101.313926
3124.000000	101.317226
3123.000000	101.320502
3122.000000	101.323862
3121.000000	101.327047
3120.000000	101.329542
3119.000000	101.331161
3118.000000	101.332457
3117.000000	101.334370
3116.000000	101.337381
3115.000000	101.341077
3114.000000	101.344647
3113.000000	101.347702
3112.000000	101.350307
3111.000000	101.352547
3110.000000	101.354664
3109.000000	101.357609
3108.000000	101.362618
3107.000000	101.369627
3106.000000	101.376450
3105.000000	101.380449
3104.000000	101.381027
3103.000000	101.379831
3102.000000	101.378838
3101.000000	101.378548
3100.000000	101.378222
3099.000000	101.377430
3098.000000	101.376783
3097.000000	101.377179
3096.000000	101.378839
3095.000000	101.381356
3094.000000	101.384415
3093.000000	101.388064
3092.000000	101.392293
3091.000000	101.396654
3090.000000	101.400568
3089.000000	101.403943
3088.000000	101.407152
3087.000000	101.410326
3086.000000	101.412920
3085.000000	101.414158
3084.000000	101.413883
3083.000000	101.412977
3082.000000	101.412870
3081.000000	101.414399
3080.000000	101.417125
3079.000000	101.419783
3078.000000	101.421503
3077.000000	101.422673
3076.000000	101.424471
3075.000000	101.427639
3074.000000	101.431862
3073.000000	101.436144
3072.000000	101.439662
3071.000000	101.442304
3070.000000	101.444552
3069.000000	101.446973
3068.000000	101.449687
3067.000000	101.452283
3066.000000	101.454289
3065.000000	101.455701
3064.000000	101.456978
3063.000000	101.458565
3062.000000	101.460503
3061.000000	101.462504
3060.000000	101.464258
3059.000000	101.465680
3058.000000	101.466956
3057.000000	101.468424
3056.000000	101.470324
3055.000000	101.472658
3054.000000	101.475227
3053.000000	101.477737
3052.000000	101.479944
3051.000000	101.481779
3050.000000	101.483386
3049.000000	101.485046
3048.000000	101.486947
3047.000000	101.489048
3046.000000	101.491144
3045.000000	101.493048
3044.000000	101.494728
3043.000000	101.496267
3042.000000	101.497787
3041.000000	101.499396
3040.000000	101.501158
3039.000000	101.503046
3038.000000	101.504971
3037.000000	101.506844
3036.000000	101.508642
3035.000000	101.510384
3034.000000	101.512100
3033.000000	101.513813
3032.000000	101.515542
3031.000000	101.517289
3030.000000	101.519037
3029.000000	101.520773
3028.000000	101.522494
3027.000000	101.524208
3026.000000	101.525919
3025.000000	101.527630
3024.000000	101.529343
3023.000000	101.531064
3022.000000	101.532791
3021.000000	101.534517
3020.000000	101.536233
3019.000000	101.537940
3018.000000	101.539648
3017.000000	101.541373
3016.000000	101.543132
3015.000000	101.544928
3014.000000	101.546752
3013.000000	101.548579
3012.000000	101.550381
3011.000000	101.552143
3010.000000	101.553871
3009.000000	101.555597
3008.000000	101.557345
3007.000000	101.559117
3006.000000	101.560905
3005.000000	101.562698
3004.000000	101.564487
3003.000000	101.566271
3002.000000	101.568081
3001.000000	101.569981
3000.000000	101.572014
2999.000000	101.574102
2998.000000	101.576069
2997.000000	101.577811
2996.000000	101.579428
2995.000000	101.581139
2994.000000	101.583050
2993.000000	101.585077
2992.000000	101.587084
2991.000000	101.588951
2990.000000	101.590473
2989.000000	101.591428
2988.000000	101.591948
2987.000000	101.592701
2986.000000	101.594403
2985.000000	101.597235
2984.000000	101.600756
2983.000000	101.604299
2982.000000	101.607320
2981.000000	101.609441
2980.000000	101.610526
2979.000000	101.610808
2978.000000	101.610847
2977.000000	101.611212
2976.000000	101.612244
2975.000000	101.614165
2974.000000	101.617173
2973.000000	101.621167
2972.000000	101.625303
2971.000000	101.628204
2970.000000	101.629095
2969.000000	101.628742
2968.000000	101.629043
2967.000000	101.631375
2966.000000	101.635570
2965.000000	101.640478
2964.000000	101.644884
2963.000000	101.647699
2962.000000	101.648073
2961.000000	101.646195
2960.000000	101.643583
2959.000000	101.641676
2958.000000	101.640311
2957.000000	101.638494
2956.000000	101.636382
2955.000000	101.635397
2954.000000	101.636183
2953.000000	101.637684
2952.000000	101.638750
2951.000000	101.639685
2950.000000	101.641334
2949.000000	101.643365
2948.000000	101.644567
2947.000000	101.644665
2946.000000	101.644893
2945.000000	101.646597
2944.000000	101.650028
2943.000000	101.654625
2942.000000	101.659695
2941.000000	101.664408
2940.000000	101.667592
2939.000000	101.668368
2938.000000	101.667115
2937.000000	101.665494
2936.000000	101.665156
2935.000000	101.666431
2934.000000	101.668373
2933.000000	101.669782
2932.000000	101.670100
2931.000000	101.669602
2930.000000	101.669199
2929.000000	101.669973
2928.000000	101.672420
2927.000000	101.675844
2926.000000	101.678699
2925.000000	101.679925
2924.000000	101.679820
2923.000000	101.679575
2922.000000	101.680157
2921.000000	101.681841
2920.000000	101.684543
2919.000000	101.688037
2918.000000	101.691818
2917.000000	101.695197
2916.000000	101.697712
2915.000000	101.699295
2914.000000	101.700038
2913.000000	101.700068
2912.000000	101.699749
2911.000000	101.699729
2910.000000	101.700499
2909.000000	101.702070
2908.000000	101.704289
2907.000000	101.707255
2906.000000	101.711154
2905.000000	101.715648
2904.000000	101.719697
2903.000000	101.722280
2902.000000	101.723175
2901.000000	101.723002
2900.000000	101.722600
2899.000000	101.722381
2898.000000	101.722437
2897.000000	101.722972
2896.000000	101.724305
2895.000000	101.726472
2894.000000	101.729047
2893.000000	101.731502
2892.000000	101.733636
2891.000000	101.735514
2890.000000	101.737213
2889.000000	101.738792
2888.000000	101.740388
2887.000000	101.742149
2886.000000	101.744083
2885.000000	101.746077
2884.000000	101.748020
2883.000000	101.749841
2882.000000	101.751515
2881.000000	101.753150
2880.000000	101.754990
2879.000000	101.757165
2878.000000	101.759485
2877.000000	101.761581
2876.000000	101.763272
2875.000000	101.764693
2874.000000	101.766152
2873.000000	101.767901
2872.000000	101.770006
2871.000000	101.772368
2870.000000	101.774763
2869.000000	101.776963
2868.000000	101.778902
2867.000000	101.780698
2866.000000	101.782526
2865.000000	101.784469
2864.000000	101.786503
2863.000000	101.788588
2862.000000	101.790717
2861.000000	101.792875
2860.000000	101.794994
2859.000000	101.796991
2858.000000	101.798834
2857.000000	101.800594
2856.000000	101.802421
2855.000000	101.804422
2854.000000	101.806529
2853.000000	101.808493
2852.000000	101.810046
2851.000000	101.811099
2850.000000	101.811945
2849.000000	101.813121
2848.000000	101.814984
2847.000000	101.817492
2846.000000	101.820299
2845.000000	101.823060
2844.000000	101.825590
2843.000000	101.827861
2842.000000	101.829959
2841.000000	101.831981
2840.000000	101.833901
2839.000000	101.835599
2838.000000	101.837099
2837.000000	101.838720
2836.000000	101.840811
2835.000000	101.843255
2834.000000	101.845414
2833.000000	101.846818
2832.000000	101.847773
2831.000000	101.848993
2830.000000	101.850711
2829.000000	101.852556
2828.000000	101.854344
2827.000000	101.856528
2826.000000	101.859510
2825.000000	101.862792
2824.000000	101.865320
2823.000000	101.866611
2822.000000	101.867129
2821.000000	101.867625
2820.000000	101.868384
2819.000000	101.869377
2818.000000	101.870748
2817.000000	101.872704
2816.000000	101.875027
2815.000000	101.877064
2814.000000	101.878294
2813.000000	101.878749
2812.000000	101.878880
2811.000000	101.879281
2810.000000	101.880650
2809.000000	101.883649
2808.000000	101.888345
2807.000000	101.893855
2806.000000	101.898755
2805.000000	101.902113
2804.000000	101.904018
2803.000000	101.905109
2802.000000	101.905980
2801.000000	101.907140
2800.000000	101.909142
2799.000000	101.912208
2798.000000	101.915693
2797.000000	101.918409
2796.000000	101.919696
2795.000000	101.919854
2794.000000	101.919575
2793.000000	101.919372
2792.000000	101.919720
2791.000000	101.921232
2790.000000	101.924112
2789.000000	101.927604
2788.000000	101.930513
2787.000000	101.932426
2786.000000	101.934035
2785.000000	101.936201
2784.000000	101.938974
2783.000000	101.941682
2782.000000	101.943689
2781.000000	101.944784
2780.000000	101.944997
2779.000000	101.944436
2778.000000	101.943439
2777.000000	101.942727
2776.000000	101.943085
2775.000000	101.944778
2774.000000	101.947401
2773.000000	101.950233
2772.000000	101.952756
2771.000000	101.954750
2770.000000	101.956091
2769.000000	101.956804
2768.000000	101.957284
2767.000000	101.958082
2766.000000	101.959305
2765.000000	101.960460
2764.000000	101.961117
2763.000000	101.961530
2762.000000	101.962280
2761.000000	101.963396
2760.000000	101.964314
2759.000000	101.964708
2758.000000	101.964947
2757.000000	101.965601
2756.000000	101.966745
2755.000000	101.968010
2754.000000	101.969126
2753.000000	101.970102
2752.000000	101.970947
2751.000000	101.971584
2750.000000	101.972036
2749.000000	101.972526
2748.000000	101.973252
2747.000000	101.974181
2746.000000	101.975150
2745.000000	101.976060
2744.000000	101.976914
2743.000000	101.977755
2742.000000	101.978604
2741.000000	101.979459
2740.000000	101.980311
2739.000000	101.981154
2738.000000	101.981993
2737.000000	101.982835
2736.000000	101.983690
2735.000000	101.984561
2734.000000	101.985436
2733.000000	101.986298
2732.000000	101.987132
2731.000000	101.987931
2730.000000	101.988698
2729.000000	101.989442
2728.000000	101.990176
2727.000000	101.990902
2726.000000	101.991620
2725.000000	101.992328
2724.000000	101.993027
2723.000000	101.993718
2722.000000	101.994402
2721.000000	101.995078
2720.000000	101.995746
2719.000000	101.996403
2718.000000	101.997046
2717.000000	101.997672
2716.000000	101.998278
2715.000000	101.998858
2714.000000	101.999405
2713.000000	101.999918
2712.000000	102.000409
2711.000000	102.000898
2710.000000	102.001408
2709.000000	102.001944
2708.000000	102.002495
2707.000000	102.003042
2706.000000	102.003571
2705.000000	102.004077
2704.000000	102.004562
2703.000000	102.005034
2702.000000	102.005497
2701.000000	102.005959
2700.000000	102.006415
2699.000000	102.006831
2698.000000	102.007169
2697.000000	102.007429
2696.000000	102.007676
2695.000000	102.007965
2694.000000	102.008287
2693.000000	102.008586
2692.000000	102.008848
2691.000000	102.009114
2690.000000	102.009421
2689.000000	102.009784
2688.000000	102.010216
2687.000000	102.010719
2686.000000	102.011232
2685.000000	102.011662
2684.000000	102.012004
2683.000000	102.012322
2682.000000	102.012579
2681.000000	102.012598
2680.000000	102.012288
2679.000000	102.011858
2678.000000	102.011626
2677.000000	102.011650
2676.000000	102.011727
2675.000000	102.011796
2674.000000	102.012085
2673.000000	102.012709
2672.000000	102.013390
2671.000000	102.013782
2670.000000	102.013983
2669.000000	102.014432
2668.000000	102.015300
2667.000000	102.016271
2666.000000	102.017072
2665.000000	102.017884
2664.000000	102.018884
2663.000000	102.019698
2662.000000	102.019775
2661.000000	102.019169
2660.000000	102.018466
2659.000000	102.017999
2658.000000	102.017623
2657.000000	102.017317
2656.000000	102.017536
2655.000000	102.018529
2654.000000	102.019728
2653.000000	102.020247
2652.000000	102.019878
2651.000000	102.019187
2650.000000	102.018764
2649.000000	102.018663
2648.000000	102.018694
2647.000000	102.018854
2646.000000	102.019243
2645.000000	102.019751
2644.000000	102.020127
2643.000000	102.020294
2642.000000	102.020356
2641.000000	102.020317
2640.000000	102.020062
2639.000000	102.019699
2638.000000	102.019675
2637.000000	102.020276
2636.000000	102.021261
2635.000000	102.022099
2634.000000	102.022559
2633.000000	102.022824
2632.000000	102.023125
2631.000000	102.023485
2630.000000	102.023845
2629.000000	102.024228
2628.000000	102.024620
2627.000000	102.024820
2626.000000	102.024654
2625.000000	102.024235
2624.000000	102.023894
2623.000000	102.023822
2622.000000	102.023942
2621.000000	102.024123
2620.000000	102.024361
2619.000000	102.024695
2618.000000	102.025033
2617.000000	102.025196
2616.000000	102.025138
2615.000000	102.024984
2614.000000	102.024921
2613.000000	102.024982
2612.000000	102.025084
2611.000000	102.025143
2610.000000	102.025155
2609.000000	102.025157
2608.000000	102.025183
2607.000000	102.025240
2606.000000	102.025322
2605.000000	102.025412
2604.000000	102.025501
2603.000000	102.025598
2602.000000	102.025717
2601.000000	102.025863
2600.000000	102.026036
2599.000000	102.026218
2598.000000	102.026390
2597.000000	102.026540
2596.000000	102.026668
2595.000000	102.026774
2594.000000	102.026864
2593.000000	102.026949
2592.000000	102.027051
2591.000000	102.027184
2590.000000	102.027349
2589.000000	102.027537
2588.000000	102.027743
2587.000000	102.027969
2586.000000	102.028217
2585.000000	102.028491
2584.000000	102.028793
2583.000000	102.029125
2582.000000	102.029477
2581.000000	102.029827
2580.000000	102.030157
2579.000000	102.030467
2578.000000	102.030775
2577.000000	102.031100
2576.000000	102.031457
2575.000000	102.031852
2574.000000	102.032282
2573.000000	102.032734
2572.000000	102.033192
2571.000000	102.033648
2570.000000	102.034108
2569.000000	102.034577
2568.000000	102.035050
2567.000000	102.035511
2566.000000	102.035950
2565.000000	102.036376
2564.000000	102.036811
2563.000000	102.037277
2562.000000	102.037778
2561.000000	102.038304
2560.000000	102.038839
2559.000000	102.039372
2558.000000	102.039897
2557.000000	102.040421
2556.000000	102.040957
2555.000000	102.041519
2554.000000	102.042107
2553.000000	102.042712
2552.000000	102.043320
2551.000000	102.043930
2550.000000	102.044545
2549.000000	102.045167
2548.000000	102.045789
2547.000000	102.046407
2546.000000	102.047020
2545.000000	102.047629
2544.000000	102.048231
2543.000000	102.048819
2542.000000	102.049394
2541.000000	102.049953
2540.000000	102.050497
2539.000000	102.051033
2538.000000	102.051562
2537.000000	102.052085
2536.000000	102.052644
2535.000000	102.053305
2534.000000	102.054087
2533.000000	102.054898
2532.000000	102.055578
2531.000000	102.055994
2530.000000	102.056142
2529.000000	102.056142
2528.000000	102.056102
2527.000000	102.056041
2526.000000	102.055979
2525.000000	102.056062
2524.000000	102.056653
2523.000000	102.058184
2522.000000	102.060783
2521.000000	102.064080
2520.000000	102.067216
2519.000000	102.069389
2518.000000	102.070165
2517.000000	102.069386
2516.000000	102.067427
2515.000000	102.065430
2514.000000	102.064661
2513.000000	102.065294
2512.000000	102.066152
2511.000000	102.066099
2510.000000	102.065530
2509.000000	102.065752
2508.000000	102.067092
2507.000000	102.068542
2506.000000	102.069236
2505.000000	102.069418
2504.000000	102.069641
2503.000000	102.069875
2502.000000	102.069952
2501.000000	102.070183
2500.000000	102.070816
2499.000000	102.071409
2498.000000	102.071560
2497.000000	102.071908
2496.000000	102.073458
2495.000000	102.076101
2494.000000	102.078616
2493.000000	102.080188
2492.000000	102.081185
2491.000000	102.082212
2490.000000	102.083221
2489.000000	102.083913
2488.000000	102.084422
2487.000000	102.085079
2486.000000	102.085839
2485.000000	102.086388
2484.000000	102.086663
2483.000000	102.086990
2482.000000	102.087785
2481.000000	102.089299
2480.000000	102.091492
2479.000000	102.093885
2478.000000	102.095718
2477.000000	102.096571
2476.000000	102.096679
2475.000000	102.096655
2474.000000	102.096901
2473.000000	102.097365
2472.000000	102.097852
2471.000000	102.098375
2470.000000	102.099147
2469.000000	102.100315
2468.000000	102.101797
2467.000000	102.103322
2466.000000	102.104664
2465.000000	102.105803
2464.000000	102.106821
2463.000000	102.107725
2462.000000	102.108485
2461.000000	102.109195
2460.000000	102.110040
2459.000000	102.111072
2458.000000	102.112163
2457.000000	102.113195
2456.000000	102.114184
2455.000000	102.115132
2454.000000	102.115945
2453.000000	102.116599
2452.000000	102.117306
2451.000000	102.118312
2450.000000	102.119601
2449.000000	102.120881
2448.000000	102.121925
2447.000000	102.122774
2446.000000	102.123598
2445.000000	102.124466
2444.000000	102.125310
2443.000000	102.126079
2442.000000	102.126825
2441.000000	102.127636
2440.000000	102.128535
2439.000000	102.129444
2438.000000	102.130270
2437.000000	102.131022
2436.000000	102.131821
2435.000000	102.132761
2434.000000	102.133785
2433.000000	102.134748
2432.000000	102.135558
2431.000000	102.136232
2430.000000	102.136859
2429.000000	102.137554
2428.000000	102.138411
2427.000000	102.139406
2426.000000	102.140323
2425.000000	102.140888
2424.000000	102.140984
2423.000000	102.140700
2422.000000	102.140242
2421.000000	102.139936
2420.000000	102.140228
2419.000000	102.141380
2418.000000	102.143100
2417.000000	102.144688
2416.000000	102.145715
2415.000000	102.146196
2414.000000	102.146243
2413.000000	102.146057
2412.000000	102.146208
2411.000000	102.147464
2410.000000	102.149916
2409.000000	102.152549
2408.000000	102.154236
2407.000000	102.154819
2406.000000	102.154963
2405.000000	102.155388
2404.000000	102.156461
2403.000000	102.158167
2402.000000	102.160068
2401.000000	102.161537
2400.000000	102.162253
2399.000000	102.162291
2398.000000	102.161712
2397.000000	102.160622
2396.000000	102.159740
2395.000000	102.160078
2394.000000	102.161592
2393.000000	102.162877
2392.000000	102.162823
2391.000000	102.162031
2390.000000	102.161836
2389.000000	102.162481
2388.000000	102.163110
2387.000000	102.163265
2386.000000	102.163483
2385.000000	102.164477
2384.000000	102.166441
2383.000000	102.169195
2382.000000	102.172389
2381.000000	102.175352
2380.000000	102.177368
2379.000000	102.178392
2378.000000	102.179178
2377.000000	102.180551
2376.000000	102.183025
2375.000000	102.187101
2374.000000	102.192944
2373.000000	102.199126
2372.000000	102.202567
2371.000000	102.201016
2370.000000	102.195075
2369.000000	102.187639
2368.000000	102.181565
2367.000000	102.178169
2366.000000	102.177595
2365.000000	102.179380
2364.000000	102.182762
2363.000000	102.186955
2362.000000	102.190712
2361.000000	102.192942
2360.000000	102.194050
2359.000000	102.194973
2358.000000	102.196016
2357.000000	102.196478
2356.000000	102.196148
2355.000000	102.196063
2354.000000	102.195860
2353.000000	102.194082
2352.000000	102.190757
2351.000000	102.188653
2350.000000	102.190079
2349.000000	102.193434
2348.000000	102.195845
2347.000000	102.195916
2346.000000	102.195106
2345.000000	102.195368
2344.000000	102.196350
2343.000000	102.197699
2342.000000	102.199866
2341.000000	102.203712
2340.000000	102.207573
2339.000000	102.208348
2338.000000	102.205444
2337.000000	102.200998
2336.000000	102.197728
2335.000000	102.196529
2334.000000	102.196545
2333.000000	102.196129
2332.000000	102.193683
2331.000000	102.188795
2330.000000	102.183153
2329.000000	102.178685
2328.000000	102.177054
2327.000000	102.177850
2326.000000	102.179869
2325.000000	102.182206
2324.000000	102.184407
2323.000000	102.186980
2322.000000	102.189088
2321.000000	102.189701
2320.000000	102.187932
2319.000000	102.184083
2318.000000	102.178863
2317.000000	102.172701
2316.000000	102.166635
2315.000000	102.162150
2314.000000	102.160445
2313.000000	102.160716
2312.000000	102.160935
2311.000000	102.159531
2310.000000	102.156614
2309.000000	102.152989
2308.000000	102.149384
2307.000000	102.146586
2306.000000	102.145308
2305.000000	102.145539
2304.000000	102.146054
2303.000000	102.145543
2302.000000	102.143619
2301.000000	102.140680
2300.000000	102.137052
2299.000000	102.132872
2298.000000	102.128726
2297.000000	102.125521
2296.000000	102.123692
2295.000000	102.122685
2294.000000	102.121590
2293.000000	102.120011
2292.000000	102.118134
2291.000000	102.116247
2290.000000	102.114326
2289.000000	102.112222
2288.000000	102.109842
2287.000000	102.107303
2286.000000	102.104875
2285.000000	102.102925
2284.000000	102.101649
2283.000000	102.100910
2282.000000	102.100270
2281.000000	102.099291
2280.000000	102.097854
2279.000000	102.096117
2278.000000	102.094224
2277.000000	102.092129
2276.000000	102.089709
2275.000000	102.087015
2274.000000	102.084477
2273.000000	102.082618
2272.000000	102.081523
2271.000000	102.080639
2270.000000	102.079344
2269.000000	102.077649
2268.000000	102.076089
2267.000000	102.075049
2266.000000	102.074357
2265.000000	102.073550
2264.000000	102.072421
2263.000000	102.071169
2262.000000	102.070099
2261.000000	102.069288
2260.000000	102.068551
2259.000000	102.067675
2258.000000	102.066605
2257.000000	102.065452
2256.000000	102.064344
2255.000000	102.063308
2254.000000	102.062350
2253.000000	102.061613
2252.000000	102.061323
2251.000000	102.061510
2250.000000	102.061832
2249.000000	102.061759
2248.000000	102.061054
2247.000000	102.059896
2246.000000	102.058658
2245.000000	102.057642
2244.000000	102.056976
2243.000000	102.056695
2242.000000	102.056730
2241.000000	102.056837
2240.000000	102.056733
2239.000000	102.056340
2238.000000	102.055822
2237.000000	102.055409
2236.000000	102.055201
2235.000000	102.055172
2234.000000	102.055295
2233.000000	102.055579
2232.000000	102.055961
2231.000000	102.056308
2230.000000	102.056535
2229.000000	102.056682
2228.000000	102.056860
2227.000000	102.057144
2226.000000	102.057530
2225.000000	102.057974
2224.000000	102.058443
2223.000000	102.058917
2222.000000	102.059387
2221.000000	102.059852
2220.000000	102.060320
2219.000000	102.060796
2218.000000	102.061282
2217.000000	102.061779
2216.000000	102.062294
2215.000000	102.062830
2214.000000	102.063391
2213.000000	102.063970
2212.000000	102.064558
2211.000000	102.065145
2210.000000	102.065727
2209.000000	102.066311
2208.000000	102.066909
2207.000000	102.067539
2206.000000	102.068209
2205.000000	102.068916
2204.000000	102.069643
2203.000000	102.070374
2202.000000	102.071101
2201.000000	102.071827
2200.000000	102.072561
2199.000000	102.073313
2198.000000	102.074080
2197.000000	102.074854
2196.000000	102.075620
2195.000000	102.076367
2194.000000	102.077093
2193.000000	102.077798
2192.000000	102.078484
2191.000000	102.079149
2190.000000	102.079795
2189.000000	102.080434
2188.000000	102.081077
2187.000000	102.081733
2186.000000	102.082396
2185.000000	102.083056
2184.000000	102.083701
2183.000000	102.084326
2182.000000	102.084933
2181.000000	102.085527
2180.000000	102.086114
2179.000000	102.086700
2178.000000	102.087286
2177.000000	102.087874
2176.000000	102.088461
2175.000000	102.089046
2174.000000	102.089631
2173.000000	102.090212
2172.000000	102.090789
2171.000000	102.091361
2170.000000	102.091932
2169.000000	102.092506
2168.000000	102.093081
2167.000000	102.093650
2166.000000	102.094206
2165.000000	102.094743
2164.000000	102.095262
2163.000000	102.095768
2162.000000	102.096269
2161.000000	102.096771
2160.000000	102.097273
2159.000000	102.097770
2158.000000	102.098255
2157.000000	102.098721
2156.000000	102.099165
2155.000000	102.099595
2154.000000	102.100025
2153.000000	102.100470
2152.000000	102.100939
2151.000000	102.101432
2150.000000	102.101943
2149.000000	102.102468
2148.000000	102.103004
2147.000000	102.103549
2146.000000	102.104099
2145.000000	102.104645
2144.000000	102.105186
2143.000000	102.105725
2142.000000	102.106272
2141.000000	102.106839
2140.000000	102.107436
2139.000000	102.108060
2138.000000	102.108697
2137.000000	102.109334
2136.000000	102.109979
2135.000000	102.110670
2134.000000	102.111479
2133.000000	102.112453
2132.000000	102.113487
2131.000000	102.114306
2130.000000	102.114713
2129.000000	102.114887
2128.000000	102.115259
2127.000000	102.116032
2126.000000	102.117079
2125.000000	102.118315
2124.000000	102.119835
2123.000000	102.121512
2122.000000	102.122814
2121.000000	102.123361
2120.000000	102.123470
2119.000000	102.123875
2118.000000	102.124882
2117.000000	102.126076
2116.000000	102.126898
2115.000000	102.127334
2114.000000	102.127937
2113.000000	102.129284
2112.000000	102.131460
2111.000000	102.133992
2110.000000	102.136219
2109.000000	102.137821
2108.000000	102.138957
2107.000000	102.139848
2106.000000	102.140340
2105.000000	102.140138
2104.000000	102.139543
2103.000000	102.139708
2102.000000	102.141795
2101.000000	102.145834
2100.000000	102.150449
2099.000000	102.153943
2098.000000	102.155653
2097.000000	102.156247
2096.000000	102.156936
2095.000000	102.158385
2094.000000	102.160326
2093.000000	102.161953
2092.000000	102.162534
2091.000000	102.161804
2090.000000	102.160072
2089.000000	102.158066
2088.000000	102.156439
2087.000000	102.155289
2086.000000	102.154213
2085.000000	102.153023
2084.000000	102.152340
2083.000000	102.153185
2082.000000	102.155773
2081.000000	102.158826
2080.000000	102.160490
2079.000000	102.160145
2078.000000	102.158961
2077.000000	102.158411
2076.000000	102.158490
2075.000000	102.157977
2074.000000	102.156378
2073.000000	102.154744
2072.000000	102.154306
2071.000000	102.155008
2070.000000	102.155993
2069.000000	102.157033
2068.000000	102.158620
2067.000000	102.160819
2066.000000	102.162906
2065.000000	102.164174
2064.000000	102.164302
2063.000000	102.162895
2062.000000	102.159625
2061.000000	102.155219
2060.000000	102.151518
2059.000000	102.149912
2058.000000	102.150127
2057.000000	102.150918
2056.000000	102.151397
2055.000000	102.151386
2054.000000	102.151089
2053.000000	102.150855
2052.000000	102.150733
2051.000000	102.149931
2050.000000	102.147477
2049.000000	102.143969
2048.000000	102.141776
2047.000000	102.142357
2046.000000	102.143945
2045.000000	102.143249
2044.000000	102.139211
2043.000000	102.133841
2042.000000	102.129562
2041.000000	102.126781
2040.000000	102.124549
2039.000000	102.122250
2038.000000	102.119752
2037.000000	102.116813
2036.000000	102.113293
2035.000000	102.109507
2034.000000	102.105712
2033.000000	102.101769
2032.000000	102.097853
2031.000000	102.094932
2030.000000	102.093878
2029.000000	102.094471
2028.000000	102.095916
2027.000000	102.097777
2026.000000	102.099583
2025.000000	102.100059
2024.000000	102.098019
2023.000000	102.094087
2022.000000	102.090513
2021.000000	102.088936
2020.000000	102.088948
2019.000000	102.089018
2018.000000	102.088095
2017.000000	102.085959
2016.000000	102.082700
2015.000000	102.078569
2014.000000	102.074139
2013.000000	102.069979
2012.000000	102.066063
2011.000000	102.061784
2010.000000	102.056846
2009.000000	102.051951
2008.000000	102.048302
2007.000000	102.046359
2006.000000	102.045358
2005.000000	102.044173
2004.000000	102.042414
2003.000000	102.040508
2002.000000	102.038936
2001.000000	102.037942
2000.000000	102.037739
1999.000000	102.038559
1998.000000	102.040114
1997.000000	102.041309
1996.000000	102.041182
1995.000000	102.039933
1994.000000	102.038575
1993.000000	102.037693
1992.000000	102.037029
1991.000000	102.036396
1990.000000	102.036281
1989.000000	102.037002
1988.000000	102.037743
1987.000000	102.037220
1986.000000	102.035387
1985.000000	102.033843
1984.000000	102.034109
1983.000000	102.035903
1982.000000	102.037433
1981.000000	102.037313
1980.000000	102.035672
1979.000000	102.033585
1978.000000	102.032068
1977.000000	102.031646
1976.000000	102.032362
1975.000000	102.033648
1974.000000	102.034453
1973.000000	102.034088
1972.000000	102.032918
1971.000000	102.031959
1970.000000	102.031877
1969.000000	102.032712
1968.000000	102.034363
1967.000000	102.036692
1966.000000	102.039065
1965.000000	102.040454
1964.000000	102.040332
1963.000000	102.039059
1962.000000	102.037344
1961.000000	102.035599
1960.000000	102.034055
1959.000000	102.033190
1958.000000	102.033459
1957.000000	102.034610
1956.000000	102.035640
1955.000000	102.035650
1954.000000	102.034608
1953.000000	102.033191
1952.000000	102.032133
1951.000000	102.031674
1950.000000	102.031389
1949.000000	102.030482
1948.000000	102.028399
1947.000000	102.025426
1946.000000	102.022635
1945.000000	102.021085
1944.000000	102.021108
1943.000000	102.022206
1942.000000	102.023419
1941.000000	102.023907
1940.000000	102.023423
1939.000000	102.022288
1938.000000	102.021046
1937.000000	102.020200
1936.000000	102.019966
1935.000000	102.019956
1934.000000	102.019162
1933.000000	102.016788
1932.000000	102.013548
1931.000000	102.011316
1930.000000	102.010911
1929.000000	102.010928
1928.000000	102.009214
1927.000000	102.005877
1926.000000	102.003611
1925.000000	102.004979
1924.000000	102.009666
1923.000000	102.014088
1922.000000	102.014483
1921.000000	102.010104
1920.000000	102.003228
1919.000000	101.996968
1918.000000	101.993178
1917.000000	101.991599
1916.000000	101.990893
1915.000000	101.990317
1914.000000	101.989763
1913.000000	101.988642
1912.000000	101.985912
1911.000000	101.980969
1910.000000	101.974129
1909.000000	101.966269
1908.000000	101.958000
1907.000000	101.949846
1906.000000	101.942243
1905.000000	101.935589
1904.000000	101.930496
1903.000000	101.927358
1902.000000	101.925810
1901.000000	101.924124
1900.000000	101.919852
1899.000000	101.912178
1898.000000	101.902756
1897.000000	101.894112
1896.000000	101.887848
1895.000000	101.884140
1894.000000	101.882344
1893.000000	101.881224
1892.000000	101.879345
1891.000000	101.876108
1890.000000	101.872294
1889.000000	101.869001
1888.000000	101.866404
1887.000000	101.864361
1886.000000	101.863210
1885.000000	101.862820
1884.000000	101.862093
1883.000000	101.860531
1882.000000	101.859530
1881.000000	101.860447
1880.000000	101.861985
1879.000000	101.861887
1878.000000	101.860275
1877.000000	101.859247
1876.000000	101.859923
1875.000000	101.861382
1874.000000	101.862570
1873.000000	101.863640
1872.000000	101.864779
1871.000000	101.865550
1870.000000	101.866326
1869.000000	101.868682
1868.000000	101.872272
1867.000000	101.873707
1866.000000	101.871359
1865.000000	101.868424
1864.000000	101.869578
1863.000000	101.876079
1862.000000	101.884926
1861.000000	101.892659
1860.000000	101.899066
1859.000000	101.906542
1858.000000	101.916693
1857.000000	101.928457
1856.000000	101.939155
1855.000000	101.946820
1854.000000	101.951302
1853.000000	101.954121
1852.000000	101.956738
1851.000000	101.959913
1850.000000	101.963905
1849.000000	101.968369
1848.000000	101.972834
1847.000000	101.977013
1846.000000	101.981271
1845.000000	101.986735
1844.000000	101.994550
1843.000000	102.003608
1842.000000	102.010887
1841.000000	102.014995
1840.000000	102.017388
1839.000000	102.020919
1838.000000	102.026541
1837.000000	102.032071
1836.000000	102.035146
1835.000000	102.035855
1834.000000	102.035650
1833.000000	102.034683
1832.000000	102.031748
1831.000000	102.026917
1830.000000	102.022340
1829.000000	102.019581
1828.000000	102.018525
1827.000000	102.019405
1826.000000	102.023412
1825.000000	102.030494
1824.000000	102.038142
1823.000000	102.043487
1822.000000	102.045561
1821.000000	102.044662
1820.000000	102.041601
1819.000000	102.038025
1818.000000	102.035754
1817.000000	102.035758
1816.000000	102.037550
1815.000000	102.039344
1814.000000	102.039391
1813.000000	102.036917
1812.000000	102.033153
1811.000000	102.031088
1810.000000	102.032604
1809.000000	102.036435
1808.000000	102.039295
1807.000000	102.039152
1806.000000	102.036939
1805.000000	102.034985
1804.000000	102.034726
1803.000000	102.036166
1802.000000	102.039162
1801.000000	102.043191
1800.000000	102.046599
1799.000000	102.047753
1798.000000	102.046775
1797.000000	102.045365
1796.000000	102.044601
1795.000000	102.043939
1794.000000	102.042637
1793.000000	102.041497
1792.000000	102.042713
1791.000000	102.047127
1790.000000	102.053181
1789.000000	102.058959
1788.000000	102.063362
1787.000000	102.066100
1786.000000	102.067749
1785.000000	102.069457
1784.000000	102.071917
1783.000000	102.074815
1782.000000	102.078169
1781.000000	102.082357
1780.000000	102.087119
1779.000000	102.091171
1778.000000	102.093086
1777.000000	102.092843
1776.000000	102.091796
1775.000000	102.091935
1774.000000	102.094659
1773.000000	102.099587
1772.000000	102.104568
1771.000000	102.107866
1770.000000	102.110012
1769.000000	102.112832
1768.000000	102.117734
1767.000000	102.124330
1766.000000	102.130480
1765.000000	102.133993
1764.000000	102.134135
1763.000000	102.132042
1762.000000	102.130740
1761.000000	102.132597
1760.000000	102.137214
1759.000000	102.142610
1758.000000	102.147256
1757.000000	102.150706
1756.000000	102.152953
1755.000000	102.154225
1754.000000	102.154379
1753.000000	102.152781
1752.000000	102.149529
1751.000000	102.147220
1750.000000	102.148645
1749.000000	102.153278
1748.000000	102.158102
1747.000000	102.160898
1746.000000	102.161926
1745.000000	102.162028
1744.000000	102.161642
1743.000000	102.160852
1742.000000	102.159519
1741.000000	102.157941
1740.000000	102.157133
1739.000000	102.157296
1738.000000	102.156906
1737.000000	102.154683
1736.000000	102.150872
1735.000000	102.147187
1734.000000	102.146254
1733.000000	102.146798
1732.000000	102.145160
1731.000000	102.141804
1730.000000	102.139812
1729.000000	102.141344
1728.000000	102.145430
1727.000000	102.148904
1726.000000	102.149269
1725.000000	102.145416
1724.000000	102.138558
1723.000000	102.130972
1722.000000	102.124021
1721.000000	102.118471
1720.000000	102.114964
1719.000000	102.113546
1718.000000	102.112335
1717.000000	102.109179
1716.000000	102.104959
1715.000000	102.101735
1714.000000	102.099316
1713.000000	102.096069
1712.000000	102.090758
1711.000000	102.082863
1710.000000	102.072545
1709.000000	102.060863
1708.000000	102.049672
1707.000000	102.041207
1706.000000	102.036284
1705.000000	102.033047
1704.000000	102.028416
1703.000000	102.021053
1702.000000	102.011220
1701.000000	101.999885
1700.000000	101.990197
1699.000000	101.983713
1698.000000	101.978512
1697.000000	101.972697
1696.000000	101.965741
1695.000000	101.958343
1694.000000	101.951137
1693.000000	101.943885
1692.000000	101.936084
1691.000000	101.927562
1690.000000	101.919083
1689.000000	101.911790
1688.000000	101.905652
1687.000000	101.899560
1686.000000	101.892140
1685.000000	101.882717
1684.000000	101.873153
1683.000000	101.865677
1682.000000	101.859715
1681.000000	101.853637
1680.000000	101.846548
1679.000000	101.838481
1678.000000	101.830069
1677.000000	101.821888
1676.000000	101.814472
1675.000000	101.808161
1674.000000	101.802384
1673.000000	101.795851
1672.000000	101.787960
1671.000000	101.779255
1670.000000	101.771251
1669.000000	101.765134
1668.000000	101.760437
1667.000000	101.756132
1666.000000	101.751537
1665.000000	101.745823
1664.000000	101.738246
1663.000000	101.729337
1662.000000	101.721316
1661.000000	101.715481
1660.000000	101.711129
1659.000000	101.707731
1658.000000	101.705447
1657.000000	101.703832
1656.000000	101.701325
1655.000000	101.696445
1654.000000	101.688001
1653.000000	101.678404
1652.000000	101.671691
1651.000000	101.667873
1650.000000	101.666609
1649.000000	101.668141
1648.000000	101.670319
1647.000000	101.668506
1646.000000	101.661264
1645.000000	101.653728
1644.000000	101.649940
1643.000000	101.648970
1642.000000	101.648900
1641.000000	101.648679
1640.000000	101.647513
1639.000000	101.644399
1638.000000	101.638303
1637.000000	101.629469
1636.000000	101.621447
1635.000000	101.619583
1634.000000	101.623855
1633.000000	101.630174
1632.000000	101.635802
1631.000000	101.639058
1630.000000	101.639396
1629.000000	101.637548
1628.000000	101.635011
1627.000000	101.632845
1626.000000	101.631518
1625.000000	101.631088
1624.000000	101.631776
1623.000000	101.634333
1622.000000	101.639150
1621.000000	101.645117
1620.000000	101.650095
1619.000000	101.652604
1618.000000	101.652529
1617.000000	101.652644
1616.000000	101.656264
1615.000000	101.662695
1614.000000	101.669220
1613.000000	101.674605
1612.000000	101.679029
1611.000000	101.683410
1610.000000	101.689043
1609.000000	101.696323
1608.000000	101.704536
1607.000000	101.712876
1606.000000	101.721206
1605.000000	101.728985
1604.000000	101.735232
1603.000000	101.740300
1602.000000	101.745629
1601.000000	101.752025
1600.000000	101.758892
1599.000000	101.765430
1598.000000	101.771733
1597.000000	101.778388
1596.000000	101.785829
1595.000000	101.794003
1594.000000	101.802238
1593.000000	101.809237
1592.000000	101.813791
1591.000000	101.816079
1590.000000	101.818003
1589.000000	101.821643
1588.000000	101.827576
1587.000000	101.835322
1586.000000	101.844605
1585.000000	101.855438
1584.000000	101.866578
1583.000000	101.876065
1582.000000	101.882640
1581.000000	101.886189
1580.000000	101.887413
1579.000000	101.887701
1578.000000	101.888903
1577.000000	101.892707
1576.000000	101.899248
1575.000000	101.905693
1574.000000	101.909830
1573.000000	101.912167
1572.000000	101.913684
1571.000000	101.914699
1570.000000	101.915613
1569.000000	101.917844
1568.000000	101.922640
1567.000000	101.930277
1566.000000	101.939471
1565.000000	101.947692
1564.000000	101.952799
1563.000000	101.955447
1562.000000	101.958245
1561.000000	101.963287
1560.000000	101.969698
1559.000000	101.973179
1558.000000	101.971884
1557.000000	101.970536
1556.000000	101.971564
1555.000000	101.972628
1554.000000	101.972152
1553.000000	101.970566
1552.000000	101.969796
1551.000000	101.971408
1550.000000	101.975171
1549.000000	101.979506
1548.000000	101.982921
1547.000000	101.984964
1546.000000	101.985720
1545.000000	101.985381
1544.000000	101.984775
1543.000000	101.985484
1542.000000	101.988611
1541.000000	101.993692
1540.000000	101.998153
1539.000000	101.999864
1538.000000	101.999881
1537.000000	101.999708
1536.000000	101.999605
1535.000000	101.999571
1534.000000	102.000374
1533.000000	102.002609
1532.000000	102.005246
1531.000000	102.006910
1530.000000	102.007381
1529.000000	102.007774
1528.000000	102.009602
1527.000000	102.013160
1526.000000	102.017307
1525.000000	102.021071
1524.000000	102.024880
1523.000000	102.029416
1522.000000	102.033588
1521.000000	102.035357
1520.000000	102.035005
1519.000000	102.034921
1518.000000	102.036230
1517.000000	102.037846
1516.000000	102.038364
1515.000000	102.038104
1514.000000	102.038836
1513.000000	102.041528
1512.000000	102.045559
1511.000000	102.049173
1510.000000	102.051400
1509.000000	102.053391
1508.000000	102.057672
1507.000000	102.064704
1506.000000	102.070563
1505.000000	102.073926
1504.000000	102.077534
1503.000000	102.082556
1502.000000	102.088100
1501.000000	102.092937
1500.000000	102.097085
1499.000000	102.101485
1498.000000	102.105015
1497.000000	102.104035
1496.000000	102.098292
1495.000000	102.093015
1494.000000	102.092060
1493.000000	102.094342
1492.000000	102.097079
1491.000000	102.098733
1490.000000	102.099267
1489.000000	102.098598
1488.000000	102.097160
1487.000000	102.096949
1486.000000	102.099627
1485.000000	102.104294
1484.000000	102.107730
1483.000000	102.108523
1482.000000	102.108953
1481.000000	102.112147
1480.000000	102.118107
1479.000000	102.124114
1478.000000	102.128425
1477.000000	102.131259
1476.000000	102.133000
1475.000000	102.132594
1474.000000	102.129235
1473.000000	102.124610
1472.000000	102.121950
1471.000000	102.121692
1470.000000	102.121482
1469.000000	102.119966
1468.000000	102.117580
1467.000000	102.115074
1466.000000	102.112305
1465.000000	102.108336
1464.000000	102.103194
1463.000000	102.098669
1462.000000	102.096047
1461.000000	102.095361
1460.000000	102.096530
1459.000000	102.100112
1458.000000	102.106050
1457.000000	102.110508
1456.000000	102.109109
1455.000000	102.103473
1454.000000	102.098147
1453.000000	102.095219
1452.000000	102.094156
1451.000000	102.092707
1450.000000	102.088785
1449.000000	102.082299
1448.000000	102.075815
1447.000000	102.072412
1446.000000	102.072839
1445.000000	102.074772
1444.000000	102.075058
1443.000000	102.072409
1442.000000	102.068049
1441.000000	102.064508
1440.000000	102.063112
1439.000000	102.063142
1438.000000	102.062340
1437.000000	102.058835
1436.000000	102.053390
1435.000000	102.048601
1434.000000	102.045639
1433.000000	102.043936
1432.000000	102.042418
1431.000000	102.040014
1430.000000	102.036619
1429.000000	102.034022
1428.000000	102.034485
1427.000000	102.037467
1426.000000	102.040041
1425.000000	102.039543
1424.000000	102.036316
1423.000000	102.033416
1422.000000	102.032412
1421.000000	102.032251
1420.000000	102.031860
1419.000000	102.032417
1418.000000	102.034863
1417.000000	102.037695
1416.000000	102.039478
1415.000000	102.040389
1414.000000	102.041757
1413.000000	102.045260
1412.000000	102.052165
1411.000000	102.062480
1410.000000	102.073770
1409.000000	102.082196
1408.000000	102.085473
1407.000000	102.083944
1406.000000	102.080375
1405.000000	102.077948
1404.000000	102.077838
1403.000000	102.078887
1402.000000	102.079293
1401.000000	102.078871
1400.000000	102.079605
1399.000000	102.083807
1398.000000	102.090961
1397.000000	102.098243
1396.000000	102.104065
1395.000000	102.109034
1394.000000	102.114065
1393.000000	102.118369
1392.000000	102.120751
1391.000000	102.121504
1390.000000	102.122062
1389.000000	102.123751
1388.000000	102.127066
1387.000000	102.131487
1386.000000	102.135734
1385.000000	102.138593
1384.000000	102.139736
1383.000000	102.139904
1382.000000	102.139984
1381.000000	102.140218
1380.000000	102.140650
1379.000000	102.142039
1378.000000	102.145039
1377.000000	102.148462
1376.000000	102.149955
1375.000000	102.149057
1374.000000	102.148708
1373.000000	102.151683
1372.000000	102.156850
1371.000000	102.161074
1370.000000	102.163135
1369.000000	102.163759
1368.000000	102.163223
1367.000000	102.161015
1366.000000	102.157658
1365.000000	102.155138
1364.000000	102.154994
1363.000000	102.156788
1362.000000	102.158858
1361.000000	102.160034
1360.000000	102.159685
1359.000000	102.157216
1358.000000	102.153125
1357.000000	102.149803
1356.000000	102.149940
1355.000000	102.153942
1354.000000	102.159316
1353.000000	102.162785
1352.000000	102.163121
1351.000000	102.161733
1350.000000	102.161279
1349.000000	102.162963
1348.000000	102.165324
1347.000000	102.166173
1346.000000	102.164969
1345.000000	102.162524
1344.000000	102.159179
1343.000000	102.155031
1342.000000	102.151555
1341.000000	102.150785
1340.000000	102.152127
1339.000000	102.152501
1338.000000	102.151431
1337.000000	102.152662
1336.000000	102.158518
1335.000000	102.165893
1334.000000	102.169888
1333.000000	102.169183
1332.000000	102.165677
1331.000000	102.160629
1330.000000	102.154579
1329.000000	102.150406
1328.000000	102.152277
1327.000000	102.160107
1326.000000	102.167962
1325.000000	102.170144
1324.000000	102.167101
1323.000000	102.163534
1322.000000	102.161953
1321.000000	102.160703
1320.000000	102.158264
1319.000000	102.156578
1318.000000	102.158311
1317.000000	102.162374
1316.000000	102.164742
1315.000000	102.163375
1314.000000	102.160203
1313.000000	102.158027
1312.000000	102.157136
1311.000000	102.156459
1310.000000	102.156580
1309.000000	102.158918
1308.000000	102.162086
1307.000000	102.161821
1306.000000	102.156045
1305.000000	102.147892
1304.000000	102.142146
1303.000000	102.139897
1302.000000	102.138454
1301.000000	102.135486
1300.000000	102.130945
1299.000000	102.125288
1298.000000	102.118490
1297.000000	102.111474
1296.000000	102.106018
1295.000000	102.101823
1294.000000	102.095484
1293.000000	102.084399
1292.000000	102.070890
1291.000000	102.060507
1290.000000	102.055939
1289.000000	102.054089
1288.000000	102.049773
1287.000000	102.041336
1286.000000	102.031653
1285.000000	102.024252
1284.000000	102.019971
1283.000000	102.017627
1282.000000	102.016226
1281.000000	102.015072
1280.000000	102.012262
1279.000000	102.005414
1278.000000	101.995026
1277.000000	101.985435
1276.000000	101.980545
1275.000000	101.979520
1274.000000	101.978469
1273.000000	101.975278
1272.000000	101.970039
1271.000000	101.961432
1270.000000	101.946942
1269.000000	101.928055
1268.000000	101.911585
1267.000000	101.903418
1266.000000	101.903198
1265.000000	101.907067
1264.000000	101.912496
1263.000000	101.917035
1262.000000	101.915299
1261.000000	101.902880
1260.000000	101.883448
1259.000000	101.867602
1258.000000	101.862602
1257.000000	101.865190
1256.000000	101.865118
1255.000000	101.853840
1254.000000	101.830156
1253.000000	101.800017
1252.000000	101.771594
1251.000000	101.749043
1250.000000	101.730277
1249.000000	101.711032
1248.000000	101.689820
1247.000000	101.667485
1246.000000	101.644091
1245.000000	101.620036
1244.000000	101.599590
1243.000000	101.588400
1242.000000	101.585619
1241.000000	101.582066
1240.000000	101.568710
1239.000000	101.544906
1238.000000	101.516655
1237.000000	101.488908
1236.000000	101.462241
1235.000000	101.435799
1234.000000	101.409827
1233.000000	101.384303
1232.000000	101.357198
1231.000000	101.325958
1230.000000	101.290439
1229.000000	101.252982
1228.000000	101.214934
1227.000000	101.174369
1226.000000	101.128476
1225.000000	101.076938
1224.000000	101.020422
1223.000000	100.956539
1222.000000	100.881364
1221.000000	100.796491
1220.000000	100.710952
1219.000000	100.633006
1218.000000	100.562474
1217.000000	100.493923
1216.000000	100.423489
1215.000000	100.347890
1214.000000	100.261087
1213.000000	100.159821
1212.000000	100.051153
1211.000000	99.946243
1210.000000	99.845843
1209.000000	99.740431
1208.000000	99.626590
1207.000000	99.514153
1206.000000	99.412503
1205.000000	99.317792
1204.000000	99.220685
1203.000000	99.120728
1202.000000	99.025217
1201.000000	98.936880
1200.000000	98.850228
1199.000000	98.760030
1198.000000	98.667691
1197.000000	98.577630
1196.000000	98.490850
1195.000000	98.404550
1194.000000	98.316698
1193.000000	98.227771
1192.000000	98.136298
1191.000000	98.035556
1190.000000	97.920149
1189.000000	97.796045
1188.000000	97.677601
1187.000000	97.571614
1186.000000	97.470651
1185.000000	97.366735
1184.000000	97.263365
1183.000000	97.165366
1182.000000	97.064384
1181.000000	96.947584
1180.000000	96.817421
1179.000000	96.688860
1178.000000	96.567021
1177.000000	96.441320
1176.000000	96.303705
1175.000000	96.159099
1174.000000	96.013595
1173.000000	95.865396
1172.000000	95.714088
1171.000000	95.567038
1170.000000	95.427632
1169.000000	95.286494
1168.000000	95.134567
1167.000000	94.979828
1166.000000	94.842909
1165.000000	94.740088
1164.000000	94.676861
1163.000000	94.653329
1162.000000	94.668457
1161.000000	94.718625
1160.000000	94.792831
1159.000000	94.868812
1158.000000	94.919085
1157.000000	94.927579
1156.000000	94.897868
1155.000000	94.840691
1154.000000	94.758744
1153.000000	94.651918
1152.000000	94.531732
1151.000000	94.415926
1150.000000	94.307737
1149.000000	94.193858
1148.000000	94.065860
1147.000000	93.931574
1146.000000	93.802433
1145.000000	93.681978
1144.000000	93.571048
1143.000000	93.470916
1142.000000	93.374127
1141.000000	93.263964
1140.000000	93.132170
1139.000000	92.990100
1138.000000	92.855834
1137.000000	92.736373
1136.000000	92.627031
1135.000000	92.520021
1134.000000	92.407809
1133.000000	92.285307
1132.000000	92.154825
1131.000000	92.024370
1130.000000	91.897972
1129.000000	91.772539
1128.000000	91.645026
1127.000000	91.515899
1126.000000	91.385378
1125.000000	91.254147
1124.000000	91.127043
1123.000000	91.006754
1122.000000	90.885454
1121.000000	90.754378
1120.000000	90.620249
1119.000000	90.497730
1118.000000	90.385807
1117.000000	90.268347
1116.000000	90.140313
1115.000000	90.015579
1114.000000	89.903476
1113.000000	89.795377
1112.000000	89.682141
1111.000000	89.567799
1110.000000	89.456271
1109.000000	89.339630
1108.000000	89.210792
1107.000000	89.076659
1106.000000	88.949355
1105.000000	88.833769
1104.000000	88.729422
1103.000000	88.633032
1102.000000	88.533673
1101.000000	88.418172
1100.000000	88.287824
1099.000000	88.158981
1098.000000	88.042892
1097.000000	87.936591
1096.000000	87.835907
1095.000000	87.742331
1094.000000	87.652646
1093.000000	87.557248
1092.000000	87.454614
1091.000000	87.353758
1090.000000	87.258243
1089.000000	87.162273
1088.000000	87.066229
1087.000000	86.979970
1086.000000	86.905770
1085.000000	86.833750
1084.000000	86.759675
1083.000000	86.692158
1082.000000	86.636911
1081.000000	86.588001
1080.000000	86.539166
1079.000000	86.490198
1078.000000	86.439570
1077.000000	86.385006
1076.000000	86.332298
1075.000000	86.287384
1074.000000	86.238702
1073.000000	86.164645
1072.000000	86.058570
1071.000000	85.928941
1070.000000	85.776710
1069.000000	85.593868
1068.000000	85.385489
1067.000000	85.169492
1066.000000	84.949258
1065.000000	84.709844
1064.000000	84.448993
1063.000000	84.189307
1062.000000	83.950435
1061.000000	83.730096
1060.000000	83.522264
1059.000000	83.332243
1058.000000	83.161725
1057.000000	82.997352
1056.000000	82.825430
1055.000000	82.643279
1054.000000	82.449708
1053.000000	82.241609
1052.000000	82.026413
1051.000000	81.818243
1050.000000	81.614254
1049.000000	81.396757
1048.000000	81.164999
1047.000000	80.939099
1046.000000	80.726484
1045.000000	80.510671
1044.000000	80.279786
1043.000000	80.042058
1042.000000	79.805591
1041.000000	79.565124
1040.000000	79.318106
1039.000000	79.074327
1038.000000	78.841172
1037.000000	78.617813
1036.000000	78.409509
1035.000000	78.227086
1034.000000	78.067281
1033.000000	77.915517
1032.000000	77.773044
1031.000000	77.658325
1030.000000	77.576439
1029.000000	77.510670
1028.000000	77.449595
1027.000000	77.398215
1026.000000	77.356333
1025.000000	77.311323
1024.000000	77.260123
1023.000000	77.215246
1022.000000	77.181634
1021.000000	77.148786
1020.000000	77.110335
1019.000000	77.069125
1018.000000	77.019952
1017.000000	76.951894
1016.000000	76.871184
1015.000000	76.796499
1014.000000	76.728294
1013.000000	76.649682
1012.000000	76.561503
1011.000000	76.486745
1010.000000	76.432740
1009.000000	76.378277
1008.000000	76.308666
1007.000000	76.237099
1006.000000	76.179952
1005.000000	76.135862
1004.000000	76.100499
1003.000000	76.078540
1002.000000	76.069397
1001.000000	76.062361
1000.000000	76.056548
999.000000	76.066680
998.000000	76.100850
997.000000	76.151153
996.000000	76.211337
995.000000	76.282743
994.000000	76.357726
993.000000	76.419883
992.000000	76.468022
991.000000	76.519496
990.000000	76.584088
989.000000	76.655059
988.000000	76.730091
987.000000	76.818102
986.000000	76.919332
985.000000	77.021633
984.000000	77.124257
983.000000	77.244726
982.000000	77.394506
981.000000	77.566743
980.000000	77.753325
979.000000	77.954806
978.000000	78.168707
977.000000	78.387826
976.000000	78.615355
975.000000	78.863113
974.000000	79.130962
973.000000	79.406603
972.000000	79.688223
971.000000	79.987148
970.000000	80.305105
969.000000	80.629549
968.000000	80.955135
967.000000	81.288763
966.000000	81.628232
965.000000	81.956286
964.000000	82.262831
963.000000	82.555490
962.000000	82.842010
961.000000	83.118562
960.000000	83.382032
959.000000	83.639577
958.000000	83.899350
957.000000	84.162436
956.000000	84.426374
955.000000	84.685279
954.000000	84.926446
953.000000	85.139850
952.000000	85.330826
951.000000	85.511285
950.000000	85.681363
949.000000	85.834426
948.000000	85.975543
947.000000	86.115370
946.000000	86.247417
945.000000	86.353414
944.000000	86.434055
943.000000	86.514360
942.000000	86.613175
941.000000	86.724142
940.000000	86.831428
939.000000	86.926909
938.000000	87.007516
937.000000	87.073324
936.000000	87.134983
935.000000	87.208428
934.000000	87.296270
933.000000	87.386772
932.000000	87.473405
931.000000	87.561347
930.000000	87.653971
929.000000	87.748988
928.000000	87.848330
927.000000	87.953753
926.000000	88.052302
925.000000	88.127564
924.000000	88.188365
923.000000	88.263017
922.000000	88.357592
921.000000	88.442296
920.000000	88.490536
919.000000	88.512110
918.000000	88.534125
917.000000	88.566142
916.000000	88.600724
915.000000	88.636161
914.000000	88.681950
913.000000	88.747374
912.000000	88.836253
911.000000	88.949340
910.000000	89.085062
909.000000	89.242233
908.000000	89.424908
907.000000	89.637524
906.000000	89.874036
905.000000	90.120287
904.000000	90.367857
903.000000	90.617606
902.000000	90.872345
901.000000	91.136119
900.000000	91.416217
899.000000	91.711833
898.000000	92.003564
897.000000	92.269838
896.000000	92.511920
895.000000	92.747351
894.000000	92.981631
893.000000	93.204337
892.000000	93.412305
891.000000	93.616441
890.000000	93.822766
889.000000	94.025978
888.000000	94.226473
887.000000	94.434064
886.000000	94.647069
885.000000	94.846462
884.000000	95.021551
883.000000	95.185056
882.000000	95.350486
881.000000	95.509754
880.000000	95.649840
879.000000	95.780846
878.000000	95.928198
877.000000	96.100161
876.000000	96.280421
875.000000	96.453984
874.000000	96.626089
873.000000	96.809020
872.000000	96.998390
871.000000	97.173260
870.000000	97.321893
869.000000	97.459785
868.000000	97.614062
867.000000	97.793060
866.000000	97.981973
865.000000	98.168562
864.000000	98.356399
863.000000	98.543575
862.000000	98.706065
861.000000	98.822504
860.000000	98.907014
859.000000	98.996790
858.000000	99.108582
857.000000	99.226926
856.000000	99.335634
855.000000	99.438011
854.000000	99.539292
853.000000	99.629732
852.000000	99.699130
851.000000	99.756029
850.000000	99.819405
849.000000	99.897904
848.000000	99.986059
847.000000	100.073491
846.000000	100.148859
845.000000	100.200615
844.000000	100.223285
843.000000	100.221835
842.000000	100.205141
841.000000	100.177281
840.000000	100.137855
839.000000	100.086523
838.000000	100.023655
837.000000	99.950258
836.000000	99.870787
835.000000	99.793588
834.000000	99.726413
833.000000	99.672675
832.000000	99.630656
831.000000	99.593623
830.000000	99.556129
829.000000	99.527467
828.000000	99.531011
827.000000	99.574868
826.000000	99.628308
825.000000	99.650018
824.000000	99.640018
823.000000	99.637052
822.000000	99.660025
821.000000	99.681857
820.000000	99.670378
819.000000	99.625635
818.000000	99.563056
817.000000	99.481852
816.000000	99.367806
815.000000	99.214264
814.000000	99.021662
813.000000	98.781430
812.000000	98.476281
811.000000	98.095684
810.000000	97.639510
809.000000	97.107407
808.000000	96.496617
807.000000	95.812469
806.000000	95.073286
805.000000	94.304529
804.000000	93.534090
803.000000	92.791193
802.000000	92.103727
801.000000	91.498994
800.000000	91.008293
799.000000	90.659532
798.000000	90.458099
797.000000	90.382925
796.000000	90.404722
795.000000	90.498862
794.000000	90.641700
793.000000	90.810386
792.000000	90.989512
791.000000	91.164624
790.000000	91.308329
789.000000	91.388099
788.000000	91.389837
787.000000	91.319382
786.000000	91.181143
785.000000	90.974787
784.000000	90.717541
783.000000	90.448468
782.000000	90.199120
781.000000	89.976289
780.000000	89.784740
779.000000	89.649159
778.000000	89.597681
777.000000	89.637319
776.000000	89.761329
775.000000	89.968552
774.000000	90.256616
773.000000	90.600783
772.000000	90.955445
771.000000	91.279251
770.000000	91.553854
769.000000	91.781064
768.000000	91.970618
767.000000	92.133605
766.000000	92.282602
765.000000	92.430806
764.000000	92.584872
763.000000	92.737767
762.000000	92.875695
761.000000	92.997424
760.000000	93.120693
759.000000	93.262095
758.000000	93.416457
757.000000	93.565749
756.000000	93.702718
755.000000	93.833992
754.000000	93.965033
753.000000	94.096493
752.000000	94.232465
751.000000	94.376043
750.000000	94.516639
749.000000	94.638242
748.000000	94.743420
747.000000	94.854085
746.000000	94.984089
745.000000	95.125600
744.000000	95.268574
743.000000	95.418583
742.000000	95.584928
741.000000	95.762626
740.000000	95.938406
739.000000	96.108082
738.000000	96.277215
737.000000	96.447016
736.000000	96.607747
735.000000	96.747495
734.000000	96.864253
733.000000	96.968025
732.000000	97.071353
731.000000	97.177537
730.000000	97.278630
729.000000	97.364276
728.000000	97.428883
727.000000	97.472240
726.000000	97.503502
725.000000	97.546589
724.000000	97.626644
723.000000	97.741105
722.000000	97.855464
721.000000	97.939170
720.000000	97.997330
719.000000	98.052507
718.000000	98.108905
717.000000	98.161559
716.000000	98.225788
715.000000	98.321372
714.000000	98.428991
713.000000	98.498860
712.000000	98.514354
711.000000	98.515199
710.000000	98.539417
709.000000	98.569152
708.000000	98.560440
707.000000	98.506597
706.000000	98.440748
705.000000	98.381066
704.000000	98.302411
703.000000	98.166447
702.000000	97.956582
701.000000	97.672861
700.000000	97.311435
699.000000	96.870630
698.000000	96.379124
697.000000	95.907043
696.000000	95.538727
695.000000	95.332583
694.000000	95.306327
693.000000	95.447557
692.000000	95.719699
691.000000	96.057916
690.000000	96.386896
689.000000	96.668789
688.000000	96.923949
687.000000	97.181930
686.000000	97.425692
685.000000	97.616476
684.000000	97.762828
683.000000	97.920706
682.000000	98.119820
681.000000	98.327327
680.000000	98.500857
679.000000	98.645681
678.000000	98.788032
677.000000	98.915157
676.000000	98.986798
675.000000	99.000257
674.000000	99.005897
673.000000	99.051034
672.000000	99.132605
671.000000	99.222731
670.000000	99.318952
669.000000	99.472358
668.000000	99.711180
667.000000	99.906177
666.000000	99.973596
665.000000	99.980047
664.000000	99.991649
663.000000	100.022424
662.000000	100.056540
661.000000	100.097836
660.000000	100.186604
659.000000	100.338246
658.000000	100.488115
657.000000	100.547074
656.000000	100.505895
655.000000	100.437575
654.000000	100.402440
653.000000	100.396355
652.000000	100.403007
651.000000	100.437394
650.000000	100.502163
