4000.000000	101.042611
3999.000000	101.040641
3998.000000	101.038197
3997.000000	101.035529
3996.000000	101.033249
3995.000000	101.032163
3994.000000	101.032614
3993.000000	101.034223
3992.000000	101.036202
3991.000000	101.038123
3990.000000	101.040169
3989.000000	101.042391
3988.000000	101.044030
3987.000000	101.043936
3986.000000	101.041659
3985.000000	101.038112
3984.000000	101.035141
3983.000000	101.034040
3982.000000	101.034555
3981.000000	101.035343
3980.000000	101.035422
3979.000000	101.034955
3978.000000	101.034434
3977.000000	101.033532
3976.000000	101.031255
3975.000000	101.027271
3974.000000	101.022727
3973.000000	101.019520
3972.000000	101.018877
3971.000000	101.020794
3970.000000	101.024395
3969.000000	101.028545
3968.000000	101.032167
3967.000000	101.034311
3966.000000	101.034357
3965.000000	101.032457
3964.000000	101.029811
3963.000000	101.028170
3962.000000	101.028542
3961.000000	101.030442
3960.000000	101.032509
3959.000000	101.033729
3958.000000	101.033804
3957.000000	101.032553
3956.000000	101.029757
3955.000000	101.025922
3954.000000	101.022644
3953.000000	101.021490
3952.000000	101.022665
3951.000000	101.025026
3950.000000	101.027389
3949.000000	101.029611
3948.000000	101.032182
3947.000000	101.035078
3946.000000	101.037442
3945.000000	101.038442
3944.000000	101.038115
3943.000000	101.036991
3942.000000	101.034951
3941.000000	101.031194
3940.000000	101.025780
3939.000000	101.020577
3938.000000	101.017959
3937.000000	101.018613
3936.000000	101.021072
3935.000000	101.023093
3934.000000	101.023531
3933.000000	101.022623
3932.000000	101.020975
3931.000000	101.018908
3930.000000	101.016649
3929.000000	101.014650
3928.000000	101.013398
3927.000000	101.013125
3926.000000	101.013797
3925.000000	101.015092
3924.000000	101.016363
3923.000000	101.016891
3922.000000	101.016363
3921.000000	101.014971
3920.000000	101.012993
3919.000000	101.010592
3918.000000	101.008099
3917.000000	101.006086
3916.000000	101.004943
3915.000000	101.004557
3914.000000	101.004624
3913.000000	101.005087
3912.000000	101.006087
3911.000000	101.007519
3910.000000	101.008858
3909.000000	101.009373
3908.000000	101.008572
3907.000000	101.006494
3906.000000	101.003757
3905.000000	101.001226
3904.000000	100.999432
3903.000000	100.998306
3902.000000	100.997474
3901.000000	100.996666
3900.000000	100.995847
3899.000000	100.995138
3898.000000	100.994633
3897.000000	100.994265
3896.000000	100.993910
3895.000000	100.993496
3894.000000	100.993048
3893.000000	100.992742
3892.000000	100.992798
3891.000000	100.993077
3890.000000	100.992996
3889.000000	100.991868
3888.000000	100.989695
3887.000000	100.987703
3886.000000	100.987511
3885.000000	100.989284
3884.000000	100.991061
3883.000000	100.990644
3882.000000	100.987897
3881.000000	100.984539
3880.000000	100.982481
3879.000000	100.982591
3878.000000	100.984634
3877.000000	100.987777
3876.000000	100.990943
3875.000000	100.993151
3874.000000	100.994221
3873.000000	100.994639
3872.000000	100.994364
3871.000000	100.992562
3870.000000	100.988715
3869.000000	100.983583
3868.000000	100.978618
3867.000000	100.975059
3866.000000	100.974154
3865.000000	100.976404
3864.000000	100.980670
3863.000000	100.985275
3862.000000	100.989701
3861.000000	100.994190
3860.000000	100.998021
3859.000000	100.999415
3858.000000	100.997267
3857.000000	100.991821
3856.000000	100.984412
3855.000000	100.977166
3854.000000	100.972113
3853.000000	100.969436
3852.000000	100.968012
3851.000000	100.968298
3850.000000	100.972124
3849.000000	100.979468
3848.000000	100.987499
3847.000000	100.993324
3846.000000	100.996694
3845.000000	100.999692
3844.000000	101.004047
3843.000000	101.008940
3842.000000	101.011528
3841.000000	101.009234
3840.000000	101.002121
3839.000000	100.993877
3838.000000	100.989329
3837.000000	100.989843
3836.000000	100.992360
3835.000000	100.993189
3834.000000	100.992236
3833.000000	100.993021
3832.000000	100.998719
3831.000000	101.008400
3830.000000	101.017367
3829.000000	101.021691
3828.000000	101.021765
3827.000000	101.021438
3826.000000	101.024096
3825.000000	101.029363
3824.000000	101.033846
3823.000000	101.034578
3822.000000	101.031470
3821.000000	101.026991
3820.000000	101.023595
3819.000000	101.021587
3818.000000	101.020230
3817.000000	101.019376
3816.000000	101.019366
3815.000000	101.020617
3814.000000	101.022839
3813.000000	101.025541
3812.000000	101.028988
3811.000000	101.032845
3810.000000	101.035501
3809.000000	101.035996
3808.000000	101.035110
3807.000000	101.034015
3806.000000	101.032521
3805.000000	101.029080
3804.000000	101.022805
3803.000000	101.015377
3802.000000	101.010142
3801.000000	101.008832
3800.000000	101.009525
3799.000000	101.008859
3798.000000	101.006485
3797.000000	101.004858
3796.000000	101.005904
3795.000000	101.009977
3794.000000	101.016480
3793.000000	101.024896
3792.000000	101.034318
3791.000000	101.042478
3790.000000	101.046905
3789.000000	101.047100
3788.000000	101.044590
3787.000000	101.040986
3786.000000	101.037030
3785.000000	101.033579
3784.000000	101.032415
3783.000000	101.035134
3782.000000	101.041232
3781.000000	101.047573
3780.000000	101.049987
3779.000000	101.046232
3778.000000	101.037978
3777.000000	101.029667
3776.000000	101.025273
3775.000000	101.025800
3774.000000	101.029183
3773.000000	101.032209
3772.000000	101.033405
3771.000000	101.034195
3770.000000	101.036590
3769.000000	101.039789
3768.000000	101.040486
3767.000000	101.036564
3766.000000	101.029389
3765.000000	101.022540
3764.000000	101.018822
3763.000000	101.018721
3762.000000	101.021443
3761.000000	101.026125
3760.000000	101.031306
3759.000000	101.034630
3758.000000	101.034472
3757.000000	101.030993
3756.000000	101.024654
3755.000000	101.015122
3754.000000	101.003707
3753.000000	100.994614
3752.000000	100.990719
3751.000000	100.988337
3750.000000	100.980628
3749.000000	100.966776
3748.000000	100.950283
3747.000000	100.931222
3746.000000	100.909761
3745.000000	100.893261
3744.000000	100.890330
3743.000000	100.898628
3742.000000	100.907746
3741.000000	100.914241
3740.000000	100.921904
3739.000000	100.930563
3738.000000	100.936028
3737.000000	100.936752
3736.000000	100.935342
3735.000000	100.933883
3734.000000	100.930902
3733.000000	100.925045
3732.000000	100.918561
3731.000000	100.914105
3730.000000	100.910759
3729.000000	100.906291
3728.000000	100.900870
3727.000000	100.896560
3726.000000	100.893887
3725.000000	100.890461
3724.000000	100.883920
3723.000000	100.875027
3722.000000	100.865604
3721.000000	100.855303
3720.000000	100.842571
3719.000000	100.827183
3718.000000	100.810791
3717.000000	100.795433
3716.000000	100.781511
3715.000000	100.767118
3714.000000	100.749689
3713.000000	100.727166
3712.000000	100.697947
3711.000000	100.661656
3710.000000	100.621032
3709.000000	100.582454
3708.000000	100.552343
3707.000000	100.532835
3706.000000	100.520810
3705.000000	100.509724
3704.000000	100.493164
3703.000000	100.468105
3702.000000	100.436096
3701.000000	100.401744
3700.000000	100.370174
3699.000000	100.345772
3698.000000	100.331915
3697.000000	100.330073
3696.000000	100.337970
3695.000000	100.349791
3694.000000	100.360624
3693.000000	100.370407
3692.000000	100.382042
3691.000000	100.396125
3690.000000	100.407850
3689.000000	100.409975
3688.000000	100.400684
3687.000000	100.386442
3686.000000	100.375846
3685.000000	100.374104
3684.000000	100.381869
3683.000000	100.394437
3682.000000	100.403341
3681.000000	100.401870
3680.000000	100.389861
3679.000000	100.373043
3678.000000	100.358240
3677.000000	100.349135
3676.000000	100.342842
3675.000000	100.331209
3674.000000	100.309440
3673.000000	100.280944
3672.000000	100.253719
3671.000000	100.233990
3670.000000	100.221752
3669.000000	100.211901
3668.000000	100.200768
3667.000000	100.190964
3666.000000	100.187016
3665.000000	100.188086
3664.000000	100.188162
3663.000000	100.181345
3662.000000	100.166381
3661.000000	100.147207
3660.000000	100.128927
3659.000000	100.113048
3658.000000	100.096640
3657.000000	100.076068
3656.000000	100.051547
3655.000000	100.027332
3654.000000	100.007369
3653.000000	99.993196
3652.000000	99.984351
3651.000000	99.977490
3650.000000	99.965756
3649.000000	99.942774
3648.000000	99.910367
3647.000000	99.879535
3646.000000	99.859718
3645.000000	99.850510
3644.000000	99.845292
3643.000000	99.838627
3642.000000	99.830019
3641.000000	99.822868
3640.000000	99.820309
3639.000000	99.821480
3638.000000	99.821650
3637.000000	99.815694
3636.000000	99.801866
3635.000000	99.782846
3634.000000	99.762743
3633.000000	99.742929
3632.000000	99.721304
3631.000000	99.696044
3630.000000	99.668968
3629.000000	99.644310
3628.000000	99.624044
3627.000000	99.606272
3626.000000	99.589807
3625.000000	99.576356
3624.000000	99.567373
3623.000000	99.562760
3622.000000	99.561568
3621.000000	99.562361
3620.000000	99.564016
3619.000000	99.567019
3618.000000	99.573866
3617.000000	99.587004
3616.000000	99.605958
3615.000000	99.626788
3614.000000	99.644602
3613.000000	99.656850
3612.000000	99.664791
3611.000000	99.672265
3610.000000	99.682215
3609.000000	99.693232
3608.000000	99.699717
3607.000000	99.697121
3606.000000	99.687067
3605.000000	99.676612
3604.000000	99.672890
3603.000000	99.678459
3602.000000	99.690361
3601.000000	99.702256
3600.000000	99.708504
3599.000000	99.707681
3598.000000	99.703359
3597.000000	99.701453
3596.000000	99.705192
3595.000000	99.712022
3594.000000	99.715660
3593.000000	99.711540
3592.000000	99.700387
3591.000000	99.687551
3590.000000	99.679670
3589.000000	99.681146
3588.000000	99.691052
3587.000000	99.703317
3586.000000	99.712312
3585.000000	99.717691
3584.000000	99.722394
3583.000000	99.727961
3582.000000	99.733101
3581.000000	99.735668
3580.000000	99.734987
3579.000000	99.732263
3578.000000	99.729320
3577.000000	99.727185
3576.000000	99.725510
3575.000000	99.723181
3574.000000	99.719558
3573.000000	99.715366
3572.000000	99.712229
3571.000000	99.711133
3570.000000	99.711339
3569.000000	99.711005
3568.000000	99.709055
3567.000000	99.706087
3566.000000	99.703313
3565.000000	99.701394
3564.000000	99.700668
3563.000000	99.701493
3562.000000	99.703705
3561.000000	99.706029
3560.000000	99.706753
3559.000000	99.705363
3558.000000	99.703142
3557.000000	99.701902
3556.000000	99.702083
3555.000000	99.702262
3554.000000	99.700560
3553.000000	99.696501
3552.000000	99.691421
3551.000000	99.687064
3550.000000	99.683973
3549.000000	99.681315
3548.000000	99.678028
3547.000000	99.674005
3546.000000	99.670169
3545.000000	99.667333
3544.000000	99.665217
3543.000000	99.662880
3542.000000	99.659948
3541.000000	99.657056
3540.000000	99.655070
3539.000000	99.654133
3538.000000	99.653620
3537.000000	99.652782
3536.000000	99.651295
3535.000000	99.649250
3534.000000	99.646854
3533.000000	99.644310
3532.000000	99.641833
3531.000000	99.639629
3530.000000	99.637799
3529.000000	99.636311
3528.000000	99.635055
3527.000000	99.633886
3526.000000	99.632581
3525.000000	99.630793
3524.000000	99.628225
3523.000000	99.624905
3522.000000	99.621244
3521.000000	99.617851
3520.000000	99.615124
3519.000000	99.613032
3518.000000	99.611273
3517.000000	99.609471
3516.000000	99.607421
3515.000000	99.605142
3514.000000	99.602742
3513.000000	99.600324
3512.000000	99.597944
3511.000000	99.595612
3510.000000	99.593313
3509.000000	99.591021
3508.000000	99.588727
3507.000000	99.586450
3506.000000	99.584223
3505.000000	99.582051
3504.000000	99.579894
3503.000000	99.577679
3502.000000	99.575358
3501.000000	99.572947
3500.000000	99.570508
3499.000000	99.568111
3498.000000	99.565782
3497.000000	99.563511
3496.000000	99.561250
3495.000000	99.558945
3494.000000	99.556563
3493.000000	99.554117
3492.000000	99.551663
3491.000000	99.549269
3490.000000	99.546969
3489.000000	99.544762
3488.000000	99.542626
3487.000000	99.540518
3486.000000	99.538379
3485.000000	99.536175
3484.000000	99.533955
3483.000000	99.531853
3482.000000	99.529963
3481.000000	99.528198
3480.000000	99.526309
3479.000000	99.524098
3478.000000	99.521568
3477.000000	99.518915
3476.000000	99.516398
3475.000000	99.514172
3474.000000	99.512141
3473.000000	99.509942
3472.000000	99.507215
3471.000000	99.504029
3470.000000	99.501008
3469.000000	99.498815
3468.000000	99.497611
3467.000000	99.496974
3466.000000	99.496218
3465.000000	99.494932
3464.000000	99.493136
3463.000000	99.491110
3462.000000	99.489103
3461.000000	99.487143
3460.000000	99.485156
3459.000000	99.483242
3458.000000	99.481674
3457.000000	99.480542
3456.000000	99.479457
3455.000000	99.477827
3454.000000	99.475477
3453.000000	99.472805
3452.000000	99.470366
3451.000000	99.468366
3450.000000	99.466618
3449.000000	99.464897
3448.000000	99.463200
3447.000000	99.461699
3446.000000	99.460528
3445.000000	99.459642
3444.000000	99.458777
3443.000000	99.457525
3442.000000	99.455593
3441.000000	99.453054
3440.000000	99.450339
3439.000000	99.447921
3438.000000	99.445937
3437.000000	99.444177
3436.000000	99.442402
3435.000000	99.440609
3434.000000	99.438992
3433.000000	99.437653
3432.000000	99.436421
3431.000000	99.435009
3430.000000	99.433354
3429.000000	99.431742
3428.000000	99.430537
3427.000000	99.429789
3426.000000	99.429108
3425.000000	99.427932
3424.000000	99.425963
3423.000000	99.423307
3422.000000	99.420496
3421.000000	99.418136
3420.000000	99.416470
3419.000000	99.415301
3418.000000	99.414266
3417.000000	99.413270
3416.000000	99.412515
3415.000000	99.412122
3414.000000	99.411858
3413.000000	99.411273
3412.000000	99.410129
3411.000000	99.408594
3410.000000	99.407085
3409.000000	99.405915
3408.000000	99.405085
3407.000000	99.404373
3406.000000	99.403537
3405.000000	99.402482
3404.000000	99.401267
3403.000000	99.400021
3402.000000	99.398872
3401.000000	99.397932
3400.000000	99.397290
3399.000000	99.396902
3398.000000	99.396479
3397.000000	99.395636
3396.000000	99.394225
3395.000000	99.392529
3394.000000	99.391056
3393.000000	99.390045
3392.000000	99.389274
3391.000000	99.388340
3390.000000	99.387146
3389.000000	99.386043
3388.000000	99.385470
3387.000000	99.385455
3386.000000	99.385503
3385.000000	99.385014
3384.000000	99.383845
3383.000000	99.382440
3382.000000	99.381432
3381.000000	99.381128
3380.000000	99.381385
3379.000000	99.381941
3378.000000	99.382708
3377.000000	99.383660
3376.000000	99.384502
3375.000000	99.384592
3374.000000	99.383383
3373.000000	99.380994
3372.000000	99.378333
3371.000000	99.376395
3370.000000	99.375373
3369.000000	99.374549
3368.000000	99.373071
3367.000000	99.370822
3366.000000	99.368569
3365.000000	99.367299
3364.000000	99.367506
3363.000000	99.368966
3362.000000	99.370858
3361.000000	99.372110
3360.000000	99.371906
3359.000000	99.370194
3358.000000	99.367893
3357.000000	99.366344
3356.000000	99.366164
3355.000000	99.366732
3354.000000	99.367043
3353.000000	99.367087
3352.000000	99.367929
3351.000000	99.370249
3350.000000	99.373205
3349.000000	99.375179
3348.000000	99.375400
3347.000000	99.374335
3346.000000	99.372657
3345.000000	99.370467
3344.000000	99.367657
3343.000000	99.364543
3342.000000	99.361929
3341.000000	99.360687
3340.000000	99.361125
3339.000000	99.362361
3338.000000	99.362449
3337.000000	99.359935
3336.000000	99.355486
3335.000000	99.351510
3334.000000	99.349663
3333.000000	99.349387
3332.000000	99.349275
3331.000000	99.349210
3330.000000	99.350179
3329.000000	99.352334
3328.000000	99.354415
3327.000000	99.355379
3326.000000	99.355810
3325.000000	99.357094
3324.000000	99.359673
3323.000000	99.362619
3322.000000	99.364713
3321.000000	99.365455
3320.000000	99.365068
3319.000000	99.363913
3318.000000	99.362111
3317.000000	99.359607
3316.000000	99.356470
3315.000000	99.353137
3314.000000	99.350285
3313.000000	99.348314
3312.000000	99.347049
3311.000000	99.346221
3310.000000	99.346187
3309.000000	99.347666
3308.000000	99.350519
3307.000000	99.353142
3306.000000	99.353720
3305.000000	99.351999
3304.000000	99.349383
3303.000000	99.347350
3302.000000	99.346116
3301.000000	99.345107
3300.000000	99.344157
3299.000000	99.343620
3298.000000	99.343520
3297.000000	99.343253
3296.000000	99.342297
3295.000000	99.340830
3294.000000	99.339525
3293.000000	99.339020
3292.000000	99.339690
3291.000000	99.341482
3290.000000	99.343741
3289.000000	99.345396
3288.000000	99.345686
3287.000000	99.344793
3286.000000	99.343773
3285.000000	99.343759
3284.000000	99.345078
3283.000000	99.347072
3282.000000	99.348652
3281.000000	99.349110
3280.000000	99.348386
3279.000000	99.346756
3278.000000	99.344622
3277.000000	99.342623
3276.000000	99.341537
3275.000000	99.341615
3274.000000	99.342120
3273.000000	99.342008
3272.000000	99.341142
3271.000000	99.340314
3270.000000	99.340050
3269.000000	99.340118
3268.000000	99.340420
3267.000000	99.341582
3266.000000	99.344018
3265.000000	99.346892
3264.000000	99.348780
3263.000000	99.349318
3262.000000	99.349485
3261.000000	99.350234
3260.000000	99.351436
3259.000000	99.352417
3258.000000	99.353007
3257.000000	99.353559
3256.000000	99.354203
3255.000000	99.354696
3254.000000	99.355139
3253.000000	99.356336
3252.000000	99.358915
3251.000000	99.362146
3250.000000	99.364256
3249.000000	99.364173
3248.000000	99.362644
3247.000000	99.361501
3246.000000	99.361673
3245.000000	99.362483
3244.000000	99.362740
3243.000000	99.362048
3242.000000	99.361010
3241.000000	99.360564
3240.000000	99.361237
3239.000000	99.362879
3238.000000	99.364876
3237.000000	99.366747
3236.000000	99.368593
3235.000000	99.370780
3234.000000	99.373246
3233.000000	99.375409
3232.000000	99.376836
3231.000000	99.377762
3230.000000	99.378820
3229.000000	99.380362
3228.000000	99.382220
3227.000000	99.383997
3226.000000	99.385438
3225.000000	99.386586
3224.000000	99.387728
3223.000000	99.389264
3222.000000	99.391497
3221.000000	99.394430
3220.000000	99.397645
3219.000000	99.400433
3218.000000	99.402200
3217.000000	99.402873
3216.000000	99.402960
3215.000000	99.403187
3214.000000	99.404061
3213.000000	99.405806
3212.000000	99.408504
3211.000000	99.411938
3210.000000	99.415311
3209.000000	99.417615
3208.000000	99.418560
3207.000000	99.419023
3206.000000	99.420410
3205.000000	99.423352
3204.000000	99.427200
3203.000000	99.430623
3202.000000	99.432755
3201.000000	99.433620
3200.000000	99.433758
3199.000000	99.433654
3198.000000	99.433572
3197.000000	99.433798
3196.000000	99.434700
3195.000000	99.436406
3194.000000	99.438573
3193.000000	99.440693
3192.000000	99.442631
3191.000000	99.444643
3190.000000	99.446907
3189.000000	99.449339
3188.000000	99.451843
3187.000000	99.454412
3186.000000	99.456899
3185.000000	99.459035
3184.000000	99.460846
3183.000000	99.462749
3182.000000	99.465026
3181.000000	99.467517
3180.000000	99.470044
3179.000000	99.472845
3178.000000	99.476247
3177.000000	99.480062
3176.000000	99.483647
3175.000000	99.486477
3174.000000	99.488478
3173.000000	99.489905
3172.000000	99.491247
3171.000000	99.493165
3170.000000	99.496110
3169.000000	99.499910
3168.000000	99.503762
3167.000000	99.506902
3166.000000	99.509304
3165.000000	99.511692
3164.000000	99.514779
3163.000000	99.518496
3162.000000	99.522062
3161.000000	99.524985
3160.000000	99.527638
3159.000000	99.530665
3158.000000	99.534172
3157.000000	99.537753
3156.000000	99.541053
3155.000000	99.544085
3154.000000	99.547049
3153.000000	99.550078
3152.000000	99.553199
3151.000000	99.556396
3150.000000	99.559618
3149.000000	99.562797
3148.000000	99.565902
3147.000000	99.568957
3146.000000	99.572006
3145.000000	99.575072
3144.000000	99.578167
3143.000000	99.581300
3142.000000	99.584455
3141.000000	99.587574
3140.000000	99.590606
3139.000000	99.593558
3138.000000	99.596463
3137.000000	99.599323
3136.000000	99.602117
3135.000000	99.604857
3134.000000	99.607613
3133.000000	99.610462
3132.000000	99.613433
3131.000000	99.616486
3130.000000	99.619499
3129.000000	99.622346
3128.000000	99.625008
3127.000000	99.627659
3126.000000	99.630518
3125.000000	99.633630
3124.000000	99.636831
3123.000000	99.639946
3122.000000	99.642952
3121.000000	99.645906
3120.000000	99.648821
3119.000000	99.651657
3118.000000	99.654369
3117.000000	99.656954
3116.000000	99.659573
3115.000000	99.662530
3114.000000	99.665925
3113.000000	99.669322
3112.000000	99.672083
3111.000000	99.674140
3110.000000	99.676237
3109.000000	99.679139
3108.000000	99.682867
3107.000000	99.686922
3106.000000	99.690994
3105.000000	99.695080
3104.000000	99.699025
3103.000000	99.702449
3102.000000	99.705192
3101.000000	99.707523
3100.000000	99.709759
3099.000000	99.711923
3098.000000	99.713990
3097.000000	99.716323
3096.000000	99.719531
3095.000000	99.723886
3094.000000	99.729100
3093.000000	99.734610
3092.000000	99.739957
3091.000000	99.744849
3090.000000	99.749016
3089.000000	99.752223
3088.000000	99.754464
3087.000000	99.756018
3086.000000	99.757382
3085.000000	99.759151
3084.000000	99.761890
3083.000000	99.765843
3082.000000	99.770577
3081.000000	99.775083
3080.000000	99.778562
3079.000000	99.781046
3078.000000	99.783157
3077.000000	99.785437
3076.000000	99.788056
3075.000000	99.791027
3074.000000	99.794352
3073.000000	99.797884
3072.000000	99.801294
3071.000000	99.804276
3070.000000	99.806754
3069.000000	99.808976
3068.000000	99.811500
3067.000000	99.814941
3066.000000	99.819439
3065.000000	99.824332
3064.000000	99.828632
3063.000000	99.831936
3062.000000	99.834712
3061.000000	99.837687
3060.000000	99.841052
3059.000000	99.844251
3058.000000	99.846399
3057.000000	99.846963
3056.000000	99.846346
3055.000000	99.845909
3054.000000	99.847118
3053.000000	99.850526
3052.000000	99.855568
3051.000000	99.861043
3050.000000	99.865824
3049.000000	99.869277
3048.000000	99.871404
3047.000000	99.872740
3046.000000	99.873901
3045.000000	99.875218
3044.000000	99.877049
3043.000000	99.880240
3042.000000	99.885637
3041.000000	99.892898
3040.000000	99.900220
3039.000000	99.905806
3038.000000	99.909389
3037.000000	99.912157
3036.000000	99.915516
3035.000000	99.920070
3034.000000	99.925549
3033.000000	99.931152
3032.000000	99.935875
3031.000000	99.938949
3030.000000	99.940402
3029.000000	99.941258
3028.000000	99.942963
3027.000000	99.946451
3026.000000	99.951751
3025.000000	99.958328
3024.000000	99.965539
3023.000000	99.972663
3022.000000	99.978762
3021.000000	99.983051
3020.000000	99.985651
3019.000000	99.987787
3018.000000	99.990985
3017.000000	99.996225
3016.000000	100.003807
3015.000000	100.013338
3014.000000	100.023483
3013.000000	100.032362
3012.000000	100.038798
3011.000000	100.042903
3010.000000	100.045293
3009.000000	100.046619
3008.000000	100.048371
3007.000000	100.052790
3006.000000	100.060643
3005.000000	100.069758
3004.000000	100.077400
3003.000000	100.083686
3002.000000	100.090927
3001.000000	100.099742
3000.000000	100.107536
2999.000000	100.111434
2998.000000	100.111656
2997.000000	100.111433
2996.000000	100.114177
2995.000000	100.121009
2994.000000	100.130601
2993.000000	100.141174
2992.000000	100.152601
2991.000000	100.166098
2990.000000	100.181574
2989.000000	100.196378
2988.000000	100.207827
2987.000000	100.216210
2986.000000	100.224051
2985.000000	100.233039
2984.000000	100.243258
2983.000000	100.254754
2982.000000	100.267509
2981.000000	100.279692
2980.000000	100.288351
2979.000000	100.292960
2978.000000	100.296673
2977.000000	100.302894
2976.000000	100.311507
2975.000000	100.319179
2974.000000	100.322123
2973.000000	100.317890
2972.000000	100.306451
2971.000000	100.291463
2970.000000	100.279267
2969.000000	100.273955
2968.000000	100.273023
2967.000000	100.269451
2966.000000	100.258864
2965.000000	100.244156
2964.000000	100.233080
2963.000000	100.231587
2962.000000	100.239229
2961.000000	100.249681
2960.000000	100.255100
2959.000000	100.251078
2958.000000	100.238831
2957.000000	100.223610
2956.000000	100.210825
2955.000000	100.202956
2954.000000	100.199498
2953.000000	100.199182
2952.000000	100.201624
2951.000000	100.206602
2950.000000	100.212349
2949.000000	100.215753
2948.000000	100.214896
2947.000000	100.210799
2946.000000	100.206130
2945.000000	100.202703
2944.000000	100.200991
2943.000000	100.201415
2942.000000	100.204664
2941.000000	100.210394
2940.000000	100.216569
2939.000000	100.220707
2938.000000	100.221674
2937.000000	100.220318
2936.000000	100.218790
2935.000000	100.219075
2934.000000	100.221624
2933.000000	100.225396
2932.000000	100.229487
2931.000000	100.234262
2930.000000	100.240292
2929.000000	100.246764
2928.000000	100.252023
2927.000000	100.255375
2926.000000	100.257201
2925.000000	100.257596
2924.000000	100.256428
2923.000000	100.254960
2922.000000	100.255768
2921.000000	100.260261
2920.000000	100.267324
2919.000000	100.274929
2918.000000	100.282040
2917.000000	100.288129
2916.000000	100.292285
2915.000000	100.294151
2914.000000	100.294944
2913.000000	100.296364
2912.000000	100.298729
2911.000000	100.300877
2910.000000	100.301735
2909.000000	100.301454
2908.000000	100.301219
2907.000000	100.302396
2906.000000	100.305659
2905.000000	100.310540
2904.000000	100.315842
2903.000000	100.320661
2902.000000	100.324907
2901.000000	100.328719
2900.000000	100.331717
2899.000000	100.333282
2898.000000	100.333363
2897.000000	100.332682
2896.000000	100.332318
2895.000000	100.333071
2894.000000	100.335070
2893.000000	100.337857
2892.000000	100.340867
2891.000000	100.343894
2890.000000	100.346970
2889.000000	100.349748
2888.000000	100.351370
2887.000000	100.351261
2886.000000	100.349793
2885.000000	100.348063
2884.000000	100.347071
2883.000000	100.347286
2882.000000	100.348806
2881.000000	100.351430
2880.000000	100.354460
2879.000000	100.356866
2878.000000	100.358031
2877.000000	100.358269
2876.000000	100.358486
2875.000000	100.359273
2874.000000	100.360401
2873.000000	100.361217
2872.000000	100.361406
2871.000000	100.361246
2870.000000	100.361208
2869.000000	100.361490
2868.000000	100.362002
2867.000000	100.362627
2866.000000	100.363224
2865.000000	100.363410
2864.000000	100.362725
2863.000000	100.361233
2862.000000	100.359815
2861.000000	100.359506
2860.000000	100.360554
2859.000000	100.362281
2858.000000	100.363622
2857.000000	100.363949
2856.000000	100.363301
2855.000000	100.362233
2854.000000	100.361517
2853.000000	100.361645
2852.000000	100.362505
2851.000000	100.363561
2850.000000	100.364479
2849.000000	100.365415
2848.000000	100.366509
2847.000000	100.367435
2846.000000	100.367730
2845.000000	100.367441
2844.000000	100.367146
2843.000000	100.367318
2842.000000	100.368007
2841.000000	100.369215
2840.000000	100.371085
2839.000000	100.373482
2838.000000	100.375791
2837.000000	100.377525
2836.000000	100.378867
2835.000000	100.380333
2834.000000	100.382069
2833.000000	100.383786
2832.000000	100.385297
2831.000000	100.386812
2830.000000	100.388610
2829.000000	100.390658
2828.000000	100.392642
2827.000000	100.394252
2826.000000	100.395472
2825.000000	100.396762
2824.000000	100.398850
2823.000000	100.402013
2822.000000	100.405500
2821.000000	100.408037
2820.000000	100.409198
2819.000000	100.409946
2818.000000	100.411586
2817.000000	100.414326
2816.000000	100.417319
2815.000000	100.419862
2814.000000	100.421954
2813.000000	100.423846
2812.000000	100.425694
2811.000000	100.427779
2810.000000	100.430509
2809.000000	100.433939
2808.000000	100.437579
2807.000000	100.440849
2806.000000	100.443693
2805.000000	100.446595
2804.000000	100.450028
2803.000000	100.453901
2802.000000	100.457553
2801.000000	100.460347
2800.000000	100.462288
2799.000000	100.464037
2798.000000	100.466303
2797.000000	100.469270
2796.000000	100.472699
2795.000000	100.476384
2794.000000	100.480225
2793.000000	100.483859
2792.000000	100.486659
2791.000000	100.488335
2790.000000	100.489376
2789.000000	100.490768
2788.000000	100.493210
2787.000000	100.496632
2786.000000	100.500267
2785.000000	100.503151
2784.000000	100.504844
2783.000000	100.505779
2782.000000	100.506939
2781.000000	100.508967
2780.000000	100.511641
2779.000000	100.514201
2778.000000	100.516085
2777.000000	100.517379
2776.000000	100.518630
2775.000000	100.520378
2774.000000	100.522791
2773.000000	100.525668
2772.000000	100.528666
2771.000000	100.531537
2770.000000	100.534181
2769.000000	100.536549
2768.000000	100.538632
2767.000000	100.540555
2766.000000	100.542538
2765.000000	100.544683
2764.000000	100.546893
2763.000000	100.549080
2762.000000	100.551356
2761.000000	100.553890
2760.000000	100.556659
2759.000000	100.559492
2758.000000	100.562314
2757.000000	100.565168
2756.000000	100.567937
2755.000000	100.570217
2754.000000	100.571663
2753.000000	100.572414
2752.000000	100.573132
2751.000000	100.574490
2750.000000	100.576659
2749.000000	100.579334
2748.000000	100.582084
2747.000000	100.584696
2746.000000	100.587104
2745.000000	100.589182
2744.000000	100.590850
2743.000000	100.592334
2742.000000	100.594099
2741.000000	100.596393
2740.000000	100.598961
2739.000000	100.601260
2738.000000	100.602966
2737.000000	100.604304
2736.000000	100.605933
2735.000000	100.608420
2734.000000	100.611573
2733.000000	100.614340
2732.000000	100.615827
2731.000000	100.616446
2730.000000	100.617796
2729.000000	100.620930
2728.000000	100.625019
2727.000000	100.628118
2726.000000	100.629197
2725.000000	100.628725
2724.000000	100.627868
2723.000000	100.627460
2722.000000	100.627662
2721.000000	100.628249
2720.000000	100.628909
2719.000000	100.629499
2718.000000	100.630149
2717.000000	100.631024
2716.000000	100.632029
2715.000000	100.632946
2714.000000	100.633798
2713.000000	100.634887
2712.000000	100.636431
2711.000000	100.638280
2710.000000	100.640065
2709.000000	100.641576
2708.000000	100.642888
2707.000000	100.644201
2706.000000	100.645560
2705.000000	100.646835
2704.000000	100.647995
2703.000000	100.649302
2702.000000	100.651016
2701.000000	100.652962
2700.000000	100.654647
2699.000000	100.655847
2698.000000	100.656892
2697.000000	100.658221
2696.000000	100.659774
2695.000000	100.661020
2694.000000	100.661555
2693.000000	100.661488
2692.000000	100.661365
2691.000000	100.661665
2690.000000	100.662320
2689.000000	100.662876
2688.000000	100.663110
2687.000000	100.663256
2686.000000	100.663672
2685.000000	100.664404
2684.000000	100.665247
2683.000000	100.666046
2682.000000	100.666794
2681.000000	100.667539
2680.000000	100.668297
2679.000000	100.669073
2678.000000	100.669862
2677.000000	100.670657
2676.000000	100.671446
2675.000000	100.672225
2674.000000	100.672998
2673.000000	100.673771
2672.000000	100.674543
2671.000000	100.675309
2670.000000	100.676057
2669.000000	100.676781
2668.000000	100.677482
2667.000000	100.678169
2666.000000	100.678847
2665.000000	100.679515
2664.000000	100.680168
2663.000000	100.680804
2662.000000	100.681429
2661.000000	100.682054
2660.000000	100.682687
2659.000000	100.683330
2658.000000	100.683974
2657.000000	100.684604
2656.000000	100.685214
2655.000000	100.685804
2654.000000	100.686388
2653.000000	100.686979
2652.000000	100.687585
2651.000000	100.688200
2650.000000	100.688815
2649.000000	100.689422
2648.000000	100.690017
2647.000000	100.690603
2646.000000	100.691179
2645.000000	100.691743
2644.000000	100.692290
2643.000000	100.692816
2642.000000	100.693322
2641.000000	100.693813
2640.000000	100.694296
2639.000000	100.694768
2638.000000	100.695218
2637.000000	100.695638
2636.000000	100.696031
2635.000000	100.696410
2634.000000	100.696786
2633.000000	100.697165
2632.000000	100.697544
2631.000000	100.697916
2630.000000	100.698278
2629.000000	100.698635
2628.000000	100.698995
2627.000000	100.699367
2626.000000	100.699753
2625.000000	100.700158
2624.000000	100.700580
2623.000000	100.701017
2622.000000	100.701462
2621.000000	100.701904
2620.000000	100.702336
2619.000000	100.702747
2618.000000	100.703133
2617.000000	100.703488
2616.000000	100.703815
2615.000000	100.704126
2614.000000	100.704436
2613.000000	100.704763
2612.000000	100.705116
2611.000000	100.705498
2610.000000	100.705909
2609.000000	100.706339
2608.000000	100.706781
2607.000000	100.707229
2606.000000	100.707685
2605.000000	100.708159
2604.000000	100.708659
2603.000000	100.709189
2602.000000	100.709744
2601.000000	100.710316
2600.000000	100.710901
2599.000000	100.711495
2598.000000	100.712096
2597.000000	100.712704
2596.000000	100.713316
2595.000000	100.713935
2594.000000	100.714562
2593.000000	100.715198
2592.000000	100.715845
2591.000000	100.716499
2590.000000	100.717155
2589.000000	100.717808
2588.000000	100.718453
2587.000000	100.719087
2586.000000	100.719708
2585.000000	100.720311
2584.000000	100.720893
2583.000000	100.721448
2582.000000	100.721979
2581.000000	100.722491
2580.000000	100.722994
2579.000000	100.723497
2578.000000	100.724004
2577.000000	100.724519
2576.000000	100.725051
2575.000000	100.725614
2574.000000	100.726219
2573.000000	100.726869
2572.000000	100.727551
2571.000000	100.728248
2570.000000	100.728941
2569.000000	100.729619
2568.000000	100.730282
2567.000000	100.730938
2566.000000	100.731597
2565.000000	100.732269
2564.000000	100.732951
2563.000000	100.733637
2562.000000	100.734329
2561.000000	100.735029
2560.000000	100.735722
2559.000000	100.736381
2558.000000	100.736987
2557.000000	100.737542
2556.000000	100.738064
2555.000000	100.738588
2554.000000	100.739162
2553.000000	100.739817
2552.000000	100.740539
2551.000000	100.741283
2550.000000	100.742028
2549.000000	100.742766
2548.000000	100.743475
2547.000000	100.744117
2546.000000	100.744673
2545.000000	100.745156
2544.000000	100.745612
2543.000000	100.746138
2542.000000	100.746847
2541.000000	100.747764
2540.000000	100.748790
2539.000000	100.749779
2538.000000	100.750676
2537.000000	100.751522
2536.000000	100.752394
2535.000000	100.753335
2534.000000	100.754330
2533.000000	100.755328
2532.000000	100.756288
2531.000000	100.757211
2530.000000	100.758123
2529.000000	100.759060
2528.000000	100.760031
2527.000000	100.761025
2526.000000	100.762033
2525.000000	100.763048
2524.000000	100.764051
2523.000000	100.765015
2522.000000	100.765938
2521.000000	100.766849
2520.000000	100.767786
2519.000000	100.768763
2518.000000	100.769777
2517.000000	100.770817
2516.000000	100.771883
2515.000000	100.772987
2514.000000	100.774147
2513.000000	100.775372
2512.000000	100.776647
2511.000000	100.777937
2510.000000	100.779212
2509.000000	100.780468
2508.000000	100.781720
2507.000000	100.782994
2506.000000	100.784308
2505.000000	100.785661
2504.000000	100.787045
2503.000000	100.788448
2502.000000	100.789863
2501.000000	100.791282
2500.000000	100.792695
2499.000000	100.794088
2498.000000	100.795448
2497.000000	100.796771
2496.000000	100.798104
2495.000000	100.799530
2494.000000	100.801092
2493.000000	100.802762
2492.000000	100.804452
2491.000000	100.806075
2490.000000	100.807599
2489.000000	100.809061
2488.000000	100.810530
2487.000000	100.812018
2486.000000	100.813466
2485.000000	100.814843
2484.000000	100.816210
2483.000000	100.817668
2482.000000	100.819245
2481.000000	100.820876
2480.000000	100.822479
2479.000000	100.824053
2478.000000	100.825658
2477.000000	100.827347
2476.000000	100.829130
2475.000000	100.830977
2474.000000	100.832819
2473.000000	100.834569
2472.000000	100.836184
2471.000000	100.837678
2470.000000	100.839099
2469.000000	100.840495
2468.000000	100.841924
2467.000000	100.843444
2466.000000	100.845062
2465.000000	100.846716
2464.000000	100.848335
2463.000000	100.849883
2462.000000	100.851356
2461.000000	100.852759
2460.000000	100.854113
2459.000000	100.855466
2458.000000	100.856867
2457.000000	100.858334
2456.000000	100.859839
2455.000000	100.861325
2454.000000	100.862746
2453.000000	100.864098
2452.000000	100.865415
2451.000000	100.866754
2450.000000	100.868144
2449.000000	100.869549
2448.000000	100.870889
2447.000000	100.872131
2446.000000	100.873305
2445.000000	100.874498
2444.000000	100.875774
2443.000000	100.877123
2442.000000	100.878456
2441.000000	100.879703
2440.000000	100.880914
2439.000000	100.882237
2438.000000	100.883768
2437.000000	100.885418
2436.000000	100.886964
2435.000000	100.888279
2434.000000	100.889415
2433.000000	100.890466
2432.000000	100.891418
2431.000000	100.892254
2430.000000	100.893099
2429.000000	100.894137
2428.000000	100.895391
2427.000000	100.896675
2426.000000	100.897775
2425.000000	100.898607
2424.000000	100.899218
2423.000000	100.899784
2422.000000	100.900588
2421.000000	100.901838
2420.000000	100.903423
2419.000000	100.904943
2418.000000	100.906056
2417.000000	100.906790
2416.000000	100.907529
2415.000000	100.908755
2414.000000	100.910695
2413.000000	100.913069
2412.000000	100.915164
2411.000000	100.916416
2410.000000	100.916963
2409.000000	100.917508
2408.000000	100.918632
2407.000000	100.920289
2406.000000	100.922007
2405.000000	100.923318
2404.000000	100.923973
2403.000000	100.923986
2402.000000	100.923690
2401.000000	100.923643
2400.000000	100.924184
2399.000000	100.925136
2398.000000	100.926046
2397.000000	100.926711
2396.000000	100.927364
2395.000000	100.928349
2394.000000	100.929765
2393.000000	100.931402
2392.000000	100.932918
2391.000000	100.934072
2390.000000	100.934824
2389.000000	100.935204
2388.000000	100.935167
2387.000000	100.934709
2386.000000	100.934112
2385.000000	100.933857
2384.000000	100.934175
2383.000000	100.934803
2382.000000	100.935262
2381.000000	100.935408
2380.000000	100.935523
2379.000000	100.935875
2378.000000	100.936353
2377.000000	100.936642
2376.000000	100.936619
2375.000000	100.936425
2374.000000	100.936253
2373.000000	100.936145
2372.000000	100.936039
2371.000000	100.935923
2370.000000	100.935881
2369.000000	100.935984
2368.000000	100.936166
2367.000000	100.936230
2366.000000	100.936038
2365.000000	100.935630
2364.000000	100.935167
2363.000000	100.934792
2362.000000	100.934526
2361.000000	100.934336
2360.000000	100.934189
2359.000000	100.934051
2358.000000	100.933885
2357.000000	100.933660
2356.000000	100.933375
2355.000000	100.933050
2354.000000	100.932704
2353.000000	100.932346
2352.000000	100.931968
2351.000000	100.931575
2350.000000	100.931180
2349.000000	100.930793
2348.000000	100.930412
2347.000000	100.930031
2346.000000	100.929641
2345.000000	100.929247
2344.000000	100.928860
2343.000000	100.928501
2342.000000	100.928186
2341.000000	100.927921
2340.000000	100.927695
2339.000000	100.927495
2338.000000	100.927303
2337.000000	100.927109
2336.000000	100.926912
2335.000000	100.926718
2334.000000	100.926524
2333.000000	100.926322
2332.000000	100.926103
2331.000000	100.925872
2330.000000	100.925645
2329.000000	100.925439
2328.000000	100.925260
2327.000000	100.925102
2326.000000	100.924951
2325.000000	100.924798
2324.000000	100.924644
2323.000000	100.924496
2322.000000	100.924357
2321.000000	100.924219
2320.000000	100.924065
2319.000000	100.923879
2318.000000	100.923664
2317.000000	100.923441
2316.000000	100.923237
2315.000000	100.923064
2314.000000	100.922920
2313.000000	100.922795
2312.000000	100.922684
2311.000000	100.922584
2310.000000	100.922496
2309.000000	100.922416
2308.000000	100.922332
2307.000000	100.922234
2306.000000	100.922122
2305.000000	100.922005
2304.000000	100.921897
2303.000000	100.921802
2302.000000	100.921712
2301.000000	100.921607
2300.000000	100.921465
2299.000000	100.921273
2298.000000	100.921032
2297.000000	100.920751
2296.000000	100.920446
2295.000000	100.920124
2294.000000	100.919772
2293.000000	100.919381
2292.000000	100.918961
2291.000000	100.918552
2290.000000	100.918186
2289.000000	100.917868
2288.000000	100.917563
2287.000000	100.917223
2286.000000	100.916817
2285.000000	100.916344
2284.000000	100.915843
2283.000000	100.915354
2282.000000	100.914894
2281.000000	100.914450
2280.000000	100.913973
2279.000000	100.913392
2278.000000	100.912679
2277.000000	100.911905
2276.000000	100.911167
2275.000000	100.910454
2274.000000	100.909642
2273.000000	100.908680
2272.000000	100.907700
2271.000000	100.906851
2270.000000	100.906161
2269.000000	100.905536
2268.000000	100.904888
2267.000000	100.904210
2266.000000	100.903539
2265.000000	100.902919
2264.000000	100.902324
2263.000000	100.901622
2262.000000	100.900706
2261.000000	100.899618
2260.000000	100.898555
2259.000000	100.897660
2258.000000	100.896885
2257.000000	100.896106
2256.000000	100.895264
2255.000000	100.894381
2254.000000	100.893493
2253.000000	100.892630
2252.000000	100.891804
2251.000000	100.890999
2250.000000	100.890189
2249.000000	100.889384
2248.000000	100.888620
2247.000000	100.887904
2246.000000	100.887207
2245.000000	100.886512
2244.000000	100.885826
2243.000000	100.885155
2242.000000	100.884500
2241.000000	100.883858
2240.000000	100.883229
2239.000000	100.882618
2238.000000	100.882034
2237.000000	100.881483
2236.000000	100.880969
2235.000000	100.880494
2234.000000	100.880054
2233.000000	100.879646
2232.000000	100.879268
2231.000000	100.878919
2230.000000	100.878602
2229.000000	100.878318
2228.000000	100.878072
2227.000000	100.877866
2226.000000	100.877693
2225.000000	100.877542
2224.000000	100.877407
2223.000000	100.877292
2222.000000	100.877206
2221.000000	100.877155
2220.000000	100.877138
2219.000000	100.877155
2218.000000	100.877199
2217.000000	100.877274
2216.000000	100.877383
2215.000000	100.877518
2214.000000	100.877654
2213.000000	100.877784
2212.000000	100.877937
2211.000000	100.878156
2210.000000	100.878464
2209.000000	100.878850
2208.000000	100.879284
2207.000000	100.879712
2206.000000	100.880068
2205.000000	100.880319
2204.000000	100.880495
2203.000000	100.880658
2202.000000	100.880843
2201.000000	100.881071
2200.000000	100.881398
2199.000000	100.881892
2198.000000	100.882545
2197.000000	100.883237
2196.000000	100.883800
2195.000000	100.884118
2194.000000	100.884219
2193.000000	100.884329
2192.000000	100.884764
2191.000000	100.885680
2190.000000	100.886851
2189.000000	100.887808
2188.000000	100.888306
2187.000000	100.888501
2186.000000	100.888677
2185.000000	100.888919
2184.000000	100.889131
2183.000000	100.889162
2182.000000	100.888875
2181.000000	100.888322
2180.000000	100.887803
2179.000000	100.887613
2178.000000	100.887767
2177.000000	100.888130
2176.000000	100.888795
2175.000000	100.890018
2174.000000	100.891742
2173.000000	100.893425
2172.000000	100.894458
2171.000000	100.894627
2170.000000	100.894124
2169.000000	100.893381
2168.000000	100.892931
2167.000000	100.893191
2166.000000	100.894164
2165.000000	100.895343
2164.000000	100.896088
2163.000000	100.896183
2162.000000	100.896021
2161.000000	100.896262
2160.000000	100.897283
2159.000000	100.898832
2158.000000	100.900177
2157.000000	100.900746
2156.000000	100.900611
2155.000000	100.900301
2154.000000	100.900236
2153.000000	100.900493
2152.000000	100.901021
2151.000000	100.901789
2150.000000	100.902787
2149.000000	100.904166
2148.000000	100.906199
2147.000000	100.908861
2146.000000	100.911575
2145.000000	100.913707
2144.000000	100.915210
2143.000000	100.916379
2142.000000	100.917259
2141.000000	100.917772
2140.000000	100.918269
2139.000000	100.919346
2138.000000	100.921016
2137.000000	100.922644
2136.000000	100.923825
2135.000000	100.924821
2134.000000	100.925945
2133.000000	100.927045
2132.000000	100.927957
2131.000000	100.929014
2130.000000	100.930624
2129.000000	100.932661
2128.000000	100.934661
2127.000000	100.936443
2126.000000	100.938111
2125.000000	100.939672
2124.000000	100.941066
2123.000000	100.942441
2122.000000	100.944035
2121.000000	100.945883
2120.000000	100.947834
2119.000000	100.949755
2118.000000	100.951542
2117.000000	100.953074
2116.000000	100.954337
2115.000000	100.955501
2114.000000	100.956796
2113.000000	100.958325
2112.000000	100.960054
2111.000000	100.961910
2110.000000	100.963797
2109.000000	100.965606
2108.000000	100.967271
2107.000000	100.968839
2106.000000	100.970469
2105.000000	100.972224
2104.000000	100.973924
2103.000000	100.975340
2102.000000	100.976478
2101.000000	100.977582
2100.000000	100.978901
2099.000000	100.980554
2098.000000	100.982503
2097.000000	100.984542
2096.000000	100.986466
2095.000000	100.988305
2094.000000	100.990149
2093.000000	100.991763
2092.000000	100.992799
2091.000000	100.993553
2090.000000	100.994905
2089.000000	100.997071
2088.000000	100.998996
2087.000000	100.999708
2086.000000	100.999883
2085.000000	101.001207
2084.000000	101.004370
2083.000000	101.008373
2082.000000	101.011698
2081.000000	101.013630
2080.000000	101.014451
2079.000000	101.015017
2078.000000	101.016226
2077.000000	101.018460
2076.000000	101.021440
2075.000000	101.024846
2074.000000	101.028753
2073.000000	101.032939
2072.000000	101.036084
2071.000000	101.036657
2070.000000	101.034832
2069.000000	101.032869
2068.000000	101.032878
2067.000000	101.034514
2066.000000	101.035576
2065.000000	101.034761
2064.000000	101.033147
2063.000000	101.032686
2062.000000	101.033852
2061.000000	101.035445
2060.000000	101.036356
2059.000000	101.036723
2058.000000	101.037223
2057.000000	101.038006
2056.000000	101.038774
2055.000000	101.039417
2054.000000	101.040048
2053.000000	101.040745
2052.000000	101.041662
2051.000000	101.043010
2050.000000	101.044364
2049.000000	101.044470
2048.000000	101.042519
2047.000000	101.039363
2046.000000	101.036714
2045.000000	101.035128
2044.000000	101.033646
2043.000000	101.031561
2042.000000	101.029593
2041.000000	101.028799
2040.000000	101.028925
2039.000000	101.028568
2038.000000	101.026740
2037.000000	101.023787
2036.000000	101.020900
2035.000000	101.019145
2034.000000	101.019002
2033.000000	101.020472
2032.000000	101.023196
2031.000000	101.026337
2030.000000	101.028654
2029.000000	101.029146
2028.000000	101.027862
2027.000000	101.025931
2026.000000	101.024490
2025.000000	101.023785
2024.000000	101.023522
2023.000000	101.023705
2022.000000	101.024526
2021.000000	101.025548
2020.000000	101.025744
2019.000000	101.024658
2018.000000	101.023038
2017.000000	101.021977
2016.000000	101.021633
2015.000000	101.021250
2014.000000	101.020261
2013.000000	101.018883
2012.000000	101.017632
2011.000000	101.016651
2010.000000	101.015700
2009.000000	101.014655
2008.000000	101.013783
2007.000000	101.013455
2006.000000	101.013701
2005.000000	101.014163
2004.000000	101.014435
2003.000000	101.014449
2002.000000	101.014406
2001.000000	101.014381
2000.000000	101.014175
1999.000000	101.013610
1998.000000	101.012838
1997.000000	101.012212
1996.000000	101.011887
1995.000000	101.011751
1994.000000	101.011722
1993.000000	101.011910
1992.000000	101.012385
1991.000000	101.012911
1990.000000	101.013060
1989.000000	101.012578
1988.000000	101.011591
1987.000000	101.010561
1986.000000	101.009969
1985.000000	101.009994
1984.000000	101.010410
1983.000000	101.010714
1982.000000	101.010534
1981.000000	101.009964
1980.000000	101.009449
1979.000000	101.009336
1978.000000	101.009752
1977.000000	101.010813
1976.000000	101.012574
1975.000000	101.014628
1974.000000	101.016092
1973.000000	101.016391
1972.000000	101.015910
1971.000000	101.015660
1970.000000	101.016116
1969.000000	101.016664
1968.000000	101.016378
1967.000000	101.015202
1966.000000	101.014171
1965.000000	101.014324
1964.000000	101.015608
1963.000000	101.016952
1962.000000	101.017305
1961.000000	101.016609
1960.000000	101.015707
1959.000000	101.015304
1958.000000	101.015313
1957.000000	101.015410
1956.000000	101.015837
1955.000000	101.017129
1954.000000	101.019259
1953.000000	101.021653
1952.000000	101.024043
1951.000000	101.026680
1950.000000	101.029459
1949.000000	101.031493
1948.000000	101.031851
1947.000000	101.030400
1946.000000	101.027934
1945.000000	101.025727
1944.000000	101.024843
1943.000000	101.025292
1942.000000	101.025722
1941.000000	101.024644
1940.000000	101.021925
1939.000000	101.018796
1938.000000	101.016454
1937.000000	101.015039
1936.000000	101.014372
1935.000000	101.014927
1934.000000	101.017113
1933.000000	101.019923
1932.000000	101.021336
1931.000000	101.020202
1930.000000	101.017072
1929.000000	101.013391
1928.000000	101.010108
1927.000000	101.007191
1926.000000	101.004207
1925.000000	101.001172
1924.000000	100.999135
1923.000000	100.999258
1922.000000	101.001193
1921.000000	101.002785
1920.000000	101.002063
1919.000000	100.999324
1918.000000	100.996666
1917.000000	100.995469
1916.000000	100.994989
1915.000000	100.993608
1914.000000	100.990571
1913.000000	100.985802
1912.000000	100.979184
1911.000000	100.971005
1910.000000	100.962768
1909.000000	100.956660
1908.000000	100.953540
1907.000000	100.951940
1906.000000	100.949590
1905.000000	100.945668
1904.000000	100.941528
1903.000000	100.938965
1902.000000	100.938257
1901.000000	100.938029
1900.000000	100.936673
1899.000000	100.933561
1898.000000	100.929008
1897.000000	100.923521
1896.000000	100.917723
1895.000000	100.912631
1894.000000	100.909370
1893.000000	100.908106
1892.000000	100.907556
1891.000000	100.905870
1890.000000	100.902011
1889.000000	100.896881
1888.000000	100.892701
1887.000000	100.890692
1886.000000	100.890542
1885.000000	100.891196
1884.000000	100.891040
1883.000000	100.888587
1882.000000	100.884010
1881.000000	100.879923
1880.000000	100.879557
1879.000000	100.883677
1878.000000	100.889774
1877.000000	100.894463
1876.000000	100.896445
1875.000000	100.896451
1874.000000	100.894963
1873.000000	100.891786
1872.000000	100.887792
1871.000000	100.885245
1870.000000	100.885543
1869.000000	100.887582
1868.000000	100.889943
1867.000000	100.893114
1866.000000	100.897195
1865.000000	100.900849
1864.000000	100.903561
1863.000000	100.906697
1862.000000	100.911855
1861.000000	100.918616
1860.000000	100.924776
1859.000000	100.928926
1858.000000	100.931773
1857.000000	100.934592
1856.000000	100.937765
1855.000000	100.941673
1854.000000	100.947840
1853.000000	100.957683
1852.000000	100.969953
1851.000000	100.980713
1850.000000	100.986972
1849.000000	100.989119
1848.000000	100.989992
1847.000000	100.991917
1846.000000	100.995261
1845.000000	100.999338
1844.000000	101.003754
1843.000000	101.008562
1842.000000	101.013307
1841.000000	101.017505
1840.000000	101.021498
1839.000000	101.025289
1838.000000	101.028033
1837.000000	101.029367
1836.000000	101.030258
1835.000000	101.031190
1834.000000	101.031302
1833.000000	101.030561
1832.000000	101.031046
1831.000000	101.034083
1830.000000	101.037037
1829.000000	101.036578
1828.000000	101.034020
1827.000000	101.032787
1826.000000	101.033855
1825.000000	101.034917
1824.000000	101.034151
1823.000000	101.033084
1822.000000	101.033438
1821.000000	101.034195
1820.000000	101.033319
1819.000000	101.031104
1818.000000	101.030103
1817.000000	101.031792
1816.000000	101.035060
1815.000000	101.037885
1814.000000	101.039437
1813.000000	101.040186
1812.000000	101.040930
1811.000000	101.042121
1810.000000	101.043327
1809.000000	101.043443
1808.000000	101.041846
1807.000000	101.039113
1806.000000	101.036430
1805.000000	101.034655
1804.000000	101.034143
1803.000000	101.034902
1802.000000	101.036495
1801.000000	101.037996
1800.000000	101.038620
1799.000000	101.038432
1798.000000	101.037970
1797.000000	101.037601
1796.000000	101.037368
1795.000000	101.037223
1794.000000	101.037217
1793.000000	101.037416
1792.000000	101.037714
1791.000000	101.037900
1790.000000	101.037761
1789.000000	101.037123
1788.000000	101.036105
1787.000000	101.035271
1786.000000	101.035269
1785.000000	101.036192
1784.000000	101.037264
1783.000000	101.037487
1782.000000	101.036541
1781.000000	101.035079
1780.000000	101.034352
1779.000000	101.035548
1778.000000	101.038767
1777.000000	101.042628
1776.000000	101.044828
1775.000000	101.043946
1774.000000	101.041163
1773.000000	101.039377
1772.000000	101.039505
1771.000000	101.039732
1770.000000	101.038482
1769.000000	101.035869
1768.000000	101.033710
1767.000000	101.033310
1766.000000	101.034118
1765.000000	101.035251
1764.000000	101.036443
1763.000000	101.036983
1762.000000	101.035737
1761.000000	101.033548
1760.000000	101.032833
1759.000000	101.034051
1758.000000	101.034958
1757.000000	101.033378
1756.000000	101.030158
1755.000000	101.028326
1754.000000	101.029117
1753.000000	101.030999
1752.000000	101.031069
1751.000000	101.027266
1750.000000	101.020691
1749.000000	101.014559
1748.000000	101.010684
1747.000000	101.007929
1746.000000	101.004195
1745.000000	100.998921
1744.000000	100.993914
1743.000000	100.991905
1742.000000	100.993610
1741.000000	100.996313
1740.000000	100.995367
1739.000000	100.988308
1738.000000	100.977566
1737.000000	100.968022
1736.000000	100.963444
1735.000000	100.963028
1734.000000	100.957486
1733.000000	100.940480
1732.000000	100.919723
1731.000000	100.904608
1730.000000	100.898075
1729.000000	100.896777
1728.000000	100.894391
1727.000000	100.886570
1726.000000	100.874052
1725.000000	100.861119
1724.000000	100.851284
1723.000000	100.844019
1722.000000	100.835564
1721.000000	100.823932
1720.000000	100.811620
1719.000000	100.803127
1718.000000	100.798607
1717.000000	100.792700
1716.000000	100.783812
1715.000000	100.774410
1714.000000	100.764727
1713.000000	100.753700
1712.000000	100.742168
1711.000000	100.732482
1710.000000	100.724762
1709.000000	100.716094
1708.000000	100.704448
1707.000000	100.691139
1706.000000	100.677446
1705.000000	100.661968
1704.000000	100.643913
1703.000000	100.624694
1702.000000	100.607238
1701.000000	100.593213
1700.000000	100.577862
1699.000000	100.555928
1698.000000	100.529987
1697.000000	100.504201
1696.000000	100.480999
1695.000000	100.463409
1694.000000	100.451566
1693.000000	100.441946
1692.000000	100.433203
1691.000000	100.423078
1690.000000	100.407487
1689.000000	100.384684
1688.000000	100.357685
1687.000000	100.331581
1686.000000	100.310558
1685.000000	100.293402
1684.000000	100.272219
1683.000000	100.249071
1682.000000	100.229875
1681.000000	100.209775
1680.000000	100.189133
1679.000000	100.170651
1678.000000	100.154919
1677.000000	100.140568
1676.000000	100.126065
1675.000000	100.109633
1674.000000	100.090090
1673.000000	100.068326
1672.000000	100.046406
1671.000000	100.025024
1670.000000	100.002131
1669.000000	99.978727
1668.000000	99.959637
1667.000000	99.944647
1666.000000	99.929014
1665.000000	99.910212
1664.000000	99.889213
1663.000000	99.867843
1662.000000	99.845880
1661.000000	99.822729
1660.000000	99.799209
1659.000000	99.777906
1658.000000	99.759758
1657.000000	99.742493
1656.000000	99.723533
1655.000000	99.704338
1654.000000	99.684891
1653.000000	99.659171
1652.000000	99.638769
1651.000000	99.633669
1650.000000	99.635699
1649.000000	99.640555
1648.000000	99.636868
1647.000000	99.620450
1646.000000	99.602419
1645.000000	99.594041
1644.000000	99.590263
1643.000000	99.585107
1642.000000	99.576954
1641.000000	99.565922
1640.000000	99.555257
1639.000000	99.549626
1638.000000	99.550269
1637.000000	99.552279
1636.000000	99.547567
1635.000000	99.538943
1634.000000	99.537383
1633.000000	99.541194
1632.000000	99.545537
1631.000000	99.548826
1630.000000	99.550210
1629.000000	99.550372
1628.000000	99.552038
1627.000000	99.558454
1626.000000	99.569579
1625.000000	99.582092
1624.000000	99.593117
1623.000000	99.602457
1622.000000	99.611732
1621.000000	99.621071
1620.000000	99.628952
1619.000000	99.635447
1618.000000	99.641121
1617.000000	99.645372
1616.000000	99.650990
1615.000000	99.664857
1614.000000	99.686918
1613.000000	99.709490
1612.000000	99.725129
1611.000000	99.732206
1610.000000	99.736586
1609.000000	99.745771
1608.000000	99.761195
1607.000000	99.777755
1606.000000	99.790017
1605.000000	99.797142
1604.000000	99.802319
1603.000000	99.810054
1602.000000	99.823225
1601.000000	99.840759
1600.000000	99.857973
1599.000000	99.870150
1598.000000	99.876371
1597.000000	99.879717
1596.000000	99.883979
1595.000000	99.890673
1594.000000	99.899079
1593.000000	99.908307
1592.000000	99.918588
1591.000000	99.930703
1590.000000	99.944578
1589.000000	99.958722
1588.000000	99.971174
1587.000000	99.981031
1586.000000	99.989092
1585.000000	99.997167
1584.000000	100.006496
1583.000000	100.016928
1582.000000	100.027520
1581.000000	100.037428
1580.000000	100.046382
1579.000000	100.054688
1578.000000	100.062958
1577.000000	100.071649
1576.000000	100.080696
1575.000000	100.089837
1574.000000	100.098916
1573.000000	100.107915
1572.000000	100.117066
1571.000000	100.126547
1570.000000	100.136001
1569.000000	100.144804
1568.000000	100.153003
1567.000000	100.161105
1566.000000	100.169511
1565.000000	100.178226
1564.000000	100.186833
1563.000000	100.194931
1562.000000	100.202591
1561.000000	100.210366
1560.000000	100.218889
1559.000000	100.227178
1558.000000	100.234727
1557.000000	100.242604
1556.000000	100.250056
1555.000000	100.257288
1554.000000	100.264826
1553.000000	100.272797
1552.000000	100.280970
1551.000000	100.289059
1550.000000	100.296833
1549.000000	100.304320
1548.000000	100.311927
1547.000000	100.320105
1546.000000	100.328985
1545.000000	100.337991
1544.000000	100.346145
1543.000000	100.353188
1542.000000	100.359892
1541.000000	100.367416
1540.000000	100.376282
1539.000000	100.385964
1538.000000	100.394976
1537.000000	100.402072
1536.000000	100.407959
1535.000000	100.414100
1534.000000	100.421862
1533.000000	100.431345
1532.000000	100.441147
1531.000000	100.449691
1530.000000	100.456523
1529.000000	100.462821
1528.000000	100.470458
1527.000000	100.480765
1526.000000	100.492986
1525.000000	100.504084
1524.000000	100.512002
1523.000000	100.518571
1522.000000	100.527154
1521.000000	100.538008
1520.000000	100.548550
1519.000000	100.557146
1518.000000	100.565448
1517.000000	100.575928
1516.000000	100.588757
1515.000000	100.602168
1514.000000	100.613999
1513.000000	100.623973
1512.000000	100.632829
1511.000000	100.640861
1510.000000	100.648864
1509.000000	100.659077
1508.000000	100.675175
1507.000000	100.697344
1506.000000	100.721965
1505.000000	100.740733
1504.000000	100.745302
1503.000000	100.745018
1502.000000	100.750414
1501.000000	100.763354
1500.000000	100.779739
1499.000000	100.794865
1498.000000	100.809036
1497.000000	100.825352
1496.000000	100.842776
1495.000000	100.856676
1494.000000	100.865625
1493.000000	100.872525
1492.000000	100.880209
1491.000000	100.888911
1490.000000	100.896893
1489.000000	100.904425
1488.000000	100.913561
1487.000000	100.923773
1486.000000	100.932743
1485.000000	100.938949
1484.000000	100.942715
1483.000000	100.946107
1482.000000	100.950570
1481.000000	100.954226
1480.000000	100.954373
1479.000000	100.951464
1478.000000	100.948912
1477.000000	100.948502
1476.000000	100.948391
1475.000000	100.946635
1474.000000	100.944153
1473.000000	100.941639
1472.000000	100.937861
1471.000000	100.931991
1470.000000	100.923118
1469.000000	100.912406
1468.000000	100.903218
1467.000000	100.897991
1466.000000	100.897467
1465.000000	100.900303
1464.000000	100.903140
1463.000000	100.902729
1462.000000	100.898306
1461.000000	100.892741
1460.000000	100.889774
1459.000000	100.891012
1458.000000	100.893989
1457.000000	100.893681
1456.000000	100.891175
1455.000000	100.889087
1454.000000	100.887031
1453.000000	100.884589
1452.000000	100.879272
1451.000000	100.871382
1450.000000	100.864288
1449.000000	100.860488
1448.000000	100.859499
1447.000000	100.859497
1446.000000	100.859261
1445.000000	100.857870
1444.000000	100.854371
1443.000000	100.848997
1442.000000	100.843014
1441.000000	100.837659
1440.000000	100.833732
1439.000000	100.832520
1438.000000	100.835709
1437.000000	100.842281
1436.000000	100.847116
1435.000000	100.845985
1434.000000	100.838924
1433.000000	100.827670
1432.000000	100.813840
1431.000000	100.800247
1430.000000	100.790837
1429.000000	100.787025
1428.000000	100.786024
1427.000000	100.784300
1426.000000	100.782111
1425.000000	100.782154
1424.000000	100.784550
1423.000000	100.786660
1422.000000	100.786769
1421.000000	100.786283
1420.000000	100.787739
1419.000000	100.790708
1418.000000	100.793620
1417.000000	100.796675
1416.000000	100.799629
1415.000000	100.802613
1414.000000	100.806862
1413.000000	100.813248
1412.000000	100.821239
1411.000000	100.829097
1410.000000	100.835014
1409.000000	100.838020
1408.000000	100.838305
1407.000000	100.836972
1406.000000	100.835688
1405.000000	100.836077
1404.000000	100.838734
1403.000000	100.843284
1402.000000	100.849426
1401.000000	100.857309
1400.000000	100.865480
1399.000000	100.871046
1398.000000	100.873925
1397.000000	100.877273
1396.000000	100.883314
1395.000000	100.891489
1394.000000	100.900428
1393.000000	100.909146
1392.000000	100.916131
1391.000000	100.920098
1390.000000	100.921290
1389.000000	100.921736
1388.000000	100.923612
1387.000000	100.926840
1386.000000	100.929815
1385.000000	100.931909
1384.000000	100.933585
1383.000000	100.934914
1382.000000	100.935229
1381.000000	100.934878
1380.000000	100.935915
1379.000000	100.939921
1378.000000	100.946040
1377.000000	100.951723
1376.000000	100.954957
1375.000000	100.955316
1374.000000	100.954147
1373.000000	100.953669
1372.000000	100.954758
1371.000000	100.956720
1370.000000	100.958836
1369.000000	100.960759
1368.000000	100.962391
1367.000000	100.963962
1366.000000	100.965800
1365.000000	100.968204
1364.000000	100.971312
1363.000000	100.975052
1362.000000	100.979346
1361.000000	100.983683
1360.000000	100.987017
1359.000000	100.989071
1358.000000	100.990658
1357.000000	100.992311
1356.000000	100.993581
1355.000000	100.994098
1354.000000	100.994886
1353.000000	100.997753
1352.000000	101.003300
1351.000000	101.009954
1350.000000	101.015062
1349.000000	101.016823
1348.000000	101.015316
1347.000000	101.012552
1346.000000	101.011451
1345.000000	101.013895
1344.000000	101.019013
1343.000000	101.023767
1342.000000	101.025719
1341.000000	101.025166
1340.000000	101.024706
1339.000000	101.026911
1338.000000	101.031880
1337.000000	101.037157
1336.000000	101.040169
1335.000000	101.040240
1334.000000	101.038652
1333.000000	101.037524
1332.000000	101.038377
1331.000000	101.041272
1330.000000	101.044967
1329.000000	101.047728
1328.000000	101.048167
1327.000000	101.045959
1326.000000	101.042326
1325.000000	101.039564
1324.000000	101.039318
1323.000000	101.040982
1322.000000	101.042088
1321.000000	101.040850
1320.000000	101.038508
1319.000000	101.038516
1318.000000	101.042473
1317.000000	101.047359
1316.000000	101.048268
1315.000000	101.043871
1314.000000	101.038160
1313.000000	101.036315
1312.000000	101.039213
1311.000000	101.042967
1310.000000	101.043568
1309.000000	101.040923
1308.000000	101.038509
1307.000000	101.039866
1306.000000	101.045061
1305.000000	101.050081
1304.000000	101.050098
1303.000000	101.043991
1302.000000	101.035818
1301.000000	101.031457
1300.000000	101.033466
1299.000000	101.039551
1298.000000	101.045329
1297.000000	101.047855
1296.000000	101.047038
1295.000000	101.044967
1294.000000	101.044012
1293.000000	101.044610
1292.000000	101.044737
1291.000000	101.042139
1290.000000	101.036983
1289.000000	101.031585
1288.000000	101.027691
1287.000000	101.025062
1286.000000	101.022629
1285.000000	101.019708
1284.000000	101.015973
1283.000000	101.011895
1282.000000	101.009778
1281.000000	101.012461
1280.000000	101.019280
1279.000000	101.024410
1278.000000	101.021585
1277.000000	101.010628
1276.000000	100.998079
1275.000000	100.991068
1274.000000	100.991242
1273.000000	100.994514
1272.000000	100.995130
1271.000000	100.989654
1270.000000	100.978933
1269.000000	100.967714
1268.000000	100.961261
1267.000000	100.960541
1266.000000	100.960763
1265.000000	100.956315
1264.000000	100.947544
1263.000000	100.941307
1262.000000	100.943557
1261.000000	100.951901
1260.000000	100.956794
1259.000000	100.950492
1258.000000	100.933949
1257.000000	100.914750
1256.000000	100.899076
1255.000000	100.886662
1254.000000	100.873356
1253.000000	100.856998
1252.000000	100.839582
1251.000000	100.824352
1250.000000	100.812249
1249.000000	100.801499
1248.000000	100.789662
1247.000000	100.775662
1246.000000	100.760840
1245.000000	100.748373
1244.000000	100.740278
1243.000000	100.733940
1242.000000	100.722916
1241.000000	100.702863
1240.000000	100.676158
1239.000000	100.649494
1238.000000	100.627418
1237.000000	100.609477
1236.000000	100.592919
1235.000000	100.575616
1234.000000	100.556031
1233.000000	100.533055
1232.000000	100.507863
1231.000000	100.484449
1230.000000	100.465867
1229.000000	100.449876
1228.000000	100.430085
1227.000000	100.402255
1226.000000	100.368832
1225.000000	100.336309
1224.000000	100.307753
1223.000000	100.278593
1222.000000	100.240724
1221.000000	100.190818
1220.000000	100.134080
1219.000000	100.079989
1218.000000	100.034569
1217.000000	99.996256
1216.000000	99.957865
1215.000000	99.912078
1214.000000	99.856898
1213.000000	99.797270
1212.000000	99.740045
1211.000000	99.685795
1210.000000	99.627229
1209.000000	99.557638
1208.000000	99.479409
1207.000000	99.402215
1206.000000	99.333886
1205.000000	99.275053
1204.000000	99.220959
1203.000000	99.164871
1202.000000	99.100958
1201.000000	99.028144
1200.000000	98.951569
1199.000000	98.877787
1198.000000	98.808904
1197.000000	98.743531
1196.000000	98.680922
1195.000000	98.619173
1194.000000	98.551053
1193.000000	98.468671
1192.000000	98.373813
1191.000000	98.278449
1190.000000	98.192398
1189.000000	98.114072
1188.000000	98.035116
1187.000000	97.949922
1186.000000	97.858603
1185.000000	97.764626
1184.000000	97.672379
1183.000000	97.584528
1182.000000	97.499352
1181.000000	97.412081
1180.000000	97.319278
1179.000000	97.219804
1178.000000	97.112316
1177.000000	96.995671
1176.000000	96.871784
1175.000000	96.744086
1174.000000	96.613162
1173.000000	96.478236
1172.000000	96.342548
1171.000000	96.211418
1170.000000	96.084453
1169.000000	95.955995
1168.000000	95.824975
1167.000000	95.698713
1166.000000	95.585752
1165.000000	95.491122
1164.000000	95.419870
1163.000000	95.377610
1162.000000	95.364196
1161.000000	95.372452
1160.000000	95.394835
1159.000000	95.424798
1158.000000	95.449874
1157.000000	95.451773
1156.000000	95.418917
1155.000000	95.355654
1154.000000	95.276530
1153.000000	95.193948
1152.000000	95.112436
1151.000000	95.030375
1150.000000	94.943686
1149.000000	94.849834
1148.000000	94.750090
1147.000000	94.647225
1146.000000	94.542635
1145.000000	94.438623
1144.000000	94.340499
1143.000000	94.250505
1142.000000	94.161770
1141.000000	94.065578
1140.000000	93.963199
1139.000000	93.862468
1138.000000	93.763556
1137.000000	93.657769
1136.000000	93.541664
1135.000000	93.423043
1134.000000	93.310204
1133.000000	93.203053
1132.000000	93.097640
1131.000000	92.992246
1130.000000	92.886413
1129.000000	92.780007
1128.000000	92.674529
1127.000000	92.569161
1126.000000	92.456298
1125.000000	92.329666
1124.000000	92.196684
1123.000000	92.072587
1122.000000	91.960453
1121.000000	91.847065
1120.000000	91.721253
1119.000000	91.587056
1118.000000	91.455772
1117.000000	91.334337
1116.000000	91.224616
1115.000000	91.124588
1114.000000	91.026558
1113.000000	90.923031
1112.000000	90.817850
1111.000000	90.723270
1110.000000	90.643598
1109.000000	90.569752
1108.000000	90.491207
1107.000000	90.404831
1106.000000	90.311723
1105.000000	90.215561
1104.000000	90.124916
1103.000000	90.046573
1102.000000	89.975101
1101.000000	89.899189
1100.000000	89.818631
1099.000000	89.744114
1098.000000	89.679984
1097.000000	89.618612
1096.000000	89.551993
1095.000000	89.477264
1094.000000	89.392210
1093.000000	89.299312
1092.000000	89.213795
1091.000000	89.151464
1090.000000	89.105309
1089.000000	89.048820
1088.000000	88.966874
1087.000000	88.871430
1086.000000	88.784544
1085.000000	88.717363
1084.000000	88.666818
1083.000000	88.619916
1082.000000	88.560092
1081.000000	88.482144
1080.000000	88.401499
1079.000000	88.336347
1078.000000	88.281274
1077.000000	88.213459
1076.000000	88.123852
1075.000000	88.025122
1074.000000	87.928195
1073.000000	87.827581
1072.000000	87.712538
1071.000000	87.577166
1070.000000	87.417901
1069.000000	87.235843
1068.000000	87.042693
1067.000000	86.850024
1066.000000	86.652357
1065.000000	86.436426
1064.000000	86.206020
1063.000000	85.980037
1062.000000	85.766608
1061.000000	85.558312
1060.000000	85.352474
1059.000000	85.153860
1058.000000	84.955576
1057.000000	84.741130
1056.000000	84.511068
1055.000000	84.286133
1054.000000	84.076896
1053.000000	83.869665
1052.000000	83.650256
1051.000000	83.422013
1050.000000	83.190966
1049.000000	82.952859
1048.000000	82.704428
1047.000000	82.449287
1046.000000	82.187328
1045.000000	81.916186
1044.000000	81.644804
1043.000000	81.387061
1042.000000	81.141150
1041.000000	80.893913
1040.000000	80.645189
1039.000000	80.407075
1038.000000	80.180380
1037.000000	79.955865
1036.000000	79.738583
1035.000000	79.544504
1034.000000	79.371612
1033.000000	79.202094
1032.000000	79.036963
1031.000000	78.900449
1030.000000	78.803737
1029.000000	78.730594
1028.000000	78.664999
1027.000000	78.608381
1026.000000	78.563443
1025.000000	78.526028
1024.000000	78.499457
1023.000000	78.492643
1022.000000	78.497394
1021.000000	78.490487
1020.000000	78.463948
1019.000000	78.430804
1018.000000	78.397129
1017.000000	78.352878
1016.000000	78.294973
1015.000000	78.234674
1014.000000	78.176026
1013.000000	78.110286
1012.000000	78.037099
1011.000000	77.968409
1010.000000	77.907211
1009.000000	77.846550
1008.000000	77.793475
1007.000000	77.768199
1006.000000	77.773843
1005.000000	77.792345
1004.000000	77.816541
1003.000000	77.860672
1002.000000	77.931426
1001.000000	78.014101
1000.000000	78.097014
999.000000	78.186972
998.000000	78.291185
997.000000	78.405372
996.000000	78.528338
995.000000	78.667056
994.000000	78.817971
993.000000	78.962652
992.000000	79.091305
991.000000	79.214292
990.000000	79.344358
989.000000	79.484255
988.000000	79.635686
987.000000	79.801380
986.000000	79.973308
985.000000	80.137718
984.000000	80.297195
983.000000	80.469891
982.000000	80.662901
981.000000	80.864933
980.000000	81.069128
979.000000	81.283466
978.000000	81.513092
977.000000	81.751259
976.000000	81.993682
975.000000	82.244360
974.000000	82.502002
973.000000	82.758232
972.000000	83.014341
971.000000	83.282219
970.000000	83.562904
969.000000	83.841032
968.000000	84.106568
967.000000	84.366348
966.000000	84.628557
965.000000	84.891180
964.000000	85.151366
963.000000	85.411024
962.000000	85.667320
961.000000	85.912595
960.000000	86.149999
959.000000	86.394551
958.000000	86.650612
957.000000	86.900613
956.000000	87.124436
955.000000	87.320587
954.000000	87.503363
953.000000	87.688209
952.000000	87.883133
951.000000	88.083760
950.000000	88.272202
949.000000	88.430706
948.000000	88.560719
947.000000	88.680733
946.000000	88.803412
945.000000	88.924039
944.000000	89.032816
943.000000	89.127388
942.000000	89.211260
941.000000	89.291010
940.000000	89.378042
939.000000	89.481952
938.000000	89.597813
937.000000	89.709446
936.000000	89.808289
935.000000	89.900570
934.000000	89.995279
933.000000	90.095052
932.000000	90.199335
931.000000	90.305178
930.000000	90.404176
929.000000	90.490272
928.000000	90.570650
927.000000	90.655993
926.000000	90.739756
925.000000	90.802395
924.000000	90.838921
923.000000	90.866977
922.000000	90.902749
921.000000	90.943126
920.000000	90.977040
919.000000	91.000172
918.000000	91.011999
917.000000	91.012571
916.000000	91.011562
915.000000	91.029090
914.000000	91.078062
913.000000	91.154590
912.000000	91.253033
911.000000	91.380936
910.000000	91.550060
909.000000	91.759047
908.000000	91.991135
907.000000	92.224136
906.000000	92.442077
905.000000	92.646362
904.000000	92.857557
903.000000	93.096603
902.000000	93.360657
901.000000	93.624848
900.000000	93.869110
899.000000	94.093668
898.000000	94.307389
897.000000	94.514496
896.000000	94.718007
895.000000	94.923616
894.000000	95.130727
893.000000	95.327509
892.000000	95.503800
891.000000	95.664628
890.000000	95.824574
889.000000	95.992196
888.000000	96.165347
887.000000	96.338755
886.000000	96.510679
885.000000	96.682520
884.000000	96.854096
883.000000	97.019183
882.000000	97.167747
881.000000	97.296161
880.000000	97.413292
879.000000	97.530960
878.000000	97.649094
877.000000	97.757330
876.000000	97.851970
875.000000	97.943778
874.000000	98.046758
873.000000	98.165030
872.000000	98.292549
871.000000	98.420617
870.000000	98.544816
869.000000	98.669474
868.000000	98.805218
867.000000	98.956351
866.000000	99.110257
865.000000	99.245370
864.000000	99.351382
863.000000	99.438705
862.000000	99.528634
861.000000	99.636753
860.000000	99.763373
859.000000	99.893799
858.000000	100.008456
857.000000	100.099557
856.000000	100.179051
855.000000	100.265816
854.000000	100.365000
853.000000	100.464351
852.000000	100.549493
851.000000	100.616923
850.000000	100.672820
849.000000	100.725173
848.000000	100.776920
847.000000	100.821642
846.000000	100.847784
845.000000	100.853756
844.000000	100.856868
843.000000	100.877979
842.000000	100.915866
841.000000	100.945695
840.000000	100.946283
839.000000	100.922636
838.000000	100.898847
837.000000	100.893195
836.000000	100.902007
835.000000	100.903971
834.000000	100.880445
833.000000	100.836612
832.000000	100.801856
831.000000	100.803068
830.000000	100.837783
829.000000	100.880146
828.000000	100.910344
827.000000	100.926863
826.000000	100.932343
825.000000	100.925528
824.000000	100.912440
823.000000	100.907092
822.000000	100.909971
821.000000	100.900456
820.000000	100.861986
819.000000	100.803976
818.000000	100.749447
817.000000	100.706997
816.000000	100.661108
815.000000	100.585682
814.000000	100.462299
813.000000	100.288246
812.000000	100.070786
811.000000	99.812935
810.000000	99.505519
809.000000	99.137645
808.000000	98.713634
807.000000	98.251716
806.000000	97.765871
805.000000	97.260020
804.000000	96.743795
803.000000	96.242011
802.000000	95.781655
801.000000	95.379718
800.000000	95.049046
799.000000	94.802397
798.000000	94.641518
797.000000	94.552382
796.000000	94.518144
795.000000	94.527483
794.000000	94.566716
793.000000	94.616827
792.000000	94.664777
791.000000	94.707557
790.000000	94.740856
789.000000	94.754718
788.000000	94.744223
787.000000	94.712115
786.000000	94.655524
785.000000	94.562275
784.000000	94.427794
783.000000	94.266064
782.000000	94.097637
781.000000	93.936854
780.000000	93.797011
779.000000	93.696410
778.000000	93.649891
777.000000	93.661298
776.000000	93.728373
775.000000	93.844524
774.000000	93.991670
773.000000	94.145057
772.000000	94.294187
771.000000	94.449920
770.000000	94.623424
769.000000	94.805700
768.000000	94.974159
767.000000	95.112805
766.000000	95.221063
765.000000	95.309687
764.000000	95.393738
763.000000	95.484446
762.000000	95.583126
761.000000	95.686218
760.000000	95.795813
759.000000	95.917443
758.000000	96.047397
757.000000	96.172632
756.000000	96.285782
755.000000	96.390974
754.000000	96.493132
753.000000	96.592367
752.000000	96.691540
751.000000	96.796400
750.000000	96.901937
