4000.000000	99.814760
3999.000000	99.811673
3998.000000	99.808761
3997.000000	99.805738
3996.000000	99.802865
3995.000000	99.800861
3994.000000	99.800153
3993.000000	99.800420
3992.000000	99.800960
3991.000000	99.801487
3990.000000	99.802205
3989.000000	99.803187
3988.000000	99.803948
3987.000000	99.803649
3986.000000	99.801789
3985.000000	99.798796
3984.000000	99.795926
3983.000000	99.794363
3982.000000	99.794393
3981.000000	99.795337
3980.000000	99.796097
3979.000000	99.795927
3978.000000	99.794646
3977.000000	99.792357
3976.000000	99.789257
3975.000000	99.785685
3974.000000	99.782237
3973.000000	99.779733
3972.000000	99.778903
3971.000000	99.779928
3970.000000	99.782116
3969.000000	99.784084
3968.000000	99.784552
3967.000000	99.783171
3966.000000	99.780739
3965.000000	99.778605
3964.000000	99.777728
3963.000000	99.778211
3962.000000	99.779395
3961.000000	99.780288
3960.000000	99.780126
3959.000000	99.778790
3958.000000	99.776804
3957.000000	99.774814
3956.000000	99.772991
3955.000000	99.771007
3954.000000	99.768608
3953.000000	99.766200
3952.000000	99.764935
3951.000000	99.766195
3950.000000	99.770702
3949.000000	99.777607
3948.000000	99.784352
3947.000000	99.788242
3946.000000	99.788402
3945.000000	99.786240
3944.000000	99.784165
3943.000000	99.783501
3942.000000	99.783232
3941.000000	99.781158
3940.000000	99.776677
3939.000000	99.772014
3938.000000	99.770379
3937.000000	99.772992
3936.000000	99.777817
3935.000000	99.780897
3934.000000	99.779184
3933.000000	99.772482
3932.000000	99.763380
3931.000000	99.755219
3930.000000	99.749771
3929.000000	99.746729
3928.000000	99.744997
3927.000000	99.744240
3926.000000	99.745277
3925.000000	99.749065
3924.000000	99.755327
3923.000000	99.762675
3922.000000	99.770098
3921.000000	99.777248
3920.000000	99.783349
3919.000000	99.787014
3918.000000	99.787640
3917.000000	99.786328
3916.000000	99.784603
3915.000000	99.782598
3914.000000	99.779357
3913.000000	99.774772
3912.000000	99.770495
3911.000000	99.768531
3910.000000	99.769354
3909.000000	99.771731
3908.000000	99.774223
3907.000000	99.776518
3906.000000	99.779126
3905.000000	99.782297
3904.000000	99.785263
3903.000000	99.786299
3902.000000	99.784116
3901.000000	99.779426
3900.000000	99.774604
3899.000000	99.771971
3898.000000	99.772094
3897.000000	99.773735
3896.000000	99.775187
3895.000000	99.775293
3894.000000	99.773770
3893.000000	99.771162
3892.000000	99.768423
3891.000000	99.766154
3890.000000	99.764446
3889.000000	99.763679
3888.000000	99.764189
3887.000000	99.765275
3886.000000	99.765755
3885.000000	99.765271
3884.000000	99.764334
3883.000000	99.763552
3882.000000	99.763110
3881.000000	99.762919
3880.000000	99.762831
3879.000000	99.762715
3878.000000	99.762658
3877.000000	99.762826
3876.000000	99.763072
3875.000000	99.763126
3874.000000	99.762985
3873.000000	99.762817
3872.000000	99.762664
3871.000000	99.762432
3870.000000	99.762119
3869.000000	99.761836
3868.000000	99.761638
3867.000000	99.761453
3866.000000	99.761124
3865.000000	99.760630
3864.000000	99.760300
3863.000000	99.760513
3862.000000	99.761286
3861.000000	99.762262
3860.000000	99.762976
3859.000000	99.763195
3858.000000	99.763009
3857.000000	99.762776
3856.000000	99.762849
3855.000000	99.763088
3854.000000	99.762997
3853.000000	99.762554
3852.000000	99.762209
3851.000000	99.762303
3850.000000	99.762895
3849.000000	99.763721
3848.000000	99.764477
3847.000000	99.765096
3846.000000	99.765743
3845.000000	99.766593
3844.000000	99.767590
3843.000000	99.768387
3842.000000	99.768652
3841.000000	99.768362
3840.000000	99.767767
3839.000000	99.767267
3838.000000	99.767127
3837.000000	99.767353
3836.000000	99.767774
3835.000000	99.768164
3834.000000	99.768420
3833.000000	99.768561
3832.000000	99.768625
3831.000000	99.768592
3830.000000	99.768409
3829.000000	99.768079
3828.000000	99.767676
3827.000000	99.767286
3826.000000	99.766948
3825.000000	99.766639
3824.000000	99.766306
3823.000000	99.765887
3822.000000	99.765371
3821.000000	99.764797
3820.000000	99.764191
3819.000000	99.763548
3818.000000	99.762862
3817.000000	99.762147
3816.000000	99.761421
3815.000000	99.760700
3814.000000	99.759996
3813.000000	99.759307
3812.000000	99.758620
3811.000000	99.757920
3810.000000	99.757188
3809.000000	99.756410
3808.000000	99.755584
3807.000000	99.754717
3806.000000	99.753825
3805.000000	99.752914
3804.000000	99.751990
3803.000000	99.751054
3802.000000	99.750112
3801.000000	99.749178
3800.000000	99.748272
3799.000000	99.747392
3798.000000	99.746482
3797.000000	99.745438
3796.000000	99.744178
3795.000000	99.742764
3794.000000	99.741396
3793.000000	99.740290
3792.000000	99.739523
3791.000000	99.738870
3790.000000	99.737920
3789.000000	99.736389
3788.000000	99.734262
3787.000000	99.731648
3786.000000	99.728742
3785.000000	99.726143
3784.000000	99.724923
3783.000000	99.725956
3782.000000	99.728900
3781.000000	99.731800
3780.000000	99.732317
3779.000000	99.729822
3778.000000	99.725912
3777.000000	99.722843
3776.000000	99.722183
3775.000000	99.724019
3774.000000	99.727047
3773.000000	99.729454
3772.000000	99.729894
3771.000000	99.728675
3770.000000	99.728181
3769.000000	99.729647
3768.000000	99.729946
3767.000000	99.724937
3766.000000	99.714605
3765.000000	99.703860
3764.000000	99.698268
3763.000000	99.699522
3762.000000	99.704169
3761.000000	99.705789
3760.000000	99.700860
3759.000000	99.692279
3758.000000	99.684981
3757.000000	99.680273
3756.000000	99.676220
3755.000000	99.671043
3754.000000	99.665351
3753.000000	99.661474
3752.000000	99.660924
3751.000000	99.662053
3750.000000	99.658683
3749.000000	99.646447
3748.000000	99.630424
3747.000000	99.619490
3746.000000	99.615649
3745.000000	99.612122
3744.000000	99.602834
3743.000000	99.590905
3742.000000	99.584085
3741.000000	99.584303
3740.000000	99.586625
3739.000000	99.586550
3738.000000	99.582270
3737.000000	99.573633
3736.000000	99.563063
3735.000000	99.554398
3734.000000	99.546619
3733.000000	99.534138
3732.000000	99.514727
3731.000000	99.491683
3730.000000	99.469893
3729.000000	99.451820
3728.000000	99.435338
3727.000000	99.415588
3726.000000	99.389637
3725.000000	99.358785
3724.000000	99.326493
3723.000000	99.295350
3722.000000	99.265520
3721.000000	99.234010
3720.000000	99.196961
3719.000000	99.153226
3718.000000	99.105092
3717.000000	99.056149
3716.000000	99.007722
3715.000000	98.956636
3714.000000	98.895731
3713.000000	98.818438
3712.000000	98.727686
3711.000000	98.635525
3710.000000	98.548921
3709.000000	98.464100
3708.000000	98.374887
3707.000000	98.279079
3706.000000	98.177266
3705.000000	98.069827
3704.000000	97.956444
3703.000000	97.838904
3702.000000	97.723539
3701.000000	97.617579
3700.000000	97.524599
3699.000000	97.447507
3698.000000	97.391358
3697.000000	97.360100
3696.000000	97.352355
3695.000000	97.361700
3694.000000	97.381371
3693.000000	97.408339
3692.000000	97.444834
3691.000000	97.496866
3690.000000	97.568591
3689.000000	97.652232
3688.000000	97.727784
3687.000000	97.781163
3686.000000	97.814596
3685.000000	97.836797
3684.000000	97.853453
3683.000000	97.865337
3682.000000	97.869768
3681.000000	97.863834
3680.000000	97.847050
3679.000000	97.822289
3678.000000	97.793854
3677.000000	97.764534
3676.000000	97.738554
3675.000000	97.720125
3674.000000	97.702558
3673.000000	97.677166
3672.000000	97.644514
3671.000000	97.607860
3670.000000	97.571860
3669.000000	97.540206
3668.000000	97.510157
3667.000000	97.479238
3666.000000	97.449522
3665.000000	97.422469
3664.000000	97.395585
3663.000000	97.363862
3662.000000	97.323868
3661.000000	97.276751
3660.000000	97.226793
3659.000000	97.177483
3658.000000	97.129546
3657.000000	97.083580
3656.000000	97.042645
3655.000000	97.009155
3654.000000	96.982318
3653.000000	96.959210
3652.000000	96.936274
3651.000000	96.911426
3650.000000	96.887432
3649.000000	96.867989
3648.000000	96.849780
3647.000000	96.828028
3646.000000	96.803980
3645.000000	96.780804
3644.000000	96.758105
3643.000000	96.732616
3642.000000	96.702753
3641.000000	96.671905
3640.000000	96.645377
3639.000000	96.624513
3638.000000	96.605053
3637.000000	96.581276
3636.000000	96.550924
3635.000000	96.516025
3634.000000	96.480142
3633.000000	96.445764
3632.000000	96.413570
3631.000000	96.381720
3630.000000	96.345248
3629.000000	96.301003
3628.000000	96.247743
3627.000000	96.182002
3626.000000	96.105138
3625.000000	96.023767
3624.000000	95.945157
3623.000000	95.877568
3622.000000	95.831019
3621.000000	95.815225
3620.000000	95.835447
3619.000000	95.887528
3618.000000	95.957283
3617.000000	96.030368
3616.000000	96.101216
3615.000000	96.168774
3614.000000	96.229983
3613.000000	96.280381
3612.000000	96.318795
3611.000000	96.349724
3610.000000	96.379661
3609.000000	96.410806
3608.000000	96.439965
3607.000000	96.462893
3606.000000	96.478572
3605.000000	96.490166
3604.000000	96.501694
3603.000000	96.514484
3602.000000	96.526819
3601.000000	96.535850
3600.000000	96.540771
3599.000000	96.544528
3598.000000	96.552393
3597.000000	96.567881
3596.000000	96.589351
3595.000000	96.611058
3594.000000	96.628617
3593.000000	96.642385
3592.000000	96.656024
3591.000000	96.672709
3590.000000	96.692364
3589.000000	96.712665
3588.000000	96.732827
3587.000000	96.752974
3586.000000	96.769287
3585.000000	96.777724
3584.000000	96.779994
3583.000000	96.781301
3582.000000	96.785274
3581.000000	96.792494
3580.000000	96.801861
3579.000000	96.812138
3578.000000	96.822365
3577.000000	96.831318
3576.000000	96.837246
3575.000000	96.838173
3574.000000	96.833459
3573.000000	96.825480
3572.000000	96.819264
3571.000000	96.819347
3570.000000	96.826026
3569.000000	96.834294
3568.000000	96.838236
3567.000000	96.837047
3566.000000	96.834090
3565.000000	96.832738
3564.000000	96.835999
3563.000000	96.845226
3562.000000	96.857872
3561.000000	96.868578
3560.000000	96.873450
3559.000000	96.873488
3558.000000	96.873409
3557.000000	96.877052
3556.000000	96.883960
3555.000000	96.890380
3554.000000	96.893324
3553.000000	96.893593
3552.000000	96.894195
3551.000000	96.896192
3550.000000	96.897377
3549.000000	96.895004
3548.000000	96.888955
3547.000000	96.882402
3546.000000	96.879162
3545.000000	96.880057
3544.000000	96.882436
3543.000000	96.883063
3542.000000	96.880823
3541.000000	96.876992
3540.000000	96.873873
3539.000000	96.873180
3538.000000	96.874975
3537.000000	96.877748
3536.000000	96.879550
3535.000000	96.879438
3534.000000	96.877944
3533.000000	96.876282
3532.000000	96.875277
3531.000000	96.874905
3530.000000	96.874670
3529.000000	96.874216
3528.000000	96.873609
3527.000000	96.873098
3526.000000	96.872713
3525.000000	96.872074
3524.000000	96.870626
3523.000000	96.868158
3522.000000	96.865053
3521.000000	96.862087
3520.000000	96.859869
3519.000000	96.858441
3518.000000	96.857401
3517.000000	96.856216
3516.000000	96.854539
3515.000000	96.852336
3514.000000	96.849788
3513.000000	96.847152
3512.000000	96.844620
3511.000000	96.842265
3510.000000	96.840059
3509.000000	96.837911
3508.000000	96.835693
3507.000000	96.833312
3506.000000	96.830756
3505.000000	96.828106
3504.000000	96.825478
3503.000000	96.822922
3502.000000	96.820384
3501.000000	96.817783
3500.000000	96.815093
3499.000000	96.812302
3498.000000	96.809345
3497.000000	96.806148
3496.000000	96.802733
3495.000000	96.799250
3494.000000	96.795854
3493.000000	96.792569
3492.000000	96.789271
3491.000000	96.785789
3490.000000	96.782076
3489.000000	96.778244
3488.000000	96.774499
3487.000000	96.770940
3486.000000	96.767528
3485.000000	96.764100
3484.000000	96.760514
3483.000000	96.756776
3482.000000	96.753004
3481.000000	96.749256
3480.000000	96.745442
3479.000000	96.741467
3478.000000	96.737387
3477.000000	96.733317
3476.000000	96.729206
3475.000000	96.724922
3474.000000	96.720634
3473.000000	96.716810
3472.000000	96.713671
3471.000000	96.710863
3470.000000	96.707842
3469.000000	96.704426
3468.000000	96.700860
3467.000000	96.697359
3466.000000	96.693776
3465.000000	96.689807
3464.000000	96.685383
3463.000000	96.680786
3462.000000	96.676389
3461.000000	96.672340
3460.000000	96.668485
3459.000000	96.664567
3458.000000	96.660468
3457.000000	96.656252
3456.000000	96.651985
3455.000000	96.647587
3454.000000	96.642906
3453.000000	96.637913
3452.000000	96.632810
3451.000000	96.627970
3450.000000	96.623853
3449.000000	96.620882
3448.000000	96.619204
3447.000000	96.618292
3446.000000	96.617031
3445.000000	96.614448
3444.000000	96.610343
3443.000000	96.605243
3442.000000	96.599675
3441.000000	96.593795
3440.000000	96.587613
3439.000000	96.581363
3438.000000	96.575589
3437.000000	96.570851
3436.000000	96.567415
3435.000000	96.565254
3434.000000	96.564220
3433.000000	96.563972
3432.000000	96.563626
3431.000000	96.561795
3430.000000	96.557485
3429.000000	96.551101
3428.000000	96.544605
3427.000000	96.539989
3426.000000	96.537527
3425.000000	96.535750
3424.000000	96.532973
3423.000000	96.528848
3422.000000	96.524294
3421.000000	96.520214
3420.000000	96.516658
3419.000000	96.513283
3418.000000	96.510267
3417.000000	96.508353
3416.000000	96.507982
3415.000000	96.508560
3414.000000	96.508650
3413.000000	96.506991
3412.000000	96.503476
3411.000000	96.499247
3410.000000	96.495852
3409.000000	96.494159
3408.000000	96.493899
3407.000000	96.493963
3406.000000	96.493074
3405.000000	96.490464
3404.000000	96.486389
3403.000000	96.482146
3402.000000	96.479266
3401.000000	96.478345
3400.000000	96.478768
3399.000000	96.479530
3398.000000	96.480044
3397.000000	96.479930
3396.000000	96.478639
3395.000000	96.476045
3394.000000	96.473274
3393.000000	96.472091
3392.000000	96.473191
3391.000000	96.475626
3390.000000	96.478091
3389.000000	96.480289
3388.000000	96.482391
3387.000000	96.483798
3386.000000	96.483403
3385.000000	96.480980
3384.000000	96.477813
3383.000000	96.475925
3382.000000	96.476921
3381.000000	96.481270
3380.000000	96.488027
3379.000000	96.495013
3378.000000	96.500103
3377.000000	96.502765
3376.000000	96.504041
3375.000000	96.505237
3374.000000	96.506773
3373.000000	96.508287
3372.000000	96.509428
3371.000000	96.510186
3370.000000	96.510636
3369.000000	96.510835
3368.000000	96.511053
3367.000000	96.511836
3366.000000	96.513597
3365.000000	96.516182
3364.000000	96.518983
3363.000000	96.521503
3362.000000	96.523724
3361.000000	96.525878
3360.000000	96.527989
3359.000000	96.529798
3358.000000	96.531127
3357.000000	96.532157
3356.000000	96.533268
3355.000000	96.534710
3354.000000	96.536510
3353.000000	96.538643
3352.000000	96.541097
3351.000000	96.543751
3350.000000	96.546330
3349.000000	96.548576
3348.000000	96.550463
3347.000000	96.552192
3346.000000	96.554072
3345.000000	96.556266
3344.000000	96.558678
3343.000000	96.561036
3342.000000	96.563162
3341.000000	96.565170
3340.000000	96.567350
3339.000000	96.569862
3338.000000	96.572505
3337.000000	96.574807
3336.000000	96.576453
3335.000000	96.577641
3334.000000	96.579021
3333.000000	96.581022
3332.000000	96.583500
3331.000000	96.586047
3330.000000	96.588582
3329.000000	96.591382
3328.000000	96.594621
3327.000000	96.598123
3326.000000	96.601492
3325.000000	96.604424
3324.000000	96.606931
3323.000000	96.609356
3322.000000	96.612138
3321.000000	96.615397
3320.000000	96.618747
3319.000000	96.621609
3318.000000	96.623752
3317.000000	96.625439
3316.000000	96.627132
3315.000000	96.629158
3314.000000	96.631691
3313.000000	96.634819
3312.000000	96.638427
3311.000000	96.642095
3310.000000	96.645372
3309.000000	96.648179
3308.000000	96.650849
3307.000000	96.653730
3306.000000	96.656830
3305.000000	96.659839
3304.000000	96.662329
3303.000000	96.663932
3302.000000	96.664689
3301.000000	96.665293
3300.000000	96.666691
3299.000000	96.669284
3298.000000	96.672604
3297.000000	96.675787
3296.000000	96.678374
3295.000000	96.680509
3294.000000	96.682492
3293.000000	96.684458
3292.000000	96.686499
3291.000000	96.688833
3290.000000	96.691610
3289.000000	96.694662
3288.000000	96.697608
3287.000000	96.700179
3286.000000	96.702458
3285.000000	96.704793
3284.000000	96.707466
3283.000000	96.710445
3282.000000	96.713449
3281.000000	96.716192
3280.000000	96.718615
3279.000000	96.720841
3278.000000	96.723064
3277.000000	96.725395
3276.000000	96.727829
3275.000000	96.730313
3274.000000	96.732820
3273.000000	96.735402
3272.000000	96.738131
3271.000000	96.740971
3270.000000	96.743725
3269.000000	96.746228
3268.000000	96.748590
3267.000000	96.751147
3266.000000	96.754080
3265.000000	96.757207
3264.000000	96.760228
3263.000000	96.763154
3262.000000	96.766240
3261.000000	96.769522
3260.000000	96.772697
3259.000000	96.775554
3258.000000	96.778278
3257.000000	96.781093
3256.000000	96.783800
3255.000000	96.786092
3254.000000	96.788217
3253.000000	96.790928
3252.000000	96.794613
3251.000000	96.798802
3250.000000	96.802632
3249.000000	96.805644
3248.000000	96.808066
3247.000000	96.810589
3246.000000	96.813794
3245.000000	96.817472
3244.000000	96.820553
3243.000000	96.822138
3242.000000	96.822718
3241.000000	96.823957
3240.000000	96.826926
3239.000000	96.831047
3238.000000	96.835067
3237.000000	96.838701
3236.000000	96.842735
3235.000000	96.847714
3234.000000	96.853235
3233.000000	96.858619
3232.000000	96.863744
3231.000000	96.868839
3230.000000	96.873721
3229.000000	96.877679
3228.000000	96.880239
3227.000000	96.882001
3226.000000	96.884590
3225.000000	96.889467
3224.000000	96.896674
3223.000000	96.904452
3222.000000	96.910455
3221.000000	96.913792
3220.000000	96.915737
3219.000000	96.918448
3218.000000	96.922771
3217.000000	96.927710
3216.000000	96.932022
3215.000000	96.935961
3214.000000	96.941022
3213.000000	96.948219
3212.000000	96.957150
3211.000000	96.966468
3210.000000	96.974907
3209.000000	96.981859
3208.000000	96.987411
3207.000000	96.992165
3206.000000	96.996934
3205.000000	97.002359
3204.000000	97.008678
3203.000000	97.015695
3202.000000	97.022912
3201.000000	97.029902
3200.000000	97.036703
3199.000000	97.043707
3198.000000	97.051009
3197.000000	97.058097
3196.000000	97.064477
3195.000000	97.070405
3194.000000	97.076648
3193.000000	97.083556
3192.000000	97.090749
3191.000000	97.097727
3190.000000	97.104442
3189.000000	97.111058
3188.000000	97.117530
3187.000000	97.123778
3186.000000	97.130156
3185.000000	97.137342
3184.000000	97.145650
3183.000000	97.154702
3182.000000	97.163689
3181.000000	97.171970
3180.000000	97.179507
3179.000000	97.186775
3178.000000	97.194345
3177.000000	97.202380
3176.000000	97.210605
3175.000000	97.218693
3174.000000	97.226562
3173.000000	97.234312
3172.000000	97.242037
3171.000000	97.249797
3170.000000	97.257716
3169.000000	97.265964
3168.000000	97.274537
3167.000000	97.283143
3166.000000	97.291403
3165.000000	97.299215
3164.000000	97.306846
3163.000000	97.314689
3162.000000	97.322919
3161.000000	97.331439
3160.000000	97.340062
3159.000000	97.348688
3158.000000	97.357234
3157.000000	97.365533
3156.000000	97.373423
3155.000000	97.380976
3154.000000	97.388577
3153.000000	97.396654
3152.000000	97.405358
3151.000000	97.414462
3150.000000	97.423527
3149.000000	97.432221
3148.000000	97.440505
3147.000000	97.448624
3146.000000	97.456908
3145.000000	97.465551
3144.000000	97.474559
3143.000000	97.483863
3142.000000	97.493375
3141.000000	97.502857
3140.000000	97.511870
3139.000000	97.520060
3138.000000	97.527537
3137.000000	97.534889
3136.000000	97.542655
3135.000000	97.550872
3134.000000	97.559249
3133.000000	97.567624
3132.000000	97.576074
3131.000000	97.584526
3130.000000	97.592528
3129.000000	97.599713
3128.000000	97.606469
3127.000000	97.613818
3126.000000	97.622375
3125.000000	97.631714
3124.000000	97.640892
3123.000000	97.649624
3122.000000	97.658487
3121.000000	97.667870
3120.000000	97.677174
3119.000000	97.685420
3118.000000	97.692394
3117.000000	97.698863
3116.000000	97.705796
3115.000000	97.713450
3114.000000	97.721309
3113.000000	97.728691
3112.000000	97.735445
3111.000000	97.742176
3110.000000	97.749775
3109.000000	97.758652
3108.000000	97.768405
3107.000000	97.778147
3106.000000	97.787210
3105.000000	97.795478
3104.000000	97.803200
3103.000000	97.810710
3102.000000	97.818259
3101.000000	97.825934
3100.000000	97.833655
3099.000000	97.841302
3098.000000	97.848877
3097.000000	97.856549
3096.000000	97.864546
3095.000000	97.873025
3094.000000	97.881976
3093.000000	97.891139
3092.000000	97.900060
3091.000000	97.908335
3090.000000	97.915849
3089.000000	97.922748
3088.000000	97.929254
3087.000000	97.935593
3086.000000	97.942062
3085.000000	97.948928
3084.000000	97.956189
3083.000000	97.963580
3082.000000	97.970926
3081.000000	97.978428
3080.000000	97.986500
3079.000000	97.995315
3078.000000	98.004466
3077.000000	98.013053
3076.000000	98.020232
3075.000000	98.025898
3074.000000	98.030944
3073.000000	98.036718
3072.000000	98.043998
3071.000000	98.052319
3070.000000	98.060310
3069.000000	98.066865
3068.000000	98.072114
3067.000000	98.077357
3066.000000	98.083935
3065.000000	98.092043
3064.000000	98.100690
3063.000000	98.108669
3062.000000	98.115473
3061.000000	98.121164
3060.000000	98.125874
3059.000000	98.129853
3058.000000	98.133727
3057.000000	98.138225
3056.000000	98.143598
3055.000000	98.149532
3054.000000	98.155629
3053.000000	98.161763
3052.000000	98.167969
3051.000000	98.174284
3050.000000	98.180779
3049.000000	98.187470
3048.000000	98.194062
3047.000000	98.200009
3046.000000	98.205074
3045.000000	98.209739
3044.000000	98.214850
3043.000000	98.220873
3042.000000	98.227664
3041.000000	98.234820
3040.000000	98.241999
3039.000000	98.248884
3038.000000	98.255120
3037.000000	98.260576
3036.000000	98.265618
3035.000000	98.270870
3034.000000	98.276540
3033.000000	98.282125
3032.000000	98.287000
3031.000000	98.291184
3030.000000	98.295376
3029.000000	98.300163
3028.000000	98.305426
3027.000000	98.310741
3026.000000	98.316239
3025.000000	98.322760
3024.000000	98.330931
3023.000000	98.340127
3022.000000	98.348535
3021.000000	98.354511
3020.000000	98.357759
3019.000000	98.359529
3018.000000	98.361823
3017.000000	98.366181
3016.000000	98.372958
3015.000000	98.381308
3014.000000	98.389748
3013.000000	98.396972
3012.000000	98.402328
3011.000000	98.405887
3010.000000	98.408285
3009.000000	98.410609
3008.000000	98.414176
3007.000000	98.419918
3006.000000	98.427791
3005.000000	98.436620
3004.000000	98.444654
3003.000000	98.450695
3002.000000	98.454909
3001.000000	98.458488
3000.000000	98.462289
2999.000000	98.465995
2998.000000	98.469028
2997.000000	98.472191
2996.000000	98.477535
2995.000000	98.486183
2994.000000	98.496829
2993.000000	98.506958
2992.000000	98.515356
2991.000000	98.522770
2990.000000	98.530351
2989.000000	98.538359
2988.000000	98.546563
2987.000000	98.555007
2986.000000	98.563776
2985.000000	98.572432
2984.000000	98.580378
2983.000000	98.587702
2982.000000	98.595229
2981.000000	98.603692
2980.000000	98.613205
2979.000000	98.623631
2978.000000	98.635107
2977.000000	98.647831
2976.000000	98.661316
2975.000000	98.673938
2974.000000	98.683498
2973.000000	98.688551
2972.000000	98.689678
2971.000000	98.689900
2970.000000	98.693412
2969.000000	98.702767
2968.000000	98.716753
2967.000000	98.730682
2966.000000	98.740021
2965.000000	98.744141
2964.000000	98.746473
2963.000000	98.750773
2962.000000	98.757628
2961.000000	98.765389
2960.000000	98.773335
2959.000000	98.782332
2958.000000	98.792440
2957.000000	98.801795
2956.000000	98.808752
2955.000000	98.813744
2954.000000	98.818080
2953.000000	98.822215
2952.000000	98.826517
2951.000000	98.832486
2950.000000	98.841269
2949.000000	98.851052
2948.000000	98.857639
2947.000000	98.858440
2946.000000	98.855505
2945.000000	98.854154
2944.000000	98.858655
2943.000000	98.869084
2942.000000	98.882063
2941.000000	98.894432
2940.000000	98.905857
2939.000000	98.917600
2938.000000	98.929567
2937.000000	98.940188
2936.000000	98.949158
2935.000000	98.958585
2934.000000	98.970701
2933.000000	98.985863
2932.000000	99.003356
2931.000000	99.022572
2930.000000	99.042416
2929.000000	99.061179
2928.000000	99.078263
2927.000000	99.094357
2926.000000	99.108684
2925.000000	99.118342
2924.000000	99.122739
2923.000000	99.126855
2922.000000	99.136963
2921.000000	99.153574
2920.000000	99.171552
2919.000000	99.186053
2918.000000	99.194805
2917.000000	99.195202
2916.000000	99.184094
2915.000000	99.162390
2914.000000	99.137104
2913.000000	99.116110
2912.000000	99.101583
2911.000000	99.090034
2910.000000	99.077325
2909.000000	99.062413
2908.000000	99.047781
2907.000000	99.037751
2906.000000	99.035392
2905.000000	99.039297
2904.000000	99.043904
2903.000000	99.044421
2902.000000	99.041491
2901.000000	99.039812
2900.000000	99.043042
2899.000000	99.050095
2898.000000	99.056429
2897.000000	99.057890
2896.000000	99.053976
2895.000000	99.048266
2894.000000	99.045389
2893.000000	99.046815
2892.000000	99.050154
2891.000000	99.052930
2890.000000	99.055877
2889.000000	99.061128
2888.000000	99.068050
2887.000000	99.072883
2886.000000	99.072722
2885.000000	99.068624
2884.000000	99.064474
2883.000000	99.063927
2882.000000	99.068614
2881.000000	99.077753
2880.000000	99.088335
2879.000000	99.096479
2878.000000	99.100089
2877.000000	99.100817
2876.000000	99.102867
2875.000000	99.109197
2874.000000	99.118475
2873.000000	99.125978
2872.000000	99.128179
2871.000000	99.126655
2870.000000	99.126644
2869.000000	99.131480
2868.000000	99.139374
2867.000000	99.146361
2866.000000	99.151399
2865.000000	99.157034
2864.000000	99.165541
2863.000000	99.176263
2862.000000	99.187042
2861.000000	99.196555
2860.000000	99.204487
2859.000000	99.210815
2858.000000	99.216099
2857.000000	99.221754
2856.000000	99.229188
2855.000000	99.238944
2854.000000	99.250873
2853.000000	99.264158
2852.000000	99.276609
2851.000000	99.285168
2850.000000	99.288187
2849.000000	99.286730
2848.000000	99.282914
2847.000000	99.277440
2846.000000	99.269481
2845.000000	99.258365
2844.000000	99.244430
2843.000000	99.229021
2842.000000	99.214799
2841.000000	99.205318
2840.000000	99.202611
2839.000000	99.204936
2838.000000	99.208094
2837.000000	99.209308
2836.000000	99.208804
2835.000000	99.207595
2834.000000	99.205442
2833.000000	99.201897
2832.000000	99.198009
2831.000000	99.195510
2830.000000	99.194745
2829.000000	99.194436
2828.000000	99.193060
2827.000000	99.189693
2826.000000	99.184237
2825.000000	99.178327
2824.000000	99.175691
2823.000000	99.179584
2822.000000	99.189083
2821.000000	99.198967
2820.000000	99.204425
2819.000000	99.205486
2818.000000	99.206101
2817.000000	99.209753
2816.000000	99.216974
2815.000000	99.226136
2814.000000	99.234834
2813.000000	99.240489
2812.000000	99.241661
2811.000000	99.240001
2810.000000	99.239924
2809.000000	99.244687
2808.000000	99.252893
2807.000000	99.259924
2806.000000	99.263151
2805.000000	99.264744
2804.000000	99.268744
2803.000000	99.276159
2802.000000	99.283886
2801.000000	99.288361
2800.000000	99.289227
2799.000000	99.289115
2798.000000	99.290655
2797.000000	99.294354
2796.000000	99.299032
2795.000000	99.303380
2794.000000	99.306912
2793.000000	99.310106
2792.000000	99.313962
2791.000000	99.319071
2790.000000	99.324839
2789.000000	99.329914
2788.000000	99.333573
2787.000000	99.336408
2786.000000	99.339322
2785.000000	99.342173
2784.000000	99.343984
2783.000000	99.344433
2782.000000	99.344494
2781.000000	99.345366
2780.000000	99.347135
2779.000000	99.348830
2778.000000	99.349671
2777.000000	99.349958
2776.000000	99.350749
2775.000000	99.352943
2774.000000	99.356807
2773.000000	99.361984
2772.000000	99.367549
2771.000000	99.372317
2770.000000	99.375678
2769.000000	99.378160
2768.000000	99.380843
2767.000000	99.384125
2766.000000	99.387308
2765.000000	99.389540
2764.000000	99.390872
2763.000000	99.392195
2762.000000	99.394304
2761.000000	99.397260
2760.000000	99.400549
2759.000000	99.403771
2758.000000	99.407223
2757.000000	99.411691
2756.000000	99.417405
2755.000000	99.423173
2754.000000	99.427142
2753.000000	99.428728
2752.000000	99.429298
2751.000000	99.430748
2750.000000	99.433509
2749.000000	99.436631
2748.000000	99.439334
2747.000000	99.441593
2746.000000	99.443360
2745.000000	99.444247
2744.000000	99.444376
2743.000000	99.444822
2742.000000	99.446659
2741.000000	99.449988
2740.000000	99.454252
2739.000000	99.459002
2738.000000	99.463954
2737.000000	99.468638
2736.000000	99.472684
2735.000000	99.476177
2734.000000	99.479110
2733.000000	99.480822
2732.000000	99.480840
2731.000000	99.480059
2730.000000	99.480384
2729.000000	99.482805
2728.000000	99.486591
2727.000000	99.490341
2726.000000	99.493421
2725.000000	99.496046
2724.000000	99.498408
2723.000000	99.500338
2722.000000	99.501626
2721.000000	99.502317
2720.000000	99.502700
2719.000000	99.503216
2718.000000	99.504295
2717.000000	99.506090
2716.000000	99.508356
2715.000000	99.510686
2714.000000	99.512824
2713.000000	99.514806
2712.000000	99.516876
2711.000000	99.519252
2710.000000	99.521848
2709.000000	99.524293
2708.000000	99.526308
2707.000000	99.527995
2706.000000	99.529639
2705.000000	99.531330
2704.000000	99.532970
2703.000000	99.534562
2702.000000	99.536223
2701.000000	99.537934
2700.000000	99.539532
2699.000000	99.540988
2698.000000	99.542482
2697.000000	99.544124
2696.000000	99.545737
2695.000000	99.547031
2694.000000	99.547919
2693.000000	99.548590
2692.000000	99.549382
2691.000000	99.550523
2690.000000	99.551959
2689.000000	99.553382
2688.000000	99.554506
2687.000000	99.555359
2686.000000	99.556204
2685.000000	99.557235
2684.000000	99.558393
2683.000000	99.559534
2682.000000	99.560594
2681.000000	99.561607
2680.000000	99.562632
2679.000000	99.563694
2678.000000	99.564785
2677.000000	99.565882
2676.000000	99.566957
2675.000000	99.568011
2674.000000	99.569066
2673.000000	99.570135
2672.000000	99.571213
2671.000000	99.572296
2670.000000	99.573378
2669.000000	99.574446
2668.000000	99.575496
2667.000000	99.576526
2666.000000	99.577536
2665.000000	99.578532
2664.000000	99.579519
2663.000000	99.580502
2662.000000	99.581491
2661.000000	99.582492
2660.000000	99.583507
2659.000000	99.584531
2658.000000	99.585558
2657.000000	99.586576
2656.000000	99.587579
2655.000000	99.588564
2654.000000	99.589534
2653.000000	99.590496
2652.000000	99.591452
2651.000000	99.592399
2650.000000	99.593330
2649.000000	99.594238
2648.000000	99.595120
2647.000000	99.595979
2646.000000	99.596822
2645.000000	99.597653
2644.000000	99.598466
2643.000000	99.599253
2642.000000	99.600009
2641.000000	99.600738
2640.000000	99.601441
2639.000000	99.602116
2638.000000	99.602758
2637.000000	99.603372
2636.000000	99.603974
2635.000000	99.604584
2634.000000	99.605206
2633.000000	99.605829
2632.000000	99.606434
2631.000000	99.607008
2630.000000	99.607549
2629.000000	99.608062
2628.000000	99.608553
2627.000000	99.609027
2626.000000	99.609491
2625.000000	99.609954
2624.000000	99.610425
2623.000000	99.610905
2622.000000	99.611385
2621.000000	99.611851
2620.000000	99.612289
2619.000000	99.612694
2618.000000	99.613062
2617.000000	99.613397
2616.000000	99.613713
2615.000000	99.614027
2614.000000	99.614334
2613.000000	99.614599
2612.000000	99.614797
2611.000000	99.614957
2610.000000	99.615161
2609.000000	99.615467
2608.000000	99.615811
2607.000000	99.616040
2606.000000	99.616094
2605.000000	99.616134
2604.000000	99.616432
2603.000000	99.617123
2602.000000	99.618080
2601.000000	99.619029
2600.000000	99.619777
2599.000000	99.620341
2598.000000	99.620899
2597.000000	99.621604
2596.000000	99.622428
2595.000000	99.623219
2594.000000	99.623914
2593.000000	99.624622
2592.000000	99.625505
2591.000000	99.626621
2590.000000	99.627828
2589.000000	99.628726
2588.000000	99.628934
2587.000000	99.628519
2586.000000	99.628058
2585.000000	99.628208
2584.000000	99.629081
2583.000000	99.630191
2582.000000	99.630970
2581.000000	99.631293
2580.000000	99.631426
2579.000000	99.631572
2578.000000	99.631682
2577.000000	99.631701
2576.000000	99.631828
2575.000000	99.632424
2574.000000	99.633655
2573.000000	99.635309
2572.000000	99.636901
2571.000000	99.638027
2570.000000	99.638625
2569.000000	99.638913
2568.000000	99.639151
2567.000000	99.639449
2566.000000	99.639821
2565.000000	99.640323
2564.000000	99.641054
2563.000000	99.642039
2562.000000	99.643187
2561.000000	99.644354
2560.000000	99.645406
2559.000000	99.646262
2558.000000	99.646915
2557.000000	99.647429
2556.000000	99.647894
2555.000000	99.648361
2554.000000	99.648847
2553.000000	99.649368
2552.000000	99.649958
2551.000000	99.650653
2550.000000	99.651452
2549.000000	99.652308
2548.000000	99.653142
2547.000000	99.653902
2546.000000	99.654588
2545.000000	99.655236
2544.000000	99.655910
2543.000000	99.656675
2542.000000	99.657561
2541.000000	99.658542
2540.000000	99.659556
2539.000000	99.660555
2538.000000	99.661531
2537.000000	99.662494
2536.000000	99.663467
2535.000000	99.664465
2534.000000	99.665490
2533.000000	99.666535
2532.000000	99.667587
2531.000000	99.668634
2530.000000	99.669673
2529.000000	99.670709
2528.000000	99.671749
2527.000000	99.672797
2526.000000	99.673857
2525.000000	99.674933
2524.000000	99.676029
2523.000000	99.677145
2522.000000	99.678252
2521.000000	99.679314
2520.000000	99.680312
2519.000000	99.681262
2518.000000	99.682216
2517.000000	99.683214
2516.000000	99.684274
2515.000000	99.685393
2514.000000	99.686563
2513.000000	99.687799
2512.000000	99.689137
2511.000000	99.690583
2510.000000	99.692055
2509.000000	99.693422
2508.000000	99.694596
2507.000000	99.695583
2506.000000	99.696452
2505.000000	99.697317
2504.000000	99.698338
2503.000000	99.699660
2502.000000	99.701302
2501.000000	99.703163
2500.000000	99.705091
2499.000000	99.706914
2498.000000	99.708468
2497.000000	99.709690
2496.000000	99.710721
2495.000000	99.711846
2494.000000	99.713231
2493.000000	99.714806
2492.000000	99.716377
2491.000000	99.717784
2490.000000	99.718988
2489.000000	99.720107
2488.000000	99.721335
2487.000000	99.722723
2486.000000	99.724072
2485.000000	99.725191
2484.000000	99.726279
2483.000000	99.727784
2482.000000	99.729849
2481.000000	99.732088
2480.000000	99.733999
2479.000000	99.735502
2478.000000	99.736933
2477.000000	99.738691
2476.000000	99.740949
2475.000000	99.743554
2474.000000	99.746024
2473.000000	99.747829
2472.000000	99.748816
2471.000000	99.749344
2470.000000	99.750028
2469.000000	99.751228
2468.000000	99.752908
2467.000000	99.754860
2466.000000	99.756919
2465.000000	99.758982
2464.000000	99.760912
2463.000000	99.762507
2462.000000	99.763610
2461.000000	99.764277
2460.000000	99.764858
2459.000000	99.765817
2458.000000	99.767382
2457.000000	99.769380
2456.000000	99.771371
2455.000000	99.772975
2454.000000	99.774063
2453.000000	99.774728
2452.000000	99.775241
2451.000000	99.775955
2450.000000	99.777019
2449.000000	99.778199
2448.000000	99.779091
2447.000000	99.779565
2446.000000	99.779932
2445.000000	99.780631
2444.000000	99.781831
2443.000000	99.783364
2442.000000	99.784888
2441.000000	99.786137
2440.000000	99.787118
2439.000000	99.788108
2438.000000	99.789361
2437.000000	99.790753
2436.000000	99.791852
2435.000000	99.792437
2434.000000	99.792747
2433.000000	99.793189
2432.000000	99.793887
2431.000000	99.794722
2430.000000	99.795643
2429.000000	99.796683
2428.000000	99.797748
2427.000000	99.798671
2426.000000	99.799505
2425.000000	99.800492
2424.000000	99.801687
2423.000000	99.802876
2422.000000	99.803941
2421.000000	99.805027
2420.000000	99.806199
2419.000000	99.807152
2418.000000	99.807493
2417.000000	99.807210
2416.000000	99.806786
2415.000000	99.806866
2414.000000	99.807773
2413.000000	99.809266
2412.000000	99.810633
2411.000000	99.811290
2410.000000	99.811322
2409.000000	99.811319
2408.000000	99.811621
2407.000000	99.811922
2406.000000	99.811770
2405.000000	99.811251
2404.000000	99.810899
2403.000000	99.811039
2402.000000	99.811571
2401.000000	99.812266
2400.000000	99.812897
2399.000000	99.813136
2398.000000	99.812738
2397.000000	99.812001
2396.000000	99.811644
2395.000000	99.812068
2394.000000	99.813061
2393.000000	99.814169
2392.000000	99.815168
2391.000000	99.816032
2390.000000	99.816593
2389.000000	99.816579
2388.000000	99.815891
2387.000000	99.814728
2386.000000	99.813478
2385.000000	99.812510
2384.000000	99.812000
2383.000000	99.811856
2382.000000	99.811801
2381.000000	99.811586
2380.000000	99.811162
2379.000000	99.810643
2378.000000	99.810151
2377.000000	99.809704
2376.000000	99.809231
2375.000000	99.808645
2374.000000	99.807921
2373.000000	99.807137
2372.000000	99.806428
2371.000000	99.805876
2370.000000	99.805453
2369.000000	99.805078
2368.000000	99.804657
2367.000000	99.804083
2366.000000	99.803263
2365.000000	99.802213
2364.000000	99.801071
2363.000000	99.799947
2362.000000	99.798851
2361.000000	99.797785
2360.000000	99.796793
2359.000000	99.795908
2358.000000	99.795091
2357.000000	99.794279
2356.000000	99.793413
2355.000000	99.792470
2354.000000	99.791451
2353.000000	99.790365
2352.000000	99.789238
2351.000000	99.788097
2350.000000	99.786960
2349.000000	99.785831
2348.000000	99.784702
2347.000000	99.783568
2346.000000	99.782437
2345.000000	99.781324
2344.000000	99.780240
2343.000000	99.779168
2342.000000	99.778087
2341.000000	99.777005
2340.000000	99.775957
2339.000000	99.774960
2338.000000	99.773981
2337.000000	99.772964
2336.000000	99.771868
2335.000000	99.770712
2334.000000	99.769579
2333.000000	99.768576
2332.000000	99.767691
2331.000000	99.766845
2330.000000	99.765932
2329.000000	99.765010
2328.000000	99.764056
2327.000000	99.763016
2326.000000	99.761851
2325.000000	99.760711
2324.000000	99.759810
2323.000000	99.759212
2322.000000	99.758968
2321.000000	99.759154
2320.000000	99.759605
2319.000000	99.759726
2318.000000	99.758869
2317.000000	99.757145
2316.000000	99.755041
2315.000000	99.752890
2314.000000	99.750300
2313.000000	99.747310
2312.000000	99.744601
2311.000000	99.743236
2310.000000	99.743366
2309.000000	99.744470
2308.000000	99.745467
2307.000000	99.745611
2306.000000	99.744721
2305.000000	99.743481
2304.000000	99.742752
2303.000000	99.742943
2302.000000	99.743435
2301.000000	99.743261
2300.000000	99.741786
2299.000000	99.739398
2298.000000	99.737162
2297.000000	99.736112
2296.000000	99.736157
2295.000000	99.736204
2294.000000	99.735179
2293.000000	99.733197
2292.000000	99.731211
2291.000000	99.729851
2290.000000	99.728885
2289.000000	99.727782
2288.000000	99.726294
2287.000000	99.724405
2286.000000	99.722214
2285.000000	99.719967
2284.000000	99.718002
2283.000000	99.716457
2282.000000	99.715330
2281.000000	99.714693
2280.000000	99.714492
2279.000000	99.714079
2278.000000	99.712582
2277.000000	99.709904
2276.000000	99.706908
2275.000000	99.704392
2274.000000	99.702158
2273.000000	99.699600
2272.000000	99.696779
2271.000000	99.694411
2270.000000	99.692907
2269.000000	99.691995
2268.000000	99.691198
2267.000000	99.690324
2266.000000	99.689419
2265.000000	99.688545
2264.000000	99.687629
2263.000000	99.686438
2262.000000	99.684793
2261.000000	99.682945
2260.000000	99.681558
2259.000000	99.680988
2258.000000	99.680683
2257.000000	99.679589
2256.000000	99.677250
2255.000000	99.674163
2254.000000	99.671327
2253.000000	99.669403
2252.000000	99.668383
2251.000000	99.667771
2250.000000	99.666862
2249.000000	99.665220
2248.000000	99.662997
2247.000000	99.660770
2246.000000	99.659033
2245.000000	99.657927
2244.000000	99.657388
2243.000000	99.657279
2242.000000	99.657326
2241.000000	99.657189
2240.000000	99.656701
2239.000000	99.655932
2238.000000	99.655035
2237.000000	99.654170
2236.000000	99.653546
2235.000000	99.653291
2234.000000	99.653238
2233.000000	99.653038
2232.000000	99.652483
2231.000000	99.651596
2230.000000	99.650477
2229.000000	99.649318
2228.000000	99.648522
2227.000000	99.648452
2226.000000	99.648914
2225.000000	99.649087
2224.000000	99.648164
2223.000000	99.646057
2222.000000	99.643536
2221.000000	99.641732
2220.000000	99.641350
2219.000000	99.642253
2218.000000	99.643690
2217.000000	99.645056
2216.000000	99.646279
2215.000000	99.647348
2214.000000	99.647897
2213.000000	99.647770
2212.000000	99.647674
2211.000000	99.648518
2210.000000	99.650134
2209.000000	99.651352
2208.000000	99.651524
2207.000000	99.651245
2206.000000	99.651389
2205.000000	99.651929
2204.000000	99.652149
2203.000000	99.651694
2202.000000	99.650924
2201.000000	99.650381
2200.000000	99.650238
2199.000000	99.650317
2198.000000	99.650448
2197.000000	99.650635
2196.000000	99.650917
2195.000000	99.651209
2194.000000	99.651480
2193.000000	99.651996
2192.000000	99.653092
2191.000000	99.654634
2190.000000	99.655981
2189.000000	99.656650
2188.000000	99.656828
2187.000000	99.657014
2186.000000	99.657360
2185.000000	99.657666
2184.000000	99.657856
2183.000000	99.658035
2182.000000	99.658151
2181.000000	99.658017
2180.000000	99.657720
2179.000000	99.657633
2178.000000	99.657977
2177.000000	99.658650
2176.000000	99.659522
2175.000000	99.660666
2174.000000	99.662095
2173.000000	99.663477
2172.000000	99.664367
2171.000000	99.664638
2170.000000	99.664534
2169.000000	99.664433
2168.000000	99.664656
2167.000000	99.665433
2166.000000	99.666789
2165.000000	99.668352
2164.000000	99.669498
2163.000000	99.669907
2162.000000	99.669925
2161.000000	99.670266
2160.000000	99.671196
2159.000000	99.672163
2158.000000	99.672439
2157.000000	99.672091
2156.000000	99.672022
2155.000000	99.672882
2154.000000	99.674195
2153.000000	99.674852
2152.000000	99.674459
2151.000000	99.673837
2150.000000	99.674109
2149.000000	99.675599
2148.000000	99.677763
2147.000000	99.679849
2146.000000	99.681544
2145.000000	99.683098
2144.000000	99.684968
2143.000000	99.687226
2142.000000	99.689268
2141.000000	99.690367
2140.000000	99.690467
2139.000000	99.690212
2138.000000	99.690193
2137.000000	99.690549
2136.000000	99.691370
2135.000000	99.693007
2134.000000	99.695695
2133.000000	99.699176
2132.000000	99.702895
2131.000000	99.706395
2130.000000	99.709385
2129.000000	99.711725
2128.000000	99.713484
2127.000000	99.714739
2126.000000	99.715276
2125.000000	99.714915
2124.000000	99.714190
2123.000000	99.714175
2122.000000	99.715387
2121.000000	99.717419
2120.000000	99.719793
2119.000000	99.722681
2118.000000	99.726326
2117.000000	99.730189
2116.000000	99.733277
2115.000000	99.735186
2114.000000	99.736415
2113.000000	99.737788
2112.000000	99.739793
2111.000000	99.742368
2110.000000	99.745010
2109.000000	99.747140
2108.000000	99.748623
2107.000000	99.749877
2106.000000	99.751396
2105.000000	99.753291
2104.000000	99.755477
2103.000000	99.758006
2102.000000	99.760789
2101.000000	99.763194
2100.000000	99.764464
2099.000000	99.764557
2098.000000	99.764249
2097.000000	99.764348
2096.000000	99.765123
2095.000000	99.766654
2094.000000	99.769166
2093.000000	99.772702
2092.000000	99.776643
2091.000000	99.779934
2090.000000	99.781900
2089.000000	99.782697
2088.000000	99.783024
2087.000000	99.783503
2086.000000	99.784366
2085.000000	99.785593
2084.000000	99.787142
2083.000000	99.788958
2082.000000	99.790870
2081.000000	99.792675
2080.000000	99.794396
2079.000000	99.796340
2078.000000	99.798774
2077.000000	99.801525
2076.000000	99.804014
2075.000000	99.805719
2074.000000	99.806614
2073.000000	99.807200
2072.000000	99.808145
2071.000000	99.809906
2070.000000	99.812489
2069.000000	99.815227
2068.000000	99.816732
2067.000000	99.815623
2066.000000	99.811877
2065.000000	99.807526
2064.000000	99.805227
2063.000000	99.805695
2062.000000	99.807333
2061.000000	99.808377
2060.000000	99.808692
2059.000000	99.808977
2058.000000	99.809136
2057.000000	99.808696
2056.000000	99.808374
2055.000000	99.809619
2054.000000	99.812332
2053.000000	99.814414
2052.000000	99.814292
2051.000000	99.812898
2050.000000	99.812294
2049.000000	99.812886
2048.000000	99.813086
2047.000000	99.811575
2046.000000	99.808758
2045.000000	99.806001
2044.000000	99.804275
2043.000000	99.803746
2042.000000	99.804017
2041.000000	99.804303
2040.000000	99.803660
2039.000000	99.801520
2038.000000	99.798143
2037.000000	99.794457
2036.000000	99.791403
2035.000000	99.789299
2034.000000	99.787811
2033.000000	99.786558
2032.000000	99.785595
2031.000000	99.785111
2030.000000	99.784896
2029.000000	99.784475
2028.000000	99.783669
2027.000000	99.782609
2026.000000	99.781167
2025.000000	99.778906
2024.000000	99.775841
2023.000000	99.772917
2022.000000	99.771266
2021.000000	99.771096
2020.000000	99.771581
2019.000000	99.771632
2018.000000	99.770533
2017.000000	99.768098
2016.000000	99.764673
2015.000000	99.760981
2014.000000	99.757595
2013.000000	99.754546
2012.000000	99.751577
2011.000000	99.748665
2010.000000	99.746099
2009.000000	99.744110
2008.000000	99.742625
2007.000000	99.741364
2006.000000	99.740022
2005.000000	99.738401
2004.000000	99.736492
2003.000000	99.734446
2002.000000	99.732353
2001.000000	99.730064
2000.000000	99.727374
1999.000000	99.724358
1998.000000	99.721539
1997.000000	99.719529
1996.000000	99.718487
1995.000000	99.717998
1994.000000	99.717385
1993.000000	99.716195
1992.000000	99.714416
1991.000000	99.712342
1990.000000	99.710264
1989.000000	99.708248
1988.000000	99.706189
1987.000000	99.704050
1986.000000	99.701999
1985.000000	99.700284
1984.000000	99.699000
1983.000000	99.698028
1982.000000	99.697136
1981.000000	99.696086
1980.000000	99.694709
1979.000000	99.692965
1978.000000	99.691027
1977.000000	99.689194
1976.000000	99.687624
1975.000000	99.686238
1974.000000	99.684847
1973.000000	99.683344
1972.000000	99.681776
1971.000000	99.680260
1970.000000	99.678863
1969.000000	99.677542
1968.000000	99.676190
1967.000000	99.674768
1966.000000	99.673403
1965.000000	99.672271
1964.000000	99.671314
1963.000000	99.670168
1962.000000	99.668499
1961.000000	99.666453
1960.000000	99.664662
1959.000000	99.663553
1958.000000	99.662838
1957.000000	99.661816
1956.000000	99.660158
1955.000000	99.658177
1954.000000	99.656410
1953.000000	99.655141
1952.000000	99.654300
1951.000000	99.653628
1950.000000	99.652762
1949.000000	99.651528
1948.000000	99.650304
1947.000000	99.649628
1946.000000	99.649262
1945.000000	99.648024
1944.000000	99.644771
1943.000000	99.639460
1942.000000	99.633384
1941.000000	99.628168
1940.000000	99.624582
1939.000000	99.622587
1938.000000	99.621903
1937.000000	99.622208
1936.000000	99.623038
1935.000000	99.623682
1934.000000	99.623304
1933.000000	99.621246
1932.000000	99.617495
1931.000000	99.612904
1930.000000	99.608519
1929.000000	99.605031
1928.000000	99.602679
1927.000000	99.601050
1926.000000	99.599296
1925.000000	99.596800
1924.000000	99.594154
1923.000000	99.592494
1922.000000	99.591517
1921.000000	99.589355
1920.000000	99.584930
1919.000000	99.579280
1918.000000	99.574456
1917.000000	99.571400
1916.000000	99.569200
1915.000000	99.566341
1914.000000	99.562272
1913.000000	99.557483
1912.000000	99.552569
1911.000000	99.547496
1910.000000	99.541829
1909.000000	99.535768
1908.000000	99.529892
1907.000000	99.523650
1906.000000	99.515705
1905.000000	99.505881
1904.000000	99.496287
1903.000000	99.488895
1902.000000	99.482927
1901.000000	99.476635
1900.000000	99.470446
1899.000000	99.466455
1898.000000	99.465505
1897.000000	99.465921
1896.000000	99.465731
1895.000000	99.464784
1894.000000	99.463703
1893.000000	99.461964
1892.000000	99.457929
1891.000000	99.450416
1890.000000	99.440600
1889.000000	99.432353
1888.000000	99.428790
1887.000000	99.428968
1886.000000	99.429658
1885.000000	99.428845
1884.000000	99.426255
1883.000000	99.421388
1882.000000	99.413559
1881.000000	99.405074
1880.000000	99.400929
1879.000000	99.403292
1878.000000	99.408713
1877.000000	99.411863
1876.000000	99.410913
1875.000000	99.407449
1874.000000	99.402724
1873.000000	99.397217
1872.000000	99.392973
1871.000000	99.392681
1870.000000	99.395981
1869.000000	99.399416
1868.000000	99.401777
1867.000000	99.404925
1866.000000	99.408962
1865.000000	99.412118
1864.000000	99.413952
1863.000000	99.415801
1862.000000	99.418561
1861.000000	99.421880
1860.000000	99.425674
1859.000000	99.430335
1858.000000	99.435070
1857.000000	99.438301
1856.000000	99.440282
1855.000000	99.443234
1854.000000	99.448600
1853.000000	99.455782
1852.000000	99.463317
1851.000000	99.469708
1850.000000	99.474327
1849.000000	99.477822
1848.000000	99.481542
1847.000000	99.485816
1846.000000	99.489172
1845.000000	99.489944
1844.000000	99.489100
1843.000000	99.489699
1842.000000	99.492150
1841.000000	99.494624
1840.000000	99.496012
1839.000000	99.495996
1838.000000	99.494706
1837.000000	99.493433
1836.000000	99.494689
1835.000000	99.499464
1834.000000	99.505334
1833.000000	99.508875
1832.000000	99.509161
1831.000000	99.508152
1830.000000	99.508747
1829.000000	99.511882
1828.000000	99.515657
1827.000000	99.517904
1826.000000	99.517817
1825.000000	99.515752
1824.000000	99.513444
1823.000000	99.512890
1822.000000	99.514364
1821.000000	99.516567
1820.000000	99.518360
1819.000000	99.520099
1818.000000	99.522572
1817.000000	99.525358
1816.000000	99.527690
1815.000000	99.529819
1814.000000	99.532287
1813.000000	99.534754
1812.000000	99.536535
1811.000000	99.538052
1810.000000	99.540091
1809.000000	99.542234
1808.000000	99.543654
1807.000000	99.544414
1806.000000	99.545119
1805.000000	99.546155
1804.000000	99.547746
1803.000000	99.550164
1802.000000	99.553383
1801.000000	99.556831
1800.000000	99.559792
1799.000000	99.562121
1798.000000	99.563988
1797.000000	99.565595
1796.000000	99.567354
1795.000000	99.569713
1794.000000	99.572672
1793.000000	99.575643
1792.000000	99.578226
1791.000000	99.580988
1790.000000	99.584229
1789.000000	99.587264
1788.000000	99.589480
1787.000000	99.591269
1786.000000	99.593678
1785.000000	99.597088
1784.000000	99.600850
1783.000000	99.604318
1782.000000	99.607606
1781.000000	99.611285
1780.000000	99.615606
1779.000000	99.621199
1778.000000	99.628499
1777.000000	99.636077
1776.000000	99.640481
1775.000000	99.639158
1774.000000	99.634223
1773.000000	99.631439
1772.000000	99.634115
1771.000000	99.639988
1770.000000	99.644292
1769.000000	99.644789
1768.000000	99.643649
1767.000000	99.645578
1766.000000	99.653228
1765.000000	99.664538
1764.000000	99.674630
1763.000000	99.679367
1762.000000	99.679188
1761.000000	99.679518
1760.000000	99.683285
1759.000000	99.688450
1758.000000	99.691724
1757.000000	99.692507
1756.000000	99.693045
1755.000000	99.695782
1754.000000	99.702146
1753.000000	99.712555
1752.000000	99.724568
1751.000000	99.733017
1750.000000	99.736419
1749.000000	99.738253
1748.000000	99.741845
1747.000000	99.747160
1746.000000	99.752711
1745.000000	99.757295
1744.000000	99.759738
1743.000000	99.760370
1742.000000	99.760255
1741.000000	99.758224
1740.000000	99.751976
1739.000000	99.743775
1738.000000	99.738496
1737.000000	99.736975
1736.000000	99.737879
1735.000000	99.737557
1734.000000	99.728238
1733.000000	99.711204
1732.000000	99.693163
1731.000000	99.677390
1730.000000	99.666503
1729.000000	99.660706
1728.000000	99.655129
1727.000000	99.644415
1726.000000	99.629473
1725.000000	99.615862
1724.000000	99.607420
1723.000000	99.603681
1722.000000	99.600129
1721.000000	99.591756
1720.000000	99.577378
1719.000000	99.561047
1718.000000	99.549093
1717.000000	99.543499
1716.000000	99.540792
1715.000000	99.536500
1714.000000	99.526682
1713.000000	99.509932
1712.000000	99.490164
1711.000000	99.473466
1710.000000	99.463017
1709.000000	99.457236
1708.000000	99.451405
1707.000000	99.440987
1706.000000	99.423409
1705.000000	99.399888
1704.000000	99.375490
1703.000000	99.353195
1702.000000	99.332031
1701.000000	99.306356
1700.000000	99.273729
1699.000000	99.247752
1698.000000	99.229461
1697.000000	99.208219
1696.000000	99.182347
1695.000000	99.161744
1694.000000	99.149846
1693.000000	99.138802
1692.000000	99.124106
1691.000000	99.107147
1690.000000	99.089797
1689.000000	99.071783
1688.000000	99.052198
1687.000000	99.031728
1686.000000	99.012106
1685.000000	98.988005
1684.000000	98.953430
1683.000000	98.920977
1682.000000	98.895942
1681.000000	98.874190
1680.000000	98.854920
1679.000000	98.838386
1678.000000	98.822573
1677.000000	98.804439
1676.000000	98.781846
1675.000000	98.756119
1674.000000	98.733019
1673.000000	98.713770
1672.000000	98.693326
1671.000000	98.667908
1670.000000	98.637270
1669.000000	98.607834
1668.000000	98.585479
1667.000000	98.566647
1666.000000	98.545915
1665.000000	98.521789
1664.000000	98.496326
1663.000000	98.472566
1662.000000	98.451127
1661.000000	98.429945
1660.000000	98.406601
1659.000000	98.381409
1658.000000	98.356104
1657.000000	98.329826
1656.000000	98.299323
1655.000000	98.263137
1654.000000	98.221536
1653.000000	98.185279
1652.000000	98.181068
1651.000000	98.194192
1650.000000	98.201130
1649.000000	98.194744
1648.000000	98.176932
1647.000000	98.154642
1646.000000	98.139501
1645.000000	98.133718
1644.000000	98.130209
1643.000000	98.124531
1642.000000	98.114584
1641.000000	98.100864
1640.000000	98.087608
1639.000000	98.080399
1638.000000	98.081054
1637.000000	98.084307
1636.000000	98.082770
1635.000000	98.081722
1634.000000	98.092919
1633.000000	98.112505
1632.000000	98.131706
1631.000000	98.146709
1630.000000	98.159019
1629.000000	98.173739
1628.000000	98.196229
1627.000000	98.226471
1626.000000	98.258942
1625.000000	98.289635
1624.000000	98.318908
1623.000000	98.349846
1622.000000	98.384641
1621.000000	98.421262
1620.000000	98.454792
1619.000000	98.483039
1618.000000	98.509266
1617.000000	98.540913
1616.000000	98.585224
1615.000000	98.638121
1614.000000	98.688903
1613.000000	98.733797
1612.000000	98.773608
1611.000000	98.807396
1610.000000	98.834165
1609.000000	98.858151
1608.000000	98.884476
1607.000000	98.912132
1606.000000	98.937886
1605.000000	98.963043
1604.000000	98.989230
1603.000000	99.014378
1602.000000	99.037604
1601.000000	99.062455
1600.000000	99.090709
1599.000000	99.117473
1598.000000	99.137619
1597.000000	99.153250
1596.000000	99.170682
1595.000000	99.192393
1594.000000	99.215252
1593.000000	99.236200
1592.000000	99.255277
1591.000000	99.273575
1590.000000	99.291695
1589.000000	99.309675
1588.000000	99.325404
1587.000000	99.335058
1586.000000	99.338388
1585.000000	99.341718
1584.000000	99.350881
1583.000000	99.363207
1582.000000	99.372648
1581.000000	99.377781
1580.000000	99.380146
1579.000000	99.379848
1578.000000	99.379477
1577.000000	99.386592
1576.000000	99.404846
1575.000000	99.424620
1574.000000	99.434562
1573.000000	99.436575
1572.000000	99.439445
1571.000000	99.448133
1570.000000	99.458426
1569.000000	99.466312
1568.000000	99.473613
1567.000000	99.480853
1566.000000	99.488932
1565.000000	99.499404
1564.000000	99.510892
1563.000000	99.517912
1562.000000	99.518599
1561.000000	99.520002
1560.000000	99.527885
1559.000000	99.528422
1558.000000	99.524288
1557.000000	99.525743
1556.000000	99.527546
1555.000000	99.527980
1554.000000	99.530469
1553.000000	99.538921
1552.000000	99.551381
1551.000000	99.562256
1550.000000	99.567415
1549.000000	99.567938
1548.000000	99.569383
1547.000000	99.576342
1546.000000	99.589280
1545.000000	99.603048
1544.000000	99.610989
1543.000000	99.612096
1542.000000	99.612515
1541.000000	99.618231
1540.000000	99.628541
1539.000000	99.636832
1538.000000	99.636119
1537.000000	99.626094
1536.000000	99.611144
1535.000000	99.595771
1534.000000	99.582891
1533.000000	99.574811
1532.000000	99.572238
1531.000000	99.572376
1530.000000	99.571934
1529.000000	99.569120
1528.000000	99.564678
1527.000000	99.561213
1526.000000	99.559921
1525.000000	99.558726
1524.000000	99.556014
1523.000000	99.554558
1522.000000	99.557830
1521.000000	99.564651
1520.000000	99.571032
1519.000000	99.574865
1518.000000	99.578796
1517.000000	99.586053
1516.000000	99.596340
1515.000000	99.606029
1514.000000	99.612497
1513.000000	99.616077
1512.000000	99.617310
1511.000000	99.617337
1510.000000	99.617669
1509.000000	99.619082
1508.000000	99.620788
1507.000000	99.622585
1506.000000	99.627400
1505.000000	99.631698
1504.000000	99.632288
1503.000000	99.632962
1502.000000	99.638046
1501.000000	99.648034
1500.000000	99.657496
1499.000000	99.660562
1498.000000	99.658639
1497.000000	99.657462
1496.000000	99.659834
1495.000000	99.664973
1494.000000	99.669990
1493.000000	99.672361
1492.000000	99.671592
1491.000000	99.669236
1490.000000	99.667946
1489.000000	99.668791
1488.000000	99.670215
1487.000000	99.672477
1486.000000	99.675390
1485.000000	99.677444
1484.000000	99.678839
1483.000000	99.681559
1482.000000	99.688186
1481.000000	99.697600
1480.000000	99.705871
1479.000000	99.712012
1478.000000	99.719732
1477.000000	99.732033
1476.000000	99.747530
1475.000000	99.763197
1474.000000	99.776263
1473.000000	99.784157
1472.000000	99.786045
1471.000000	99.785621
1470.000000	99.785545
1469.000000	99.786286
1468.000000	99.788419
1467.000000	99.793909
1466.000000	99.804055
1465.000000	99.815910
1464.000000	99.823153
1463.000000	99.822683
1462.000000	99.817315
1461.000000	99.811488
1460.000000	99.808313
1459.000000	99.808415
1458.000000	99.809824
1457.000000	99.808785
1456.000000	99.805650
1455.000000	99.801946
1454.000000	99.797292
1453.000000	99.790473
1452.000000	99.780266
1451.000000	99.767163
1450.000000	99.753165
1449.000000	99.740263
1448.000000	99.730802
1447.000000	99.727732
1446.000000	99.730323
1445.000000	99.733252
1444.000000	99.730599
1443.000000	99.721464
1442.000000	99.710002
1441.000000	99.700259
1440.000000	99.692919
1439.000000	99.688228
1438.000000	99.688723
1437.000000	99.693830
1436.000000	99.697719
1435.000000	99.696609
1434.000000	99.692036
1433.000000	99.686278
1432.000000	99.680572
1431.000000	99.675541
1430.000000	99.672495
1429.000000	99.671489
1428.000000	99.669795
1427.000000	99.665357
1426.000000	99.660085
1425.000000	99.658729
1424.000000	99.662262
1423.000000	99.666249
1422.000000	99.667168
1421.000000	99.666517
1420.000000	99.666968
1419.000000	99.668159
1418.000000	99.670383
1417.000000	99.672192
1416.000000	99.671214
1415.000000	99.669504
1414.000000	99.671073
1413.000000	99.676974
1412.000000	99.684240
1411.000000	99.689570
1410.000000	99.692706
1409.000000	99.694545
1408.000000	99.695276
1407.000000	99.695476
1406.000000	99.696111
1405.000000	99.698363
1404.000000	99.702794
1403.000000	99.709734
1402.000000	99.719109
1401.000000	99.728723
1400.000000	99.735243
1399.000000	99.738595
1398.000000	99.743297
1397.000000	99.750789
1396.000000	99.756756
1395.000000	99.758198
1394.000000	99.759300
1393.000000	99.765434
1392.000000	99.774198
1391.000000	99.780837
1390.000000	99.785432
1389.000000	99.791260
1388.000000	99.798644
1387.000000	99.803789
1386.000000	99.804419
1385.000000	99.802641
1384.000000	99.801259
1383.000000	99.800855
1382.000000	99.800577
1381.000000	99.799782
1380.000000	99.798991
1379.000000	99.799266
1378.000000	99.801137
1377.000000	99.803958
1376.000000	99.806306
1375.000000	99.807355
1374.000000	99.808317
1373.000000	99.811066
1372.000000	99.814769
1371.000000	99.816953
1370.000000	99.816278
1369.000000	99.813552
1368.000000	99.810224
1367.000000	99.807484
1366.000000	99.806532
1365.000000	99.808051
1364.000000	99.811160
1363.000000	99.814146
1362.000000	99.816126
1361.000000	99.816703
1360.000000	99.815009
1359.000000	99.810983
1358.000000	99.806626
1357.000000	99.804566
1356.000000	99.805033
1355.000000	99.805980
1354.000000	99.806588
1353.000000	99.808545
1352.000000	99.813095
1351.000000	99.818424
1350.000000	99.820661
1349.000000	99.818254
1348.000000	99.812985
1347.000000	99.807880
1346.000000	99.804871
1345.000000	99.804119
1344.000000	99.804450
1343.000000	99.804743
1342.000000	99.805078
1341.000000	99.806210
1340.000000	99.808118
1339.000000	99.810111
1338.000000	99.812327
1337.000000	99.815295
1336.000000	99.817782
1335.000000	99.817356
1334.000000	99.813790
1333.000000	99.810290
1332.000000	99.810180
1331.000000	99.813414
1330.000000	99.817332
1329.000000	99.819592
1328.000000	99.818957
1327.000000	99.815130
1326.000000	99.809873
1325.000000	99.807426
1324.000000	99.810643
1323.000000	99.817118
1322.000000	99.821146
1321.000000	99.819515
1320.000000	99.814236
1319.000000	99.810045
1318.000000	99.809894
1317.000000	99.812763
1316.000000	99.815387
1315.000000	99.815620
1314.000000	99.814116
1313.000000	99.812827
1312.000000	99.812322
1311.000000	99.811552
1310.000000	99.810119
1309.000000	99.809387
1308.000000	99.810963
1307.000000	99.814911
1306.000000	99.819376
1305.000000	99.821724
1304.000000	99.819968
1303.000000	99.814602
1302.000000	99.809080
1301.000000	99.807061
1300.000000	99.808719
1299.000000	99.811138
1298.000000	99.812253
1297.000000	99.812741
1296.000000	99.813929
1295.000000	99.815831
1294.000000	99.818036
1293.000000	99.820371
1292.000000	99.821479
1291.000000	99.818949
1290.000000	99.812905
1289.000000	99.807930
1288.000000	99.808718
1287.000000	99.814094
1286.000000	99.817752
1285.000000	99.815191
1284.000000	99.808116
1283.000000	99.802148
1282.000000	99.801741
1281.000000	99.807425
1280.000000	99.815966
1279.000000	99.821844
1278.000000	99.820523
1277.000000	99.812407
1276.000000	99.803451
1275.000000	99.800243
1274.000000	99.804060
1273.000000	99.810255
1272.000000	99.812923
1271.000000	99.809614
1270.000000	99.802606
1269.000000	99.797193
1268.000000	99.798045
1267.000000	99.805037
1266.000000	99.812306
1265.000000	99.813432
1264.000000	99.808684
1263.000000	99.805632
1262.000000	99.810994
1261.000000	99.822667
1260.000000	99.831609
1259.000000	99.831170
1258.000000	99.823059
1257.000000	99.814105
1256.000000	99.809062
1255.000000	99.807360
1254.000000	99.805378
1253.000000	99.800425
1252.000000	99.792993
1251.000000	99.786125
1250.000000	99.782524
1249.000000	99.781831
1248.000000	99.781225
1247.000000	99.779344
1246.000000	99.778877
1245.000000	99.783567
1244.000000	99.792557
1243.000000	99.799480
1242.000000	99.798339
1241.000000	99.789318
1240.000000	99.777640
1239.000000	99.767567
1238.000000	99.758880
1237.000000	99.748781
1236.000000	99.735194
1235.000000	99.717398
1234.000000	99.695143
1233.000000	99.669276
1232.000000	99.643302
1231.000000	99.622546
1230.000000	99.610161
1229.000000	99.603682
1228.000000	99.595954
1227.000000	99.579933
1226.000000	99.553414
1225.000000	99.519848
1224.000000	99.484386
1223.000000	99.448555
1222.000000	99.409162
1221.000000	99.363123
1220.000000	99.312755
1219.000000	99.264827
1218.000000	99.223790
1217.000000	99.186610
1216.000000	99.144832
1215.000000	99.091289
1214.000000	99.025151
1213.000000	98.951796
1212.000000	98.877922
1211.000000	98.805852
1210.000000	98.732485
1209.000000	98.654446
1208.000000	98.573245
1207.000000	98.493661
1206.000000	98.417799
1205.000000	98.343346
1204.000000	98.267417
1203.000000	98.189080
1202.000000	98.108056
1201.000000	98.024343
1200.000000	97.940126
1199.000000	97.859242
1198.000000	97.783476
1197.000000	97.711383
1196.000000	97.640690
1195.000000	97.568626
1194.000000	97.490118
1193.000000	97.400556
1192.000000	97.302000
1191.000000	97.202621
1190.000000	97.107596
1189.000000	97.013979
1188.000000	96.916897
1187.000000	96.817064
1186.000000	96.719005
1185.000000	96.624814
1184.000000	96.533444
1183.000000	96.444275
1182.000000	96.357508
1181.000000	96.271172
1180.000000	96.179980
1179.000000	96.077695
1178.000000	95.960856
1177.000000	95.831282
1176.000000	95.694992
1175.000000	95.557445
1174.000000	95.419899
1173.000000	95.281578
1172.000000	95.143655
1171.000000	95.008005
1170.000000	94.873532
1169.000000	94.738120
1168.000000	94.604110
1167.000000	94.478345
1166.000000	94.367697
1165.000000	94.278242
1164.000000	94.216641
1163.000000	94.186372
1162.000000	94.183228
1161.000000	94.199231
1160.000000	94.228330
1159.000000	94.261750
1158.000000	94.281132
1157.000000	94.265987
1156.000000	94.208923
1155.000000	94.118952
1154.000000	94.011666
1153.000000	93.900485
1152.000000	93.793385
1151.000000	93.689210
1150.000000	93.577817
1149.000000	93.451677
1148.000000	93.316540
1147.000000	93.183910
1146.000000	93.055862
1145.000000	92.926619
1144.000000	92.796090
1143.000000	92.669835
1142.000000	92.546636
1141.000000	92.418733
1140.000000	92.284948
1139.000000	92.151343
1138.000000	92.018043
1137.000000	91.878120
1136.000000	91.731267
1135.000000	91.585684
1134.000000	91.443646
1133.000000	91.297907
1132.000000	91.145530
1131.000000	90.992367
1130.000000	90.839936
1129.000000	90.680489
1128.000000	90.509626
1127.000000	90.331429
1126.000000	90.146698
1125.000000	89.949013
1124.000000	89.738260
1123.000000	89.525783
1122.000000	89.319527
1121.000000	89.115281
1120.000000	88.908860
1119.000000	88.706096
1118.000000	88.515081
1117.000000	88.339457
1116.000000	88.184327
1115.000000	88.057199
1114.000000	87.957511
1113.000000	87.875577
1112.000000	87.805643
1111.000000	87.748307
1110.000000	87.697182
1109.000000	87.636457
1108.000000	87.555987
1107.000000	87.458287
1106.000000	87.349117
1105.000000	87.233260
1104.000000	87.119657
1103.000000	87.015800
1102.000000	86.915163
1101.000000	86.805063
1100.000000	86.688062
1099.000000	86.581041
1098.000000	86.490425
1097.000000	86.405028
1096.000000	86.314378
1095.000000	86.217457
1094.000000	86.112790
1093.000000	85.998442
1092.000000	85.883480
1091.000000	85.780067
1090.000000	85.681399
1089.000000	85.567270
1088.000000	85.434770
1087.000000	85.303635
1086.000000	85.187573
1085.000000	85.080177
1084.000000	84.972844
1083.000000	84.865084
1082.000000	84.752569
1081.000000	84.626712
1080.000000	84.491975
1079.000000	84.362798
1078.000000	84.237276
1077.000000	84.095154
1076.000000	83.928680
1075.000000	83.753932
1074.000000	83.583454
1073.000000	83.406834
1072.000000	83.205979
1071.000000	82.971147
1070.000000	82.697645
1069.000000	82.387159
1068.000000	82.057769
1067.000000	81.732100
1066.000000	81.408659
1065.000000	81.065062
1064.000000	80.694356
1063.000000	80.316204
1062.000000	79.947763
1061.000000	79.586837
1060.000000	79.229098
1059.000000	78.875749
1058.000000	78.517066
1057.000000	78.135427
1056.000000	77.734176
1055.000000	77.338113
1054.000000	76.955103
1053.000000	76.562192
1052.000000	76.141741
1051.000000	75.705416
1050.000000	75.268586
1049.000000	74.828444
1048.000000	74.381868
1047.000000	73.935851
1046.000000	73.488259
1045.000000	73.026672
1044.000000	72.555421
1043.000000	72.096916
1042.000000	71.658344
1041.000000	71.222962
1040.000000	70.780866
1039.000000	70.340944
1038.000000	69.906624
1037.000000	69.470727
1036.000000	69.041688
1035.000000	68.642404
1034.000000	68.274272
1033.000000	67.915247
1032.000000	67.563285
1031.000000	67.247663
1030.000000	66.985131
1029.000000	66.757923
1028.000000	66.547625
1027.000000	66.359633
1026.000000	66.201146
1025.000000	66.065112
1024.000000	65.948055
1023.000000	65.854343
1022.000000	65.771777
1021.000000	65.671460
1020.000000	65.542161
1019.000000	65.397934
1018.000000	65.245128
1017.000000	65.071611
1016.000000	64.875336
1015.000000	64.672251
1014.000000	64.467285
1013.000000	64.246952
1012.000000	64.007739
1011.000000	63.761910
1010.000000	63.510513
1009.000000	63.244465
1008.000000	62.978968
1007.000000	62.751005
1006.000000	62.572510
1005.000000	62.419614
1004.000000	62.277663
1003.000000	62.162532
1002.000000	62.086634
1001.000000	62.039127
1000.000000	62.013260
999.000000	62.020607
998.000000	62.063413
997.000000	62.121752
996.000000	62.181516
995.000000	62.249640
994.000000	62.331865
993.000000	62.421500
992.000000	62.518293
991.000000	62.632320
990.000000	62.762195
989.000000	62.894322
988.000000	63.027839
987.000000	63.174620
986.000000	63.333237
985.000000	63.491689
984.000000	63.656514
983.000000	63.847408
982.000000	64.060844
981.000000	64.272089
980.000000	64.477670
979.000000	64.702918
978.000000	64.961865
977.000000	65.241905
976.000000	65.533398
975.000000	65.842085
974.000000	66.165533
973.000000	66.489778
972.000000	66.817838
971.000000	67.170923
970.000000	67.552790
969.000000	67.941742
968.000000	68.325976
967.000000	68.718284
966.000000	69.126939
965.000000	69.539698
964.000000	69.946235
963.000000	70.350998
962.000000	70.755038
961.000000	71.149116
960.000000	71.533439
959.000000	71.921689
958.000000	72.317150
957.000000	72.705038
956.000000	73.074684
955.000000	73.430039
954.000000	73.774692
953.000000	74.106430
952.000000	74.428654
951.000000	74.745269
950.000000	75.042311
949.000000	75.298049
948.000000	75.514473
947.000000	75.716001
946.000000	75.912454
945.000000	76.085652
944.000000	76.218456
943.000000	76.315860
942.000000	76.392356
941.000000	76.458976
940.000000	76.528666
939.000000	76.613738
938.000000	76.710102
937.000000	76.801363
936.000000	76.883807
935.000000	76.971410
934.000000	77.074513
933.000000	77.190742
932.000000	77.315711
931.000000	77.441915
930.000000	77.549332
929.000000	77.621776
928.000000	77.672451
927.000000	77.727814
926.000000	77.784810
925.000000	77.811510
924.000000	77.793741
923.000000	77.752250
922.000000	77.706023
921.000000	77.645927
920.000000	77.555211
919.000000	77.432009
918.000000	77.281646
917.000000	77.109978
916.000000	76.935812
915.000000	76.788983
914.000000	76.685445
913.000000	76.623368
912.000000	76.610854
911.000000	76.675199
910.000000	76.835827
909.000000	77.087755
908.000000	77.415964
907.000000	77.803877
906.000000	78.225781
905.000000	78.657730
904.000000	79.101522
903.000000	79.574350
902.000000	80.072790
901.000000	80.572254
900.000000	81.063271
899.000000	81.559516
898.000000	82.064848
897.000000	82.561060
896.000000	83.035674
895.000000	83.495514
894.000000	83.944251
893.000000	84.371491
892.000000	84.774178
891.000000	85.165862
890.000000	85.553253
889.000000	85.923333
888.000000	86.265089
887.000000	86.587133
886.000000	86.904202
885.000000	87.221650
884.000000	87.540789
883.000000	87.862243
882.000000	88.175476
881.000000	88.462534
880.000000	88.722344
879.000000	88.976488
878.000000	89.242613
877.000000	89.517605
876.000000	89.795248
875.000000	90.082483
874.000000	90.386658
873.000000	90.701455
872.000000	91.016651
871.000000	91.330406
870.000000	91.644020
869.000000	91.955378
868.000000	92.264173
867.000000	92.573677
866.000000	92.881653
865.000000	93.178532
864.000000	93.459696
863.000000	93.732382
862.000000	94.007125
861.000000	94.288064
860.000000	94.571799
859.000000	94.848026
858.000000	95.101784
857.000000	95.324602
856.000000	95.524703
855.000000	95.718840
854.000000	95.913623
853.000000	96.101524
852.000000	96.273240
851.000000	96.425433
850.000000	96.558254
849.000000	96.674108
848.000000	96.776964
847.000000	96.864752
846.000000	96.927398
845.000000	96.963608
844.000000	96.994026
843.000000	97.041685
842.000000	97.100203
841.000000	97.137514
840.000000	97.133137
839.000000	97.098481
838.000000	97.059076
837.000000	97.029476
836.000000	97.008331
835.000000	96.985714
834.000000	96.952445
833.000000	96.913393
832.000000	96.893330
831.000000	96.917819
830.000000	96.985688
829.000000	97.071145
828.000000	97.152714
827.000000	97.226080
826.000000	97.290593
825.000000	97.344493
824.000000	97.398098
823.000000	97.470238
822.000000	97.562217
821.000000	97.652015
820.000000	97.720445
819.000000	97.769017
818.000000	97.809586
817.000000	97.847418
816.000000	97.874072
815.000000	97.867161
814.000000	97.799819
813.000000	97.661048
812.000000	97.463019
811.000000	97.216877
810.000000	96.907411
809.000000	96.508366
808.000000	96.018745
807.000000	95.464724
806.000000	94.867322
805.000000	94.231122
804.000000	93.568883
803.000000	92.914543
802.000000	92.304566
801.000000	91.766276
800.000000	91.328048
799.000000	91.014176
798.000000	90.820441
797.000000	90.718301
796.000000	90.690953
795.000000	90.741599
794.000000	90.860843
793.000000	91.014039
792.000000	91.170479
791.000000	91.320245
790.000000	91.453514
789.000000	91.548980
788.000000	91.594482
787.000000	91.596202
786.000000	91.555136
785.000000	91.456013
784.000000	91.293941
783.000000	91.094009
782.000000	90.890771
781.000000	90.704481
780.000000	90.549358
779.000000	90.446699
778.000000	90.414010
777.000000	90.453477
776.000000	90.561146
775.000000	90.733216
774.000000	90.954614
773.000000	91.196817
772.000000	91.437102
771.000000	91.669096
770.000000	91.890404
769.000000	92.093808
768.000000	92.274225
767.000000	92.429568
766.000000	92.552384
765.000000	92.637676
764.000000	92.701582
763.000000	92.772255
762.000000	92.855850
761.000000	92.930334
760.000000	92.979610
759.000000	93.014112
758.000000	93.049875
757.000000	93.088261
756.000000	93.127564
755.000000	93.175682
754.000000	93.239098
753.000000	93.315160
752.000000	93.404769
751.000000	93.514985
750.000000	93.638730
