4000.000000	99.147553
3999.000000	99.143813
3998.000000	99.140004
3997.000000	99.137394
3996.000000	99.136512
3995.000000	99.137084
3994.000000	99.138262
3993.000000	99.139172
3992.000000	99.139388
3991.000000	99.139057
3990.000000	99.138705
3989.000000	99.138749
3988.000000	99.139023
3987.000000	99.138799
3986.000000	99.137492
3985.000000	99.135445
3984.000000	99.134010
3983.000000	99.134440
3982.000000	99.136557
3981.000000	99.138608
3980.000000	99.138867
3979.000000	99.137251
3978.000000	99.134935
3977.000000	99.132743
3976.000000	99.130337
3975.000000	99.127036
3974.000000	99.122933
3973.000000	99.119002
3972.000000	99.116409
3971.000000	99.115829
3970.000000	99.117151
3969.000000	99.119479
3968.000000	99.121456
3967.000000	99.121978
3966.000000	99.120773
3965.000000	99.118471
3964.000000	99.116149
3963.000000	99.114608
3962.000000	99.113863
3961.000000	99.113294
3960.000000	99.112419
3959.000000	99.111473
3958.000000	99.111007
3957.000000	99.111014
3956.000000	99.110772
3955.000000	99.109765
3954.000000	99.108362
3953.000000	99.107316
3952.000000	99.106922
3951.000000	99.107020
3950.000000	99.107762
3949.000000	99.109758
3948.000000	99.113162
3947.000000	99.116837
3946.000000	99.118987
3945.000000	99.118570
3944.000000	99.116096
3943.000000	99.113133
3942.000000	99.110546
3941.000000	99.107975
3940.000000	99.105333
3939.000000	99.103881
3938.000000	99.105094
3937.000000	99.108927
3936.000000	99.113472
3935.000000	99.116474
3934.000000	99.116938
3933.000000	99.115175
3932.000000	99.112059
3931.000000	99.108526
3930.000000	99.105480
3929.000000	99.103411
3928.000000	99.102008
3927.000000	99.100641
3926.000000	99.099528
3925.000000	99.099949
3924.000000	99.102656
3923.000000	99.106777
3922.000000	99.110758
3921.000000	99.113747
3920.000000	99.115713
3919.000000	99.116893
3918.000000	99.117516
3917.000000	99.117748
3916.000000	99.117503
3915.000000	99.116524
3914.000000	99.114866
3913.000000	99.113170
3912.000000	99.112173
3911.000000	99.112110
3910.000000	99.112579
3909.000000	99.113009
3908.000000	99.113122
3907.000000	99.113129
3906.000000	99.113516
3905.000000	99.114639
3904.000000	99.116309
3903.000000	99.117618
3902.000000	99.117668
3901.000000	99.116451
3900.000000	99.114744
3899.000000	99.113489
3898.000000	99.112998
3897.000000	99.113036
3896.000000	99.113272
3895.000000	99.113479
3894.000000	99.113552
3893.000000	99.113530
3892.000000	99.113577
3891.000000	99.113825
3890.000000	99.114178
3889.000000	99.114465
3888.000000	99.114640
3887.000000	99.114775
3886.000000	99.114943
3885.000000	99.115135
3884.000000	99.115296
3883.000000	99.115388
3882.000000	99.115403
3881.000000	99.115346
3880.000000	99.115237
3879.000000	99.115102
3878.000000	99.114963
3877.000000	99.114829
3876.000000	99.114706
3875.000000	99.114599
3874.000000	99.114516
3873.000000	99.114455
3872.000000	99.114404
3871.000000	99.114347
3870.000000	99.114273
3869.000000	99.114182
3868.000000	99.114082
3867.000000	99.113980
3866.000000	99.113886
3865.000000	99.113813
3864.000000	99.113760
3863.000000	99.113736
3862.000000	99.113751
3861.000000	99.113817
3860.000000	99.113944
3859.000000	99.114139
3858.000000	99.114387
3857.000000	99.114659
3856.000000	99.114920
3855.000000	99.115137
3854.000000	99.115296
3853.000000	99.115405
3852.000000	99.115469
3851.000000	99.115491
3850.000000	99.115476
3849.000000	99.115435
3848.000000	99.115384
3847.000000	99.115341
3846.000000	99.115313
3845.000000	99.115295
3844.000000	99.115269
3843.000000	99.115216
3842.000000	99.115134
3841.000000	99.115037
3840.000000	99.114953
3839.000000	99.114902
3838.000000	99.114888
3837.000000	99.114898
3836.000000	99.114911
3835.000000	99.114917
3834.000000	99.114918
3833.000000	99.114928
3832.000000	99.114953
3831.000000	99.114985
3830.000000	99.115011
3829.000000	99.115018
3828.000000	99.114998
3827.000000	99.114951
3826.000000	99.114876
3825.000000	99.114768
3824.000000	99.114616
3823.000000	99.114407
3822.000000	99.114150
3821.000000	99.113866
3820.000000	99.113561
3819.000000	99.113212
3818.000000	99.112782
3817.000000	99.112260
3816.000000	99.111659
3815.000000	99.111010
3814.000000	99.110339
3813.000000	99.109672
3812.000000	99.109029
3811.000000	99.108421
3810.000000	99.107842
3809.000000	99.107276
3808.000000	99.106716
3807.000000	99.106155
3806.000000	99.105586
3805.000000	99.104987
3804.000000	99.104337
3803.000000	99.103631
3802.000000	99.102889
3801.000000	99.102141
3800.000000	99.101397
3799.000000	99.100641
3798.000000	99.099858
3797.000000	99.099048
3796.000000	99.098222
3795.000000	99.097398
3794.000000	99.096591
3793.000000	99.095804
3792.000000	99.095027
3791.000000	99.094236
3790.000000	99.093410
3789.000000	99.092534
3788.000000	99.091609
3787.000000	99.090645
3786.000000	99.089495
3785.000000	99.088035
3784.000000	99.086527
3783.000000	99.085521
3782.000000	99.085087
3781.000000	99.084531
3780.000000	99.083278
3779.000000	99.081799
3778.000000	99.080764
3777.000000	99.079701
3776.000000	99.077965
3775.000000	99.076370
3774.000000	99.076425
3773.000000	99.078496
3772.000000	99.081786
3771.000000	99.086092
3770.000000	99.091627
3769.000000	99.095738
3768.000000	99.092563
3767.000000	99.080315
3766.000000	99.066071
3765.000000	99.059743
3764.000000	99.063256
3763.000000	99.069120
3762.000000	99.069676
3761.000000	99.064231
3760.000000	99.057301
3759.000000	99.052932
3758.000000	99.051489
3757.000000	99.051863
3756.000000	99.053321
3755.000000	99.055365
3754.000000	99.057848
3753.000000	99.060767
3752.000000	99.062452
3751.000000	99.060437
3750.000000	99.054302
3749.000000	99.045237
3748.000000	99.034249
3747.000000	99.021133
3746.000000	99.005355
3745.000000	98.992473
3744.000000	98.991384
3743.000000	98.993861
3742.000000	98.985881
3741.000000	98.972596
3740.000000	98.966869
3739.000000	98.971774
3738.000000	98.977395
3737.000000	98.971843
3736.000000	98.953407
3735.000000	98.930004
3734.000000	98.909406
3733.000000	98.895803
3732.000000	98.891382
3731.000000	98.892338
3730.000000	98.889141
3729.000000	98.874873
3728.000000	98.850667
3727.000000	98.823751
3726.000000	98.800205
3725.000000	98.778623
3724.000000	98.754302
3723.000000	98.726978
3722.000000	98.701084
3721.000000	98.678723
3720.000000	98.655737
3719.000000	98.626500
3718.000000	98.590380
3717.000000	98.552589
3716.000000	98.517467
3715.000000	98.482860
3714.000000	98.440036
3713.000000	98.379686
3712.000000	98.303284
3711.000000	98.224959
3710.000000	98.155075
3709.000000	98.090733
3708.000000	98.024272
3707.000000	97.952415
3706.000000	97.875735
3705.000000	97.794718
3704.000000	97.709659
3703.000000	97.624150
3702.000000	97.546130
3701.000000	97.480678
3700.000000	97.423560
3699.000000	97.368570
3698.000000	97.318915
3697.000000	97.286216
3696.000000	97.278450
3695.000000	97.291502
3694.000000	97.313458
3693.000000	97.334184
3692.000000	97.350616
3691.000000	97.367282
3690.000000	97.394095
3689.000000	97.437988
3688.000000	97.491074
3687.000000	97.535648
3686.000000	97.563013
3685.000000	97.578134
3684.000000	97.589238
3683.000000	97.598093
3682.000000	97.599958
3681.000000	97.592235
3680.000000	97.579997
3679.000000	97.569332
3678.000000	97.559192
3677.000000	97.544155
3676.000000	97.527828
3675.000000	97.519554
3674.000000	97.509298
3673.000000	97.478208
3672.000000	97.426652
3671.000000	97.371651
3670.000000	97.333581
3669.000000	97.316997
3668.000000	97.305164
3667.000000	97.283933
3666.000000	97.254205
3665.000000	97.221819
3664.000000	97.188743
3663.000000	97.153846
3662.000000	97.118197
3661.000000	97.087362
3660.000000	97.066591
3659.000000	97.054176
3658.000000	97.041243
3657.000000	97.019939
3656.000000	96.991954
3655.000000	96.963392
3654.000000	96.937056
3653.000000	96.913063
3652.000000	96.891069
3651.000000	96.869830
3650.000000	96.848738
3649.000000	96.828268
3648.000000	96.808006
3647.000000	96.788049
3646.000000	96.769231
3645.000000	96.750638
3644.000000	96.729683
3643.000000	96.705504
3642.000000	96.679891
3641.000000	96.655541
3640.000000	96.633312
3639.000000	96.612633
3638.000000	96.592888
3637.000000	96.572764
3636.000000	96.550503
3635.000000	96.526237
3634.000000	96.502399
3633.000000	96.478770
3632.000000	96.449087
3631.000000	96.405437
3630.000000	96.349845
3629.000000	96.302183
3628.000000	96.276854
3627.000000	96.258327
3626.000000	96.226822
3625.000000	96.180932
3624.000000	96.129096
3623.000000	96.079628
3622.000000	96.039216
3621.000000	96.015112
3620.000000	96.014923
3619.000000	96.041429
3618.000000	96.087124
3617.000000	96.138698
3616.000000	96.187851
3615.000000	96.233088
3614.000000	96.275388
3613.000000	96.314770
3612.000000	96.349131
3611.000000	96.376440
3610.000000	96.398339
3609.000000	96.419232
3608.000000	96.441188
3607.000000	96.460379
3606.000000	96.470720
3605.000000	96.471931
3604.000000	96.470780
3603.000000	96.474703
3602.000000	96.485751
3601.000000	96.499521
3600.000000	96.510138
3599.000000	96.515915
3598.000000	96.521168
3597.000000	96.531307
3596.000000	96.546868
3595.000000	96.562487
3594.000000	96.572784
3593.000000	96.577227
3592.000000	96.580403
3591.000000	96.588251
3590.000000	96.603837
3589.000000	96.625848
3588.000000	96.650188
3587.000000	96.671865
3586.000000	96.685365
3585.000000	96.688804
3584.000000	96.686397
3583.000000	96.683635
3582.000000	96.682593
3581.000000	96.682665
3580.000000	96.683465
3579.000000	96.685422
3578.000000	96.688784
3577.000000	96.692901
3576.000000	96.696595
3575.000000	96.698650
3574.000000	96.698615
3573.000000	96.697838
3572.000000	96.698772
3571.000000	96.702022
3570.000000	96.703998
3569.000000	96.699638
3568.000000	96.689741
3567.000000	96.683601
3566.000000	96.688540
3565.000000	96.700689
3564.000000	96.711273
3563.000000	96.716225
3562.000000	96.717709
3561.000000	96.720022
3560.000000	96.725337
3559.000000	96.732792
3558.000000	96.740307
3557.000000	96.746451
3556.000000	96.750365
3555.000000	96.751109
3554.000000	96.748105
3553.000000	96.742567
3552.000000	96.737256
3551.000000	96.734387
3550.000000	96.734215
3549.000000	96.735560
3548.000000	96.736619
3547.000000	96.735689
3546.000000	96.731915
3545.000000	96.725719
3544.000000	96.718231
3543.000000	96.710507
3542.000000	96.703261
3541.000000	96.697228
3540.000000	96.693334
3539.000000	96.692357
3538.000000	96.694199
3537.000000	96.697612
3536.000000	96.700869
3535.000000	96.702941
3534.000000	96.704261
3533.000000	96.705973
3532.000000	96.708488
3531.000000	96.710793
3530.000000	96.711489
3529.000000	96.710396
3528.000000	96.708881
3527.000000	96.708555
3526.000000	96.709806
3525.000000	96.711513
3524.000000	96.711732
3523.000000	96.708989
3522.000000	96.703526
3521.000000	96.697462
3520.000000	96.693437
3519.000000	96.692601
3518.000000	96.693923
3517.000000	96.695101
3516.000000	96.694357
3515.000000	96.691423
3514.000000	96.687295
3513.000000	96.683427
3512.000000	96.680938
3511.000000	96.680071
3510.000000	96.680153
3509.000000	96.680131
3508.000000	96.679393
3507.000000	96.678031
3506.000000	96.676298
3505.000000	96.674071
3504.000000	96.671052
3503.000000	96.667388
3502.000000	96.663784
3501.000000	96.660971
3500.000000	96.659207
3499.000000	96.658223
3498.000000	96.657447
3497.000000	96.656322
3496.000000	96.654664
3495.000000	96.652849
3494.000000	96.651515
3493.000000	96.650864
3492.000000	96.650197
3491.000000	96.648350
3490.000000	96.644697
3489.000000	96.639728
3488.000000	96.634715
3487.000000	96.630709
3486.000000	96.627795
3485.000000	96.625300
3484.000000	96.622636
3483.000000	96.619879
3482.000000	96.617443
3481.000000	96.615178
3480.000000	96.612167
3479.000000	96.607672
3478.000000	96.602076
3477.000000	96.596679
3476.000000	96.592520
3475.000000	96.589525
3474.000000	96.586850
3473.000000	96.583728
3472.000000	96.579929
3471.000000	96.575742
3470.000000	96.571821
3469.000000	96.568889
3468.000000	96.567212
3467.000000	96.566223
3466.000000	96.564803
3465.000000	96.562130
3464.000000	96.558273
3463.000000	96.554024
3462.000000	96.550124
3461.000000	96.546657
3460.000000	96.543253
3459.000000	96.539817
3458.000000	96.536811
3457.000000	96.534628
3456.000000	96.532821
3455.000000	96.530201
3454.000000	96.525988
3453.000000	96.520626
3452.000000	96.515390
3451.000000	96.511273
3450.000000	96.508357
3449.000000	96.506233
3448.000000	96.504578
3447.000000	96.503149
3446.000000	96.501448
3445.000000	96.498767
3444.000000	96.494830
3443.000000	96.490116
3442.000000	96.485327
3441.000000	96.480715
3440.000000	96.476125
3439.000000	96.471554
3438.000000	96.467399
3437.000000	96.464035
3436.000000	96.461404
3435.000000	96.459173
3434.000000	96.457196
3433.000000	96.455491
3432.000000	96.453825
3431.000000	96.451653
3430.000000	96.448678
3429.000000	96.445280
3428.000000	96.442186
3427.000000	96.439721
3426.000000	96.437547
3425.000000	96.435125
3424.000000	96.432306
3423.000000	96.429468
3422.000000	96.427167
3421.000000	96.425646
3420.000000	96.424594
3419.000000	96.423352
3418.000000	96.421507
3417.000000	96.419304
3416.000000	96.417431
3415.000000	96.416308
3414.000000	96.415608
3413.000000	96.414486
3412.000000	96.412342
3411.000000	96.409316
3410.000000	96.406270
3409.000000	96.404174
3408.000000	96.403371
3407.000000	96.403347
3406.000000	96.403092
3405.000000	96.402012
3404.000000	96.400462
3403.000000	96.399427
3402.000000	96.399585
3401.000000	96.400709
3400.000000	96.401848
3399.000000	96.402146
3398.000000	96.401428
3397.000000	96.400097
3396.000000	96.398679
3395.000000	96.397510
3394.000000	96.396830
3393.000000	96.396909
3392.000000	96.397850
3391.000000	96.399314
3390.000000	96.400610
3389.000000	96.401194
3388.000000	96.401052
3387.000000	96.400636
3386.000000	96.400382
3385.000000	96.400253
3384.000000	96.399826
3383.000000	96.398949
3382.000000	96.398250
3381.000000	96.398768
3380.000000	96.401049
3379.000000	96.404745
3378.000000	96.409022
3377.000000	96.413104
3376.000000	96.416350
3375.000000	96.418174
3374.000000	96.418336
3373.000000	96.417318
3372.000000	96.416130
3371.000000	96.415602
3370.000000	96.415815
3369.000000	96.416112
3368.000000	96.415579
3367.000000	96.413848
3366.000000	96.411759
3365.000000	96.411033
3364.000000	96.412928
3363.000000	96.417323
3362.000000	96.423051
3361.000000	96.428963
3360.000000	96.434356
3359.000000	96.438460
3358.000000	96.440388
3357.000000	96.439910
3356.000000	96.437951
3355.000000	96.435994
3354.000000	96.435009
3353.000000	96.435259
3352.000000	96.436842
3351.000000	96.439980
3350.000000	96.444809
3349.000000	96.451083
3348.000000	96.458085
3347.000000	96.464743
3346.000000	96.469840
3345.000000	96.472349
3344.000000	96.471904
3343.000000	96.469183
3342.000000	96.465930
3341.000000	96.464052
3340.000000	96.464063
3339.000000	96.464455
3338.000000	96.463161
3337.000000	96.459977
3336.000000	96.457223
3335.000000	96.457447
3334.000000	96.460751
3333.000000	96.464761
3332.000000	96.467131
3331.000000	96.467809
3330.000000	96.468643
3329.000000	96.471319
3328.000000	96.476043
3327.000000	96.481733
3326.000000	96.486926
3325.000000	96.490662
3324.000000	96.493042
3323.000000	96.495163
3322.000000	96.498138
3321.000000	96.501767
3320.000000	96.504469
3319.000000	96.504945
3318.000000	96.503721
3317.000000	96.502672
3316.000000	96.503006
3315.000000	96.504185
3314.000000	96.504931
3313.000000	96.504756
3312.000000	96.504288
3311.000000	96.504565
3310.000000	96.506265
3309.000000	96.509340
3308.000000	96.512878
3307.000000	96.515497
3306.000000	96.516385
3305.000000	96.515946
3304.000000	96.515407
3303.000000	96.515756
3302.000000	96.517141
3301.000000	96.519197
3300.000000	96.521489
3299.000000	96.523631
3298.000000	96.525331
3297.000000	96.526556
3296.000000	96.527580
3295.000000	96.528748
3294.000000	96.530221
3293.000000	96.532037
3292.000000	96.534252
3291.000000	96.536840
3290.000000	96.539539
3289.000000	96.541953
3288.000000	96.543840
3287.000000	96.545275
3286.000000	96.546558
3285.000000	96.548027
3284.000000	96.549863
3283.000000	96.552017
3282.000000	96.554253
3281.000000	96.556269
3280.000000	96.557858
3279.000000	96.558989
3278.000000	96.559832
3277.000000	96.560709
3276.000000	96.561936
3275.000000	96.563646
3274.000000	96.565723
3273.000000	96.567978
3272.000000	96.570344
3271.000000	96.572807
3270.000000	96.575213
3269.000000	96.577338
3268.000000	96.579212
3267.000000	96.581218
3266.000000	96.583759
3265.000000	96.586848
3264.000000	96.590073
3263.000000	96.592910
3262.000000	96.595022
3261.000000	96.596354
3260.000000	96.597174
3259.000000	96.598105
3258.000000	96.599819
3257.000000	96.602559
3256.000000	96.605862
3255.000000	96.608830
3254.000000	96.610986
3253.000000	96.612787
3252.000000	96.615138
3251.000000	96.618313
3250.000000	96.621563
3249.000000	96.623875
3248.000000	96.625034
3247.000000	96.625858
3246.000000	96.627386
3245.000000	96.629861
3244.000000	96.632558
3243.000000	96.634570
3242.000000	96.635795
3241.000000	96.637127
3240.000000	96.639562
3239.000000	96.643221
3238.000000	96.647469
3237.000000	96.651984
3236.000000	96.657230
3235.000000	96.663458
3234.000000	96.669656
3233.000000	96.674236
3232.000000	96.676820
3231.000000	96.678703
3230.000000	96.681343
3229.000000	96.684770
3228.000000	96.687954
3227.000000	96.690445
3226.000000	96.693048
3225.000000	96.696840
3224.000000	96.702097
3223.000000	96.708273
3222.000000	96.714559
3221.000000	96.720122
3220.000000	96.724103
3219.000000	96.725872
3218.000000	96.725451
3217.000000	96.723759
3216.000000	96.722540
3215.000000	96.723810
3214.000000	96.728779
3213.000000	96.737008
3212.000000	96.746637
3211.000000	96.755674
3210.000000	96.763162
3209.000000	96.769084
3208.000000	96.773728
3207.000000	96.777531
3206.000000	96.781230
3205.000000	96.785624
3204.000000	96.791003
3203.000000	96.797022
3202.000000	96.803110
3201.000000	96.808837
3200.000000	96.813902
3199.000000	96.818140
3198.000000	96.821744
3197.000000	96.825415
3196.000000	96.830016
3195.000000	96.835867
3194.000000	96.842267
3193.000000	96.847791
3192.000000	96.851404
3191.000000	96.853507
3190.000000	96.855716
3189.000000	96.859277
3188.000000	96.863870
3187.000000	96.868445
3186.000000	96.873066
3185.000000	96.879352
3184.000000	96.888651
3183.000000	96.900302
3182.000000	96.912018
3181.000000	96.922029
3180.000000	96.930546
3179.000000	96.938981
3178.000000	96.948032
3177.000000	96.956653
3176.000000	96.962937
3175.000000	96.965948
3174.000000	96.966673
3173.000000	96.967372
3172.000000	96.969992
3171.000000	96.975102
3170.000000	96.982292
3169.000000	96.991066
3168.000000	97.000795
3167.000000	97.010312
3166.000000	97.018406
3165.000000	97.025055
3164.000000	97.031593
3163.000000	97.039151
3162.000000	97.047175
3161.000000	97.054080
3160.000000	97.059241
3159.000000	97.063719
3158.000000	97.068967
3157.000000	97.075265
3156.000000	97.081730
3155.000000	97.087504
3154.000000	97.092574
3153.000000	97.097548
3152.000000	97.102977
3151.000000	97.109052
3150.000000	97.115866
3149.000000	97.123687
3148.000000	97.132668
3147.000000	97.142315
3146.000000	97.151558
3145.000000	97.159659
3144.000000	97.166925
3143.000000	97.174300
3142.000000	97.182277
3141.000000	97.190377
3140.000000	97.197721
3139.000000	97.203896
3138.000000	97.209185
3137.000000	97.214197
3136.000000	97.219438
3135.000000	97.225179
3134.000000	97.231540
3133.000000	97.238524
3132.000000	97.245916
3131.000000	97.253143
3130.000000	97.259502
3129.000000	97.264749
3128.000000	97.269540
3127.000000	97.275082
3126.000000	97.281998
3125.000000	97.289923
3124.000000	97.297940
3123.000000	97.305460
3122.000000	97.312518
3121.000000	97.319314
3120.000000	97.325877
3119.000000	97.332164
3118.000000	97.338297
3117.000000	97.344563
3116.000000	97.351222
3115.000000	97.358305
3114.000000	97.365534
3113.000000	97.372472
3112.000000	97.378896
3111.000000	97.384989
3110.000000	97.391165
3109.000000	97.397696
3108.000000	97.404563
3107.000000	97.411609
3106.000000	97.418654
3105.000000	97.425493
3104.000000	97.431900
3103.000000	97.437818
3102.000000	97.443481
3101.000000	97.449222
3100.000000	97.455109
3099.000000	97.460908
3098.000000	97.466472
3097.000000	97.472089
3096.000000	97.478311
3095.000000	97.485415
3094.000000	97.493119
3093.000000	97.500900
3092.000000	97.508560
3091.000000	97.516168
3090.000000	97.523407
3089.000000	97.529460
3088.000000	97.533913
3087.000000	97.537578
3086.000000	97.542017
3085.000000	97.547993
3084.000000	97.554946
3083.000000	97.561785
3082.000000	97.567860
3081.000000	97.573162
3080.000000	97.578026
3079.000000	97.582891
3078.000000	97.587921
3077.000000	97.592740
3076.000000	97.596945
3075.000000	97.601006
3074.000000	97.606163
3073.000000	97.613135
3072.000000	97.621347
3071.000000	97.629617
3070.000000	97.637244
3069.000000	97.644147
3068.000000	97.650463
3067.000000	97.656496
3066.000000	97.662693
3065.000000	97.669128
3064.000000	97.675208
3063.000000	97.680374
3062.000000	97.684851
3061.000000	97.689225
3060.000000	97.693471
3059.000000	97.696954
3058.000000	97.699382
3057.000000	97.701373
3056.000000	97.704089
3055.000000	97.708500
3054.000000	97.714886
3053.000000	97.722636
3052.000000	97.730555
3051.000000	97.737816
3050.000000	97.744434
3049.000000	97.750533
3048.000000	97.755564
3047.000000	97.758907
3046.000000	97.761073
3045.000000	97.763590
3044.000000	97.767340
3043.000000	97.771768
3042.000000	97.776067
3041.000000	97.780464
3040.000000	97.785845
3039.000000	97.792559
3038.000000	97.800017
3037.000000	97.807116
3036.000000	97.812694
3035.000000	97.815887
3034.000000	97.816912
3033.000000	97.817439
3032.000000	97.819498
3031.000000	97.823847
3030.000000	97.829642
3029.000000	97.835629
3028.000000	97.841374
3027.000000	97.847216
3026.000000	97.853367
3025.000000	97.859427
3024.000000	97.864812
3023.000000	97.869520
3022.000000	97.874237
3021.000000	97.879477
3020.000000	97.884757
3019.000000	97.889082
3018.000000	97.892288
3017.000000	97.895375
3016.000000	97.899155
3015.000000	97.903099
3014.000000	97.906077
3013.000000	97.907848
3012.000000	97.909156
3011.000000	97.910523
3010.000000	97.911587
3009.000000	97.911894
3008.000000	97.912003
3007.000000	97.913625
3006.000000	97.918558
3005.000000	97.927030
3004.000000	97.936727
3003.000000	97.944255
3002.000000	97.948309
3001.000000	97.950763
3000.000000	97.953766
2999.000000	97.956519
2998.000000	97.956715
2997.000000	97.955229
2996.000000	97.957032
2995.000000	97.965958
2994.000000	97.980046
2993.000000	97.993301
2992.000000	98.001779
2991.000000	98.006329
2990.000000	98.009674
2989.000000	98.013392
2988.000000	98.018417
2987.000000	98.026182
2986.000000	98.037304
2985.000000	98.049985
2984.000000	98.061541
2983.000000	98.071454
2982.000000	98.081468
2981.000000	98.092723
2980.000000	98.104192
2979.000000	98.114341
2978.000000	98.123114
2977.000000	98.131653
2976.000000	98.140888
2975.000000	98.150914
2974.000000	98.160889
2973.000000	98.168928
2972.000000	98.173167
2971.000000	98.174132
2970.000000	98.175676
2969.000000	98.182121
2968.000000	98.194083
2967.000000	98.207602
2966.000000	98.217636
2965.000000	98.222154
2964.000000	98.223190
2963.000000	98.224970
2962.000000	98.231113
2961.000000	98.242461
2960.000000	98.256402
2959.000000	98.268504
2958.000000	98.275848
2957.000000	98.278964
2956.000000	98.280387
2955.000000	98.281812
2954.000000	98.283258
2953.000000	98.284700
2952.000000	98.287158
2951.000000	98.291579
2950.000000	98.297413
2949.000000	98.303223
2948.000000	98.308469
2947.000000	98.313889
2946.000000	98.319975
2945.000000	98.326071
2944.000000	98.331735
2943.000000	98.338397
2942.000000	98.348451
2941.000000	98.362341
2940.000000	98.377229
2939.000000	98.389189
2938.000000	98.396803
2937.000000	98.402558
2936.000000	98.410872
2935.000000	98.424564
2934.000000	98.442796
2933.000000	98.462367
2932.000000	98.481385
2931.000000	98.501523
2930.000000	98.525836
2929.000000	98.554219
2928.000000	98.581862
2927.000000	98.602960
2926.000000	98.615422
2925.000000	98.621874
2924.000000	98.626942
2923.000000	98.634423
2922.000000	98.646284
2921.000000	98.662376
2920.000000	98.680059
2919.000000	98.694584
2918.000000	98.700873
2917.000000	98.695801
2916.000000	98.679657
2915.000000	98.656137
2914.000000	98.630682
2913.000000	98.607775
2912.000000	98.588676
2911.000000	98.571283
2910.000000	98.552334
2909.000000	98.530697
2908.000000	98.509258
2907.000000	98.493090
2906.000000	98.484994
2905.000000	98.482947
2904.000000	98.482798
2903.000000	98.483151
2902.000000	98.486120
2901.000000	98.492587
2900.000000	98.498960
2899.000000	98.499677
2898.000000	98.492920
2897.000000	98.482451
2896.000000	98.473958
2895.000000	98.470360
2894.000000	98.470431
2893.000000	98.471097
2892.000000	98.470992
2891.000000	98.472123
2890.000000	98.477463
2889.000000	98.486494
2888.000000	98.494054
2887.000000	98.494929
2886.000000	98.489010
2885.000000	98.480795
2884.000000	98.474478
2883.000000	98.471458
2882.000000	98.472382
2881.000000	98.478737
2880.000000	98.490629
2879.000000	98.504480
2878.000000	98.515397
2877.000000	98.522228
2876.000000	98.528684
2875.000000	98.538466
2874.000000	98.549903
2873.000000	98.556727
2872.000000	98.554787
2871.000000	98.547378
2870.000000	98.542748
2869.000000	98.546192
2868.000000	98.555785
2867.000000	98.566076
2866.000000	98.574233
2865.000000	98.581043
2864.000000	98.587469
2863.000000	98.593294
2862.000000	98.599272
2861.000000	98.607666
2860.000000	98.619156
2859.000000	98.631022
2858.000000	98.639912
2857.000000	98.645392
2856.000000	98.649923
2855.000000	98.656506
2854.000000	98.667219
2853.000000	98.682360
2852.000000	98.699235
2851.000000	98.712557
2850.000000	98.717725
2849.000000	98.713906
2848.000000	98.703672
2847.000000	98.690422
2846.000000	98.676711
2845.000000	98.664055
2844.000000	98.652900
2843.000000	98.643011
2842.000000	98.634526
2841.000000	98.627955
2840.000000	98.622417
2839.000000	98.615238
2838.000000	98.605008
2837.000000	98.594359
2836.000000	98.587615
2835.000000	98.585827
2834.000000	98.585958
2833.000000	98.585038
2832.000000	98.583275
2831.000000	98.582436
2830.000000	98.583078
2829.000000	98.584565
2828.000000	98.586391
2827.000000	98.588081
2826.000000	98.588686
2825.000000	98.588108
2824.000000	98.588524
2823.000000	98.592635
2822.000000	98.600184
2821.000000	98.607426
2820.000000	98.610675
2819.000000	98.609618
2818.000000	98.606768
2817.000000	98.604800
2816.000000	98.605401
2815.000000	98.609617
2814.000000	98.617176
2813.000000	98.625174
2812.000000	98.629522
2811.000000	98.629218
2810.000000	98.628247
2809.000000	98.631484
2808.000000	98.639204
2807.000000	98.647181
2806.000000	98.652149
2805.000000	98.655471
2804.000000	98.660582
2803.000000	98.668313
2802.000000	98.675980
2801.000000	98.680482
2800.000000	98.681137
2799.000000	98.679810
2798.000000	98.679332
2797.000000	98.681561
2796.000000	98.685990
2795.000000	98.690147
2794.000000	98.692062
2793.000000	98.692446
2792.000000	98.693826
2791.000000	98.697531
2790.000000	98.702336
2789.000000	98.706288
2788.000000	98.708962
2787.000000	98.711335
2786.000000	98.714006
2785.000000	98.716399
2784.000000	98.717762
2783.000000	98.718379
2782.000000	98.719424
2781.000000	98.721681
2780.000000	98.724638
2779.000000	98.726926
2778.000000	98.727730
2777.000000	98.727742
2776.000000	98.728628
2775.000000	98.731451
2774.000000	98.735824
2773.000000	98.740506
2772.000000	98.744661
2771.000000	98.748384
2770.000000	98.752049
2769.000000	98.755381
2768.000000	98.757507
2767.000000	98.757929
2766.000000	98.757226
2765.000000	98.756785
2764.000000	98.757733
2763.000000	98.760307
2762.000000	98.764106
2761.000000	98.768536
2760.000000	98.772976
2759.000000	98.776956
2758.000000	98.780520
2757.000000	98.784195
2756.000000	98.788234
2755.000000	98.791953
2754.000000	98.794317
2753.000000	98.795177
2752.000000	98.795513
2751.000000	98.796353
2750.000000	98.797799
2749.000000	98.799402
2748.000000	98.801047
2747.000000	98.803054
2746.000000	98.805528
2745.000000	98.808016
2744.000000	98.809934
2743.000000	98.811195
2742.000000	98.812300
2741.000000	98.813862
2740.000000	98.816023
2739.000000	98.818393
2738.000000	98.820507
2737.000000	98.822305
2736.000000	98.824091
2735.000000	98.826090
2734.000000	98.828171
2733.000000	98.830037
2732.000000	98.831615
2731.000000	98.833125
2730.000000	98.834845
2729.000000	98.836854
2728.000000	98.839001
2727.000000	98.841026
2726.000000	98.842782
2725.000000	98.844297
2724.000000	98.845722
2723.000000	98.847211
2722.000000	98.848812
2721.000000	98.850469
2720.000000	98.852074
2719.000000	98.853551
2718.000000	98.854909
2717.000000	98.856240
2716.000000	98.857623
2715.000000	98.859027
2714.000000	98.860337
2713.000000	98.861486
2712.000000	98.862583
2711.000000	98.863865
2710.000000	98.865519
2709.000000	98.867564
2708.000000	98.869788
2707.000000	98.871788
2706.000000	98.873213
2705.000000	98.874068
2704.000000	98.874772
2703.000000	98.875721
2702.000000	98.876836
2701.000000	98.877740
2700.000000	98.878387
2699.000000	98.879275
2698.000000	98.880905
2697.000000	98.883185
2696.000000	98.885467
2695.000000	98.887076
2694.000000	98.887779
2693.000000	98.887895
2692.000000	98.888196
2691.000000	98.889404
2690.000000	98.891459
2689.000000	98.893335
2688.000000	98.894060
2687.000000	98.893845
2686.000000	98.893963
2685.000000	98.895227
2684.000000	98.897004
2683.000000	98.898004
2682.000000	98.897733
2681.000000	98.896705
2680.000000	98.895670
2679.000000	98.895060
2678.000000	98.895043
2677.000000	98.895584
2676.000000	98.896268
2675.000000	98.896523
2674.000000	98.896323
2673.000000	98.896399
2672.000000	98.897457
2671.000000	98.899404
2670.000000	98.901479
2669.000000	98.903016
2668.000000	98.903940
2667.000000	98.904546
2666.000000	98.905105
2665.000000	98.905678
2664.000000	98.906185
2663.000000	98.906574
2662.000000	98.906924
2661.000000	98.907425
2660.000000	98.908220
2659.000000	98.909271
2658.000000	98.910364
2657.000000	98.911237
2656.000000	98.911787
2655.000000	98.912115
2654.000000	98.912429
2653.000000	98.912860
2652.000000	98.913377
2651.000000	98.913888
2650.000000	98.914341
2649.000000	98.914761
2648.000000	98.915191
2647.000000	98.915628
2646.000000	98.916040
2645.000000	98.916404
2644.000000	98.916728
2643.000000	98.917033
2642.000000	98.917336
2641.000000	98.917646
2640.000000	98.917970
2639.000000	98.918304
2638.000000	98.918632
2637.000000	98.918942
2636.000000	98.919234
2635.000000	98.919514
2634.000000	98.919787
2633.000000	98.920049
2632.000000	98.920294
2631.000000	98.920514
2630.000000	98.920703
2629.000000	98.920857
2628.000000	98.920981
2627.000000	98.921087
2626.000000	98.921193
2625.000000	98.921313
2624.000000	98.921454
2623.000000	98.921614
2622.000000	98.921785
2621.000000	98.921956
2620.000000	98.922111
2619.000000	98.922236
2618.000000	98.922327
2617.000000	98.922387
2616.000000	98.922434
2615.000000	98.922486
2614.000000	98.922560
2613.000000	98.922666
2612.000000	98.922810
2611.000000	98.922994
2610.000000	98.923217
2609.000000	98.923469
2608.000000	98.923739
2607.000000	98.924015
2606.000000	98.924296
2605.000000	98.924589
2604.000000	98.924907
2603.000000	98.925258
2602.000000	98.925641
2601.000000	98.926046
2600.000000	98.926463
2599.000000	98.926882
2598.000000	98.927297
2597.000000	98.927711
2596.000000	98.928135
2595.000000	98.928582
2594.000000	98.929059
2593.000000	98.929566
2592.000000	98.930098
2591.000000	98.930647
2590.000000	98.931208
2589.000000	98.931775
2588.000000	98.932345
2587.000000	98.932916
2586.000000	98.933492
2585.000000	98.934073
2584.000000	98.934651
2583.000000	98.935220
2582.000000	98.935776
2581.000000	98.936325
2580.000000	98.936870
2579.000000	98.937408
2578.000000	98.937941
2577.000000	98.938476
2576.000000	98.939032
2575.000000	98.939626
2574.000000	98.940264
2573.000000	98.940939
2572.000000	98.941634
2571.000000	98.942330
2570.000000	98.943011
2569.000000	98.943675
2568.000000	98.944324
2567.000000	98.944970
2566.000000	98.945626
2565.000000	98.946305
2564.000000	98.947011
2563.000000	98.947741
2562.000000	98.948483
2561.000000	98.949227
2560.000000	98.949969
2559.000000	98.950710
2558.000000	98.951456
2557.000000	98.952212
2556.000000	98.952984
2555.000000	98.953775
2554.000000	98.954582
2553.000000	98.955400
2552.000000	98.956221
2551.000000	98.957038
2550.000000	98.957844
2549.000000	98.958636
2548.000000	98.959416
2547.000000	98.960188
2546.000000	98.960958
2545.000000	98.961734
2544.000000	98.962526
2543.000000	98.963343
2542.000000	98.964198
2541.000000	98.965097
2540.000000	98.966033
2539.000000	98.966990
2538.000000	98.967956
2537.000000	98.968933
2536.000000	98.969933
2535.000000	98.970965
2534.000000	98.972026
2533.000000	98.973102
2532.000000	98.974177
2531.000000	98.975242
2530.000000	98.976303
2529.000000	98.977370
2528.000000	98.978457
2527.000000	98.979565
2526.000000	98.980691
2525.000000	98.981827
2524.000000	98.982966
2523.000000	98.984104
2522.000000	98.985239
2521.000000	98.986375
2520.000000	98.987522
2519.000000	98.988690
2518.000000	98.989889
2517.000000	98.991124
2516.000000	98.992397
2515.000000	98.993709
2514.000000	98.995059
2513.000000	98.996444
2512.000000	98.997858
2511.000000	98.999290
2510.000000	99.000731
2509.000000	99.002182
2508.000000	99.003653
2507.000000	99.005156
2506.000000	99.006700
2505.000000	99.008285
2504.000000	99.009909
2503.000000	99.011568
2502.000000	99.013253
2501.000000	99.014963
2500.000000	99.016698
2499.000000	99.018440
2498.000000	99.020138
2497.000000	99.021739
2496.000000	99.023251
2495.000000	99.024766
2494.000000	99.026378
2493.000000	99.028156
2492.000000	99.030125
2491.000000	99.032208
2490.000000	99.034232
2489.000000	99.036046
2488.000000	99.037629
2487.000000	99.039068
2486.000000	99.040452
2485.000000	99.041871
2484.000000	99.043444
2483.000000	99.045259
2482.000000	99.047323
2481.000000	99.049558
2480.000000	99.051812
2479.000000	99.053904
2478.000000	99.055753
2477.000000	99.057535
2476.000000	99.059542
2475.000000	99.061833
2474.000000	99.064124
2473.000000	99.066093
2472.000000	99.067688
2471.000000	99.069055
2470.000000	99.070332
2469.000000	99.071619
2468.000000	99.073021
2467.000000	99.074537
2466.000000	99.076048
2465.000000	99.077494
2464.000000	99.078943
2463.000000	99.080439
2462.000000	99.081913
2461.000000	99.083300
2460.000000	99.084625
2459.000000	99.085950
2458.000000	99.087289
2457.000000	99.088626
2456.000000	99.089952
2455.000000	99.091265
2454.000000	99.092558
2453.000000	99.093828
2452.000000	99.095075
2451.000000	99.096304
2450.000000	99.097520
2449.000000	99.098727
2448.000000	99.099929
2447.000000	99.101131
2446.000000	99.102336
2445.000000	99.103543
2444.000000	99.104743
2443.000000	99.105921
2442.000000	99.107070
2441.000000	99.108189
2440.000000	99.109291
2439.000000	99.110384
2438.000000	99.111469
2437.000000	99.112539
2436.000000	99.113587
2435.000000	99.114615
2434.000000	99.115627
2433.000000	99.116629
2432.000000	99.117628
2431.000000	99.118629
2430.000000	99.119633
2429.000000	99.120641
2428.000000	99.121643
2427.000000	99.122631
2426.000000	99.123598
2425.000000	99.124543
2424.000000	99.125474
2423.000000	99.126401
2422.000000	99.127329
2421.000000	99.128253
2420.000000	99.129175
2419.000000	99.130111
2418.000000	99.131062
2417.000000	99.132005
2416.000000	99.132928
2415.000000	99.133858
2414.000000	99.134814
2413.000000	99.135746
2412.000000	99.136580
2411.000000	99.137320
2410.000000	99.138031
2409.000000	99.138768
2408.000000	99.139586
2407.000000	99.140531
2406.000000	99.141590
2405.000000	99.142634
2404.000000	99.143486
2403.000000	99.144049
2402.000000	99.144381
2401.000000	99.144667
2400.000000	99.145079
2399.000000	99.145545
2398.000000	99.145805
2397.000000	99.145784
2396.000000	99.145802
2395.000000	99.146255
2394.000000	99.147184
2393.000000	99.148237
2392.000000	99.149017
2391.000000	99.149429
2390.000000	99.149582
2389.000000	99.149572
2388.000000	99.149445
2387.000000	99.149268
2386.000000	99.149147
2385.000000	99.149199
2384.000000	99.149528
2383.000000	99.150151
2382.000000	99.150884
2381.000000	99.151418
2380.000000	99.151566
2379.000000	99.151401
2378.000000	99.151128
2377.000000	99.150898
2376.000000	99.150783
2375.000000	99.150787
2374.000000	99.150770
2373.000000	99.150507
2372.000000	99.149967
2371.000000	99.149466
2370.000000	99.149398
2369.000000	99.149836
2368.000000	99.150468
2367.000000	99.150786
2366.000000	99.150454
2365.000000	99.149469
2364.000000	99.148139
2363.000000	99.146881
2362.000000	99.145866
2361.000000	99.145005
2360.000000	99.144232
2359.000000	99.143629
2358.000000	99.143240
2357.000000	99.142929
2356.000000	99.142490
2355.000000	99.141844
2354.000000	99.141045
2353.000000	99.140161
2352.000000	99.139233
2351.000000	99.138282
2350.000000	99.137314
2349.000000	99.136330
2348.000000	99.135326
2347.000000	99.134300
2346.000000	99.133249
2345.000000	99.132173
2344.000000	99.131073
2343.000000	99.129948
2342.000000	99.128802
2341.000000	99.127643
2340.000000	99.126479
2339.000000	99.125310
2338.000000	99.124128
2337.000000	99.122930
2336.000000	99.121718
2335.000000	99.120500
2334.000000	99.119279
2333.000000	99.118049
2332.000000	99.116791
2331.000000	99.115493
2330.000000	99.114154
2329.000000	99.112790
2328.000000	99.111414
2327.000000	99.110029
2326.000000	99.108628
2325.000000	99.107216
2324.000000	99.105806
2323.000000	99.104415
2322.000000	99.103052
2321.000000	99.101707
2320.000000	99.100354
2319.000000	99.098963
2318.000000	99.097519
2317.000000	99.096021
2316.000000	99.094482
2315.000000	99.092915
2314.000000	99.091327
2313.000000	99.089726
2312.000000	99.088114
2311.000000	99.086498
2310.000000	99.084879
2309.000000	99.083255
2308.000000	99.081620
2307.000000	99.079964
2306.000000	99.078285
2305.000000	99.076586
2304.000000	99.074874
2303.000000	99.073148
2302.000000	99.071399
2301.000000	99.069620
2300.000000	99.067811
2299.000000	99.065974
2298.000000	99.064116
2297.000000	99.062238
2296.000000	99.060338
2295.000000	99.058411
2294.000000	99.056469
2293.000000	99.054495
2292.000000	99.052467
2291.000000	99.050397
2290.000000	99.048324
2289.000000	99.046274
2288.000000	99.044246
2287.000000	99.042186
2286.000000	99.040008
2285.000000	99.037687
2284.000000	99.035357
2283.000000	99.033183
2282.000000	99.031188
2281.000000	99.029232
2280.000000	99.027166
2279.000000	99.024927
2278.000000	99.022540
2277.000000	99.020100
2276.000000	99.017702
2275.000000	99.015339
2274.000000	99.012894
2273.000000	99.010338
2272.000000	99.007839
2271.000000	99.005562
2270.000000	99.003483
2269.000000	99.001470
2268.000000	98.999447
2267.000000	98.997444
2266.000000	98.995538
2265.000000	98.993783
2264.000000	98.992124
2263.000000	98.990356
2262.000000	98.988290
2261.000000	98.985961
2260.000000	98.983668
2259.000000	98.981726
2258.000000	98.980169
2257.000000	98.978770
2256.000000	98.977244
2255.000000	98.975449
2254.000000	98.973417
2253.000000	98.971329
2252.000000	98.969367
2251.000000	98.967533
2250.000000	98.965661
2249.000000	98.963667
2248.000000	98.961740
2247.000000	98.960149
2246.000000	98.958919
2245.000000	98.957823
2244.000000	98.956670
2243.000000	98.955461
2242.000000	98.954240
2241.000000	98.952970
2240.000000	98.951605
2239.000000	98.950195
2238.000000	98.948865
2237.000000	98.947736
2236.000000	98.946865
2235.000000	98.946207
2234.000000	98.945598
2233.000000	98.944833
2232.000000	98.943806
2231.000000	98.942558
2230.000000	98.941239
2229.000000	98.940079
2228.000000	98.939307
2227.000000	98.938974
2226.000000	98.938819
2225.000000	98.938385
2224.000000	98.937377
2223.000000	98.935877
2222.000000	98.934346
2221.000000	98.933365
2220.000000	98.933274
2219.000000	98.933956
2218.000000	98.934878
2217.000000	98.935460
2216.000000	98.935460
2215.000000	98.935014
2214.000000	98.934463
2213.000000	98.934161
2212.000000	98.934300
2211.000000	98.934822
2210.000000	98.935499
2209.000000	98.936153
2208.000000	98.936775
2207.000000	98.937407
2206.000000	98.937979
2205.000000	98.938364
2204.000000	98.938534
2203.000000	98.938574
2202.000000	98.938555
2201.000000	98.938530
2200.000000	98.938647
2199.000000	98.939115
2198.000000	98.940001
2197.000000	98.941133
2196.000000	98.942220
2195.000000	98.943075
2194.000000	98.943694
2193.000000	98.944177
2192.000000	98.944650
2191.000000	98.945196
2190.000000	98.945853
2189.000000	98.946624
2188.000000	98.947473
2187.000000	98.948329
2186.000000	98.949137
2185.000000	98.949906
2184.000000	98.950676
2183.000000	98.951412
2182.000000	98.952003
2181.000000	98.952421
2180.000000	98.952826
2179.000000	98.953446
2178.000000	98.954383
2177.000000	98.955605
2176.000000	98.956976
2175.000000	98.958291
2174.000000	98.959319
2173.000000	98.959929
2172.000000	98.960232
2171.000000	98.960524
2170.000000	98.961021
2169.000000	98.961761
2168.000000	98.962713
2167.000000	98.963878
2166.000000	98.965188
2165.000000	98.966407
2164.000000	98.967293
2163.000000	98.967877
2162.000000	98.968489
2161.000000	98.969452
2160.000000	98.970751
2159.000000	98.972056
2158.000000	98.973050
2157.000000	98.973703
2156.000000	98.974166
2155.000000	98.974469
2154.000000	98.974539
2153.000000	98.974531
2152.000000	98.974820
2151.000000	98.975503
2150.000000	98.976340
2149.000000	98.977441
2148.000000	98.979427
2147.000000	98.982446
2146.000000	98.985541
2145.000000	98.987658
2144.000000	98.988960
2143.000000	98.990436
2142.000000	98.992519
2141.000000	98.994777
2140.000000	98.996778
2139.000000	98.998486
2138.000000	98.999849
2137.000000	99.000756
2136.000000	99.001493
2135.000000	99.002573
2134.000000	99.004097
2133.000000	99.005923
2132.000000	99.008300
2131.000000	99.011502
2130.000000	99.014986
2129.000000	99.017791
2128.000000	99.019760
2127.000000	99.021617
2126.000000	99.023846
2125.000000	99.026137
2124.000000	99.028091
2123.000000	99.029779
2122.000000	99.031413
2121.000000	99.033056
2120.000000	99.034905
2119.000000	99.037330
2118.000000	99.040347
2117.000000	99.043344
2116.000000	99.045633
2115.000000	99.047076
2114.000000	99.048006
2113.000000	99.048880
2112.000000	99.050086
2111.000000	99.051867
2110.000000	99.054209
2109.000000	99.056825
2108.000000	99.059365
2107.000000	99.061662
2106.000000	99.063657
2105.000000	99.065168
2104.000000	99.066060
2103.000000	99.066715
2102.000000	99.067992
2101.000000	99.070379
2100.000000	99.073368
2099.000000	99.075848
2098.000000	99.077177
2097.000000	99.077737
2096.000000	99.078581
2095.000000	99.080607
2094.000000	99.083947
2093.000000	99.087860
2092.000000	99.091216
2091.000000	99.093275
2090.000000	99.094100
2089.000000	99.094300
2088.000000	99.094430
2087.000000	99.094744
2086.000000	99.095567
2085.000000	99.097567
2084.000000	99.101177
2083.000000	99.105659
2082.000000	99.109247
2081.000000	99.110753
2080.000000	99.110895
2079.000000	99.111695
2078.000000	99.114656
2077.000000	99.119805
2076.000000	99.126098
2075.000000	99.132063
2074.000000	99.136214
2073.000000	99.137785
2072.000000	99.137483
2071.000000	99.137187
2070.000000	99.138553
2069.000000	99.141896
2068.000000	99.146101
2067.000000	99.149220
2066.000000	99.149583
2065.000000	99.147134
2064.000000	99.143774
2063.000000	99.141668
2062.000000	99.141230
2061.000000	99.141389
2060.000000	99.141392
2059.000000	99.141473
2058.000000	99.142006
2057.000000	99.143046
2056.000000	99.144638
2055.000000	99.146567
2054.000000	99.147783
2053.000000	99.147213
2052.000000	99.145328
2051.000000	99.143874
2050.000000	99.143690
2049.000000	99.143728
2048.000000	99.142596
2047.000000	99.140123
2046.000000	99.136887
2045.000000	99.133190
2044.000000	99.129317
2043.000000	99.126102
2042.000000	99.124335
2041.000000	99.123776
2040.000000	99.123174
2039.000000	99.121078
2038.000000	99.116714
2037.000000	99.110794
2036.000000	99.105612
2035.000000	99.103449
2034.000000	99.104430
2033.000000	99.106516
2032.000000	99.107733
2031.000000	99.107737
2030.000000	99.107046
2029.000000	99.105950
2028.000000	99.104689
2027.000000	99.103727
2026.000000	99.102950
2025.000000	99.101359
2024.000000	99.098345
2023.000000	99.094794
2022.000000	99.092104
2021.000000	99.090415
2020.000000	99.088693
2019.000000	99.086246
2018.000000	99.083222
2017.000000	99.079831
2016.000000	99.076078
2015.000000	99.072362
2014.000000	99.069474
2013.000000	99.067667
2012.000000	99.066209
2011.000000	99.064158
2010.000000	99.061353
2009.000000	99.058433
2008.000000	99.056108
2007.000000	99.054572
2006.000000	99.053464
2005.000000	99.052195
2004.000000	99.050363
2003.000000	99.048023
2002.000000	99.045526
2001.000000	99.043051
2000.000000	99.040389
1999.000000	99.037277
1998.000000	99.034011
1997.000000	99.031444
1996.000000	99.030167
1995.000000	99.029954
1994.000000	99.029980
1993.000000	99.029488
1992.000000	99.028228
1991.000000	99.026377
1990.000000	99.024208
1989.000000	99.021802
1988.000000	99.019074
1987.000000	99.016052
1986.000000	99.013098
1985.000000	99.010741
1984.000000	99.009218
1983.000000	99.008270
1982.000000	99.007357
1981.000000	99.006095
1980.000000	99.004468
1979.000000	99.002717
1978.000000	99.001179
1977.000000	99.000081
1976.000000	98.999314
1975.000000	98.998425
1974.000000	98.996997
1973.000000	98.995044
1972.000000	98.992991
1971.000000	98.991267
1970.000000	98.989931
1969.000000	98.988685
1968.000000	98.987166
1967.000000	98.985293
1966.000000	98.983372
1965.000000	98.981731
1964.000000	98.980286
1963.000000	98.978672
1962.000000	98.976781
1961.000000	98.974995
1960.000000	98.973702
1959.000000	98.972729
1958.000000	98.971486
1957.000000	98.969593
1956.000000	98.967148
1955.000000	98.964540
1954.000000	98.962403
1953.000000	98.961555
1952.000000	98.962364
1951.000000	98.964053
1950.000000	98.964900
1949.000000	98.963721
1948.000000	98.960948
1947.000000	98.957910
1946.000000	98.955232
1945.000000	98.952493
1944.000000	98.949319
1943.000000	98.946194
1942.000000	98.943936
1941.000000	98.942544
1940.000000	98.940942
1939.000000	98.938231
1938.000000	98.934838
1937.000000	98.932140
1936.000000	98.931012
1935.000000	98.931019
1934.000000	98.930989
1933.000000	98.929790
1932.000000	98.926616
1931.000000	98.921426
1930.000000	98.915196
1929.000000	98.909578
1928.000000	98.905568
1927.000000	98.902295
1926.000000	98.898328
1925.000000	98.893870
1924.000000	98.891244
1923.000000	98.892049
1922.000000	98.894553
1921.000000	98.895470
1920.000000	98.893503
1919.000000	98.889441
1918.000000	98.884078
1917.000000	98.877874
1916.000000	98.871985
1915.000000	98.867465
1914.000000	98.864001
1913.000000	98.860062
1912.000000	98.854509
1911.000000	98.847708
1910.000000	98.840712
1909.000000	98.834275
1908.000000	98.828368
1907.000000	98.822011
1906.000000	98.814380
1905.000000	98.805870
1904.000000	98.798308
1903.000000	98.792713
1902.000000	98.787600
1901.000000	98.781474
1900.000000	98.775512
1899.000000	98.771696
1898.000000	98.769523
1897.000000	98.766018
1896.000000	98.759786
1895.000000	98.753175
1894.000000	98.749066
1893.000000	98.747083
1892.000000	98.744221
1891.000000	98.738279
1890.000000	98.730221
1889.000000	98.723687
1888.000000	98.721433
1887.000000	98.722252
1886.000000	98.722592
1885.000000	98.719989
1884.000000	98.714356
1883.000000	98.707204
1882.000000	98.700866
1881.000000	98.698494
1880.000000	98.701887
1879.000000	98.708676
1878.000000	98.714303
1877.000000	98.716921
1876.000000	98.718351
1875.000000	98.719864
1874.000000	98.719226
1873.000000	98.713829
1872.000000	98.705170
1871.000000	98.697772
1870.000000	98.694548
1869.000000	98.695253
1868.000000	98.699409
1867.000000	98.706876
1866.000000	98.715612
1865.000000	98.723339
1864.000000	98.729901
1863.000000	98.736015
1862.000000	98.741112
1861.000000	98.744214
1860.000000	98.746170
1859.000000	98.748655
1858.000000	98.751513
1857.000000	98.753570
1856.000000	98.755636
1855.000000	98.759987
1854.000000	98.767156
1853.000000	98.775398
1852.000000	98.782879
1851.000000	98.788396
1850.000000	98.791887
1849.000000	98.794671
1848.000000	98.798531
1847.000000	98.803512
1846.000000	98.807268
1845.000000	98.807642
1844.000000	98.806373
1843.000000	98.807962
1842.000000	98.813003
1841.000000	98.818420
1840.000000	98.822035
1839.000000	98.823556
1838.000000	98.824099
1837.000000	98.825468
1836.000000	98.828972
1835.000000	98.833484
1834.000000	98.835826
1833.000000	98.834237
1832.000000	98.830198
1831.000000	98.826844
1830.000000	98.826428
1829.000000	98.828941
1828.000000	98.832664
1827.000000	98.835756
1826.000000	98.837153
1825.000000	98.836626
1824.000000	98.835525
1823.000000	98.836045
1822.000000	98.838757
1821.000000	98.842202
1820.000000	98.844720
1819.000000	98.846333
1818.000000	98.848117
1817.000000	98.850264
1816.000000	98.852416
1815.000000	98.854755
1814.000000	98.857494
1813.000000	98.860189
1812.000000	98.862289
1811.000000	98.864201
1810.000000	98.866313
1809.000000	98.867870
1808.000000	98.868319
1807.000000	98.868378
1806.000000	98.869143
1805.000000	98.871024
1804.000000	98.873905
1803.000000	98.877505
1802.000000	98.881191
1801.000000	98.884213
1800.000000	98.886417
1799.000000	98.888477
1798.000000	98.890892
1797.000000	98.893509
1796.000000	98.896058
1795.000000	98.898539
1794.000000	98.901074
1793.000000	98.903711
1792.000000	98.906543
1791.000000	98.909909
1790.000000	98.913752
1789.000000	98.917457
1788.000000	98.920710
1787.000000	98.923908
1786.000000	98.927681
1785.000000	98.932087
1784.000000	98.936495
1783.000000	98.940259
1782.000000	98.943355
1781.000000	98.946616
1780.000000	98.950997
1779.000000	98.957035
1778.000000	98.964125
1777.000000	98.970346
1776.000000	98.973247
1775.000000	98.971479
1774.000000	98.967290
1773.000000	98.966459
1772.000000	98.972664
1771.000000	98.982736
1770.000000	98.990428
1769.000000	98.993153
1768.000000	98.993600
1767.000000	98.996480
1766.000000	99.003324
1765.000000	99.011147
1764.000000	99.015670
1763.000000	99.014685
1762.000000	99.010703
1761.000000	99.010419
1760.000000	99.017079
1759.000000	99.027866
1758.000000	99.037869
1757.000000	99.045009
1756.000000	99.051396
1755.000000	99.060257
1754.000000	99.072601
1753.000000	99.086559
1752.000000	99.097142
1751.000000	99.099035
1750.000000	99.093877
1749.000000	99.089027
1748.000000	99.090020
1747.000000	99.096791
1746.000000	99.106056
1745.000000	99.114521
1744.000000	99.119722
1743.000000	99.121712
1742.000000	99.122237
1741.000000	99.121576
1740.000000	99.118490
1739.000000	99.114438
1738.000000	99.111728
1737.000000	99.109375
1736.000000	99.106660
1735.000000	99.104016
1734.000000	99.099367
1733.000000	99.092285
1732.000000	99.081250
1731.000000	99.065686
1730.000000	99.051415
1729.000000	99.043494
1728.000000	99.039548
1727.000000	99.032919
1726.000000	99.021473
1725.000000	99.009067
1724.000000	98.999980
1723.000000	98.994988
1722.000000	98.989695
1721.000000	98.978616
1720.000000	98.961669
1719.000000	98.945680
1718.000000	98.937949
1717.000000	98.936160
1716.000000	98.933168
1715.000000	98.927057
1714.000000	98.918874
1713.000000	98.909186
1712.000000	98.899376
1711.000000	98.890926
1710.000000	98.882914
1709.000000	98.871969
1708.000000	98.855606
1707.000000	98.835230
1706.000000	98.813679
1705.000000	98.791457
1704.000000	98.768054
1703.000000	98.743105
1702.000000	98.717568
1701.000000	98.693441
1700.000000	98.674313
1699.000000	98.665039
1698.000000	98.657630
1697.000000	98.642460
1696.000000	98.621382
1695.000000	98.605264
1694.000000	98.596868
1693.000000	98.588202
1692.000000	98.575756
1691.000000	98.560749
1690.000000	98.544300
1689.000000	98.527392
1688.000000	98.511478
1687.000000	98.497441
1686.000000	98.485027
1685.000000	98.469249
1684.000000	98.444333
1683.000000	98.417674
1682.000000	98.394228
1681.000000	98.371992
1680.000000	98.352121
1679.000000	98.335490
1678.000000	98.319295
1677.000000	98.300261
1676.000000	98.279029
1675.000000	98.260766
1674.000000	98.249825
1673.000000	98.242164
1672.000000	98.230084
1671.000000	98.210659
1670.000000	98.185042
1669.000000	98.160825
1668.000000	98.145652
1667.000000	98.135717
1666.000000	98.122556
1665.000000	98.102281
1664.000000	98.077478
1663.000000	98.054788
1662.000000	98.038118
1661.000000	98.025566
1660.000000	98.012445
1659.000000	97.996408
1658.000000	97.977477
1657.000000	97.955548
1656.000000	97.930288
1655.000000	97.902117
1654.000000	97.869296
1653.000000	97.835958
1652.000000	97.831631
1651.000000	97.847859
1650.000000	97.858333
1649.000000	97.859183
1648.000000	97.851006
1647.000000	97.833397
1646.000000	97.816194
1645.000000	97.808495
1644.000000	97.804430
1643.000000	97.797556
1642.000000	97.787051
1641.000000	97.774807
1640.000000	97.763695
1639.000000	97.756990
1638.000000	97.756618
1637.000000	97.759997
1636.000000	97.761251
1635.000000	97.762832
1634.000000	97.774840
1633.000000	97.793159
1632.000000	97.809983
1631.000000	97.822769
1630.000000	97.831906
1629.000000	97.840369
1628.000000	97.852782
1627.000000	97.870606
1626.000000	97.890527
1625.000000	97.909974
1624.000000	97.930250
1623.000000	97.954897
1622.000000	97.985515
1621.000000	98.019049
1620.000000	98.049621
1619.000000	98.074278
1618.000000	98.094371
1617.000000	98.114961
1616.000000	98.143872
1615.000000	98.180087
1614.000000	98.214440
1613.000000	98.243512
1612.000000	98.268704
1611.000000	98.290665
1610.000000	98.311195
1609.000000	98.336086
1608.000000	98.367572
1607.000000	98.397972
1606.000000	98.418929
1605.000000	98.432846
1604.000000	98.446894
1603.000000	98.463249
1602.000000	98.480817
1601.000000	98.500325
1600.000000	98.521539
1599.000000	98.539148
1598.000000	98.548351
1597.000000	98.552003
1596.000000	98.557665
1595.000000	98.569197
1594.000000	98.584444
1593.000000	98.600853
1592.000000	98.618417
1591.000000	98.637043
1590.000000	98.654924
1589.000000	98.670181
1588.000000	98.681356
1587.000000	98.687476
1586.000000	98.690463
1585.000000	98.695658
1584.000000	98.705415
1583.000000	98.714237
1582.000000	98.716710
1581.000000	98.715143
1580.000000	98.714548
1579.000000	98.715056
1578.000000	98.715597
1577.000000	98.719459
1576.000000	98.730983
1575.000000	98.746012
1574.000000	98.754966
1573.000000	98.757171
1572.000000	98.759222
1571.000000	98.764881
1570.000000	98.770382
1569.000000	98.773121
1568.000000	98.776478
1567.000000	98.781120
1566.000000	98.786720
1565.000000	98.794154
1564.000000	98.802588
1563.000000	98.808164
1562.000000	98.809587
1561.000000	98.812339
1560.000000	98.823902
1559.000000	98.833220
1558.000000	98.832497
1557.000000	98.833816
1556.000000	98.835732
1555.000000	98.836464
1554.000000	98.838189
1553.000000	98.843101
1552.000000	98.849417
1551.000000	98.854184
1550.000000	98.856543
1549.000000	98.858015
1548.000000	98.860720
1547.000000	98.865065
1546.000000	98.870752
1545.000000	98.876686
1544.000000	98.880825
1543.000000	98.882088
1542.000000	98.883012
1541.000000	98.888016
1540.000000	98.898796
1539.000000	98.911057
1538.000000	98.916392
1537.000000	98.910255
1536.000000	98.896030
1535.000000	98.880275
1534.000000	98.868539
1533.000000	98.863786
1532.000000	98.864706
1531.000000	98.866969
1530.000000	98.867505
1529.000000	98.866533
1528.000000	98.866607
1527.000000	98.869195
1526.000000	98.872213
1525.000000	98.872279
1524.000000	98.869496
1523.000000	98.868355
1522.000000	98.872094
1521.000000	98.877882
1520.000000	98.881264
1519.000000	98.881369
1518.000000	98.882045
1517.000000	98.887442
1516.000000	98.897159
1515.000000	98.907126
1514.000000	98.914159
1513.000000	98.918591
1512.000000	98.921785
1511.000000	98.924977
1510.000000	98.928708
1509.000000	98.933099
1508.000000	98.937202
1507.000000	98.938470
1506.000000	98.939187
1505.000000	98.943040
1504.000000	98.945832
1503.000000	98.947027
1502.000000	98.950302
1501.000000	98.956489
1500.000000	98.961875
1499.000000	98.963587
1498.000000	98.964657
1497.000000	98.968513
1496.000000	98.973438
1495.000000	98.976795
1494.000000	98.977114
1493.000000	98.974308
1492.000000	98.970183
1491.000000	98.967837
1490.000000	98.969202
1489.000000	98.972844
1488.000000	98.976845
1487.000000	98.982799
1486.000000	98.990395
1485.000000	98.996662
1484.000000	99.000453
1483.000000	99.002352
1482.000000	99.004086
1481.000000	99.005752
1480.000000	99.006999
1479.000000	99.009497
1478.000000	99.016507
1477.000000	99.029131
1476.000000	99.045276
1475.000000	99.063229
1474.000000	99.081447
1473.000000	99.096798
1472.000000	99.106478
1471.000000	99.113333
1470.000000	99.118688
1469.000000	99.120574
1468.000000	99.118876
1467.000000	99.117558
1466.000000	99.121561
1465.000000	99.131318
1464.000000	99.141815
1463.000000	99.148002
1462.000000	99.148508
1461.000000	99.144953
1460.000000	99.142054
1459.000000	99.144885
1458.000000	99.152842
1457.000000	99.155274
1456.000000	99.147844
1455.000000	99.137464
1454.000000	99.128869
1453.000000	99.123301
1452.000000	99.117862
1451.000000	99.109409
1450.000000	99.098251
1449.000000	99.085979
1448.000000	99.073493
1447.000000	99.063391
1446.000000	99.058051
1445.000000	99.056093
1444.000000	99.053096
1443.000000	99.047824
1442.000000	99.043644
1441.000000	99.042854
1440.000000	99.042607
1439.000000	99.039186
1438.000000	99.034186
1437.000000	99.031387
1436.000000	99.031696
1435.000000	99.032428
1434.000000	99.030282
1433.000000	99.023941
1432.000000	99.014832
1431.000000	99.005924
1430.000000	99.001085
1429.000000	99.001121
1428.000000	99.001978
1427.000000	98.999832
1426.000000	98.996008
1425.000000	98.996169
1424.000000	99.001554
1423.000000	99.007002
1422.000000	99.009026
1421.000000	99.009399
1420.000000	99.009835
1419.000000	99.008021
1418.000000	99.004874
1417.000000	99.003000
1416.000000	99.001695
1415.000000	99.000603
1414.000000	99.000645
1413.000000	99.002262
1412.000000	99.004026
1411.000000	99.004278
1410.000000	99.003876
1409.000000	99.004968
1408.000000	99.008795
1407.000000	99.015576
1406.000000	99.023862
1405.000000	99.031536
1404.000000	99.036711
1403.000000	99.039641
1402.000000	99.042762
1401.000000	99.048004
1400.000000	99.055080
1399.000000	99.061649
1398.000000	99.066504
1397.000000	99.070075
1396.000000	99.073253
1395.000000	99.077373
1394.000000	99.084182
1393.000000	99.093639
1392.000000	99.101681
1391.000000	99.105106
1390.000000	99.104809
1389.000000	99.103785
1388.000000	99.104055
1387.000000	99.106140
1386.000000	99.110091
1385.000000	99.115480
1384.000000	99.120620
1383.000000	99.123315
1382.000000	99.122747
1381.000000	99.120454
1380.000000	99.119627
1379.000000	99.122400
1378.000000	99.127945
1377.000000	99.133392
1376.000000	99.136377
1375.000000	99.136405
1374.000000	99.134896
1373.000000	99.133864
1372.000000	99.133422
1371.000000	99.132374
1370.000000	99.130638
1369.000000	99.130258
1368.000000	99.132905
1367.000000	99.137511
1366.000000	99.141209
1365.000000	99.142079
1364.000000	99.140464
1363.000000	99.138525
1362.000000	99.138394
1361.000000	99.140270
1360.000000	99.142624
1359.000000	99.144177
1358.000000	99.144815
1357.000000	99.144978
1356.000000	99.144844
1355.000000	99.144647
1354.000000	99.145150
1353.000000	99.146719
1352.000000	99.148441
1351.000000	99.149039
1350.000000	99.147824
1349.000000	99.145445
1348.000000	99.142514
1347.000000	99.139088
1346.000000	99.135801
1345.000000	99.134437
1344.000000	99.136250
1343.000000	99.140473
1342.000000	99.144925
1341.000000	99.147554
1340.000000	99.147313
1339.000000	99.144969
1338.000000	99.143220
1337.000000	99.144044
1336.000000	99.145865
1335.000000	99.145297
1334.000000	99.141978
1333.000000	99.140039
1332.000000	99.143499
1331.000000	99.151144
1330.000000	99.157601
1329.000000	99.158901
1328.000000	99.154963
1327.000000	99.148137
1326.000000	99.141877
1325.000000	99.140238
1324.000000	99.144726
1323.000000	99.151332
1322.000000	99.153441
1321.000000	99.148746
1320.000000	99.141700
1319.000000	99.138505
1318.000000	99.140630
1317.000000	99.144406
1316.000000	99.145872
1315.000000	99.144246
1314.000000	99.141394
1313.000000	99.139452
1312.000000	99.139183
1311.000000	99.139985
1310.000000	99.141043
1309.000000	99.142434
1308.000000	99.145080
1307.000000	99.149492
1306.000000	99.154281
1305.000000	99.156601
1304.000000	99.154202
1303.000000	99.147610
1302.000000	99.140136
1301.000000	99.135181
1300.000000	99.133664
1299.000000	99.134687
1298.000000	99.137801
1297.000000	99.143083
1296.000000	99.149246
1295.000000	99.153684
1294.000000	99.155301
1293.000000	99.155552
1292.000000	99.155575
1291.000000	99.154060
1290.000000	99.149678
1289.000000	99.144326
1288.000000	99.141725
1287.000000	99.142936
1286.000000	99.145228
1285.000000	99.145504
1284.000000	99.143345
1283.000000	99.140825
1282.000000	99.140714
1281.000000	99.144413
1280.000000	99.149918
1279.000000	99.151774
1278.000000	99.145727
1277.000000	99.134278
1276.000000	99.125776
1275.000000	99.126412
1274.000000	99.134413
1273.000000	99.142944
1272.000000	99.147056
1271.000000	99.146535
1270.000000	99.144061
1269.000000	99.142871
1268.000000	99.144859
1267.000000	99.148562
1266.000000	99.149831
1265.000000	99.146582
1264.000000	99.142206
1263.000000	99.142041
1262.000000	99.146709
1261.000000	99.151170
1260.000000	99.150522
1259.000000	99.144559
1258.000000	99.136691
1257.000000	99.130392
1256.000000	99.127310
1255.000000	99.126735
1254.000000	99.125615
1253.000000	99.120364
1252.000000	99.110002
1251.000000	99.097331
1250.000000	99.086756
1249.000000	99.081146
1248.000000	99.080519
1247.000000	99.082629
1246.000000	99.084561
1245.000000	99.084223
1244.000000	99.080657
1243.000000	99.073303
1242.000000	99.062051
1241.000000	99.048625
1240.000000	99.036533
1239.000000	99.027832
1238.000000	99.020262
1237.000000	99.009094
1236.000000	98.991561
1235.000000	98.968154
1234.000000	98.940482
1233.000000	98.910484
1232.000000	98.882178
1231.000000	98.861100
1230.000000	98.849402
1229.000000	98.842081
1228.000000	98.829742
1227.000000	98.805608
1226.000000	98.770257
1225.000000	98.730427
1224.000000	98.693053
1223.000000	98.659230
1222.000000	98.623411
1221.000000	98.578966
1220.000000	98.524693
1219.000000	98.466068
1218.000000	98.410787
1217.000000	98.363117
1216.000000	98.320953
1215.000000	98.276681
1214.000000	98.222098
1213.000000	98.154911
1212.000000	98.080323
1211.000000	98.005070
1210.000000	97.930767
1209.000000	97.854852
1208.000000	97.776329
1207.000000	97.697434
1206.000000	97.620627
1205.000000	97.546899
1204.000000	97.475897
1203.000000	97.404538
1202.000000	97.327484
1201.000000	97.243265
1200.000000	97.158369
1199.000000	97.080458
1198.000000	97.008662
1197.000000	96.935778
1196.000000	96.858315
1195.000000	96.777665
1194.000000	96.692647
1193.000000	96.599456
1192.000000	96.500392
1191.000000	96.404679
1190.000000	96.317210
1189.000000	96.232674
1188.000000	96.144002
1187.000000	96.050671
1186.000000	95.955548
1185.000000	95.859341
1184.000000	95.762313
1183.000000	95.666647
1182.000000	95.572828
1181.000000	95.477178
1180.000000	95.376028
1179.000000	95.268718
1178.000000	95.154421
1177.000000	95.030783
1176.000000	94.898770
1175.000000	94.764499
1174.000000	94.632835
1173.000000	94.502587
1172.000000	94.370346
1171.000000	94.234980
1170.000000	94.096301
1169.000000	93.954157
1168.000000	93.811817
1167.000000	93.676511
1166.000000	93.554725
1165.000000	93.450912
1164.000000	93.371391
1163.000000	93.323676
1162.000000	93.309868
1161.000000	93.324924
1160.000000	93.360655
1159.000000	93.404774
1158.000000	93.437084
1157.000000	93.436381
1156.000000	93.394620
1155.000000	93.320202
1154.000000	93.227573
1153.000000	93.128010
1152.000000	93.028575
1151.000000	92.930888
1150.000000	92.828787
1149.000000	92.714810
1148.000000	92.591079
1147.000000	92.467383
1146.000000	92.348008
1145.000000	92.228641
1144.000000	92.107141
1143.000000	91.987736
1142.000000	91.872359
1141.000000	91.757039
1140.000000	91.639433
1139.000000	91.520846
1138.000000	91.398672
1137.000000	91.266913
1136.000000	91.127529
1135.000000	90.991555
1134.000000	90.864657
1133.000000	90.740131
1132.000000	90.609677
1131.000000	90.472424
1130.000000	90.330526
1129.000000	90.184860
1128.000000	90.037882
1127.000000	89.891312
1126.000000	89.738898
1125.000000	89.572312
1124.000000	89.396806
1123.000000	89.229086
1122.000000	89.075400
1121.000000	88.923308
1120.000000	88.759904
1119.000000	88.587270
1118.000000	88.415614
1117.000000	88.253389
1116.000000	88.109396
1115.000000	87.991749
1114.000000	87.897152
1113.000000	87.811135
1112.000000	87.724933
1111.000000	87.642488
1110.000000	87.567040
1109.000000	87.492525
1108.000000	87.412458
1107.000000	87.326807
1106.000000	87.236445
1105.000000	87.141418
1104.000000	87.046756
1103.000000	86.957980
1102.000000	86.868995
1101.000000	86.767682
1100.000000	86.655366
1099.000000	86.548219
1098.000000	86.455695
1097.000000	86.371292
1096.000000	86.285579
1095.000000	86.194343
1094.000000	86.093706
1093.000000	85.983515
1092.000000	85.876304
1091.000000	85.784952
1090.000000	85.699214
1089.000000	85.594062
1088.000000	85.465512
1087.000000	85.339176
1086.000000	85.237508
1085.000000	85.155992
1084.000000	85.077651
1083.000000	84.993068
1082.000000	84.899766
1081.000000	84.798903
1080.000000	84.699531
1079.000000	84.610802
1078.000000	84.523907
1077.000000	84.416885
1076.000000	84.281870
1075.000000	84.132439
1074.000000	83.980536
1073.000000	83.821607
1072.000000	83.645940
1071.000000	83.447840
1070.000000	83.220898
1069.000000	82.961730
1068.000000	82.681944
1067.000000	82.399839
1066.000000	82.117043
1065.000000	81.820177
1064.000000	81.506891
1063.000000	81.191010
1062.000000	80.880769
1061.000000	80.572250
1060.000000	80.265046
1059.000000	79.961457
1058.000000	79.649519
1057.000000	79.313098
1056.000000	78.962101
1055.000000	78.625722
1054.000000	78.309342
1053.000000	77.985010
1052.000000	77.633648
1051.000000	77.268656
1050.000000	76.905890
1049.000000	76.540501
1048.000000	76.168049
1047.000000	75.798119
1046.000000	75.434123
1045.000000	75.067339
1044.000000	74.699658
1043.000000	74.345647
1042.000000	74.004658
1041.000000	73.657018
1040.000000	73.295957
1039.000000	72.938432
1038.000000	72.597864
1037.000000	72.272800
1036.000000	71.967430
1035.000000	71.692605
1034.000000	71.439046
1033.000000	71.180909
1032.000000	70.916241
1031.000000	70.674236
1030.000000	70.473175
1029.000000	70.301260
1028.000000	70.147417
1027.000000	70.019431
1026.000000	69.919851
1025.000000	69.834120
1024.000000	69.755146
1023.000000	69.691657
1022.000000	69.640610
1021.000000	69.578256
1020.000000	69.489910
1019.000000	69.383689
1018.000000	69.266248
1017.000000	69.131383
1016.000000	68.981238
1015.000000	68.831810
1014.000000	68.687625
1013.000000	68.535594
1012.000000	68.371029
1011.000000	68.204102
1010.000000	68.035592
1009.000000	67.855676
1008.000000	67.674273
1007.000000	67.522950
1006.000000	67.417181
1005.000000	67.343799
1004.000000	67.292359
1003.000000	67.269373
1002.000000	67.273615
1001.000000	67.288542
1000.000000	67.310730
999.000000	67.357627
998.000000	67.435651
997.000000	67.526917
996.000000	67.618052
995.000000	67.716881
994.000000	67.830257
993.000000	67.949792
992.000000	68.069469
991.000000	68.194969
990.000000	68.327551
989.000000	68.460204
988.000000	68.595517
987.000000	68.745346
986.000000	68.908594
985.000000	69.072471
984.000000	69.238651
983.000000	69.423353
982.000000	69.628677
981.000000	69.840176
980.000000	70.056389
979.000000	70.293228
978.000000	70.553885
977.000000	70.821898
976.000000	71.090581
975.000000	71.372983
974.000000	71.675156
973.000000	71.985170
972.000000	72.296798
971.000000	72.619621
970.000000	72.956591
969.000000	73.294265
968.000000	73.624777
967.000000	73.957786
966.000000	74.302387
965.000000	74.654549
964.000000	75.007517
963.000000	75.357025
962.000000	75.693428
961.000000	76.008090
960.000000	76.311002
959.000000	76.623130
958.000000	76.947816
957.000000	77.268030
956.000000	77.573401
955.000000	77.869610
954.000000	78.159528
953.000000	78.436821
952.000000	78.701365
951.000000	78.958806
950.000000	79.200533
949.000000	79.406593
948.000000	79.575185
947.000000	79.729131
946.000000	79.885279
945.000000	80.035128
944.000000	80.163295
943.000000	80.268212
942.000000	80.358085
941.000000	80.442484
940.000000	80.533854
939.000000	80.640786
938.000000	80.753216
937.000000	80.849933
936.000000	80.926442
935.000000	81.001030
934.000000	81.089796
933.000000	81.191332
932.000000	81.298410
931.000000	81.406305
930.000000	81.506344
929.000000	81.590656
928.000000	81.667645
927.000000	81.752791
926.000000	81.838117
925.000000	81.891345
924.000000	81.894382
923.000000	81.865129
922.000000	81.832565
921.000000	81.806546
920.000000	81.780210
919.000000	81.744415
918.000000	81.689730
917.000000	81.610268
916.000000	81.517591
915.000000	81.439753
914.000000	81.398834
913.000000	81.400686
912.000000	81.450822
911.000000	81.564014
910.000000	81.749992
909.000000	82.002112
908.000000	82.304799
907.000000	82.640387
906.000000	82.989685
905.000000	83.343259
904.000000	83.712711
903.000000	84.112638
902.000000	84.530807
901.000000	84.935338
900.000000	85.312907
899.000000	85.679274
898.000000	86.048633
897.000000	86.414283
896.000000	86.766046
895.000000	87.106858
894.000000	87.442099
893.000000	87.767987
892.000000	88.080220
891.000000	88.381830
890.000000	88.674348
889.000000	88.951856
888.000000	89.211168
887.000000	89.459378
886.000000	89.706035
885.000000	89.955160
884.000000	90.207161
883.000000	90.459154
882.000000	90.701792
881.000000	90.926727
880.000000	91.139235
879.000000	91.352733
878.000000	91.569794
877.000000	91.781381
876.000000	91.986923
875.000000	92.200969
874.000000	92.434862
873.000000	92.682751
872.000000	92.929719
871.000000	93.164517
870.000000	93.383635
869.000000	93.593402
868.000000	93.809377
867.000000	94.043818
866.000000	94.291581
865.000000	94.535646
864.000000	94.765467
863.000000	94.982424
862.000000	95.191241
861.000000	95.396220
860.000000	95.602449
859.000000	95.808541
858.000000	96.000437
857.000000	96.165874
856.000000	96.314175
855.000000	96.468290
854.000000	96.635980
853.000000	96.801424
852.000000	96.947221
851.000000	97.071609
850.000000	97.180852
849.000000	97.276810
848.000000	97.357529
847.000000	97.421253
846.000000	97.466268
845.000000	97.495072
844.000000	97.520363
843.000000	97.556439
842.000000	97.600719
841.000000	97.633101
840.000000	97.637638
839.000000	97.617674
838.000000	97.588183
837.000000	97.561677
836.000000	97.543687
835.000000	97.532562
834.000000	97.520141
833.000000	97.500900
832.000000	97.483875
831.000000	97.488493
830.000000	97.525645
829.000000	97.588177
828.000000	97.659039
827.000000	97.720652
826.000000	97.759852
825.000000	97.777655
824.000000	97.793954
823.000000	97.828256
822.000000	97.875633
821.000000	97.914852
820.000000	97.935462
819.000000	97.940966
818.000000	97.931024
817.000000	97.898716
816.000000	97.843813
815.000000	97.771759
814.000000	97.677686
813.000000	97.545990
812.000000	97.366896
811.000000	97.137395
810.000000	96.844346
809.000000	96.466675
808.000000	96.002159
807.000000	95.475869
806.000000	94.913735
805.000000	94.324252
804.000000	93.716844
803.000000	93.120949
802.000000	92.572380
801.000000	92.093908
800.000000	91.700413
799.000000	91.406574
798.000000	91.215652
797.000000	91.114323
796.000000	91.089479
795.000000	91.136210
794.000000	91.240460
793.000000	91.370008
792.000000	91.493925
791.000000	91.598978
790.000000	91.679729
789.000000	91.727091
788.000000	91.735703
787.000000	91.709166
786.000000	91.647980
785.000000	91.543678
784.000000	91.394144
783.000000	91.214489
782.000000	91.025205
781.000000	90.841447
780.000000	90.682006
779.000000	90.574689
778.000000	90.539911
777.000000	90.576801
776.000000	90.672927
775.000000	90.817890
774.000000	91.001010
773.000000	91.206906
772.000000	91.421600
771.000000	91.635987
770.000000	91.839987
769.000000	92.022801
768.000000	92.182390
767.000000	92.324921
766.000000	92.452030
765.000000	92.559151
764.000000	92.648719
763.000000	92.732196
762.000000	92.814475
761.000000	92.888849
760.000000	92.953423
759.000000	93.020285
758.000000	93.100533
757.000000	93.190336
756.000000	93.279092
755.000000	93.362331
754.000000	93.440689
753.000000	93.515804
752.000000	93.594170
751.000000	93.686233
750.000000	93.793761
