4000.000000	100.347264
3999.000000	100.344571
3998.000000	100.342497
3997.000000	100.341735
3996.000000	100.342204
3995.000000	100.343505
3994.000000	100.345478
3993.000000	100.347920
3992.000000	100.350041
3991.000000	100.350614
3990.000000	100.348822
3989.000000	100.344762
3988.000000	100.339303
3987.000000	100.333640
3986.000000	100.328784
3985.000000	100.325446
3984.000000	100.324045
3983.000000	100.324402
3982.000000	100.325515
3981.000000	100.326131
3980.000000	100.325883
3979.000000	100.325553
3978.000000	100.325945
3977.000000	100.326707
3976.000000	100.326568
3975.000000	100.324656
3974.000000	100.321248
3973.000000	100.317391
3972.000000	100.314185
3971.000000	100.312387
3970.000000	100.312211
3969.000000	100.313196
3968.000000	100.314477
3967.000000	100.315530
3966.000000	100.316610
3965.000000	100.318321
3964.000000	100.320721
3963.000000	100.322884
3962.000000	100.323464
3961.000000	100.321869
3960.000000	100.318899
3959.000000	100.316034
3958.000000	100.313975
3957.000000	100.312159
3956.000000	100.309854
3955.000000	100.307461
3954.000000	100.306196
3953.000000	100.306537
3952.000000	100.307569
3951.000000	100.308084
3950.000000	100.308195
3949.000000	100.309290
3948.000000	100.312350
3947.000000	100.316690
3946.000000	100.320447
3945.000000	100.322145
3944.000000	100.321728
3943.000000	100.320277
3942.000000	100.318713
3941.000000	100.317042
3940.000000	100.315144
3939.000000	100.313653
3938.000000	100.313665
3937.000000	100.315743
3936.000000	100.319398
3935.000000	100.323348
3934.000000	100.326053
3933.000000	100.326292
3932.000000	100.323710
3931.000000	100.319246
3930.000000	100.314772
3929.000000	100.311910
3928.000000	100.311308
3927.000000	100.312863
3926.000000	100.316164
3925.000000	100.320637
3924.000000	100.325306
3923.000000	100.328895
3922.000000	100.330542
3921.000000	100.330277
3920.000000	100.328962
3919.000000	100.327806
3918.000000	100.327515
3917.000000	100.327619
3916.000000	100.326771
3915.000000	100.323982
3914.000000	100.319490
3913.000000	100.314640
3912.000000	100.310961
3911.000000	100.309237
3910.000000	100.309370
3909.000000	100.310835
3908.000000	100.313309
3907.000000	100.316916
3906.000000	100.321846
3905.000000	100.327913
3904.000000	100.334120
3903.000000	100.338641
3902.000000	100.339858
3901.000000	100.337613
3900.000000	100.333343
3899.000000	100.329314
3898.000000	100.327141
3897.000000	100.327219
3896.000000	100.329151
3895.000000	100.332018
3894.000000	100.334524
3893.000000	100.335543
3892.000000	100.334913
3891.000000	100.333317
3890.000000	100.331344
3889.000000	100.329253
3888.000000	100.327016
3887.000000	100.324632
3886.000000	100.322791
3885.000000	100.322395
3884.000000	100.323285
3883.000000	100.324437
3882.000000	100.325134
3881.000000	100.325711
3880.000000	100.326914
3879.000000	100.328629
3878.000000	100.329944
3877.000000	100.330201
3876.000000	100.329534
3875.000000	100.329021
3874.000000	100.329890
3873.000000	100.332101
3872.000000	100.334075
3871.000000	100.334259
3870.000000	100.332772
3869.000000	100.331075
3868.000000	100.330427
3867.000000	100.330944
3866.000000	100.331731
3865.000000	100.331886
3864.000000	100.331634
3863.000000	100.332121
3862.000000	100.333997
3861.000000	100.336520
3860.000000	100.338285
3859.000000	100.338732
3858.000000	100.338687
3857.000000	100.339330
3856.000000	100.340519
3855.000000	100.340446
3854.000000	100.338178
3853.000000	100.335048
3852.000000	100.332623
3851.000000	100.331433
3850.000000	100.331494
3849.000000	100.332149
3848.000000	100.332499
3847.000000	100.332152
3846.000000	100.331632
3845.000000	100.331911
3844.000000	100.333396
3843.000000	100.335467
3842.000000	100.336935
3841.000000	100.336902
3840.000000	100.335408
3839.000000	100.333586
3838.000000	100.332880
3837.000000	100.333775
3836.000000	100.335544
3835.000000	100.337263
3834.000000	100.338749
3833.000000	100.340341
3832.000000	100.342152
3831.000000	100.343583
3830.000000	100.343709
3829.000000	100.342183
3828.000000	100.339703
3827.000000	100.337670
3826.000000	100.337231
3825.000000	100.338507
3824.000000	100.340620
3823.000000	100.342201
3822.000000	100.342686
3821.000000	100.343149
3820.000000	100.344704
3819.000000	100.347067
3818.000000	100.349023
3817.000000	100.349257
3816.000000	100.347555
3815.000000	100.345185
3814.000000	100.343545
3813.000000	100.342893
3812.000000	100.342473
3811.000000	100.341402
3810.000000	100.339512
3809.000000	100.337474
3808.000000	100.336389
3807.000000	100.337140
3806.000000	100.339785
3805.000000	100.343551
3804.000000	100.347140
3803.000000	100.348902
3802.000000	100.348026
3801.000000	100.345463
3800.000000	100.342566
3799.000000	100.339745
3798.000000	100.336840
3797.000000	100.333821
3796.000000	100.331265
3795.000000	100.329990
3794.000000	100.330255
3793.000000	100.331499
3792.000000	100.332754
3791.000000	100.333368
3790.000000	100.333482
3789.000000	100.333631
3788.000000	100.333770
3787.000000	100.333015
3786.000000	100.330656
3785.000000	100.327460
3784.000000	100.325475
3783.000000	100.326107
3782.000000	100.328466
3781.000000	100.329728
3780.000000	100.327664
3779.000000	100.322904
3778.000000	100.318479
3777.000000	100.316884
3776.000000	100.318164
3775.000000	100.320452
3774.000000	100.321979
3773.000000	100.322509
3772.000000	100.322726
3771.000000	100.322673
3770.000000	100.321198
3769.000000	100.316691
3768.000000	100.308987
3767.000000	100.300859
3766.000000	100.295939
3765.000000	100.295438
3764.000000	100.297639
3763.000000	100.300528
3762.000000	100.303363
3761.000000	100.305972
3760.000000	100.308796
3759.000000	100.312715
3758.000000	100.318114
3757.000000	100.324175
3756.000000	100.329234
3755.000000	100.331793
3754.000000	100.331561
3753.000000	100.330318
3752.000000	100.330860
3751.000000	100.333007
3750.000000	100.330941
3749.000000	100.320494
3748.000000	100.306162
3747.000000	100.295097
3746.000000	100.288236
3745.000000	100.283091
3744.000000	100.277565
3743.000000	100.269686
3742.000000	100.261809
3741.000000	100.259370
3740.000000	100.263644
3739.000000	100.270167
3738.000000	100.271702
3737.000000	100.263642
3736.000000	100.248944
3735.000000	100.236573
3734.000000	100.231950
3733.000000	100.232134
3732.000000	100.230552
3731.000000	100.223226
3730.000000	100.210933
3729.000000	100.196147
3728.000000	100.178841
3727.000000	100.157852
3726.000000	100.135292
3725.000000	100.116615
3724.000000	100.105725
3723.000000	100.101483
3722.000000	100.097919
3721.000000	100.086779
3720.000000	100.062771
3719.000000	100.027023
3718.000000	99.986369
3717.000000	99.949318
3716.000000	99.920152
3715.000000	99.895894
3714.000000	99.867655
3713.000000	99.827281
3712.000000	99.776290
3711.000000	99.724512
3710.000000	99.678938
3709.000000	99.639191
3708.000000	99.601701
3707.000000	99.563323
3706.000000	99.521319
3705.000000	99.472741
3704.000000	99.416351
3703.000000	99.355628
3702.000000	99.298720
3701.000000	99.251701
3700.000000	99.214215
3699.000000	99.184015
3698.000000	99.161555
3697.000000	99.148896
3696.000000	99.146020
3695.000000	99.149723
3694.000000	99.156236
3693.000000	99.164445
3692.000000	99.177049
3691.000000	99.198925
3690.000000	99.232710
3689.000000	99.272256
3688.000000	99.303045
3687.000000	99.315908
3686.000000	99.315366
3685.000000	99.311609
3684.000000	99.310337
3683.000000	99.309355
3682.000000	99.302729
3681.000000	99.288164
3680.000000	99.270839
3679.000000	99.259954
3678.000000	99.260022
3677.000000	99.264976
3676.000000	99.264028
3675.000000	99.250373
3674.000000	99.223809
3673.000000	99.190971
3672.000000	99.160237
3671.000000	99.135561
3670.000000	99.118783
3669.000000	99.107540
3668.000000	99.094512
3667.000000	99.075940
3666.000000	99.053788
3665.000000	99.031022
3664.000000	99.008591
3663.000000	98.984990
3662.000000	98.958924
3661.000000	98.932421
3660.000000	98.909866
3659.000000	98.893751
3658.000000	98.881420
3657.000000	98.867581
3656.000000	98.849326
3655.000000	98.827514
3654.000000	98.805301
3653.000000	98.784936
3652.000000	98.765591
3651.000000	98.745364
3650.000000	98.725401
3649.000000	98.707172
3648.000000	98.687862
3647.000000	98.664784
3646.000000	98.638864
3645.000000	98.611698
3644.000000	98.583678
3643.000000	98.555436
3642.000000	98.529752
3641.000000	98.510630
3640.000000	98.499198
3639.000000	98.491371
3638.000000	98.480191
3637.000000	98.460973
3636.000000	98.434343
3635.000000	98.405106
3634.000000	98.378568
3633.000000	98.357396
3632.000000	98.340532
3631.000000	98.323573
3630.000000	98.302215
3629.000000	98.278165
3628.000000	98.254054
3627.000000	98.227350
3626.000000	98.196924
3625.000000	98.164741
3624.000000	98.133672
3623.000000	98.108561
3622.000000	98.095243
3621.000000	98.096306
3620.000000	98.108789
3619.000000	98.126253
3618.000000	98.143441
3617.000000	98.159926
3616.000000	98.178595
3615.000000	98.200499
3614.000000	98.223210
3613.000000	98.243375
3612.000000	98.259875
3611.000000	98.275097
3610.000000	98.292340
3609.000000	98.311407
3608.000000	98.327450
3607.000000	98.334480
3606.000000	98.330806
3605.000000	98.320934
3604.000000	98.312296
3603.000000	98.310589
3602.000000	98.316464
3601.000000	98.324757
3600.000000	98.328484
3599.000000	98.324910
3598.000000	98.317874
3597.000000	98.314232
3596.000000	98.317591
3595.000000	98.325812
3594.000000	98.333886
3593.000000	98.338128
3592.000000	98.338096
3591.000000	98.335876
3590.000000	98.334690
3589.000000	98.338319
3588.000000	98.349167
3587.000000	98.363811
3586.000000	98.373783
3585.000000	98.374573
3584.000000	98.369741
3583.000000	98.365870
3582.000000	98.366457
3581.000000	98.370498
3580.000000	98.374903
3579.000000	98.377629
3578.000000	98.378771
3577.000000	98.379440
3576.000000	98.379959
3575.000000	98.379231
3574.000000	98.376068
3573.000000	98.370967
3572.000000	98.366127
3571.000000	98.363409
3570.000000	98.362175
3569.000000	98.359732
3568.000000	98.354932
3567.000000	98.350606
3566.000000	98.350307
3565.000000	98.354084
3564.000000	98.359304
3563.000000	98.363322
3562.000000	98.364760
3561.000000	98.363421
3560.000000	98.359792
3559.000000	98.354953
3558.000000	98.350511
3557.000000	98.347901
3556.000000	98.347420
3555.000000	98.347955
3554.000000	98.347706
3553.000000	98.345450
3552.000000	98.341212
3551.000000	98.336011
3550.000000	98.331094
3549.000000	98.327207
3548.000000	98.324339
3547.000000	98.322086
3546.000000	98.320095
3545.000000	98.318107
3544.000000	98.315751
3543.000000	98.312676
3542.000000	98.309023
3541.000000	98.305530
3540.000000	98.303002
3539.000000	98.301673
3538.000000	98.301117
3537.000000	98.300774
3536.000000	98.300385
3535.000000	98.299909
3534.000000	98.299206
3533.000000	98.297921
3532.000000	98.295712
3531.000000	98.292573
3530.000000	98.289003
3529.000000	98.285827
3528.000000	98.283670
3527.000000	98.282572
3526.000000	98.281979
3525.000000	98.280981
3524.000000	98.278801
3523.000000	98.275203
3522.000000	98.270673
3521.000000	98.266333
3520.000000	98.263235
3519.000000	98.261712
3518.000000	98.261324
3517.000000	98.261229
3516.000000	98.260805
3515.000000	98.259826
3514.000000	98.258232
3513.000000	98.256019
3512.000000	98.253327
3511.000000	98.250452
3510.000000	98.247677
3509.000000	98.245086
3508.000000	98.242604
3507.000000	98.240169
3506.000000	98.237796
3505.000000	98.235500
3504.000000	98.233231
3503.000000	98.230885
3502.000000	98.228380
3501.000000	98.225767
3500.000000	98.223253
3499.000000	98.221067
3498.000000	98.219249
3497.000000	98.217568
3496.000000	98.215696
3495.000000	98.213517
3494.000000	98.211240
3493.000000	98.209123
3492.000000	98.207050
3491.000000	98.204529
3490.000000	98.201244
3489.000000	98.197575
3488.000000	98.194452
3487.000000	98.192509
3486.000000	98.191412
3485.000000	98.190021
3484.000000	98.187439
3483.000000	98.183743
3482.000000	98.179695
3481.000000	98.175986
3480.000000	98.172819
3479.000000	98.169982
3478.000000	98.167005
3477.000000	98.163277
3476.000000	98.158483
3475.000000	98.153183
3474.000000	98.148591
3473.000000	98.145392
3472.000000	98.142899
3471.000000	98.139893
3470.000000	98.136382
3469.000000	98.133825
3468.000000	98.133411
3467.000000	98.134422
3466.000000	98.134605
3465.000000	98.132254
3464.000000	98.127458
3463.000000	98.121732
3462.000000	98.116693
3461.000000	98.112949
3460.000000	98.109886
3459.000000	98.106287
3458.000000	98.101476
3457.000000	98.096081
3456.000000	98.091492
3455.000000	98.088581
3454.000000	98.087044
3453.000000	98.085970
3452.000000	98.084728
3451.000000	98.083199
3450.000000	98.081643
3449.000000	98.080508
3448.000000	98.080015
3447.000000	98.079625
3446.000000	98.078135
3445.000000	98.074580
3444.000000	98.068928
3443.000000	98.061777
3442.000000	98.053749
3441.000000	98.045444
3440.000000	98.037524
3439.000000	98.030495
3438.000000	98.024569
3437.000000	98.019912
3436.000000	98.016880
3435.000000	98.015823
3434.000000	98.016734
3433.000000	98.019157
3432.000000	98.022311
3431.000000	98.025201
3430.000000	98.027016
3429.000000	98.027666
3428.000000	98.027652
3427.000000	98.027124
3426.000000	98.025282
3425.000000	98.021118
3424.000000	98.014747
3423.000000	98.007830
3422.000000	98.002528
3421.000000	97.999860
3420.000000	97.999062
3419.000000	97.998307
3418.000000	97.996283
3417.000000	97.993299
3416.000000	97.990876
3415.000000	97.990162
3414.000000	97.990688
3413.000000	97.990641
3412.000000	97.988555
3411.000000	97.984664
3410.000000	97.980722
3409.000000	97.978461
3408.000000	97.978111
3407.000000	97.978378
3406.000000	97.977666
3405.000000	97.975499
3404.000000	97.972709
3403.000000	97.970507
3402.000000	97.969370
3401.000000	97.968862
3400.000000	97.968365
3399.000000	97.967755
3398.000000	97.967263
3397.000000	97.966865
3396.000000	97.966136
3395.000000	97.964725
3394.000000	97.962736
3393.000000	97.960560
3392.000000	97.958434
3391.000000	97.956370
3390.000000	97.954499
3389.000000	97.953238
3388.000000	97.952908
3387.000000	97.953296
3386.000000	97.953667
3385.000000	97.953193
3384.000000	97.951513
3383.000000	97.949193
3382.000000	97.947652
3381.000000	97.948166
3380.000000	97.950742
3379.000000	97.954060
3378.000000	97.956692
3377.000000	97.958135
3376.000000	97.958597
3375.000000	97.958361
3374.000000	97.957691
3373.000000	97.956966
3372.000000	97.956446
3371.000000	97.956043
3370.000000	97.955726
3369.000000	97.956001
3368.000000	97.957438
3367.000000	97.959809
3366.000000	97.962119
3365.000000	97.963604
3364.000000	97.964375
3363.000000	97.964963
3362.000000	97.965690
3361.000000	97.966538
3360.000000	97.967243
3359.000000	97.967375
3358.000000	97.966620
3357.000000	97.965194
3356.000000	97.963852
3355.000000	97.963311
3354.000000	97.963746
3353.000000	97.964924
3352.000000	97.966626
3351.000000	97.968751
3350.000000	97.971148
3349.000000	97.973521
3348.000000	97.975455
3347.000000	97.976566
3346.000000	97.976735
3345.000000	97.976297
3344.000000	97.975944
3343.000000	97.976274
3342.000000	97.977441
3341.000000	97.979220
3340.000000	97.981172
3339.000000	97.982746
3338.000000	97.983455
3337.000000	97.983176
3336.000000	97.982368
3335.000000	97.981874
3334.000000	97.982167
3333.000000	97.983051
3332.000000	97.984050
3331.000000	97.985011
3330.000000	97.986131
3329.000000	97.987525
3328.000000	97.989052
3327.000000	97.990519
3326.000000	97.991825
3325.000000	97.992896
3324.000000	97.993643
3323.000000	97.994097
3322.000000	97.994508
3321.000000	97.995209
3320.000000	97.996382
3319.000000	97.997948
3318.000000	97.999615
3317.000000	98.001059
3316.000000	98.002165
3315.000000	98.003118
3314.000000	98.004141
3313.000000	98.005060
3312.000000	98.005394
3311.000000	98.005004
3310.000000	98.004512
3309.000000	98.004811
3308.000000	98.006077
3307.000000	98.007508
3306.000000	98.008240
3305.000000	98.008446
3304.000000	98.009046
3303.000000	98.010396
3302.000000	98.011837
3301.000000	98.012711
3300.000000	98.013303
3299.000000	98.014351
3298.000000	98.015971
3297.000000	98.017591
3296.000000	98.018715
3295.000000	98.019282
3294.000000	98.019383
3293.000000	98.019142
3292.000000	98.018991
3291.000000	98.019517
3290.000000	98.020820
3289.000000	98.022349
3288.000000	98.023489
3287.000000	98.024303
3286.000000	98.025466
3285.000000	98.027509
3284.000000	98.030394
3283.000000	98.033636
3282.000000	98.036628
3281.000000	98.038961
3280.000000	98.040485
3279.000000	98.041286
3278.000000	98.041757
3277.000000	98.042519
3276.000000	98.043999
3275.000000	98.046012
3274.000000	98.047906
3273.000000	98.049235
3272.000000	98.050168
3271.000000	98.051134
3270.000000	98.052245
3269.000000	98.053335
3268.000000	98.054504
3267.000000	98.056229
3266.000000	98.058773
3265.000000	98.061777
3264.000000	98.064624
3263.000000	98.067026
3262.000000	98.069030
3261.000000	98.070676
3260.000000	98.071951
3259.000000	98.073070
3258.000000	98.074491
3257.000000	98.076508
3256.000000	98.078991
3255.000000	98.081627
3254.000000	98.084360
3253.000000	98.087389
3252.000000	98.090730
3251.000000	98.093906
3250.000000	98.096301
3249.000000	98.097805
3248.000000	98.099023
3247.000000	98.100796
3246.000000	98.103377
3245.000000	98.106211
3244.000000	98.108455
3243.000000	98.109761
3242.000000	98.110556
3241.000000	98.111754
3240.000000	98.113974
3239.000000	98.117182
3238.000000	98.120875
3237.000000	98.124541
3236.000000	98.127915
3235.000000	98.130911
3234.000000	98.133548
3233.000000	98.136003
3232.000000	98.138530
3231.000000	98.141226
3230.000000	98.143958
3229.000000	98.146618
3228.000000	98.149380
3227.000000	98.152517
3226.000000	98.156028
3225.000000	98.159667
3224.000000	98.163353
3223.000000	98.167263
3222.000000	98.171375
3221.000000	98.175189
3220.000000	98.178229
3219.000000	98.180711
3218.000000	98.183387
3217.000000	98.186667
3216.000000	98.190209
3215.000000	98.193502
3214.000000	98.196563
3213.000000	98.199840
3212.000000	98.203598
3211.000000	98.207670
3210.000000	98.211750
3209.000000	98.215787
3208.000000	98.220086
3207.000000	98.225042
3206.000000	98.230630
3205.000000	98.236144
3204.000000	98.240591
3203.000000	98.243573
3202.000000	98.245792
3201.000000	98.248536
3200.000000	98.252514
3199.000000	98.257132
3198.000000	98.261092
3197.000000	98.263781
3196.000000	98.265976
3195.000000	98.269039
3194.000000	98.273510
3193.000000	98.278710
3192.000000	98.283651
3191.000000	98.288019
3190.000000	98.292142
3189.000000	98.296306
3188.000000	98.300468
3187.000000	98.304452
3186.000000	98.308196
3185.000000	98.311860
3184.000000	98.315922
3183.000000	98.321071
3182.000000	98.327798
3181.000000	98.336043
3180.000000	98.345263
3179.000000	98.354686
3178.000000	98.363379
3177.000000	98.370284
3176.000000	98.374642
3175.000000	98.376542
3174.000000	98.377107
3173.000000	98.377984
3172.000000	98.380423
3171.000000	98.384821
3170.000000	98.390908
3169.000000	98.398048
3168.000000	98.405314
3167.000000	98.411628
3166.000000	98.416293
3165.000000	98.419687
3164.000000	98.423218
3163.000000	98.428083
3162.000000	98.434050
3161.000000	98.439822
3160.000000	98.444673
3159.000000	98.449280
3158.000000	98.454665
3157.000000	98.460776
3156.000000	98.466603
3155.000000	98.471524
3154.000000	98.475962
3153.000000	98.480719
3152.000000	98.486104
3151.000000	98.491888
3150.000000	98.497745
3149.000000	98.503467
3148.000000	98.508909
3147.000000	98.514025
3146.000000	98.518987
3145.000000	98.524118
3144.000000	98.529660
3143.000000	98.535673
3142.000000	98.542084
3141.000000	98.548726
3140.000000	98.555304
3139.000000	98.561482
3138.000000	98.567097
3137.000000	98.572230
3136.000000	98.577000
3135.000000	98.581417
3134.000000	98.585588
3133.000000	98.589905
3132.000000	98.594780
3131.000000	98.600166
3130.000000	98.605516
3129.000000	98.610403
3128.000000	98.615173
3127.000000	98.620585
3126.000000	98.626864
3125.000000	98.633456
3124.000000	98.639596
3123.000000	98.645091
3122.000000	98.650355
3121.000000	98.655870
3120.000000	98.661679
3119.000000	98.667366
3118.000000	98.672505
3117.000000	98.677102
3116.000000	98.681690
3115.000000	98.686854
3114.000000	98.692666
3113.000000	98.698661
3112.000000	98.704332
3111.000000	98.709637
3110.000000	98.714871
3109.000000	98.720227
3108.000000	98.725638
3107.000000	98.731027
3106.000000	98.736463
3105.000000	98.741985
3104.000000	98.747423
3103.000000	98.752546
3102.000000	98.757325
3101.000000	98.761970
3100.000000	98.766695
3099.000000	98.771518
3098.000000	98.776335
3097.000000	98.781181
3096.000000	98.786308
3095.000000	98.791943
3094.000000	98.798024
3093.000000	98.804167
3092.000000	98.809987
3091.000000	98.815385
3090.000000	98.820447
3089.000000	98.825174
3088.000000	98.829513
3087.000000	98.833586
3086.000000	98.837736
3085.000000	98.842269
3084.000000	98.847244
3083.000000	98.852466
3082.000000	98.857613
3081.000000	98.862468
3080.000000	98.867078
3079.000000	98.871657
3078.000000	98.876316
3077.000000	98.880923
3076.000000	98.885358
3075.000000	98.889816
3074.000000	98.894681
3073.000000	98.900057
3072.000000	98.905581
3071.000000	98.910743
3070.000000	98.915321
3069.000000	98.919406
3068.000000	98.923299
3067.000000	98.927453
3066.000000	98.932272
3065.000000	98.937711
3064.000000	98.943106
3063.000000	98.947770
3062.000000	98.951730
3061.000000	98.955650
3060.000000	98.959977
3059.000000	98.964380
3058.000000	98.968202
3057.000000	98.971300
3056.000000	98.974359
3055.000000	98.978375
3054.000000	98.983862
3053.000000	98.990466
3052.000000	98.997104
3051.000000	99.002816
3050.000000	99.007552
3049.000000	99.011975
3048.000000	99.016495
3047.000000	99.020659
3046.000000	99.023805
3045.000000	99.026155
3044.000000	99.028922
3043.000000	99.033210
3042.000000	99.039143
3041.000000	99.046095
3040.000000	99.053470
3039.000000	99.061027
3038.000000	99.068522
3037.000000	99.075375
3036.000000	99.080954
3035.000000	99.085202
3034.000000	99.088876
3033.000000	99.092935
3032.000000	99.097646
3031.000000	99.102605
3030.000000	99.107685
3029.000000	99.113496
3028.000000	99.120510
3027.000000	99.128120
3026.000000	99.135126
3025.000000	99.141143
3024.000000	99.146904
3023.000000	99.153037
3022.000000	99.159043
3021.000000	99.163954
3020.000000	99.167763
3019.000000	99.171758
3018.000000	99.177499
3017.000000	99.185706
3016.000000	99.195897
3015.000000	99.206756
3014.000000	99.216992
3013.000000	99.226050
3012.000000	99.233907
3011.000000	99.240425
3010.000000	99.245485
3009.000000	99.249825
3008.000000	99.254944
3007.000000	99.261630
3006.000000	99.269110
3005.000000	99.276123
3004.000000	99.282250
3003.000000	99.287835
3002.000000	99.293461
3001.000000	99.300101
3000.000000	99.308623
2999.000000	99.317908
2998.000000	99.324487
2997.000000	99.325979
2996.000000	99.324726
2995.000000	99.326239
2994.000000	99.333526
2993.000000	99.344571
2992.000000	99.355655
2991.000000	99.365741
2990.000000	99.376577
2989.000000	99.389750
2988.000000	99.405114
2987.000000	99.421311
2986.000000	99.436429
2985.000000	99.448500
2984.000000	99.456649
2983.000000	99.461924
2982.000000	99.466343
2981.000000	99.471200
2980.000000	99.476827
2979.000000	99.483606
2978.000000	99.492182
2977.000000	99.502516
2976.000000	99.513390
2975.000000	99.523057
2974.000000	99.530033
2973.000000	99.533357
2972.000000	99.532828
2971.000000	99.529433
2970.000000	99.525285
2969.000000	99.522651
2968.000000	99.522632
2967.000000	99.524382
2966.000000	99.525657
2965.000000	99.524955
2964.000000	99.523677
2963.000000	99.525607
2962.000000	99.533191
2961.000000	99.544366
2960.000000	99.553870
2959.000000	99.557895
2958.000000	99.556951
2957.000000	99.554137
2956.000000	99.551580
2955.000000	99.549125
2954.000000	99.545880
2953.000000	99.542186
2952.000000	99.539885
2951.000000	99.540890
2950.000000	99.545465
2949.000000	99.551661
2948.000000	99.556364
2947.000000	99.557135
2946.000000	99.553589
2945.000000	99.547593
2944.000000	99.542582
2943.000000	99.542275
2942.000000	99.548901
2941.000000	99.561502
2940.000000	99.575724
2939.000000	99.586188
2938.000000	99.590339
2937.000000	99.590537
2936.000000	99.592117
2935.000000	99.599038
2934.000000	99.611485
2933.000000	99.627476
2932.000000	99.645716
2931.000000	99.665887
2930.000000	99.686762
2929.000000	99.705882
2928.000000	99.721809
2927.000000	99.735415
2926.000000	99.747820
2925.000000	99.757838
2924.000000	99.762905
2923.000000	99.762724
2922.000000	99.761286
2921.000000	99.764858
2920.000000	99.777376
2919.000000	99.796655
2918.000000	99.814500
2917.000000	99.821842
2916.000000	99.815329
2915.000000	99.799476
2914.000000	99.782430
2913.000000	99.769408
2912.000000	99.760199
2911.000000	99.751983
2910.000000	99.742769
2909.000000	99.732421
2908.000000	99.722341
2907.000000	99.715012
2906.000000	99.712793
2905.000000	99.716079
2904.000000	99.722667
2903.000000	99.729392
2902.000000	99.733920
2901.000000	99.735430
2900.000000	99.734167
2899.000000	99.731138
2898.000000	99.727858
2897.000000	99.725456
2896.000000	99.724002
2895.000000	99.722766
2894.000000	99.720999
2893.000000	99.718558
2892.000000	99.716358
2891.000000	99.716330
2890.000000	99.720079
2889.000000	99.726866
2888.000000	99.733259
2887.000000	99.735680
2886.000000	99.733348
2885.000000	99.728405
2884.000000	99.723601
2883.000000	99.720578
2882.000000	99.720096
2881.000000	99.722510
2880.000000	99.727147
2879.000000	99.731781
2878.000000	99.733970
2877.000000	99.733526
2876.000000	99.733209
2875.000000	99.736195
2874.000000	99.742715
2873.000000	99.749355
2872.000000	99.752166
2871.000000	99.750505
2870.000000	99.747485
2869.000000	99.746762
2868.000000	99.749126
2867.000000	99.752438
2866.000000	99.754138
2865.000000	99.753211
2864.000000	99.750291
2863.000000	99.747039
2862.000000	99.745576
2861.000000	99.747605
2860.000000	99.753394
2859.000000	99.761700
2858.000000	99.770769
2857.000000	99.779151
2856.000000	99.785873
2855.000000	99.790881
2854.000000	99.795720
2853.000000	99.802777
2852.000000	99.812653
2851.000000	99.822325
2850.000000	99.826837
2849.000000	99.823103
2848.000000	99.811999
2847.000000	99.797640
2846.000000	99.784880
2845.000000	99.776809
2844.000000	99.773782
2843.000000	99.774177
2842.000000	99.776094
2841.000000	99.778439
2840.000000	99.780433
2839.000000	99.780861
2838.000000	99.778925
2837.000000	99.775728
2836.000000	99.773578
2835.000000	99.773121
2834.000000	99.772211
2833.000000	99.768706
2832.000000	99.763884
2831.000000	99.761649
2830.000000	99.764186
2829.000000	99.769527
2828.000000	99.773577
2827.000000	99.774086
2826.000000	99.772257
2825.000000	99.771270
2824.000000	99.773768
2823.000000	99.779942
2822.000000	99.787074
2821.000000	99.791408
2820.000000	99.791569
2819.000000	99.789966
2818.000000	99.790219
2817.000000	99.793419
2816.000000	99.797732
2815.000000	99.801295
2814.000000	99.804090
2813.000000	99.806678
2812.000000	99.808667
2811.000000	99.809465
2810.000000	99.809644
2809.000000	99.810373
2808.000000	99.811953
2807.000000	99.813998
2806.000000	99.816771
2805.000000	99.821226
2804.000000	99.827552
2803.000000	99.834291
2802.000000	99.839380
2801.000000	99.841977
2800.000000	99.842909
2799.000000	99.843783
2798.000000	99.845859
2797.000000	99.849331
2796.000000	99.853310
2795.000000	99.856692
2794.000000	99.859327
2793.000000	99.862108
2792.000000	99.865751
2791.000000	99.869837
2790.000000	99.873370
2789.000000	99.875971
2788.000000	99.878062
2787.000000	99.880158
2786.000000	99.882423
2785.000000	99.884834
2784.000000	99.887402
2783.000000	99.890111
2782.000000	99.892870
2781.000000	99.895615
2780.000000	99.898308
2779.000000	99.900796
2778.000000	99.902879
2777.000000	99.904613
2776.000000	99.906422
2775.000000	99.908766
2774.000000	99.911725
2773.000000	99.915031
2772.000000	99.918300
2771.000000	99.921268
2770.000000	99.923877
2769.000000	99.926203
2768.000000	99.928406
2767.000000	99.930660
2766.000000	99.933049
2765.000000	99.935547
2764.000000	99.938065
2763.000000	99.940529
2762.000000	99.942931
2761.000000	99.945300
2760.000000	99.947642
2759.000000	99.949929
2758.000000	99.952175
2757.000000	99.954459
2756.000000	99.956812
2755.000000	99.959110
2754.000000	99.961196
2753.000000	99.963082
2752.000000	99.964950
2751.000000	99.966933
2750.000000	99.968986
2749.000000	99.970990
2748.000000	99.972905
2747.000000	99.974781
2746.000000	99.976668
2745.000000	99.978564
2744.000000	99.980439
2743.000000	99.982276
2742.000000	99.984083
2741.000000	99.985879
2740.000000	99.987674
2739.000000	99.989462
2738.000000	99.991232
2737.000000	99.992986
2736.000000	99.994739
2735.000000	99.996498
2734.000000	99.998240
2733.000000	99.999935
2732.000000	100.001575
2731.000000	100.003184
2730.000000	100.004792
2729.000000	100.006414
2728.000000	100.008039
2727.000000	100.009631
2726.000000	100.011170
2725.000000	100.012651
2724.000000	100.014073
2723.000000	100.015447
2722.000000	100.016791
2721.000000	100.018115
2720.000000	100.019416
2719.000000	100.020695
2718.000000	100.021959
2717.000000	100.023210
2716.000000	100.024446
2715.000000	100.025661
2714.000000	100.026850
2713.000000	100.028013
2712.000000	100.029162
2711.000000	100.030306
2710.000000	100.031446
2709.000000	100.032576
2708.000000	100.033689
2707.000000	100.034785
2706.000000	100.035872
2705.000000	100.036952
2704.000000	100.038024
2703.000000	100.039080
2702.000000	100.040113
2701.000000	100.041122
2700.000000	100.042111
2699.000000	100.043090
2698.000000	100.044064
2697.000000	100.045029
2696.000000	100.045976
2695.000000	100.046896
2694.000000	100.047784
2693.000000	100.048646
2692.000000	100.049493
2691.000000	100.050332
2690.000000	100.051165
2689.000000	100.051983
2688.000000	100.052778
2687.000000	100.053550
2686.000000	100.054306
2685.000000	100.055052
2684.000000	100.055786
2683.000000	100.056499
2682.000000	100.057192
2681.000000	100.057873
2680.000000	100.058556
2679.000000	100.059248
2678.000000	100.059950
2677.000000	100.060659
2676.000000	100.061373
2675.000000	100.062095
2674.000000	100.062831
2673.000000	100.063588
2672.000000	100.064369
2671.000000	100.065170
2670.000000	100.065985
2669.000000	100.066808
2668.000000	100.067634
2667.000000	100.068462
2666.000000	100.069286
2665.000000	100.070099
2664.000000	100.070893
2663.000000	100.071667
2662.000000	100.072431
2661.000000	100.073196
2660.000000	100.073972
2659.000000	100.074763
2658.000000	100.075560
2657.000000	100.076346
2656.000000	100.077105
2655.000000	100.077830
2654.000000	100.078524
2653.000000	100.079200
2652.000000	100.079863
2651.000000	100.080515
2650.000000	100.081155
2649.000000	100.081782
2648.000000	100.082400
2647.000000	100.083009
2646.000000	100.083608
2645.000000	100.084192
2644.000000	100.084758
2643.000000	100.085310
2642.000000	100.085864
2641.000000	100.086434
2640.000000	100.087025
2639.000000	100.087629
2638.000000	100.088231
2637.000000	100.088820
2636.000000	100.089394
2635.000000	100.089958
2634.000000	100.090508
2633.000000	100.091035
2632.000000	100.091527
2631.000000	100.091974
2630.000000	100.092376
2629.000000	100.092734
2628.000000	100.093055
2627.000000	100.093344
2626.000000	100.093611
2625.000000	100.093870
2624.000000	100.094137
2623.000000	100.094422
2622.000000	100.094728
2621.000000	100.095045
2620.000000	100.095356
2619.000000	100.095646
2618.000000	100.095908
2617.000000	100.096145
2616.000000	100.096366
2615.000000	100.096582
2614.000000	100.096804
2613.000000	100.097043
2612.000000	100.097304
2611.000000	100.097598
2610.000000	100.097935
2609.000000	100.098313
2608.000000	100.098712
2607.000000	100.099105
2606.000000	100.099482
2605.000000	100.099850
2604.000000	100.100232
2603.000000	100.100646
2602.000000	100.101094
2601.000000	100.101562
2600.000000	100.102036
2599.000000	100.102514
2598.000000	100.102990
2597.000000	100.103455
2596.000000	100.103902
2595.000000	100.104327
2594.000000	100.104739
2593.000000	100.105153
2592.000000	100.105586
2591.000000	100.106050
2590.000000	100.106541
2589.000000	100.107052
2588.000000	100.107573
2587.000000	100.108100
2586.000000	100.108636
2585.000000	100.109193
2584.000000	100.109791
2583.000000	100.110437
2582.000000	100.111086
2581.000000	100.111658
2580.000000	100.112114
2579.000000	100.112477
2578.000000	100.112790
2577.000000	100.113099
2576.000000	100.113461
2575.000000	100.113922
2574.000000	100.114493
2573.000000	100.115146
2572.000000	100.115843
2571.000000	100.116535
2570.000000	100.117179
2569.000000	100.117760
2568.000000	100.118306
2567.000000	100.118858
2566.000000	100.119432
2565.000000	100.120039
2564.000000	100.120732
2563.000000	100.121589
2562.000000	100.122630
2561.000000	100.123764
2560.000000	100.124789
2559.000000	100.125500
2558.000000	100.125815
2557.000000	100.125892
2556.000000	100.126083
2555.000000	100.126660
2554.000000	100.127602
2553.000000	100.128649
2552.000000	100.129593
2551.000000	100.130476
2550.000000	100.131495
2549.000000	100.132745
2548.000000	100.134062
2547.000000	100.135091
2546.000000	100.135538
2545.000000	100.135421
2544.000000	100.135176
2543.000000	100.135421
2542.000000	100.136554
2541.000000	100.138495
2540.000000	100.140696
2539.000000	100.142461
2538.000000	100.143378
2537.000000	100.143605
2536.000000	100.143835
2535.000000	100.144707
2534.000000	100.146230
2533.000000	100.147911
2532.000000	100.149464
2531.000000	100.151156
2530.000000	100.153356
2529.000000	100.156002
2528.000000	100.158616
2527.000000	100.160761
2526.000000	100.162415
2525.000000	100.163893
2524.000000	100.165531
2523.000000	100.167367
2522.000000	100.169108
2521.000000	100.170417
2520.000000	100.171260
2519.000000	100.171973
2518.000000	100.173003
2517.000000	100.174516
2516.000000	100.176274
2515.000000	100.177910
2514.000000	100.179342
2513.000000	100.180858
2512.000000	100.182716
2511.000000	100.184782
2510.000000	100.186713
2509.000000	100.188394
2508.000000	100.190022
2507.000000	100.191798
2506.000000	100.193709
2505.000000	100.195638
2504.000000	100.197524
2503.000000	100.199383
2502.000000	100.201239
2501.000000	100.203087
2500.000000	100.204917
2499.000000	100.206729
2498.000000	100.208528
2497.000000	100.210325
2496.000000	100.212132
2495.000000	100.213942
2494.000000	100.215750
2493.000000	100.217545
2492.000000	100.219319
2491.000000	100.221074
2490.000000	100.222820
2489.000000	100.224565
2488.000000	100.226310
2487.000000	100.228053
2486.000000	100.229791
2485.000000	100.231528
2484.000000	100.233275
2483.000000	100.235045
2482.000000	100.236844
2481.000000	100.238669
2480.000000	100.240513
2479.000000	100.242367
2478.000000	100.244227
2477.000000	100.246085
2476.000000	100.247936
2475.000000	100.249769
2474.000000	100.251576
2473.000000	100.253349
2472.000000	100.255084
2471.000000	100.256783
2470.000000	100.258459
2469.000000	100.260132
2468.000000	100.261818
2467.000000	100.263522
2466.000000	100.265218
2465.000000	100.266870
2464.000000	100.268469
2463.000000	100.270030
2462.000000	100.271549
2461.000000	100.272988
2460.000000	100.274338
2459.000000	100.275669
2458.000000	100.277084
2457.000000	100.278617
2456.000000	100.280208
2455.000000	100.281765
2454.000000	100.283255
2453.000000	100.284705
2452.000000	100.286176
2451.000000	100.287735
2450.000000	100.289411
2449.000000	100.291134
2448.000000	100.292743
2447.000000	100.294135
2446.000000	100.295354
2445.000000	100.296564
2444.000000	100.297875
2443.000000	100.299240
2442.000000	100.300546
2441.000000	100.301756
2440.000000	100.302951
2439.000000	100.304218
2438.000000	100.305538
2437.000000	100.306792
2436.000000	100.307894
2435.000000	100.308872
2434.000000	100.309824
2433.000000	100.310827
2432.000000	100.311903
2431.000000	100.313047
2430.000000	100.314250
2429.000000	100.315480
2428.000000	100.316697
2427.000000	100.317887
2426.000000	100.319069
2425.000000	100.320249
2424.000000	100.321426
2423.000000	100.322607
2422.000000	100.323812
2421.000000	100.325035
2420.000000	100.326239
2419.000000	100.327385
2418.000000	100.328469
2417.000000	100.329520
2416.000000	100.330577
2415.000000	100.331667
2414.000000	100.332802
2413.000000	100.333981
2412.000000	100.335178
2411.000000	100.336321
2410.000000	100.337347
2409.000000	100.338253
2408.000000	100.339093
2407.000000	100.339961
2406.000000	100.340916
2405.000000	100.341958
2404.000000	100.343027
2403.000000	100.344060
2402.000000	100.345044
2401.000000	100.345990
2400.000000	100.346883
2399.000000	100.347678
2398.000000	100.348373
2397.000000	100.349032
2396.000000	100.349722
2395.000000	100.350467
2394.000000	100.351292
2393.000000	100.352261
2392.000000	100.353404
2391.000000	100.354642
2390.000000	100.355836
2389.000000	100.356865
2388.000000	100.357626
2387.000000	100.358046
2386.000000	100.358144
2385.000000	100.358143
2384.000000	100.358376
2383.000000	100.358985
2382.000000	100.359818
2381.000000	100.360602
2380.000000	100.361217
2379.000000	100.361751
2378.000000	100.362333
2377.000000	100.362958
2376.000000	100.363477
2375.000000	100.363720
2374.000000	100.363636
2373.000000	100.363370
2372.000000	100.363188
2371.000000	100.363257
2370.000000	100.363549
2369.000000	100.364010
2368.000000	100.364730
2367.000000	100.365736
2366.000000	100.366631
2365.000000	100.366750
2364.000000	100.365808
2363.000000	100.364248
2362.000000	100.362781
2361.000000	100.361626
2360.000000	100.360813
2359.000000	100.360526
2358.000000	100.360968
2357.000000	100.361848
2356.000000	100.362354
2355.000000	100.362156
2354.000000	100.361573
2353.000000	100.360985
2352.000000	100.360276
2351.000000	100.359296
2350.000000	100.358543
2349.000000	100.358458
2348.000000	100.358957
2347.000000	100.359282
2346.000000	100.358629
2345.000000	100.356899
2344.000000	100.354535
2343.000000	100.352402
2342.000000	100.350962
2341.000000	100.350296
2340.000000	100.350166
2339.000000	100.349966
2338.000000	100.349305
2337.000000	100.348264
2336.000000	100.347114
2335.000000	100.345823
2334.000000	100.344103
2333.000000	100.341854
2332.000000	100.339304
2331.000000	100.336749
2330.000000	100.334608
2329.000000	100.332781
2328.000000	100.330987
2327.000000	100.329016
2326.000000	100.327174
2325.000000	100.326066
2324.000000	100.325579
2323.000000	100.325188
2322.000000	100.324350
2321.000000	100.323193
2320.000000	100.321955
2319.000000	100.320381
2318.000000	100.318028
2317.000000	100.314878
2316.000000	100.311610
2315.000000	100.308942
2314.000000	100.307126
2313.000000	100.305854
2312.000000	100.304627
2311.000000	100.303085
2310.000000	100.301184
2309.000000	100.298999
2308.000000	100.296549
2307.000000	100.293857
2306.000000	100.291120
2305.000000	100.288717
2304.000000	100.286844
2303.000000	100.285325
2302.000000	100.283725
2301.000000	100.281716
2300.000000	100.279243
2299.000000	100.276475
2298.000000	100.273773
2297.000000	100.271518
2296.000000	100.269801
2295.000000	100.268198
2294.000000	100.266075
2293.000000	100.263208
2292.000000	100.259969
2291.000000	100.256948
2290.000000	100.254374
2289.000000	100.252059
2288.000000	100.249665
2287.000000	100.246962
2286.000000	100.243902
2285.000000	100.240669
2284.000000	100.237646
2283.000000	100.235215
2282.000000	100.233487
2281.000000	100.232203
2280.000000	100.230900
2279.000000	100.229201
2278.000000	100.226996
2277.000000	100.224388
2276.000000	100.221481
2275.000000	100.218206
2274.000000	100.214504
2273.000000	100.210627
2272.000000	100.207154
2271.000000	100.204537
2270.000000	100.202687
2269.000000	100.201129
2268.000000	100.199462
2267.000000	100.197764
2266.000000	100.196554
2265.000000	100.196176
2264.000000	100.196119
2263.000000	100.195181
2262.000000	100.192721
2261.000000	100.189513
2260.000000	100.187041
2259.000000	100.185767
2258.000000	100.184695
2257.000000	100.182721
2256.000000	100.179852
2255.000000	100.176900
2254.000000	100.174515
2253.000000	100.172811
2252.000000	100.171588
2251.000000	100.170381
2250.000000	100.168535
2249.000000	100.165794
2248.000000	100.162766
2247.000000	100.160442
2246.000000	100.159236
2245.000000	100.158791
2244.000000	100.158498
2243.000000	100.157958
2242.000000	100.157046
2241.000000	100.155885
2240.000000	100.154736
2239.000000	100.153686
2238.000000	100.152557
2237.000000	100.151324
2236.000000	100.150403
2235.000000	100.150173
2234.000000	100.150352
2233.000000	100.150233
2232.000000	100.149500
2231.000000	100.148443
2230.000000	100.147432
2229.000000	100.146527
2228.000000	100.145660
2227.000000	100.144872
2226.000000	100.144205
2225.000000	100.143521
2224.000000	100.142625
2223.000000	100.141622
2222.000000	100.141040
2221.000000	100.141432
2220.000000	100.142803
2219.000000	100.144406
2218.000000	100.145278
2217.000000	100.145063
2216.000000	100.144140
2215.000000	100.143134
2214.000000	100.142425
2213.000000	100.142166
2212.000000	100.142475
2211.000000	100.143382
2210.000000	100.144656
2209.000000	100.145928
2208.000000	100.146915
2207.000000	100.147429
2206.000000	100.147372
2205.000000	100.146878
2204.000000	100.146364
2203.000000	100.146218
2202.000000	100.146472
2201.000000	100.146977
2200.000000	100.147718
2199.000000	100.148828
2198.000000	100.150321
2197.000000	100.151950
2196.000000	100.153326
2195.000000	100.154160
2194.000000	100.154480
2193.000000	100.154668
2192.000000	100.155224
2191.000000	100.156325
2190.000000	100.157675
2189.000000	100.158790
2188.000000	100.159439
2187.000000	100.159708
2186.000000	100.159797
2185.000000	100.159918
2184.000000	100.160287
2183.000000	100.160952
2182.000000	100.161656
2181.000000	100.162148
2180.000000	100.162621
2179.000000	100.163506
2178.000000	100.164852
2177.000000	100.166234
2176.000000	100.167396
2175.000000	100.168621
2174.000000	100.170220
2173.000000	100.171946
2172.000000	100.173236
2171.000000	100.173849
2170.000000	100.174032
2169.000000	100.174241
2168.000000	100.174817
2167.000000	100.175827
2166.000000	100.176953
2165.000000	100.177639
2164.000000	100.177621
2163.000000	100.177346
2162.000000	100.177713
2161.000000	100.179237
2160.000000	100.181575
2159.000000	100.183735
2158.000000	100.184926
2157.000000	100.185142
2156.000000	100.185010
2155.000000	100.185152
2154.000000	100.185685
2153.000000	100.186379
2152.000000	100.187054
2151.000000	100.187699
2150.000000	100.188460
2149.000000	100.189693
2148.000000	100.191715
2147.000000	100.194276
2146.000000	100.196613
2145.000000	100.198338
2144.000000	100.199983
2143.000000	100.202258
2142.000000	100.205052
2141.000000	100.207576
2140.000000	100.209374
2139.000000	100.210681
2138.000000	100.211898
2137.000000	100.213205
2136.000000	100.214681
2135.000000	100.216278
2134.000000	100.217657
2133.000000	100.218634
2132.000000	100.219859
2131.000000	100.222366
2130.000000	100.226278
2129.000000	100.230340
2128.000000	100.233183
2127.000000	100.234725
2126.000000	100.235892
2125.000000	100.237427
2124.000000	100.239332
2123.000000	100.241303
2122.000000	100.243075
2121.000000	100.244455
2120.000000	100.245578
2119.000000	100.247028
2118.000000	100.249191
2117.000000	100.251598
2116.000000	100.253456
2115.000000	100.254696
2114.000000	100.255930
2113.000000	100.257440
2112.000000	100.258923
2111.000000	100.260247
2110.000000	100.261854
2109.000000	100.264199
2108.000000	100.267213
2107.000000	100.270584
2106.000000	100.274196
2105.000000	100.278048
2104.000000	100.282065
2103.000000	100.286184
2102.000000	100.290245
2101.000000	100.293565
2100.000000	100.295080
2099.000000	100.294374
2098.000000	100.292415
2097.000000	100.290852
2096.000000	100.290526
2095.000000	100.291105
2094.000000	100.292063
2093.000000	100.293461
2092.000000	100.295542
2091.000000	100.298012
2090.000000	100.300361
2089.000000	100.302780
2088.000000	100.306010
2087.000000	100.309947
2086.000000	100.313076
2085.000000	100.313976
2084.000000	100.313137
2083.000000	100.312593
2082.000000	100.313904
2081.000000	100.317153
2080.000000	100.321751
2079.000000	100.327151
2078.000000	100.332401
2077.000000	100.335944
2076.000000	100.336844
2075.000000	100.336127
2074.000000	100.336302
2073.000000	100.339190
2072.000000	100.344187
2071.000000	100.348767
2070.000000	100.350808
2069.000000	100.350327
2068.000000	100.348746
2067.000000	100.346711
2066.000000	100.343564
2065.000000	100.339431
2064.000000	100.336597
2063.000000	100.337439
2062.000000	100.341511
2061.000000	100.346001
2060.000000	100.348804
2059.000000	100.349845
2058.000000	100.349645
2057.000000	100.348435
2056.000000	100.347013
2055.000000	100.346631
2054.000000	100.347111
2053.000000	100.346484
2052.000000	100.343531
2051.000000	100.339576
2050.000000	100.336798
2049.000000	100.335618
2048.000000	100.334907
2047.000000	100.333910
2046.000000	100.332577
2045.000000	100.330668
2044.000000	100.328022
2043.000000	100.325354
2042.000000	100.323375
2041.000000	100.321210
2040.000000	100.317079
2039.000000	100.310774
2038.000000	100.304387
2037.000000	100.300274
2036.000000	100.298993
2035.000000	100.299314
2034.000000	100.299531
2033.000000	100.298727
2032.000000	100.297374
2031.000000	100.296798
2030.000000	100.297685
2029.000000	100.299124
2028.000000	100.299499
2027.000000	100.298140
2026.000000	100.295685
2025.000000	100.293134
2024.000000	100.291227
2023.000000	100.290465
2022.000000	100.290723
2021.000000	100.290681
2020.000000	100.288656
2019.000000	100.284370
2018.000000	100.279261
2017.000000	100.274825
2016.000000	100.271284
2015.000000	100.268100
2014.000000	100.265028
2013.000000	100.262133
2012.000000	100.259298
2011.000000	100.256332
2010.000000	100.253432
2009.000000	100.251099
2008.000000	100.249579
2007.000000	100.248574
2006.000000	100.247529
2005.000000	100.246126
2004.000000	100.244531
2003.000000	100.243193
2002.000000	100.242266
2001.000000	100.241229
2000.000000	100.239299
1999.000000	100.236366
1998.000000	100.233404
1997.000000	100.231583
1996.000000	100.231020
1995.000000	100.230737
1994.000000	100.229788
1993.000000	100.228176
1992.000000	100.226562
1991.000000	100.225404
1990.000000	100.224579
1989.000000	100.223669
1988.000000	100.222387
1987.000000	100.220807
1986.000000	100.219326
1985.000000	100.218323
1984.000000	100.217808
1983.000000	100.217465
1982.000000	100.216954
1981.000000	100.216151
1980.000000	100.215119
1979.000000	100.214021
1978.000000	100.213089
1977.000000	100.212516
1976.000000	100.212280
1975.000000	100.212088
1974.000000	100.211575
1973.000000	100.210617
1972.000000	100.209391
1971.000000	100.208215
1970.000000	100.207277
1969.000000	100.206521
1968.000000	100.205760
1967.000000	100.204946
1966.000000	100.204328
1965.000000	100.204167
1964.000000	100.204295
1963.000000	100.204143
1962.000000	100.203372
1961.000000	100.202375
1960.000000	100.201884
1959.000000	100.201938
1958.000000	100.201664
1957.000000	100.200329
1956.000000	100.198124
1955.000000	100.195790
1954.000000	100.193828
1953.000000	100.192460
1952.000000	100.192008
1951.000000	100.192674
1950.000000	100.193909
1949.000000	100.194598
1948.000000	100.194005
1947.000000	100.192166
1946.000000	100.189488
1945.000000	100.186473
1944.000000	100.183902
1943.000000	100.182749
1942.000000	100.183314
1941.000000	100.184567
1940.000000	100.184774
1939.000000	100.182839
1938.000000	100.179151
1937.000000	100.175390
1936.000000	100.173025
1935.000000	100.171864
1934.000000	100.170452
1933.000000	100.167880
1932.000000	100.164828
1931.000000	100.162478
1930.000000	100.160793
1929.000000	100.158663
1928.000000	100.155397
1927.000000	100.151227
1926.000000	100.146616
1925.000000	100.142065
1924.000000	100.138732
1923.000000	100.138085
1922.000000	100.139987
1921.000000	100.142015
1920.000000	100.141181
1919.000000	100.136077
1918.000000	100.128174
1917.000000	100.121117
1916.000000	100.117375
1915.000000	100.115622
1914.000000	100.112430
1913.000000	100.106116
1912.000000	100.098035
1911.000000	100.090162
1910.000000	100.082689
1909.000000	100.075037
1908.000000	100.067509
1907.000000	100.060364
1906.000000	100.052881
1905.000000	100.045157
1904.000000	100.039469
1903.000000	100.037417
1902.000000	100.036743
1901.000000	100.033823
1900.000000	100.028461
1899.000000	100.023439
1898.000000	100.019772
1897.000000	100.015176
1896.000000	100.007988
1895.000000	100.000152
1894.000000	99.994710
1893.000000	99.992272
1892.000000	99.991128
1891.000000	99.989435
1890.000000	99.986365
1889.000000	99.981872
1888.000000	99.976273
1887.000000	99.969879
1886.000000	99.963015
1885.000000	99.956491
1884.000000	99.951058
1883.000000	99.946159
1882.000000	99.940948
1881.000000	99.937211
1880.000000	99.938651
1879.000000	99.945968
1878.000000	99.954722
1877.000000	99.959768
1876.000000	99.960784
1875.000000	99.961139
1874.000000	99.962293
1873.000000	99.962341
1872.000000	99.959773
1871.000000	99.955873
1870.000000	99.953199
1869.000000	99.953672
1868.000000	99.958267
1867.000000	99.966127
1866.000000	99.973833
1865.000000	99.978174
1864.000000	99.979812
1863.000000	99.982426
1862.000000	99.988078
1861.000000	99.995163
1860.000000	100.001687
1859.000000	100.008317
1858.000000	100.016582
1857.000000	100.025847
1856.000000	100.033782
1855.000000	100.039010
1854.000000	100.042528
1853.000000	100.046729
1852.000000	100.052795
1851.000000	100.059099
1850.000000	100.063135
1849.000000	100.065076
1848.000000	100.068017
1847.000000	100.074186
1846.000000	100.082507
1845.000000	100.090562
1844.000000	100.097856
1843.000000	100.105587
1842.000000	100.113845
1841.000000	100.121041
1840.000000	100.125621
1839.000000	100.127325
1838.000000	100.127188
1837.000000	100.127290
1836.000000	100.130041
1835.000000	100.136058
1834.000000	100.142802
1833.000000	100.146503
1832.000000	100.145175
1831.000000	100.139917
1830.000000	100.134316
1829.000000	100.131799
1828.000000	100.133315
1827.000000	100.137456
1826.000000	100.141437
1825.000000	100.143121
1824.000000	100.143578
1823.000000	100.146079
1822.000000	100.151310
1821.000000	100.155998
1820.000000	100.157177
1819.000000	100.156017
1818.000000	100.155936
1817.000000	100.158016
1816.000000	100.160866
1815.000000	100.163631
1814.000000	100.166538
1813.000000	100.169235
1812.000000	100.171031
1811.000000	100.172581
1810.000000	100.174788
1809.000000	100.176741
1808.000000	100.177162
1807.000000	100.176520
1806.000000	100.176269
1805.000000	100.177051
1804.000000	100.178539
1803.000000	100.180452
1802.000000	100.182952
1801.000000	100.186181
1800.000000	100.189978
1799.000000	100.193915
1798.000000	100.197254
1797.000000	100.199435
1796.000000	100.200785
1795.000000	100.202123
1794.000000	100.203877
1793.000000	100.205777
1792.000000	100.207567
1791.000000	100.209715
1790.000000	100.212639
1789.000000	100.216000
1788.000000	100.219269
1787.000000	100.222406
1786.000000	100.225628
1785.000000	100.228831
1784.000000	100.231646
1783.000000	100.234008
1782.000000	100.236482
1781.000000	100.240123
1780.000000	100.245800
1779.000000	100.253336
1778.000000	100.261271
1777.000000	100.267410
1776.000000	100.269862
1775.000000	100.268108
1774.000000	100.264134
1773.000000	100.262376
1772.000000	100.265733
1771.000000	100.272083
1770.000000	100.277389
1769.000000	100.279785
1768.000000	100.280492
1767.000000	100.282845
1766.000000	100.288625
1765.000000	100.295751
1764.000000	100.300090
1763.000000	100.299409
1762.000000	100.296540
1761.000000	100.297379
1760.000000	100.304537
1759.000000	100.314773
1758.000000	100.321999
1757.000000	100.322718
1756.000000	100.319717
1755.000000	100.319791
1754.000000	100.326606
1753.000000	100.337486
1752.000000	100.346132
1751.000000	100.348171
1750.000000	100.345856
1749.000000	100.344450
1748.000000	100.345016
1747.000000	100.345093
1746.000000	100.343805
1745.000000	100.342727
1744.000000	100.343601
1743.000000	100.347058
1742.000000	100.351645
1741.000000	100.353265
1740.000000	100.348697
1739.000000	100.340767
1738.000000	100.336187
1737.000000	100.336176
1736.000000	100.335844
1735.000000	100.330055
1734.000000	100.317411
1733.000000	100.301820
1732.000000	100.288473
1731.000000	100.278490
1730.000000	100.271358
1729.000000	100.267449
1728.000000	100.263983
1727.000000	100.256537
1726.000000	100.243873
1725.000000	100.229855
1724.000000	100.219433
1723.000000	100.213818
1722.000000	100.209416
1721.000000	100.201558
1720.000000	100.188331
1719.000000	100.172476
1718.000000	100.159265
1717.000000	100.149059
1716.000000	100.139494
1715.000000	100.130467
1714.000000	100.120316
1713.000000	100.107758
1712.000000	100.095070
1711.000000	100.084804
1710.000000	100.076439
1709.000000	100.067207
1708.000000	100.055257
1707.000000	100.040781
1706.000000	100.024310
1705.000000	100.006341
1704.000000	99.989943
1703.000000	99.976340
1702.000000	99.960820
1701.000000	99.934714
1700.000000	99.899385
1699.000000	99.871275
1698.000000	99.855536
1697.000000	99.840349
1696.000000	99.817949
1695.000000	99.794384
1694.000000	99.777867
1693.000000	99.766951
1692.000000	99.755696
1691.000000	99.741219
1690.000000	99.723859
1689.000000	99.705216
1688.000000	99.686831
1687.000000	99.669173
1686.000000	99.650955
1685.000000	99.628302
1684.000000	99.598948
1683.000000	99.568516
1682.000000	99.544339
1681.000000	99.527050
1680.000000	99.513185
1679.000000	99.500366
1678.000000	99.486141
1677.000000	99.468998
1676.000000	99.449231
1675.000000	99.429791
1674.000000	99.413597
1673.000000	99.400025
1672.000000	99.385101
1671.000000	99.365403
1670.000000	99.340883
1669.000000	99.315989
1668.000000	99.296096
1667.000000	99.282019
1666.000000	99.270589
1665.000000	99.258119
1664.000000	99.243288
1663.000000	99.227251
1662.000000	99.210710
1661.000000	99.193535
1660.000000	99.175130
1659.000000	99.155142
1658.000000	99.133916
1657.000000	99.114564
1656.000000	99.099172
1655.000000	99.087343
1654.000000	99.072585
1653.000000	99.045716
1652.000000	99.018105
1651.000000	99.010777
1650.000000	99.021093
1649.000000	99.032282
1648.000000	99.034367
1647.000000	99.023927
1646.000000	99.008357
1645.000000	98.995368
1644.000000	98.986681
1643.000000	98.978349
1642.000000	98.967784
1641.000000	98.955784
1640.000000	98.946616
1639.000000	98.944195
1638.000000	98.947794
1637.000000	98.951976
1636.000000	98.950995
1635.000000	98.946781
1634.000000	98.950040
1633.000000	98.965053
1632.000000	98.984277
1631.000000	98.998521
1630.000000	99.003065
1629.000000	99.000623
1628.000000	98.999012
1627.000000	99.003686
1626.000000	99.013625
1625.000000	99.024955
1624.000000	99.036018
1623.000000	99.048162
1622.000000	99.063348
1621.000000	99.082185
1620.000000	99.102125
1619.000000	99.118759
1618.000000	99.129599
1617.000000	99.137807
1616.000000	99.150931
1615.000000	99.172195
1614.000000	99.198135
1613.000000	99.223168
1612.000000	99.243707
1611.000000	99.260128
1610.000000	99.276946
1609.000000	99.298790
1608.000000	99.323554
1607.000000	99.343392
1606.000000	99.355623
1605.000000	99.366760
1604.000000	99.382644
1603.000000	99.400526
1602.000000	99.414911
1601.000000	99.425948
1600.000000	99.436850
1599.000000	99.447180
1598.000000	99.454603
1597.000000	99.460232
1596.000000	99.467581
1595.000000	99.477281
1594.000000	99.486892
1593.000000	99.496110
1592.000000	99.507937
1591.000000	99.524168
1590.000000	99.542909
1589.000000	99.560774
1588.000000	99.574931
1587.000000	99.583500
1586.000000	99.587228
1585.000000	99.590320
1584.000000	99.596196
1583.000000	99.603273
1582.000000	99.608140
1581.000000	99.611035
1580.000000	99.614512
1579.000000	99.618708
1578.000000	99.622243
1577.000000	99.626752
1576.000000	99.635045
1575.000000	99.644704
1574.000000	99.652307
1573.000000	99.658103
1572.000000	99.663359
1571.000000	99.669308
1570.000000	99.675464
1569.000000	99.680366
1568.000000	99.683851
1567.000000	99.687432
1566.000000	99.692775
1565.000000	99.700690
1564.000000	99.709318
1563.000000	99.715505
1562.000000	99.718321
1561.000000	99.720292
1560.000000	99.726416
1559.000000	99.734963
1558.000000	99.736607
1557.000000	99.734409
1556.000000	99.734703
1555.000000	99.735195
1554.000000	99.737683
1553.000000	99.744369
1552.000000	99.755360
1551.000000	99.766459
1550.000000	99.773935
1549.000000	99.777556
1548.000000	99.780646
1547.000000	99.786380
1546.000000	99.795208
1545.000000	99.804715
1544.000000	99.811188
1543.000000	99.813393
1542.000000	99.814955
1541.000000	99.822723
1540.000000	99.838666
1539.000000	99.852648
1538.000000	99.856903
1537.000000	99.854047
1536.000000	99.846717
1535.000000	99.836480
1534.000000	99.826167
1533.000000	99.819939
1532.000000	99.819621
1531.000000	99.824065
1530.000000	99.830526
1529.000000	99.836603
1528.000000	99.841746
1527.000000	99.846744
1526.000000	99.851936
1525.000000	99.855958
1524.000000	99.857425
1523.000000	99.857217
1522.000000	99.858728
1521.000000	99.864219
1520.000000	99.872335
1519.000000	99.881558
1518.000000	99.892682
1517.000000	99.907563
1516.000000	99.925529
1515.000000	99.942735
1514.000000	99.956650
1513.000000	99.966914
1512.000000	99.974198
1511.000000	99.979873
1510.000000	99.984877
1509.000000	99.989323
1508.000000	99.995241
1507.000000	100.007881
1506.000000	100.023125
1505.000000	100.032291
1504.000000	100.037717
1503.000000	100.043628
1502.000000	100.052842
1501.000000	100.066079
1500.000000	100.080396
1499.000000	100.091343
1498.000000	100.098032
1497.000000	100.103091
1496.000000	100.109119
1495.000000	100.117200
1494.000000	100.125726
1493.000000	100.131389
1492.000000	100.132823
1491.000000	100.133002
1490.000000	100.137179
1489.000000	100.146597
1488.000000	100.159235
1487.000000	100.174176
1486.000000	100.188595
1485.000000	100.197903
1484.000000	100.200008
1483.000000	100.197259
1482.000000	100.195316
1481.000000	100.198229
1480.000000	100.205026
1479.000000	100.212420
1478.000000	100.219047
1477.000000	100.225672
1476.000000	100.233195
1475.000000	100.241420
1474.000000	100.249789
1473.000000	100.258732
1472.000000	100.268109
1471.000000	100.276586
1470.000000	100.282903
1469.000000	100.286841
1468.000000	100.290168
1467.000000	100.295736
1466.000000	100.303981
1465.000000	100.311244
1464.000000	100.313578
1463.000000	100.311476
1462.000000	100.307420
1461.000000	100.302765
1460.000000	100.299223
1459.000000	100.298933
1458.000000	100.301662
1457.000000	100.301103
1456.000000	100.293734
1455.000000	100.287412
1454.000000	100.286518
1453.000000	100.284981
1452.000000	100.277533
1451.000000	100.264741
1450.000000	100.251628
1449.000000	100.241954
1448.000000	100.237562
1447.000000	100.238789
1446.000000	100.242662
1445.000000	100.243854
1444.000000	100.239744
1443.000000	100.233369
1442.000000	100.229819
1441.000000	100.230102
1440.000000	100.230725
1439.000000	100.228949
1438.000000	100.226149
1437.000000	100.224998
1436.000000	100.225253
1435.000000	100.225654
1434.000000	100.225544
1433.000000	100.222531
1432.000000	100.215191
1431.000000	100.206732
1430.000000	100.202956
1429.000000	100.204852
1428.000000	100.206752
1427.000000	100.203781
1426.000000	100.197180
1425.000000	100.192281
1424.000000	100.192069
1423.000000	100.194530
1422.000000	100.196859
1421.000000	100.198984
1420.000000	100.202085
1419.000000	100.206121
1418.000000	100.209930
1417.000000	100.212120
1416.000000	100.212222
1415.000000	100.211679
1414.000000	100.213135
1413.000000	100.217885
1412.000000	100.224618
1411.000000	100.230851
1410.000000	100.235144
1409.000000	100.236819
1408.000000	100.235700
1407.000000	100.233106
1406.000000	100.231476
1405.000000	100.232624
1404.000000	100.236348
1403.000000	100.241832
1402.000000	100.248624
1401.000000	100.255110
1400.000000	100.258816
1399.000000	100.259362
1398.000000	100.259929
1397.000000	100.263452
1396.000000	100.269467
1395.000000	100.275727
1394.000000	100.281124
1393.000000	100.285781
1392.000000	100.289179
1391.000000	100.291024
1390.000000	100.292512
1389.000000	100.295142
1388.000000	100.299080
1387.000000	100.303402
1386.000000	100.307694
1385.000000	100.312181
1384.000000	100.316330
1383.000000	100.319105
1382.000000	100.320322
1381.000000	100.320842
1380.000000	100.321894
1379.000000	100.324111
1378.000000	100.327091
1377.000000	100.329676
1376.000000	100.330765
1375.000000	100.330054
1374.000000	100.328274
1373.000000	100.326519
1372.000000	100.325507
1371.000000	100.325554
1370.000000	100.326474
1369.000000	100.327454
1368.000000	100.327184
1367.000000	100.325323
1366.000000	100.323357
1365.000000	100.323015
1364.000000	100.325054
1363.000000	100.329937
1362.000000	100.337768
1361.000000	100.346663
1360.000000	100.352845
1359.000000	100.353656
1358.000000	100.350071
1357.000000	100.345835
1356.000000	100.343589
1355.000000	100.342939
1354.000000	100.342670
1353.000000	100.342781
1352.000000	100.343808
1351.000000	100.345291
1350.000000	100.346051
1349.000000	100.346144
1348.000000	100.346536
1347.000000	100.347326
1346.000000	100.347511
1345.000000	100.346355
1344.000000	100.344249
1343.000000	100.342492
1342.000000	100.342497
1341.000000	100.344657
1340.000000	100.347407
1339.000000	100.348219
1338.000000	100.346556
1337.000000	100.344502
1336.000000	100.343804
1335.000000	100.344171
1334.000000	100.344892
1333.000000	100.346471
1332.000000	100.349649
1331.000000	100.353592
1330.000000	100.356331
1329.000000	100.356614
1328.000000	100.354460
1327.000000	100.350649
1326.000000	100.346872
1325.000000	100.345606
1324.000000	100.347676
1323.000000	100.350417
1322.000000	100.349939
1321.000000	100.345328
1320.000000	100.339912
1319.000000	100.338295
1318.000000	100.342074
1317.000000	100.348255
1316.000000	100.351840
1315.000000	100.350261
1314.000000	100.345632
1313.000000	100.342464
1312.000000	100.342822
1311.000000	100.344549
1310.000000	100.344799
1309.000000	100.343992
1308.000000	100.345218
1307.000000	100.350163
1306.000000	100.356617
1305.000000	100.360339
1304.000000	100.358427
1303.000000	100.351231
1302.000000	100.342214
1301.000000	100.335999
1300.000000	100.335359
1299.000000	100.339602
1298.000000	100.345590
1297.000000	100.350345
1296.000000	100.352835
1295.000000	100.353693
1294.000000	100.353826
1293.000000	100.353247
1292.000000	100.351046
1291.000000	100.346761
1290.000000	100.341920
1289.000000	100.339632
1288.000000	100.341693
1287.000000	100.346046
1286.000000	100.347955
1285.000000	100.344182
1284.000000	100.335683
1283.000000	100.326476
1282.000000	100.320500
1281.000000	100.319564
1280.000000	100.323020
1279.000000	100.327916
1278.000000	100.330193
1277.000000	100.327642
1276.000000	100.322264
1275.000000	100.318785
1274.000000	100.320374
1273.000000	100.326304
1272.000000	100.333413
1271.000000	100.338486
1270.000000	100.339225
1269.000000	100.335049
1268.000000	100.328106
1267.000000	100.322132
1266.000000	100.318983
1265.000000	100.317359
1264.000000	100.316441
1263.000000	100.319020
1262.000000	100.327738
1261.000000	100.338554
1260.000000	100.341688
1259.000000	100.330770
1258.000000	100.309315
1257.000000	100.286973
1256.000000	100.270843
1255.000000	100.261532
1254.000000	100.255572
1253.000000	100.249184
1252.000000	100.240256
1251.000000	100.228867
1250.000000	100.216741
1249.000000	100.205522
1248.000000	100.195416
1247.000000	100.186030
1246.000000	100.178185
1245.000000	100.173551
1244.000000	100.171986
1243.000000	100.169880
1242.000000	100.161958
1241.000000	100.145082
1240.000000	100.120597
1239.000000	100.093395
1238.000000	100.068556
1237.000000	100.048215
1236.000000	100.031019
1235.000000	100.013766
1234.000000	99.993347
1233.000000	99.968363
1232.000000	99.940564
1231.000000	99.914789
1230.000000	99.895384
1229.000000	99.880923
1228.000000	99.863367
1227.000000	99.834458
1226.000000	99.793628
1225.000000	99.748808
1224.000000	99.708386
1223.000000	99.672307
1222.000000	99.632032
1221.000000	99.579923
1220.000000	99.518254
1219.000000	99.458182
1218.000000	99.409127
1217.000000	99.369432
1216.000000	99.328293
1215.000000	99.276284
1214.000000	99.212985
1213.000000	99.144776
1212.000000	99.076698
1211.000000	99.007830
1210.000000	98.934322
1209.000000	98.855018
1208.000000	98.772777
1207.000000	98.691304
1206.000000	98.612709
1205.000000	98.538074
1204.000000	98.467558
1203.000000	98.398430
1202.000000	98.325605
1201.000000	98.246657
1200.000000	98.164428
1199.000000	98.082380
1198.000000	97.999728
1197.000000	97.914508
1196.000000	97.829162
1195.000000	97.747891
1194.000000	97.669314
1193.000000	97.587422
1192.000000	97.500107
1191.000000	97.410994
1190.000000	97.321382
1189.000000	97.226268
1188.000000	97.121788
1187.000000	97.012400
1186.000000	96.906669
1185.000000	96.808326
1184.000000	96.714789
1183.000000	96.622330
1182.000000	96.529104
1181.000000	96.433761
1180.000000	96.333465
1179.000000	96.223739
1178.000000	96.100504
1177.000000	95.963418
1176.000000	95.816866
1175.000000	95.666154
1174.000000	95.513407
1173.000000	95.359138
1172.000000	95.206076
1171.000000	95.057329
1170.000000	94.911611
1169.000000	94.765018
1168.000000	94.617949
1167.000000	94.476653
1166.000000	94.348633
1165.000000	94.240719
1164.000000	94.160209
1163.000000	94.111839
1162.000000	94.093607
1161.000000	94.100237
1160.000000	94.128321
1159.000000	94.170861
1158.000000	94.208949
1157.000000	94.218747
1156.000000	94.188972
1155.000000	94.126611
1154.000000	94.046164
1153.000000	93.958090
1152.000000	93.866606
1151.000000	93.771869
1150.000000	93.672255
1149.000000	93.568108
1148.000000	93.462792
1147.000000	93.357077
1146.000000	93.246497
1145.000000	93.130325
1144.000000	93.018304
1143.000000	92.919141
1142.000000	92.825562
1141.000000	92.721892
1140.000000	92.604997
1139.000000	92.486372
1138.000000	92.373755
1137.000000	92.262393
1136.000000	92.146247
1135.000000	92.026384
1134.000000	91.905032
1133.000000	91.781207
1132.000000	91.655845
1131.000000	91.533363
1130.000000	91.415457
1129.000000	91.299876
1128.000000	91.185261
1127.000000	91.069260
1126.000000	90.943784
1125.000000	90.803014
1124.000000	90.655453
1123.000000	90.516023
1122.000000	90.385364
1121.000000	90.249191
1120.000000	90.100033
1119.000000	89.947540
1118.000000	89.804588
1117.000000	89.675160
1116.000000	89.558490
1115.000000	89.452569
1114.000000	89.350345
1113.000000	89.244607
1112.000000	89.140166
1111.000000	89.049525
1110.000000	88.973914
1109.000000	88.899759
1108.000000	88.815173
1107.000000	88.718576
1106.000000	88.611525
1105.000000	88.497520
1104.000000	88.388427
1103.000000	88.296221
1102.000000	88.215822
1101.000000	88.129732
1100.000000	88.031481
1099.000000	87.931056
1098.000000	87.836557
1097.000000	87.746818
1096.000000	87.661342
1095.000000	87.580694
1094.000000	87.497056
1093.000000	87.402733
1092.000000	87.307725
1091.000000	87.228760
1090.000000	87.160104
1089.000000	87.077357
1088.000000	86.973380
1087.000000	86.868158
1086.000000	86.778366
1085.000000	86.699081
1084.000000	86.621616
1083.000000	86.546914
1082.000000	86.473284
1081.000000	86.392445
1080.000000	86.307348
1079.000000	86.234167
1078.000000	86.175849
1077.000000	86.111532
1076.000000	86.022803
1075.000000	85.913889
1074.000000	85.796670
1073.000000	85.670838
1072.000000	85.528135
1071.000000	85.362807
1070.000000	85.171289
1069.000000	84.954861
1068.000000	84.727239
1067.000000	84.504525
1066.000000	84.282217
1065.000000	84.038345
1064.000000	83.764600
1063.000000	83.478503
1062.000000	83.200519
1061.000000	82.935185
1060.000000	82.678889
1059.000000	82.427890
1058.000000	82.173989
1057.000000	81.910900
1056.000000	81.648988
1055.000000	81.404300
1054.000000	81.168679
1053.000000	80.912145
1052.000000	80.621864
1051.000000	80.317006
1050.000000	80.016790
1049.000000	79.718145
1048.000000	79.414270
1047.000000	79.108678
1046.000000	78.802090
1045.000000	78.490306
1044.000000	78.181295
1043.000000	77.890696
1042.000000	77.614805
1041.000000	77.331156
1040.000000	77.031703
1039.000000	76.732763
1038.000000	76.447471
1037.000000	76.173341
1036.000000	75.911712
1035.000000	75.672195
1034.000000	75.451290
1033.000000	75.234137
1032.000000	75.025366
1031.000000	74.850724
1030.000000	74.719056
1029.000000	74.608777
1028.000000	74.500765
1027.000000	74.399610
1026.000000	74.313740
1025.000000	74.240680
1024.000000	74.181063
1023.000000	74.141437
1022.000000	74.112969
1021.000000	74.070919
1020.000000	74.004796
1019.000000	73.927295
1018.000000	73.846786
1017.000000	73.754625
1016.000000	73.646383
1015.000000	73.531817
1014.000000	73.416567
1013.000000	73.296418
1012.000000	73.174738
1011.000000	73.061926
1010.000000	72.953768
1009.000000	72.836408
1008.000000	72.717542
1007.000000	72.624816
1006.000000	72.566904
1005.000000	72.524461
1004.000000	72.487045
1003.000000	72.470335
1002.000000	72.486444
1001.000000	72.524900
1000.000000	72.574655
999.000000	72.639873
998.000000	72.722002
997.000000	72.809617
996.000000	72.898123
995.000000	72.998429
994.000000	73.114911
993.000000	73.234309
992.000000	73.346094
991.000000	73.455933
990.000000	73.571604
989.000000	73.693570
988.000000	73.825064
987.000000	73.972531
986.000000	74.130693
985.000000	74.286022
984.000000	74.439326
983.000000	74.605783
982.000000	74.789504
981.000000	74.978828
980.000000	75.170380
979.000000	75.376214
978.000000	75.602394
977.000000	75.841141
976.000000	76.088442
975.000000	76.348796
974.000000	76.618313
973.000000	76.884581
972.000000	77.148801
971.000000	77.427400
970.000000	77.725708
969.000000	78.029328
968.000000	78.327016
967.000000	78.623096
966.000000	78.921792
965.000000	79.218225
964.000000	79.511184
963.000000	79.807107
962.000000	80.104968
961.000000	80.393694
960.000000	80.670790
959.000000	80.947974
958.000000	81.232142
957.000000	81.514524
956.000000	81.784026
955.000000	82.038860
954.000000	82.281884
953.000000	82.516724
952.000000	82.749778
951.000000	82.982408
950.000000	83.200587
949.000000	83.387419
948.000000	83.546852
947.000000	83.699781
946.000000	83.854873
945.000000	83.998950
944.000000	84.119043
943.000000	84.218911
942.000000	84.311312
941.000000	84.407977
940.000000	84.519151
939.000000	84.647415
938.000000	84.778613
937.000000	84.893711
936.000000	84.992613
935.000000	85.093115
934.000000	85.205674
933.000000	85.324153
932.000000	85.441421
931.000000	85.556498
930.000000	85.665378
929.000000	85.763295
928.000000	85.858064
927.000000	85.961562
926.000000	86.064122
925.000000	86.137767
924.000000	86.171952
923.000000	86.187899
922.000000	86.209298
921.000000	86.235337
920.000000	86.251296
919.000000	86.250128
918.000000	86.234584
917.000000	86.212209
916.000000	86.197797
915.000000	86.208832
914.000000	86.250300
913.000000	86.314860
912.000000	86.403476
911.000000	86.533054
910.000000	86.717196
909.000000	86.950496
908.000000	87.215330
907.000000	87.492914
906.000000	87.768336
905.000000	88.040758
904.000000	88.329729
903.000000	88.653907
902.000000	89.000606
901.000000	89.333479
900.000000	89.634462
899.000000	89.920084
898.000000	90.211303
897.000000	90.506951
896.000000	90.795352
895.000000	91.074090
894.000000	91.345814
893.000000	91.607701
892.000000	91.857304
891.000000	92.099413
890.000000	92.336891
889.000000	92.562809
888.000000	92.771094
887.000000	92.968407
886.000000	93.167136
885.000000	93.371716
884.000000	93.578078
883.000000	93.780583
882.000000	93.973593
881.000000	94.152229
880.000000	94.317771
879.000000	94.478508
878.000000	94.641591
877.000000	94.808672
876.000000	94.981518
875.000000	95.164063
874.000000	95.354788
873.000000	95.544245
872.000000	95.724717
871.000000	95.897474
870.000000	96.068599
869.000000	96.243142
868.000000	96.424374
867.000000	96.611892
866.000000	96.798052
865.000000	96.972175
864.000000	97.131332
863.000000	97.283965
862.000000	97.442105
861.000000	97.612207
860.000000	97.791030
859.000000	97.965413
858.000000	98.119311
857.000000	98.248834
856.000000	98.368974
855.000000	98.498026
854.000000	98.636038
853.000000	98.765703
852.000000	98.873064
851.000000	98.959411
850.000000	99.034158
849.000000	99.104927
848.000000	99.174526
847.000000	99.238268
846.000000	99.283941
845.000000	99.304788
844.000000	99.314170
843.000000	99.336594
842.000000	99.379785
841.000000	99.424886
840.000000	99.449360
839.000000	99.451627
838.000000	99.448038
837.000000	99.452177
836.000000	99.462702
835.000000	99.466979
834.000000	99.453002
833.000000	99.422574
832.000000	99.396178
831.000000	99.399947
830.000000	99.442824
829.000000	99.508031
828.000000	99.567397
827.000000	99.600106
826.000000	99.599865
825.000000	99.573761
824.000000	99.537714
823.000000	99.506091
822.000000	99.482007
821.000000	99.461207
820.000000	99.442911
819.000000	99.429148
818.000000	99.414930
817.000000	99.386037
816.000000	99.325417
815.000000	99.217622
814.000000	99.052505
813.000000	98.832823
812.000000	98.573785
811.000000	98.283948
810.000000	97.948753
809.000000	97.545355
808.000000	97.072145
807.000000	96.549636
806.000000	95.993107
805.000000	95.403436
804.000000	94.791013
803.000000	94.190572
802.000000	93.641642
801.000000	93.167434
800.000000	92.779648
799.000000	92.485826
798.000000	92.280857
797.000000	92.146180
796.000000	92.068026
795.000000	92.045107
794.000000	92.072851
793.000000	92.134172
792.000000	92.211364
791.000000	92.292839
790.000000	92.363144
789.000000	92.401410
788.000000	92.396234
787.000000	92.349696
786.000000	92.262333
785.000000	92.127878
784.000000	91.948348
783.000000	91.741368
782.000000	91.527442
781.000000	91.323085
780.000000	91.149942
779.000000	91.033421
778.000000	90.984422
777.000000	90.995953
776.000000	91.061611
775.000000	91.180458
774.000000	91.339587
773.000000	91.513206
772.000000	91.689570
771.000000	91.882064
770.000000	92.102637
769.000000	92.337694
768.000000	92.559448
767.000000	92.749034
766.000000	92.901602
765.000000	93.023211
764.000000	93.132682
763.000000	93.253589
762.000000	93.392046
761.000000	93.530613
760.000000	93.652744
759.000000	93.763939
758.000000	93.880258
757.000000	94.005901
756.000000	94.132257
755.000000	94.251906
754.000000	94.365357
753.000000	94.479727
752.000000	94.605614
751.000000	94.746636
750.000000	94.886757
