4000.000000	99.935624
3999.000000	99.933054
3998.000000	99.930252
3997.000000	99.927428
3996.000000	99.925136
3995.000000	99.923955
3994.000000	99.923868
3993.000000	99.924280
3992.000000	99.924435
3991.000000	99.924047
3990.000000	99.923304
3989.000000	99.922428
3988.000000	99.921468
3987.000000	99.920371
3986.000000	99.919135
3985.000000	99.917942
3984.000000	99.917043
3983.000000	99.916483
3982.000000	99.916041
3981.000000	99.915400
3980.000000	99.914440
3979.000000	99.913325
3978.000000	99.912343
3977.000000	99.911634
3976.000000	99.911097
3975.000000	99.910514
3974.000000	99.909725
3973.000000	99.908712
3972.000000	99.907621
3971.000000	99.906726
3970.000000	99.906279
3969.000000	99.906335
3968.000000	99.906651
3967.000000	99.906763
3966.000000	99.906250
3965.000000	99.904997
3964.000000	99.903372
3963.000000	99.902131
3962.000000	99.901866
3961.000000	99.902520
3960.000000	99.903402
3959.000000	99.903731
3958.000000	99.903174
3957.000000	99.901926
3956.000000	99.900560
3955.000000	99.899760
3954.000000	99.899980
3953.000000	99.901164
3952.000000	99.902733
3951.000000	99.904009
3950.000000	99.904887
3949.000000	99.906027
3948.000000	99.908052
3947.000000	99.910365
3946.000000	99.911205
3945.000000	99.909173
3944.000000	99.904646
3943.000000	99.899875
3942.000000	99.897055
3941.000000	99.896341
3940.000000	99.896327
3939.000000	99.896143
3938.000000	99.896374
3937.000000	99.897827
3936.000000	99.900024
3935.000000	99.901299
3934.000000	99.900264
3933.000000	99.896882
3932.000000	99.892365
3931.000000	99.888197
3930.000000	99.885234
3929.000000	99.883557
3928.000000	99.882844
3927.000000	99.882820
3926.000000	99.883505
3925.000000	99.885228
3924.000000	99.888231
3923.000000	99.892019
3922.000000	99.895554
3921.000000	99.898106
3920.000000	99.899577
3919.000000	99.900343
3918.000000	99.900983
3917.000000	99.901812
3916.000000	99.902342
3915.000000	99.901394
3914.000000	99.898008
3913.000000	99.892394
3912.000000	99.885939
3911.000000	99.880257
3910.000000	99.876149
3909.000000	99.873608
3908.000000	99.872656
3907.000000	99.873933
3906.000000	99.878235
3905.000000	99.885541
3904.000000	99.894607
3903.000000	99.903138
3902.000000	99.908500
3901.000000	99.909330
3900.000000	99.906382
3899.000000	99.901825
3898.000000	99.897551
3897.000000	99.893953
3896.000000	99.890680
3895.000000	99.887706
3894.000000	99.885418
3893.000000	99.884453
3892.000000	99.885514
3891.000000	99.888786
3890.000000	99.892813
3889.000000	99.895328
3888.000000	99.895384
3887.000000	99.893665
3886.000000	99.891710
3885.000000	99.890931
3884.000000	99.891324
3883.000000	99.891683
3882.000000	99.891307
3881.000000	99.890841
3880.000000	99.891535
3879.000000	99.893585
3878.000000	99.895879
3877.000000	99.897409
3876.000000	99.897922
3875.000000	99.897787
3874.000000	99.897813
3873.000000	99.898447
3872.000000	99.899088
3871.000000	99.898795
3870.000000	99.897573
3869.000000	99.896458
3868.000000	99.896188
3867.000000	99.896647
3866.000000	99.897397
3865.000000	99.898046
3864.000000	99.898618
3863.000000	99.899495
3862.000000	99.900844
3861.000000	99.902313
3860.000000	99.903293
3859.000000	99.903459
3858.000000	99.903029
3857.000000	99.902621
3856.000000	99.902729
3855.000000	99.903065
3854.000000	99.902705
3853.000000	99.901785
3852.000000	99.901401
3851.000000	99.901755
3850.000000	99.902558
3849.000000	99.903565
3848.000000	99.904520
3847.000000	99.905298
3846.000000	99.906023
3845.000000	99.906949
3844.000000	99.908112
3843.000000	99.909123
3842.000000	99.909407
3841.000000	99.908670
3840.000000	99.907180
3839.000000	99.905897
3838.000000	99.905812
3837.000000	99.907126
3836.000000	99.909081
3835.000000	99.910675
3834.000000	99.911652
3833.000000	99.912483
3832.000000	99.913688
3831.000000	99.915124
3830.000000	99.916006
3829.000000	99.915760
3828.000000	99.914617
3827.000000	99.913429
3826.000000	99.912848
3825.000000	99.912833
3824.000000	99.912938
3823.000000	99.912793
3822.000000	99.912334
3821.000000	99.912024
3820.000000	99.912315
3819.000000	99.912780
3818.000000	99.912865
3817.000000	99.912631
3816.000000	99.912405
3815.000000	99.912317
3814.000000	99.912130
3813.000000	99.911631
3812.000000	99.910969
3811.000000	99.910402
3810.000000	99.909982
3809.000000	99.909554
3808.000000	99.909024
3807.000000	99.908678
3806.000000	99.908979
3805.000000	99.909927
3804.000000	99.911034
3803.000000	99.911718
3802.000000	99.911719
3801.000000	99.911635
3800.000000	99.911981
3799.000000	99.911977
3798.000000	99.910601
3797.000000	99.907777
3796.000000	99.904589
3795.000000	99.902585
3794.000000	99.902413
3793.000000	99.903578
3792.000000	99.905106
3791.000000	99.906190
3790.000000	99.906639
3789.000000	99.906608
3788.000000	99.905990
3787.000000	99.904387
3786.000000	99.901762
3785.000000	99.898961
3784.000000	99.897193
3783.000000	99.896941
3782.000000	99.897596
3781.000000	99.898089
3780.000000	99.897951
3779.000000	99.897863
3778.000000	99.898741
3777.000000	99.900262
3776.000000	99.900981
3775.000000	99.899875
3774.000000	99.897390
3773.000000	99.895183
3772.000000	99.894922
3771.000000	99.897085
3770.000000	99.900743
3769.000000	99.904077
3768.000000	99.904689
3767.000000	99.901581
3766.000000	99.897264
3765.000000	99.896084
3764.000000	99.899677
3763.000000	99.905157
3762.000000	99.908195
3761.000000	99.906870
3760.000000	99.902934
3759.000000	99.900303
3758.000000	99.900543
3757.000000	99.900509
3756.000000	99.895605
3755.000000	99.884194
3754.000000	99.869461
3753.000000	99.858033
3752.000000	99.855411
3751.000000	99.860899
3750.000000	99.866371
3749.000000	99.861465
3748.000000	99.843165
3747.000000	99.819462
3746.000000	99.803176
3745.000000	99.801959
3744.000000	99.813366
3743.000000	99.826184
3742.000000	99.831235
3741.000000	99.830783
3740.000000	99.832236
3739.000000	99.839332
3738.000000	99.848179
3737.000000	99.849214
3736.000000	99.836667
3735.000000	99.816067
3734.000000	99.797994
3733.000000	99.786383
3732.000000	99.778851
3731.000000	99.772229
3730.000000	99.765013
3729.000000	99.757892
3728.000000	99.751667
3727.000000	99.744939
3726.000000	99.734865
3725.000000	99.719318
3724.000000	99.698117
3723.000000	99.672824
3722.000000	99.646127
3721.000000	99.620100
3720.000000	99.594834
3719.000000	99.569653
3718.000000	99.544482
3717.000000	99.519953
3716.000000	99.495936
3715.000000	99.469612
3714.000000	99.434767
3713.000000	99.384728
3712.000000	99.321561
3711.000000	99.260194
3710.000000	99.212862
3709.000000	99.175405
3708.000000	99.136262
3707.000000	99.090274
3706.000000	99.040184
3705.000000	98.989776
3704.000000	98.938476
3703.000000	98.883405
3702.000000	98.826507
3701.000000	98.776002
3700.000000	98.737658
3699.000000	98.710166
3698.000000	98.690508
3697.000000	98.679100
3696.000000	98.678810
3695.000000	98.690582
3694.000000	98.711000
3693.000000	98.734100
3692.000000	98.755512
3691.000000	98.775409
3690.000000	98.797479
3689.000000	98.823185
3688.000000	98.846525
3687.000000	98.858918
3686.000000	98.860570
3685.000000	98.860356
3684.000000	98.866154
3683.000000	98.877789
3682.000000	98.887104
3681.000000	98.885879
3680.000000	98.874093
3679.000000	98.859639
3678.000000	98.849538
3677.000000	98.841104
3676.000000	98.825687
3675.000000	98.805088
3674.000000	98.784708
3673.000000	98.760954
3672.000000	98.731941
3671.000000	98.700508
3670.000000	98.672375
3669.000000	98.654614
3668.000000	98.645516
3667.000000	98.636172
3666.000000	98.621426
3665.000000	98.600439
3664.000000	98.573314
3663.000000	98.541031
3662.000000	98.506479
3661.000000	98.474344
3660.000000	98.448784
3659.000000	98.430280
3658.000000	98.414430
3657.000000	98.394943
3656.000000	98.370353
3655.000000	98.345059
3654.000000	98.323988
3653.000000	98.309706
3652.000000	98.300814
3651.000000	98.288974
3650.000000	98.263397
3649.000000	98.224027
3648.000000	98.183248
3647.000000	98.152366
3646.000000	98.134189
3645.000000	98.125506
3644.000000	98.120320
3643.000000	98.112842
3642.000000	98.099684
3641.000000	98.081589
3640.000000	98.062016
3639.000000	98.043726
3638.000000	98.026892
3637.000000	98.009674
3636.000000	97.990676
3635.000000	97.971033
3634.000000	97.953893
3633.000000	97.940935
3632.000000	97.928898
3631.000000	97.909404
3630.000000	97.873655
3629.000000	97.825768
3628.000000	97.784334
3627.000000	97.755406
3626.000000	97.729039
3625.000000	97.698756
3624.000000	97.665897
3623.000000	97.635255
3622.000000	97.612090
3621.000000	97.600690
3620.000000	97.604187
3619.000000	97.624282
3618.000000	97.658365
3617.000000	97.698257
3616.000000	97.736299
3615.000000	97.769375
3614.000000	97.797531
3613.000000	97.822122
3612.000000	97.843899
3611.000000	97.861606
3610.000000	97.873530
3609.000000	97.879718
3608.000000	97.882874
3607.000000	97.886163
3606.000000	97.889401
3605.000000	97.890767
3604.000000	97.890982
3603.000000	97.893185
3602.000000	97.899387
3601.000000	97.907567
3600.000000	97.913397
3599.000000	97.914669
3598.000000	97.913758
3597.000000	97.915059
3596.000000	97.920680
3595.000000	97.928378
3594.000000	97.934635
3593.000000	97.938354
3592.000000	97.941893
3591.000000	97.948999
3590.000000	97.960655
3589.000000	97.972296
3588.000000	97.977717
3587.000000	97.977375
3586.000000	97.976997
3585.000000	97.979925
3584.000000	97.985581
3583.000000	97.991453
3582.000000	97.994465
3581.000000	97.992947
3580.000000	97.987855
3579.000000	97.982077
3578.000000	97.978542
3577.000000	97.978230
3576.000000	97.979508
3575.000000	97.979543
3574.000000	97.976852
3573.000000	97.972902
3572.000000	97.970973
3571.000000	97.972885
3570.000000	97.976681
3569.000000	97.977637
3568.000000	97.972920
3567.000000	97.965577
3566.000000	97.961768
3565.000000	97.963390
3564.000000	97.967417
3563.000000	97.969962
3562.000000	97.969319
3561.000000	97.966257
3560.000000	97.962777
3559.000000	97.960585
3558.000000	97.960243
3557.000000	97.961244
3556.000000	97.962431
3555.000000	97.962562
3554.000000	97.960967
3553.000000	97.958028
3552.000000	97.954857
3551.000000	97.952235
3550.000000	97.950069
3549.000000	97.947871
3548.000000	97.945338
3547.000000	97.942494
3546.000000	97.939527
3545.000000	97.936553
3544.000000	97.933489
3543.000000	97.930188
3542.000000	97.926734
3541.000000	97.923556
3540.000000	97.921142
3539.000000	97.919625
3538.000000	97.918642
3537.000000	97.917556
3536.000000	97.915976
3535.000000	97.913981
3534.000000	97.911942
3533.000000	97.910106
3532.000000	97.908333
3531.000000	97.906197
3530.000000	97.903397
3529.000000	97.900148
3528.000000	97.897134
3527.000000	97.894882
3526.000000	97.893154
3525.000000	97.891035
3524.000000	97.887757
3523.000000	97.883396
3522.000000	97.878912
3521.000000	97.875291
3520.000000	97.872851
3519.000000	97.871267
3518.000000	97.869918
3517.000000	97.868357
3516.000000	97.866415
3515.000000	97.864022
3514.000000	97.861173
3513.000000	97.858047
3512.000000	97.855030
3511.000000	97.852456
3510.000000	97.850310
3509.000000	97.848223
3508.000000	97.845805
3507.000000	97.842999
3506.000000	97.840044
3505.000000	97.837125
3504.000000	97.834152
3503.000000	97.830923
3502.000000	97.827433
3501.000000	97.823965
3500.000000	97.820884
3499.000000	97.818361
3498.000000	97.816255
3497.000000	97.814113
3496.000000	97.811420
3495.000000	97.807976
3494.000000	97.804068
3493.000000	97.800293
3492.000000	97.796986
3491.000000	97.793959
3490.000000	97.790798
3489.000000	97.787399
3488.000000	97.784136
3487.000000	97.781438
3486.000000	97.779167
3485.000000	97.776525
3484.000000	97.772814
3483.000000	97.768063
3482.000000	97.763009
3481.000000	97.758413
3480.000000	97.754482
3479.000000	97.751012
3478.000000	97.747798
3477.000000	97.744726
3476.000000	97.741592
3475.000000	97.738118
3474.000000	97.734221
3473.000000	97.730130
3472.000000	97.726173
3471.000000	97.722540
3470.000000	97.719306
3469.000000	97.716477
3468.000000	97.713878
3467.000000	97.711102
3466.000000	97.707840
3465.000000	97.704183
3464.000000	97.700419
3463.000000	97.696568
3462.000000	97.692335
3461.000000	97.687702
3460.000000	97.683449
3459.000000	97.680747
3458.000000	97.679941
3457.000000	97.679743
3456.000000	97.677994
3455.000000	97.673624
3454.000000	97.667787
3453.000000	97.662843
3452.000000	97.660158
3451.000000	97.659126
3450.000000	97.658191
3449.000000	97.656467
3448.000000	97.654216
3447.000000	97.652093
3446.000000	97.650095
3445.000000	97.647200
3444.000000	97.642160
3443.000000	97.634759
3442.000000	97.626219
3441.000000	97.618277
3440.000000	97.611697
3439.000000	97.606111
3438.000000	97.601308
3437.000000	97.597875
3436.000000	97.596190
3435.000000	97.595452
3434.000000	97.594395
3433.000000	97.592559
3432.000000	97.590211
3431.000000	97.587409
3430.000000	97.584086
3429.000000	97.580909
3428.000000	97.579002
3427.000000	97.578495
3426.000000	97.578026
3425.000000	97.576077
3424.000000	97.572464
3423.000000	97.568259
3422.000000	97.564684
3421.000000	97.562298
3420.000000	97.560947
3419.000000	97.559930
3418.000000	97.558389
3417.000000	97.556033
3416.000000	97.553517
3415.000000	97.551739
3414.000000	97.550639
3413.000000	97.549016
3412.000000	97.545787
3411.000000	97.541236
3410.000000	97.536986
3409.000000	97.534641
3408.000000	97.534559
3407.000000	97.535775
3406.000000	97.536716
3405.000000	97.536299
3404.000000	97.534531
3403.000000	97.532370
3402.000000	97.531022
3401.000000	97.531043
3400.000000	97.532030
3399.000000	97.533052
3398.000000	97.533344
3397.000000	97.532630
3396.000000	97.531003
3395.000000	97.528845
3394.000000	97.526825
3393.000000	97.525577
3392.000000	97.525058
3391.000000	97.524473
3390.000000	97.523116
3389.000000	97.521233
3388.000000	97.519720
3387.000000	97.519025
3386.000000	97.518690
3385.000000	97.518073
3384.000000	97.517185
3383.000000	97.516667
3382.000000	97.517156
3381.000000	97.518828
3380.000000	97.521353
3379.000000	97.524075
3378.000000	97.526308
3377.000000	97.527717
3376.000000	97.528413
3375.000000	97.528680
3374.000000	97.528661
3373.000000	97.528304
3372.000000	97.527564
3371.000000	97.526650
3370.000000	97.526057
3369.000000	97.526275
3368.000000	97.527300
3367.000000	97.528535
3366.000000	97.529281
3365.000000	97.529390
3364.000000	97.529359
3363.000000	97.529840
3362.000000	97.531053
3361.000000	97.532658
3360.000000	97.534101
3359.000000	97.535036
3358.000000	97.535530
3357.000000	97.535918
3356.000000	97.536466
3355.000000	97.537148
3354.000000	97.537811
3353.000000	97.538475
3352.000000	97.539342
3351.000000	97.540510
3350.000000	97.541835
3349.000000	97.543045
3348.000000	97.544005
3347.000000	97.544780
3346.000000	97.545538
3345.000000	97.546401
3344.000000	97.547365
3343.000000	97.548352
3342.000000	97.549295
3341.000000	97.550176
3340.000000	97.551022
3339.000000	97.551851
3338.000000	97.552644
3337.000000	97.553376
3336.000000	97.554079
3335.000000	97.554839
3334.000000	97.555695
3333.000000	97.556574
3332.000000	97.557390
3331.000000	97.558188
3330.000000	97.559133
3329.000000	97.560353
3328.000000	97.561833
3327.000000	97.563458
3326.000000	97.565075
3325.000000	97.566517
3324.000000	97.567651
3323.000000	97.568459
3322.000000	97.569131
3321.000000	97.569983
3320.000000	97.571231
3319.000000	97.572874
3318.000000	97.574676
3317.000000	97.576316
3316.000000	97.577587
3315.000000	97.578530
3314.000000	97.579389
3313.000000	97.580345
3312.000000	97.581299
3311.000000	97.582015
3310.000000	97.582513
3309.000000	97.583178
3308.000000	97.584316
3307.000000	97.585706
3306.000000	97.586926
3305.000000	97.588048
3304.000000	97.589577
3303.000000	97.591685
3302.000000	97.593875
3301.000000	97.595545
3300.000000	97.596708
3299.000000	97.597830
3298.000000	97.599194
3297.000000	97.600680
3296.000000	97.602089
3295.000000	97.603386
3294.000000	97.604569
3293.000000	97.605571
3292.000000	97.606413
3291.000000	97.607323
3290.000000	97.608547
3289.000000	97.610102
3288.000000	97.611777
3287.000000	97.613367
3286.000000	97.614878
3285.000000	97.616501
3284.000000	97.618428
3283.000000	97.620658
3282.000000	97.622902
3281.000000	97.624741
3280.000000	97.625940
3279.000000	97.626567
3278.000000	97.626978
3277.000000	97.627656
3276.000000	97.628885
3275.000000	97.630598
3274.000000	97.632475
3273.000000	97.634235
3272.000000	97.635902
3271.000000	97.637664
3270.000000	97.639565
3269.000000	97.641463
3268.000000	97.643267
3267.000000	97.645043
3266.000000	97.646869
3265.000000	97.648709
3264.000000	97.650479
3263.000000	97.652171
3262.000000	97.653809
3261.000000	97.655370
3260.000000	97.656861
3259.000000	97.658431
3258.000000	97.660250
3257.000000	97.662286
3256.000000	97.664267
3255.000000	97.665938
3254.000000	97.667329
3253.000000	97.668770
3252.000000	97.670571
3251.000000	97.672723
3250.000000	97.674967
3249.000000	97.677108
3248.000000	97.679207
3247.000000	97.681434
3246.000000	97.683810
3245.000000	97.686152
3244.000000	97.688226
3243.000000	97.689952
3242.000000	97.691470
3241.000000	97.693051
3240.000000	97.694924
3239.000000	97.697164
3238.000000	97.699717
3237.000000	97.702449
3236.000000	97.705177
3235.000000	97.707735
3234.000000	97.710123
3233.000000	97.712596
3232.000000	97.715497
3231.000000	97.718921
3230.000000	97.722552
3229.000000	97.725841
3228.000000	97.728378
3227.000000	97.730162
3226.000000	97.731720
3225.000000	97.733893
3224.000000	97.737261
3223.000000	97.741727
3222.000000	97.746552
3221.000000	97.750875
3220.000000	97.754253
3219.000000	97.756693
3218.000000	97.758530
3217.000000	97.760333
3216.000000	97.762700
3215.000000	97.765923
3214.000000	97.769794
3213.000000	97.773880
3212.000000	97.778062
3211.000000	97.782611
3210.000000	97.787694
3209.000000	97.792929
3208.000000	97.797616
3207.000000	97.801440
3206.000000	97.804825
3205.000000	97.808551
3204.000000	97.812914
3203.000000	97.817346
3202.000000	97.820996
3201.000000	97.823661
3200.000000	97.825952
3199.000000	97.828521
3198.000000	97.831384
3197.000000	97.834275
3196.000000	97.837401
3195.000000	97.841401
3194.000000	97.846581
3193.000000	97.852551
3192.000000	97.858604
3191.000000	97.864104
3190.000000	97.868420
3189.000000	97.870974
3188.000000	97.871835
3187.000000	97.872244
3186.000000	97.874083
3185.000000	97.878549
3184.000000	97.885376
3183.000000	97.893171
3182.000000	97.900495
3181.000000	97.906828
3180.000000	97.912700
3179.000000	97.918858
3178.000000	97.925158
3177.000000	97.930341
3176.000000	97.933058
3175.000000	97.933115
3174.000000	97.931883
3173.000000	97.931558
3172.000000	97.933776
3171.000000	97.938844
3170.000000	97.945969
3169.000000	97.954010
3168.000000	97.961951
3167.000000	97.969038
3166.000000	97.975072
3165.000000	97.980750
3164.000000	97.987221
3163.000000	97.994832
3162.000000	98.002534
3161.000000	98.008957
3160.000000	98.013928
3159.000000	98.018403
3158.000000	98.023026
3157.000000	98.027375
3156.000000	98.030849
3155.000000	98.033755
3154.000000	98.037169
3153.000000	98.041964
3152.000000	98.048204
3151.000000	98.055201
3150.000000	98.062002
3149.000000	98.068069
3148.000000	98.073673
3147.000000	98.079461
3146.000000	98.085604
3145.000000	98.091711
3144.000000	98.097686
3143.000000	98.104132
3142.000000	98.111451
3141.000000	98.118791
3140.000000	98.124520
3139.000000	98.127798
3138.000000	98.129379
3137.000000	98.130962
3136.000000	98.133735
3135.000000	98.137716
3134.000000	98.142410
3133.000000	98.147776
3132.000000	98.154258
3131.000000	98.161824
3130.000000	98.169355
3129.000000	98.175463
3128.000000	98.179954
3127.000000	98.184039
3126.000000	98.189040
3125.000000	98.195023
3124.000000	98.201041
3123.000000	98.206513
3122.000000	98.211880
3121.000000	98.217807
3120.000000	98.224185
3119.000000	98.230204
3118.000000	98.235277
3117.000000	98.239658
3116.000000	98.244157
3115.000000	98.249261
3114.000000	98.254583
3113.000000	98.259310
3112.000000	98.263267
3111.000000	98.267336
3110.000000	98.272599
3109.000000	98.279171
3108.000000	98.286122
3107.000000	98.292421
3106.000000	98.297630
3105.000000	98.301693
3104.000000	98.304602
3103.000000	98.306659
3102.000000	98.308797
3101.000000	98.312095
3100.000000	98.316880
3099.000000	98.322474
3098.000000	98.327934
3097.000000	98.332990
3096.000000	98.338132
3095.000000	98.343889
3094.000000	98.350225
3093.000000	98.356638
3092.000000	98.362820
3091.000000	98.369031
3090.000000	98.375590
3089.000000	98.382086
3088.000000	98.387474
3087.000000	98.391139
3086.000000	98.393627
3085.000000	98.396348
3084.000000	98.400358
3083.000000	98.405595
3082.000000	98.411176
3081.000000	98.416255
3080.000000	98.420680
3079.000000	98.424858
3078.000000	98.429125
3077.000000	98.433454
3076.000000	98.437776
3075.000000	98.442354
3074.000000	98.447562
3073.000000	98.453300
3072.000000	98.458845
3071.000000	98.463443
3070.000000	98.466992
3069.000000	98.470135
3068.000000	98.473782
3067.000000	98.478487
3066.000000	98.484074
3065.000000	98.489709
3064.000000	98.494508
3063.000000	98.498303
3062.000000	98.501797
3061.000000	98.505837
3060.000000	98.510533
3059.000000	98.515170
3058.000000	98.518890
3057.000000	98.521404
3056.000000	98.523316
3055.000000	98.525950
3054.000000	98.530501
3053.000000	98.537024
3052.000000	98.544183
3051.000000	98.550460
3050.000000	98.555692
3049.000000	98.560826
3048.000000	98.566246
3047.000000	98.571022
3046.000000	98.574134
3045.000000	98.575836
3044.000000	98.577493
3043.000000	98.580458
3042.000000	98.585601
3041.000000	98.593335
3040.000000	98.603087
3039.000000	98.613038
3038.000000	98.621340
3037.000000	98.627593
3036.000000	98.632691
3035.000000	98.637440
3034.000000	98.641888
3033.000000	98.646039
3032.000000	98.650432
3031.000000	98.655600
3030.000000	98.661415
3029.000000	98.667349
3028.000000	98.673085
3027.000000	98.678628
3026.000000	98.684161
3025.000000	98.690069
3024.000000	98.696802
3023.000000	98.704471
3022.000000	98.712781
3021.000000	98.721423
3020.000000	98.730161
3019.000000	98.738425
3018.000000	98.745335
3017.000000	98.750572
3016.000000	98.754986
3015.000000	98.759996
3014.000000	98.766469
3013.000000	98.774317
3012.000000	98.782797
3011.000000	98.790806
3010.000000	98.797370
3009.000000	98.802331
3008.000000	98.806550
3007.000000	98.811185
3006.000000	98.816760
3005.000000	98.823098
3004.000000	98.829771
3003.000000	98.836333
3002.000000	98.842574
3001.000000	98.848928
3000.000000	98.856067
2999.000000	98.863492
2998.000000	98.869177
2997.000000	98.871842
2996.000000	98.873327
2995.000000	98.877358
2994.000000	98.885590
2993.000000	98.896273
2992.000000	98.906624
2991.000000	98.915669
2990.000000	98.924088
2989.000000	98.932559
2988.000000	98.941305
2987.000000	98.950335
2986.000000	98.959049
2985.000000	98.966189
2984.000000	98.971238
2983.000000	98.975502
2982.000000	98.980839
2981.000000	98.987578
2980.000000	98.994637
2979.000000	99.001329
2978.000000	99.007867
2977.000000	99.014295
2976.000000	99.020221
2975.000000	99.025644
2974.000000	99.030810
2973.000000	99.035015
2972.000000	99.036819
2971.000000	99.036245
2970.000000	99.036056
2969.000000	99.039773
2968.000000	99.048433
2967.000000	99.059602
2966.000000	99.069691
2965.000000	99.077172
2964.000000	99.083472
2963.000000	99.090851
2962.000000	99.099588
2961.000000	99.107443
2960.000000	99.111849
2959.000000	99.112396
2958.000000	99.111168
2957.000000	99.110776
2956.000000	99.112059
2955.000000	99.113521
2954.000000	99.113087
2953.000000	99.110689
2952.000000	99.108745
2951.000000	99.109586
2950.000000	99.112821
2949.000000	99.116069
2948.000000	99.117795
2947.000000	99.118317
2946.000000	99.118289
2945.000000	99.117798
2944.000000	99.117349
2943.000000	99.118406
2942.000000	99.122278
2941.000000	99.129280
2940.000000	99.139252
2939.000000	99.151477
2938.000000	99.163578
2937.000000	99.172556
2936.000000	99.178380
2935.000000	99.185175
2934.000000	99.197081
2933.000000	99.213732
2932.000000	99.231037
2931.000000	99.245854
2930.000000	99.258458
2929.000000	99.270897
2928.000000	99.284454
2927.000000	99.298798
2926.000000	99.312624
2925.000000	99.324918
2924.000000	99.335945
2923.000000	99.346740
2922.000000	99.357597
2921.000000	99.367865
2920.000000	99.377210
2919.000000	99.385322
2918.000000	99.389674
2917.000000	99.385767
2916.000000	99.371651
2915.000000	99.351359
2914.000000	99.331949
2913.000000	99.317226
2912.000000	99.305789
2911.000000	99.294595
2910.000000	99.282532
2909.000000	99.270971
2908.000000	99.262583
2907.000000	99.259527
2906.000000	99.261386
2905.000000	99.265019
2904.000000	99.267925
2903.000000	99.271356
2902.000000	99.278018
2901.000000	99.286451
2900.000000	99.290594
2899.000000	99.285664
2898.000000	99.273449
2897.000000	99.260858
2896.000000	99.254116
2895.000000	99.254724
2894.000000	99.259471
2893.000000	99.263079
2892.000000	99.262130
2891.000000	99.258015
2890.000000	99.255531
2889.000000	99.257751
2888.000000	99.262803
2887.000000	99.266324
2886.000000	99.266212
2885.000000	99.263923
2884.000000	99.261890
2883.000000	99.261367
2882.000000	99.262571
2881.000000	99.265178
2880.000000	99.268049
2879.000000	99.269673
2878.000000	99.269897
2877.000000	99.270846
2876.000000	99.275140
2875.000000	99.282937
2874.000000	99.290943
2873.000000	99.294898
2872.000000	99.293497
2871.000000	99.289956
2870.000000	99.289385
2869.000000	99.294140
2868.000000	99.301929
2867.000000	99.308228
2866.000000	99.310152
2865.000000	99.307956
2864.000000	99.304004
2863.000000	99.301148
2862.000000	99.301437
2861.000000	99.305155
2860.000000	99.310827
2859.000000	99.316585
2858.000000	99.321522
2857.000000	99.325560
2856.000000	99.328926
2855.000000	99.332582
2854.000000	99.338198
2853.000000	99.346096
2852.000000	99.353533
2851.000000	99.356731
2850.000000	99.354637
2849.000000	99.349446
2848.000000	99.343283
2847.000000	99.335988
2846.000000	99.327065
2845.000000	99.318133
2844.000000	99.311920
2843.000000	99.309481
2842.000000	99.309400
2841.000000	99.309244
2840.000000	99.307155
2839.000000	99.302836
2838.000000	99.298084
2837.000000	99.295866
2836.000000	99.297571
2835.000000	99.301127
2834.000000	99.302746
2833.000000	99.300677
2832.000000	99.296619
2831.000000	99.293598
2830.000000	99.293355
2829.000000	99.295595
2828.000000	99.298402
2827.000000	99.299055
2826.000000	99.295825
2825.000000	99.290279
2824.000000	99.287072
2823.000000	99.289956
2822.000000	99.297949
2821.000000	99.305989
2820.000000	99.309695
2819.000000	99.308944
2818.000000	99.306724
2817.000000	99.305709
2816.000000	99.306812
2815.000000	99.310244
2814.000000	99.316166
2813.000000	99.323685
2812.000000	99.330468
2811.000000	99.334610
2810.000000	99.336561
2809.000000	99.338161
2808.000000	99.340095
2807.000000	99.341487
2806.000000	99.342167
2805.000000	99.343954
2804.000000	99.348668
2803.000000	99.355581
2802.000000	99.361869
2801.000000	99.365507
2800.000000	99.366830
2799.000000	99.367455
2798.000000	99.368697
2797.000000	99.371114
2796.000000	99.374546
2795.000000	99.378075
2794.000000	99.380690
2793.000000	99.382532
2792.000000	99.384916
2791.000000	99.388654
2790.000000	99.392829
2789.000000	99.395848
2788.000000	99.397343
2787.000000	99.398411
2786.000000	99.400159
2785.000000	99.402496
2784.000000	99.404530
2783.000000	99.405793
2782.000000	99.406761
2781.000000	99.408272
2780.000000	99.410642
2779.000000	99.413400
2778.000000	99.415864
2777.000000	99.417870
2776.000000	99.419874
2775.000000	99.422389
2774.000000	99.425498
2773.000000	99.428885
2772.000000	99.432135
2771.000000	99.434984
2770.000000	99.437479
2769.000000	99.439897
2768.000000	99.442478
2767.000000	99.445206
2766.000000	99.447930
2765.000000	99.450604
2764.000000	99.453260
2763.000000	99.455785
2762.000000	99.457939
2761.000000	99.459663
2760.000000	99.461211
2759.000000	99.462930
2758.000000	99.465020
2757.000000	99.467490
2756.000000	99.470229
2755.000000	99.472996
2754.000000	99.475515
2753.000000	99.477711
2752.000000	99.479751
2751.000000	99.481854
2750.000000	99.484057
2749.000000	99.486250
2748.000000	99.488407
2747.000000	99.490612
2746.000000	99.492894
2745.000000	99.495148
2744.000000	99.497277
2743.000000	99.499335
2742.000000	99.501479
2741.000000	99.503782
2740.000000	99.506172
2739.000000	99.508518
2738.000000	99.510757
2737.000000	99.512922
2736.000000	99.515097
2735.000000	99.517337
2734.000000	99.519586
2733.000000	99.521694
2732.000000	99.523573
2731.000000	99.525296
2730.000000	99.527087
2729.000000	99.529117
2728.000000	99.531334
2727.000000	99.533470
2726.000000	99.535316
2725.000000	99.536866
2724.000000	99.538282
2723.000000	99.539743
2722.000000	99.541319
2721.000000	99.542998
2720.000000	99.544740
2719.000000	99.546500
2718.000000	99.548242
2717.000000	99.549946
2716.000000	99.551608
2715.000000	99.553229
2714.000000	99.554807
2713.000000	99.556349
2712.000000	99.557871
2711.000000	99.559381
2710.000000	99.560861
2709.000000	99.562296
2708.000000	99.563692
2707.000000	99.565070
2706.000000	99.566446
2705.000000	99.567819
2704.000000	99.569184
2703.000000	99.570532
2702.000000	99.571860
2701.000000	99.573164
2700.000000	99.574442
2699.000000	99.575691
2698.000000	99.576914
2697.000000	99.578114
2696.000000	99.579291
2695.000000	99.580448
2694.000000	99.581583
2693.000000	99.582702
2692.000000	99.583808
2691.000000	99.584904
2690.000000	99.585985
2689.000000	99.587040
2688.000000	99.588060
2687.000000	99.589049
2686.000000	99.590025
2685.000000	99.591002
2684.000000	99.591980
2683.000000	99.592949
2682.000000	99.593903
2681.000000	99.594843
2680.000000	99.595776
2679.000000	99.596706
2678.000000	99.597631
2677.000000	99.598548
2676.000000	99.599458
2675.000000	99.600363
2674.000000	99.601268
2673.000000	99.602183
2672.000000	99.603110
2671.000000	99.604046
2670.000000	99.604982
2669.000000	99.605912
2668.000000	99.606838
2667.000000	99.607762
2666.000000	99.608683
2665.000000	99.609589
2664.000000	99.610473
2663.000000	99.611336
2662.000000	99.612189
2661.000000	99.613042
2660.000000	99.613906
2659.000000	99.614781
2658.000000	99.615656
2657.000000	99.616518
2656.000000	99.617352
2655.000000	99.618154
2654.000000	99.618925
2653.000000	99.619674
2652.000000	99.620405
2651.000000	99.621116
2650.000000	99.621804
2649.000000	99.622469
2648.000000	99.623118
2647.000000	99.623761
2646.000000	99.624406
2645.000000	99.625049
2644.000000	99.625682
2643.000000	99.626298
2642.000000	99.626899
2641.000000	99.627496
2640.000000	99.628094
2639.000000	99.628690
2638.000000	99.629274
2637.000000	99.629837
2636.000000	99.630382
2635.000000	99.630915
2634.000000	99.631437
2633.000000	99.631941
2632.000000	99.632416
2631.000000	99.632860
2630.000000	99.633281
2629.000000	99.633693
2628.000000	99.634104
2627.000000	99.634518
2626.000000	99.634938
2625.000000	99.635361
2624.000000	99.635790
2623.000000	99.636226
2622.000000	99.636670
2621.000000	99.637118
2620.000000	99.637557
2619.000000	99.637970
2618.000000	99.638343
2617.000000	99.638674
2616.000000	99.638967
2615.000000	99.639240
2614.000000	99.639516
2613.000000	99.639816
2612.000000	99.640153
2611.000000	99.640530
2610.000000	99.640942
2609.000000	99.641380
2608.000000	99.641831
2607.000000	99.642288
2606.000000	99.642748
2605.000000	99.643213
2604.000000	99.643687
2603.000000	99.644171
2602.000000	99.644666
2601.000000	99.645167
2600.000000	99.645671
2599.000000	99.646175
2598.000000	99.646673
2597.000000	99.647164
2596.000000	99.647645
2595.000000	99.648118
2594.000000	99.648587
2593.000000	99.649068
2592.000000	99.649581
2591.000000	99.650139
2590.000000	99.650739
2589.000000	99.651370
2588.000000	99.652006
2587.000000	99.652624
2586.000000	99.653211
2585.000000	99.653772
2584.000000	99.654310
2583.000000	99.654816
2582.000000	99.655286
2581.000000	99.655742
2580.000000	99.656221
2579.000000	99.656727
2578.000000	99.657204
2577.000000	99.657602
2576.000000	99.657934
2575.000000	99.658320
2574.000000	99.658880
2573.000000	99.659653
2572.000000	99.660565
2571.000000	99.661473
2570.000000	99.662268
2569.000000	99.662913
2568.000000	99.663448
2567.000000	99.663945
2566.000000	99.664443
2565.000000	99.664973
2564.000000	99.665608
2563.000000	99.666434
2562.000000	99.667440
2561.000000	99.668477
2560.000000	99.669347
2559.000000	99.669921
2558.000000	99.670178
2557.000000	99.670199
2556.000000	99.670160
2555.000000	99.670310
2554.000000	99.670890
2553.000000	99.671995
2552.000000	99.673504
2551.000000	99.675144
2550.000000	99.676675
2549.000000	99.677962
2548.000000	99.678896
2547.000000	99.679319
2546.000000	99.679101
2545.000000	99.678319
2544.000000	99.677365
2543.000000	99.676861
2542.000000	99.677360
2541.000000	99.679003
2540.000000	99.681285
2539.000000	99.683302
2538.000000	99.684533
2537.000000	99.685270
2536.000000	99.686234
2535.000000	99.687769
2534.000000	99.689531
2533.000000	99.690971
2532.000000	99.691935
2531.000000	99.692696
2530.000000	99.693576
2529.000000	99.694686
2528.000000	99.695975
2527.000000	99.697369
2526.000000	99.698808
2525.000000	99.700201
2524.000000	99.701364
2523.000000	99.702085
2522.000000	99.702305
2521.000000	99.702246
2520.000000	99.702315
2519.000000	99.702863
2518.000000	99.704018
2517.000000	99.705615
2516.000000	99.707256
2515.000000	99.708566
2514.000000	99.709524
2513.000000	99.710505
2512.000000	99.711861
2511.000000	99.713530
2510.000000	99.715135
2509.000000	99.716432
2508.000000	99.717526
2507.000000	99.718664
2506.000000	99.719945
2505.000000	99.721284
2504.000000	99.722577
2503.000000	99.723812
2502.000000	99.725041
2501.000000	99.726294
2500.000000	99.727543
2499.000000	99.728742
2498.000000	99.729882
2497.000000	99.730996
2496.000000	99.732138
2495.000000	99.733360
2494.000000	99.734664
2493.000000	99.736020
2492.000000	99.737386
2491.000000	99.738741
2490.000000	99.740089
2489.000000	99.741439
2488.000000	99.742796
2487.000000	99.744166
2486.000000	99.745553
2485.000000	99.746963
2484.000000	99.748401
2483.000000	99.749868
2482.000000	99.751358
2481.000000	99.752868
2480.000000	99.754394
2479.000000	99.755933
2478.000000	99.757485
2477.000000	99.759047
2476.000000	99.760616
2475.000000	99.762188
2474.000000	99.763755
2473.000000	99.765313
2472.000000	99.766861
2471.000000	99.768404
2470.000000	99.769955
2469.000000	99.771522
2468.000000	99.773114
2467.000000	99.774734
2466.000000	99.776376
2465.000000	99.778035
2464.000000	99.779700
2463.000000	99.781365
2462.000000	99.783025
2461.000000	99.784676
2460.000000	99.786320
2459.000000	99.787961
2458.000000	99.789606
2457.000000	99.791260
2456.000000	99.792924
2455.000000	99.794594
2454.000000	99.796255
2453.000000	99.797895
2452.000000	99.799508
2451.000000	99.801097
2450.000000	99.802668
2449.000000	99.804229
2448.000000	99.805784
2447.000000	99.807335
2446.000000	99.808887
2445.000000	99.810442
2444.000000	99.811996
2443.000000	99.813543
2442.000000	99.815078
2441.000000	99.816604
2440.000000	99.818124
2439.000000	99.819644
2438.000000	99.821159
2437.000000	99.822661
2436.000000	99.824144
2435.000000	99.825596
2434.000000	99.827011
2433.000000	99.828409
2432.000000	99.829839
2431.000000	99.831353
2430.000000	99.832937
2429.000000	99.834529
2428.000000	99.836090
2427.000000	99.837613
2426.000000	99.839057
2425.000000	99.840363
2424.000000	99.841505
2423.000000	99.842502
2422.000000	99.843421
2421.000000	99.844341
2420.000000	99.845296
2419.000000	99.846254
2418.000000	99.847215
2417.000000	99.848293
2416.000000	99.849621
2415.000000	99.851169
2414.000000	99.852748
2413.000000	99.854198
2412.000000	99.855460
2411.000000	99.856496
2410.000000	99.857273
2409.000000	99.857865
2408.000000	99.858449
2407.000000	99.859132
2406.000000	99.859903
2405.000000	99.860765
2404.000000	99.861721
2403.000000	99.862668
2402.000000	99.863521
2401.000000	99.864428
2400.000000	99.865595
2399.000000	99.866883
2398.000000	99.867894
2397.000000	99.868537
2396.000000	99.869134
2395.000000	99.869865
2394.000000	99.870542
2393.000000	99.871113
2392.000000	99.871971
2391.000000	99.873356
2390.000000	99.874750
2389.000000	99.875356
2388.000000	99.875017
2387.000000	99.874280
2386.000000	99.873780
2385.000000	99.873741
2384.000000	99.874027
2383.000000	99.874359
2382.000000	99.874497
2381.000000	99.874398
2380.000000	99.874236
2379.000000	99.874188
2378.000000	99.874216
2377.000000	99.874172
2376.000000	99.874021
2375.000000	99.873826
2374.000000	99.873569
2373.000000	99.873184
2372.000000	99.872777
2371.000000	99.872608
2370.000000	99.872843
2369.000000	99.873434
2368.000000	99.874124
2367.000000	99.874468
2366.000000	99.874090
2365.000000	99.873006
2364.000000	99.871678
2363.000000	99.870628
2362.000000	99.869967
2361.000000	99.869471
2360.000000	99.868994
2359.000000	99.868630
2358.000000	99.868433
2357.000000	99.868287
2356.000000	99.867993
2355.000000	99.867493
2354.000000	99.866892
2353.000000	99.866306
2352.000000	99.865775
2351.000000	99.865253
2350.000000	99.864733
2349.000000	99.864255
2348.000000	99.863834
2347.000000	99.863440
2346.000000	99.862993
2345.000000	99.862456
2344.000000	99.861856
2343.000000	99.861259
2342.000000	99.860744
2341.000000	99.860354
2340.000000	99.860114
2339.000000	99.859976
2338.000000	99.859838
2337.000000	99.859640
2336.000000	99.859408
2335.000000	99.859192
2334.000000	99.859004
2333.000000	99.858814
2332.000000	99.858583
2331.000000	99.858307
2330.000000	99.858005
2329.000000	99.857706
2328.000000	99.857419
2327.000000	99.857137
2326.000000	99.856846
2325.000000	99.856550
2324.000000	99.856259
2323.000000	99.855989
2322.000000	99.855750
2321.000000	99.855541
2320.000000	99.855330
2319.000000	99.855052
2318.000000	99.854661
2317.000000	99.854162
2316.000000	99.853615
2315.000000	99.853078
2314.000000	99.852568
2313.000000	99.852075
2312.000000	99.851579
2311.000000	99.851085
2310.000000	99.850596
2309.000000	99.850090
2308.000000	99.849514
2307.000000	99.848831
2306.000000	99.848034
2305.000000	99.847199
2304.000000	99.846453
2303.000000	99.845911
2302.000000	99.845535
2301.000000	99.845071
2300.000000	99.844238
2299.000000	99.842985
2298.000000	99.841532
2297.000000	99.840210
2296.000000	99.839127
2295.000000	99.838094
2294.000000	99.836785
2293.000000	99.835113
2292.000000	99.833320
2291.000000	99.831759
2290.000000	99.830533
2289.000000	99.829493
2288.000000	99.828420
2287.000000	99.827225
2286.000000	99.825936
2285.000000	99.824627
2284.000000	99.823385
2283.000000	99.822271
2282.000000	99.821274
2281.000000	99.820302
2280.000000	99.819221
2279.000000	99.817867
2278.000000	99.816128
2277.000000	99.814020
2276.000000	99.811680
2275.000000	99.809282
2274.000000	99.807009
2273.000000	99.805092
2272.000000	99.803737
2271.000000	99.802852
2270.000000	99.802034
2269.000000	99.800919
2268.000000	99.799482
2267.000000	99.797951
2266.000000	99.796515
2265.000000	99.795187
2264.000000	99.793865
2263.000000	99.792445
2262.000000	99.790893
2261.000000	99.789317
2260.000000	99.787928
2259.000000	99.786875
2258.000000	99.786127
2257.000000	99.785449
2256.000000	99.784527
2255.000000	99.783183
2254.000000	99.781517
2253.000000	99.779912
2252.000000	99.778662
2251.000000	99.777662
2250.000000	99.776562
2249.000000	99.775249
2248.000000	99.774034
2247.000000	99.773230
2246.000000	99.772767
2245.000000	99.772318
2244.000000	99.771685
2243.000000	99.770929
2242.000000	99.770154
2241.000000	99.769371
2240.000000	99.768562
2239.000000	99.767742
2238.000000	99.766939
2237.000000	99.766205
2236.000000	99.765656
2235.000000	99.765403
2234.000000	99.765388
2233.000000	99.765333
2232.000000	99.764977
2231.000000	99.764291
2230.000000	99.763465
2229.000000	99.762728
2228.000000	99.762182
2227.000000	99.761775
2226.000000	99.761343
2225.000000	99.760747
2224.000000	99.760098
2223.000000	99.759800
2222.000000	99.760203
2221.000000	99.761247
2220.000000	99.762412
2219.000000	99.763101
2218.000000	99.763126
2217.000000	99.762729
2216.000000	99.762363
2215.000000	99.762285
2214.000000	99.762451
2213.000000	99.762739
2212.000000	99.763095
2211.000000	99.763507
2210.000000	99.763983
2209.000000	99.764589
2208.000000	99.765337
2207.000000	99.765990
2206.000000	99.766187
2205.000000	99.765866
2204.000000	99.765379
2203.000000	99.765089
2202.000000	99.764971
2201.000000	99.764822
2200.000000	99.764725
2199.000000	99.765023
2198.000000	99.765875
2197.000000	99.767016
2196.000000	99.767958
2195.000000	99.768348
2194.000000	99.768190
2193.000000	99.767908
2192.000000	99.768111
2191.000000	99.769077
2190.000000	99.770540
2189.000000	99.771979
2188.000000	99.773117
2187.000000	99.773951
2186.000000	99.774521
2185.000000	99.774942
2184.000000	99.775475
2183.000000	99.776172
2182.000000	99.776639
2181.000000	99.776560
2180.000000	99.776272
2179.000000	99.776374
2178.000000	99.776824
2177.000000	99.777028
2176.000000	99.776852
2175.000000	99.776873
2174.000000	99.777456
2173.000000	99.778285
2172.000000	99.778909
2171.000000	99.779124
2170.000000	99.778811
2169.000000	99.778065
2168.000000	99.777602
2167.000000	99.778298
2166.000000	99.780060
2165.000000	99.781683
2164.000000	99.782189
2163.000000	99.781903
2162.000000	99.781909
2161.000000	99.782757
2160.000000	99.783986
2159.000000	99.784637
2158.000000	99.784147
2157.000000	99.783023
2156.000000	99.782584
2155.000000	99.783562
2154.000000	99.785168
2153.000000	99.786071
2152.000000	99.786198
2151.000000	99.786655
2150.000000	99.787966
2149.000000	99.789533
2148.000000	99.790938
2147.000000	99.792704
2146.000000	99.795312
2145.000000	99.798360
2144.000000	99.801151
2143.000000	99.803441
2142.000000	99.805164
2141.000000	99.806122
2140.000000	99.806390
2139.000000	99.806523
2138.000000	99.806977
2137.000000	99.807640
2136.000000	99.808291
2135.000000	99.809080
2134.000000	99.810277
2133.000000	99.811963
2132.000000	99.814188
2131.000000	99.817000
2130.000000	99.820039
2129.000000	99.822514
2128.000000	99.823953
2127.000000	99.824688
2126.000000	99.825435
2125.000000	99.826531
2124.000000	99.827848
2123.000000	99.829266
2122.000000	99.830875
2121.000000	99.832775
2120.000000	99.834915
2119.000000	99.837131
2118.000000	99.839205
2117.000000	99.840952
2116.000000	99.842364
2115.000000	99.843667
2114.000000	99.845141
2113.000000	99.846854
2112.000000	99.848658
2111.000000	99.850391
2110.000000	99.852009
2109.000000	99.853562
2108.000000	99.855114
2107.000000	99.856741
2106.000000	99.858523
2105.000000	99.860481
2104.000000	99.862553
2103.000000	99.864655
2102.000000	99.866733
2101.000000	99.868735
2100.000000	99.870537
2099.000000	99.871988
2098.000000	99.873085
2097.000000	99.874165
2096.000000	99.875732
2095.000000	99.877997
2094.000000	99.880541
2093.000000	99.882694
2092.000000	99.884355
2091.000000	99.885990
2090.000000	99.887815
2089.000000	99.889425
2088.000000	99.890455
2087.000000	99.891182
2086.000000	99.892206
2085.000000	99.893884
2084.000000	99.896267
2083.000000	99.899216
2082.000000	99.902262
2081.000000	99.904782
2080.000000	99.906655
2079.000000	99.908475
2078.000000	99.910816
2077.000000	99.913502
2076.000000	99.915843
2075.000000	99.917298
2074.000000	99.917745
2073.000000	99.917453
2072.000000	99.917037
2071.000000	99.917321
2070.000000	99.918927
2069.000000	99.921670
2068.000000	99.924196
2067.000000	99.924594
2066.000000	99.922107
2065.000000	99.918514
2064.000000	99.917010
2063.000000	99.918966
2062.000000	99.922662
2061.000000	99.925746
2060.000000	99.928007
2059.000000	99.930568
2058.000000	99.933351
2057.000000	99.935205
2056.000000	99.936069
2055.000000	99.936897
2054.000000	99.937369
2053.000000	99.935980
2052.000000	99.932835
2051.000000	99.930244
2050.000000	99.929722
2049.000000	99.929981
2048.000000	99.928961
2047.000000	99.926532
2046.000000	99.924044
2045.000000	99.922369
2044.000000	99.921624
2043.000000	99.921959
2042.000000	99.923204
2041.000000	99.924169
2040.000000	99.923453
2039.000000	99.920830
2038.000000	99.917202
2037.000000	99.913548
2036.000000	99.910449
2035.000000	99.908206
2034.000000	99.906716
2033.000000	99.905498
2032.000000	99.904412
2031.000000	99.904049
2030.000000	99.904952
2029.000000	99.906713
2028.000000	99.908217
2027.000000	99.908562
2026.000000	99.907494
2025.000000	99.905390
2024.000000	99.903187
2023.000000	99.901896
2022.000000	99.901580
2021.000000	99.901108
2020.000000	99.899441
2019.000000	99.896815
2018.000000	99.894147
2017.000000	99.891754
2016.000000	99.889330
2015.000000	99.886918
2014.000000	99.885033
2013.000000	99.883820
2012.000000	99.882722
2011.000000	99.881191
2010.000000	99.879426
2009.000000	99.878135
2008.000000	99.877668
2007.000000	99.877618
2006.000000	99.877255
2005.000000	99.876242
2004.000000	99.874773
2003.000000	99.873174
2002.000000	99.871580
2001.000000	99.870028
2000.000000	99.868662
1999.000000	99.867636
1998.000000	99.866933
1997.000000	99.866410
1996.000000	99.865892
1995.000000	99.865215
1994.000000	99.864281
1993.000000	99.863212
1992.000000	99.862361
1991.000000	99.861969
1990.000000	99.861839
1989.000000	99.861489
1988.000000	99.860622
1987.000000	99.859379
1986.000000	99.858226
1985.000000	99.857550
1984.000000	99.857393
1983.000000	99.857496
1982.000000	99.857492
1981.000000	99.857142
1980.000000	99.856416
1979.000000	99.855470
1978.000000	99.854616
1977.000000	99.854191
1976.000000	99.854343
1975.000000	99.854878
1974.000000	99.855353
1973.000000	99.855447
1972.000000	99.855189
1971.000000	99.854826
1970.000000	99.854540
1969.000000	99.854318
1968.000000	99.854076
1967.000000	99.853903
1966.000000	99.854103
1965.000000	99.854832
1964.000000	99.855598
1963.000000	99.855441
1962.000000	99.853878
1961.000000	99.851616
1960.000000	99.849915
1959.000000	99.849175
1958.000000	99.848719
1957.000000	99.847902
1956.000000	99.846723
1955.000000	99.845217
1954.000000	99.843199
1953.000000	99.841139
1952.000000	99.840440
1951.000000	99.842030
1950.000000	99.844998
1949.000000	99.847392
1948.000000	99.848156
1947.000000	99.847455
1946.000000	99.845784
1945.000000	99.843942
1944.000000	99.843375
1943.000000	99.845013
1942.000000	99.847636
1941.000000	99.848737
1940.000000	99.847158
1939.000000	99.843692
1938.000000	99.839751
1937.000000	99.836623
1936.000000	99.835418
1935.000000	99.836211
1934.000000	99.837273
1933.000000	99.836460
1932.000000	99.833645
1931.000000	99.830730
1930.000000	99.828961
1929.000000	99.827927
1928.000000	99.827131
1927.000000	99.826348
1926.000000	99.824579
1925.000000	99.820580
1924.000000	99.815434
1923.000000	99.812327
1922.000000	99.812193
1921.000000	99.812047
1920.000000	99.809240
1919.000000	99.804626
1918.000000	99.800577
1917.000000	99.797653
1916.000000	99.794829
1915.000000	99.791499
1914.000000	99.787464
1913.000000	99.781951
1912.000000	99.774330
1911.000000	99.765415
1910.000000	99.756940
1909.000000	99.750221
1908.000000	99.745339
1907.000000	99.741023
1906.000000	99.735734
1905.000000	99.729223
1904.000000	99.723363
1903.000000	99.719989
1902.000000	99.718102
1901.000000	99.715341
1900.000000	99.711525
1899.000000	99.708380
1898.000000	99.706318
1897.000000	99.703634
1896.000000	99.699767
1895.000000	99.696840
1894.000000	99.696336
1893.000000	99.696576
1892.000000	99.694940
1891.000000	99.690638
1890.000000	99.684669
1889.000000	99.678653
1888.000000	99.674052
1887.000000	99.671371
1886.000000	99.669691
1885.000000	99.667219
1884.000000	99.662919
1883.000000	99.657681
1882.000000	99.653912
1881.000000	99.654610
1880.000000	99.661300
1879.000000	99.671434
1878.000000	99.679337
1877.000000	99.681436
1876.000000	99.679679
1875.000000	99.678153
1874.000000	99.677275
1873.000000	99.674164
1872.000000	99.668348
1871.000000	99.663410
1870.000000	99.662320
1869.000000	99.664150
1868.000000	99.667297
1867.000000	99.672070
1866.000000	99.677869
1865.000000	99.682502
1864.000000	99.685166
1863.000000	99.687645
1862.000000	99.691439
1861.000000	99.695462
1860.000000	99.698274
1859.000000	99.700914
1858.000000	99.705558
1857.000000	99.712729
1856.000000	99.721295
1855.000000	99.729933
1854.000000	99.737721
1853.000000	99.744493
1852.000000	99.751059
1851.000000	99.757635
1850.000000	99.763065
1849.000000	99.766344
1848.000000	99.768569
1847.000000	99.771910
1846.000000	99.776621
1845.000000	99.780441
1844.000000	99.781840
1843.000000	99.782361
1842.000000	99.783505
1841.000000	99.784981
1840.000000	99.785905
1839.000000	99.785567
1838.000000	99.784231
1837.000000	99.783594
1836.000000	99.785784
1835.000000	99.790603
1834.000000	99.794840
1833.000000	99.795794
1832.000000	99.794113
1831.000000	99.792548
1830.000000	99.793192
1829.000000	99.796115
1828.000000	99.800251
1827.000000	99.804579
1826.000000	99.807557
1825.000000	99.807425
1824.000000	99.804910
1823.000000	99.803278
1822.000000	99.804237
1821.000000	99.806311
1820.000000	99.807513
1819.000000	99.808014
1818.000000	99.809075
1817.000000	99.810533
1816.000000	99.811417
1815.000000	99.811812
1814.000000	99.812462
1813.000000	99.813489
1812.000000	99.814614
1811.000000	99.816033
1810.000000	99.817771
1809.000000	99.819079
1808.000000	99.819563
1807.000000	99.819730
1806.000000	99.820195
1805.000000	99.821071
1804.000000	99.822215
1803.000000	99.823506
1802.000000	99.824828
1801.000000	99.826097
1800.000000	99.827337
1799.000000	99.828613
1798.000000	99.829916
1797.000000	99.831222
1796.000000	99.832539
1795.000000	99.833886
1794.000000	99.835269
1793.000000	99.836692
1792.000000	99.838149
1791.000000	99.839652
1790.000000	99.841220
1789.000000	99.842814
1788.000000	99.844365
1787.000000	99.845938
1786.000000	99.847752
1785.000000	99.849841
1784.000000	99.851824
1783.000000	99.853291
1782.000000	99.854279
1781.000000	99.855214
1780.000000	99.856501
1779.000000	99.858755
1778.000000	99.862590
1777.000000	99.867398
1776.000000	99.870745
1775.000000	99.870345
1774.000000	99.867353
1773.000000	99.866564
1772.000000	99.870882
1771.000000	99.877314
1770.000000	99.881489
1769.000000	99.882540
1768.000000	99.882182
1767.000000	99.882360
1766.000000	99.883741
1765.000000	99.885569
1764.000000	99.886519
1763.000000	99.886007
1762.000000	99.885706
1761.000000	99.888544
1760.000000	99.894350
1759.000000	99.900240
1758.000000	99.903575
1757.000000	99.904177
1756.000000	99.904507
1755.000000	99.907288
1754.000000	99.913363
1753.000000	99.920822
1752.000000	99.924875
1751.000000	99.921600
1750.000000	99.914370
1749.000000	99.910353
1748.000000	99.911602
1747.000000	99.914441
1746.000000	99.915767
1745.000000	99.916025
1744.000000	99.916418
1743.000000	99.917296
1742.000000	99.918458
1741.000000	99.918843
1740.000000	99.916502
1739.000000	99.911468
1738.000000	99.906477
1737.000000	99.903928
1736.000000	99.905118
1735.000000	99.907976
1734.000000	99.904276
1733.000000	99.889870
1732.000000	99.869739
1731.000000	99.850918
1730.000000	99.838272
1729.000000	99.831675
1728.000000	99.825827
1727.000000	99.815917
1726.000000	99.803090
1725.000000	99.792054
1724.000000	99.784736
1723.000000	99.778726
1722.000000	99.770278
1721.000000	99.757858
1720.000000	99.743465
1719.000000	99.732162
1718.000000	99.729089
1717.000000	99.732008
1716.000000	99.732698
1715.000000	99.727013
1714.000000	99.715259
1713.000000	99.699665
1712.000000	99.684133
1711.000000	99.671565
1710.000000	99.661604
1709.000000	99.651722
1708.000000	99.640065
1707.000000	99.626647
1706.000000	99.611474
1705.000000	99.593898
1704.000000	99.574883
1703.000000	99.555997
1702.000000	99.537112
1701.000000	99.516086
1700.000000	99.494028
1699.000000	99.478202
1698.000000	99.466243
1697.000000	99.450049
1696.000000	99.428733
1695.000000	99.410490
1694.000000	99.399531
1693.000000	99.391596
1692.000000	99.383116
1691.000000	99.372607
1690.000000	99.358560
1689.000000	99.340647
1688.000000	99.321194
1687.000000	99.303339
1686.000000	99.288028
1685.000000	99.270696
1684.000000	99.246574
1683.000000	99.221397
1682.000000	99.199071
1681.000000	99.178963
1680.000000	99.161799
1679.000000	99.148147
1678.000000	99.135850
1677.000000	99.121410
1676.000000	99.103292
1675.000000	99.084315
1674.000000	99.069084
1673.000000	99.056961
1672.000000	99.042809
1671.000000	99.022696
1670.000000	98.996706
1669.000000	98.972068
1668.000000	98.956197
1667.000000	98.947052
1666.000000	98.937947
1665.000000	98.923958
1664.000000	98.903963
1663.000000	98.881159
1662.000000	98.860376
1661.000000	98.843578
1660.000000	98.828858
1659.000000	98.813664
1658.000000	98.797237
1657.000000	98.780910
1656.000000	98.766155
1655.000000	98.750253
1654.000000	98.721742
1653.000000	98.678965
1652.000000	98.655436
1651.000000	98.657950
1650.000000	98.668130
1649.000000	98.672512
1648.000000	98.663838
1647.000000	98.643334
1646.000000	98.624462
1645.000000	98.615920
1644.000000	98.614095
1643.000000	98.614366
1642.000000	98.613547
1641.000000	98.609762
1640.000000	98.605003
1639.000000	98.604241
1638.000000	98.608883
1637.000000	98.611427
1636.000000	98.602165
1635.000000	98.587814
1634.000000	98.585465
1633.000000	98.595553
1632.000000	98.608481
1631.000000	98.617054
1630.000000	98.619338
1629.000000	98.619004
1628.000000	98.623186
1627.000000	98.635496
1626.000000	98.651867
1625.000000	98.665710
1624.000000	98.674710
1623.000000	98.683665
1622.000000	98.699563
1621.000000	98.723678
1620.000000	98.751537
1619.000000	98.777193
1618.000000	98.793960
1617.000000	98.798505
1616.000000	98.801207
1615.000000	98.815426
1614.000000	98.840258
1613.000000	98.866758
1612.000000	98.887529
1611.000000	98.900928
1610.000000	98.911643
1609.000000	98.926344
1608.000000	98.946180
1607.000000	98.965737
1606.000000	98.980432
1605.000000	98.991923
1604.000000	99.004114
1603.000000	99.018623
1602.000000	99.035701
1601.000000	99.055148
1600.000000	99.074284
1599.000000	99.088294
1598.000000	99.095512
1597.000000	99.100198
1596.000000	99.108274
1595.000000	99.121649
1594.000000	99.137697
1593.000000	99.153631
1592.000000	99.169287
1591.000000	99.185838
1590.000000	99.203534
1589.000000	99.220771
1588.000000	99.234516
1587.000000	99.242792
1586.000000	99.247634
1585.000000	99.254281
1584.000000	99.265427
1583.000000	99.277483
1582.000000	99.285533
1581.000000	99.289442
1580.000000	99.292367
1579.000000	99.295738
1578.000000	99.299730
1577.000000	99.306192
1576.000000	99.317496
1575.000000	99.331412
1574.000000	99.343030
1573.000000	99.352058
1572.000000	99.360728
1571.000000	99.369408
1570.000000	99.375960
1569.000000	99.381272
1568.000000	99.388874
1567.000000	99.398746
1566.000000	99.410077
1565.000000	99.422741
1564.000000	99.435055
1563.000000	99.443475
1562.000000	99.447081
1561.000000	99.450202
1560.000000	99.457995
1559.000000	99.464850
1558.000000	99.467674
1557.000000	99.471077
1556.000000	99.474376
1555.000000	99.477151
1554.000000	99.481181
1553.000000	99.488842
1552.000000	99.499253
1551.000000	99.509329
1550.000000	99.517064
1549.000000	99.523120
1548.000000	99.529605
1547.000000	99.537692
1546.000000	99.547420
1545.000000	99.557566
1544.000000	99.566195
1543.000000	99.572198
1542.000000	99.577168
1541.000000	99.584503
1540.000000	99.596317
1539.000000	99.608812
1538.000000	99.614523
1537.000000	99.612279
1536.000000	99.606249
1535.000000	99.600328
1534.000000	99.595900
1533.000000	99.593554
1532.000000	99.593965
1531.000000	99.596700
1530.000000	99.600602
1529.000000	99.605032
1528.000000	99.610922
1527.000000	99.619501
1526.000000	99.629177
1525.000000	99.635761
1524.000000	99.637603
1523.000000	99.638083
1522.000000	99.641720
1521.000000	99.649120
1520.000000	99.656904
1519.000000	99.662696
1518.000000	99.668145
1517.000000	99.675756
1516.000000	99.685949
1515.000000	99.697003
1514.000000	99.707233
1513.000000	99.715909
1512.000000	99.722182
1511.000000	99.726276
1510.000000	99.729671
1509.000000	99.733552
1508.000000	99.738380
1507.000000	99.745773
1506.000000	99.756876
1505.000000	99.766337
1504.000000	99.770751
1503.000000	99.772880
1502.000000	99.776496
1501.000000	99.782708
1500.000000	99.788889
1499.000000	99.792297
1498.000000	99.795025
1497.000000	99.801329
1496.000000	99.810565
1495.000000	99.817953
1494.000000	99.820788
1493.000000	99.820531
1492.000000	99.820842
1491.000000	99.825059
1490.000000	99.833517
1489.000000	99.842251
1488.000000	99.847571
1487.000000	99.851180
1486.000000	99.855157
1485.000000	99.858542
1484.000000	99.860313
1483.000000	99.861205
1482.000000	99.863442
1481.000000	99.867416
1480.000000	99.871164
1479.000000	99.873834
1478.000000	99.877491
1477.000000	99.884321
1476.000000	99.893860
1475.000000	99.903936
1474.000000	99.911710
1473.000000	99.915479
1472.000000	99.916675
1471.000000	99.919156
1470.000000	99.923530
1469.000000	99.927819
1468.000000	99.930474
1467.000000	99.931599
1466.000000	99.931978
1465.000000	99.931851
1464.000000	99.931268
1463.000000	99.930247
1462.000000	99.929091
1461.000000	99.928731
1460.000000	99.931211
1459.000000	99.937506
1458.000000	99.943955
1457.000000	99.942336
1456.000000	99.931743
1455.000000	99.920664
1454.000000	99.915003
1453.000000	99.914078
1452.000000	99.912993
1451.000000	99.907161
1450.000000	99.895688
1449.000000	99.880743
1448.000000	99.866169
1447.000000	99.856534
1446.000000	99.853023
1445.000000	99.852508
1444.000000	99.850656
1443.000000	99.845510
1442.000000	99.838285
1441.000000	99.831425
1440.000000	99.826316
1439.000000	99.823169
1438.000000	99.822469
1437.000000	99.823892
1436.000000	99.826414
1435.000000	99.828911
1434.000000	99.829513
1433.000000	99.825611
1432.000000	99.816594
1431.000000	99.805800
1430.000000	99.798859
1429.000000	99.797281
1428.000000	99.796746
1427.000000	99.793432
1426.000000	99.788017
1425.000000	99.784232
1424.000000	99.784243
1423.000000	99.787368
1422.000000	99.792921
1421.000000	99.800788
1420.000000	99.808426
1419.000000	99.811079
1418.000000	99.809914
1417.000000	99.808903
1416.000000	99.808540
1415.000000	99.809095
1414.000000	99.812109
1413.000000	99.818399
1412.000000	99.826262
1411.000000	99.833096
1410.000000	99.838403
1409.000000	99.842701
1408.000000	99.845194
1407.000000	99.844865
1406.000000	99.842082
1405.000000	99.839189
1404.000000	99.838308
1403.000000	99.839778
1402.000000	99.842980
1401.000000	99.846817
1400.000000	99.850474
1399.000000	99.854921
1398.000000	99.863006
1397.000000	99.875454
1396.000000	99.889084
1395.000000	99.899497
1394.000000	99.905060
1393.000000	99.907201
1392.000000	99.906574
1391.000000	99.903786
1390.000000	99.901222
1389.000000	99.901262
1388.000000	99.903236
1387.000000	99.904265
1386.000000	99.903434
1385.000000	99.902640
1384.000000	99.903157
1383.000000	99.904120
1382.000000	99.904514
1381.000000	99.904933
1380.000000	99.906948
1379.000000	99.910941
1378.000000	99.915510
1377.000000	99.919039
1376.000000	99.921017
1375.000000	99.921709
1374.000000	99.921632
1373.000000	99.921535
1372.000000	99.921907
1371.000000	99.922885
1370.000000	99.924198
1369.000000	99.925484
1368.000000	99.926223
1367.000000	99.925870
1366.000000	99.924356
1365.000000	99.922314
1364.000000	99.921010
1363.000000	99.921992
1362.000000	99.925710
1361.000000	99.930404
1360.000000	99.933602
1359.000000	99.934596
1358.000000	99.934564
1357.000000	99.934768
1356.000000	99.934929
1355.000000	99.934009
1354.000000	99.932331
1353.000000	99.931591
1352.000000	99.932528
1351.000000	99.933610
1350.000000	99.932135
1349.000000	99.927361
1348.000000	99.921298
1347.000000	99.916947
1346.000000	99.916297
1345.000000	99.919610
1344.000000	99.925301
1343.000000	99.930586
1342.000000	99.933219
1341.000000	99.933131
1340.000000	99.932042
1339.000000	99.931282
1338.000000	99.930578
1337.000000	99.929247
1336.000000	99.927485
1335.000000	99.926156
1334.000000	99.926141
1333.000000	99.928200
1332.000000	99.932641
1331.000000	99.938431
1330.000000	99.943043
1329.000000	99.944088
1328.000000	99.941103
1327.000000	99.935952
1326.000000	99.931802
1325.000000	99.931487
1324.000000	99.935186
1323.000000	99.939641
1322.000000	99.940703
1321.000000	99.937069
1320.000000	99.931193
1319.000000	99.926539
1318.000000	99.924392
1317.000000	99.923718
1316.000000	99.923444
1315.000000	99.923780
1314.000000	99.925493
1313.000000	99.928660
1312.000000	99.932321
1311.000000	99.934965
1310.000000	99.935434
1309.000000	99.934012
1308.000000	99.932900
1307.000000	99.934837
1306.000000	99.940117
1305.000000	99.945448
1304.000000	99.946174
1303.000000	99.940098
1302.000000	99.929425
1301.000000	99.919451
1300.000000	99.915039
1299.000000	99.917766
1298.000000	99.925279
1297.000000	99.933052
1296.000000	99.937733
1295.000000	99.939336
1294.000000	99.940306
1293.000000	99.942283
1292.000000	99.944082
1291.000000	99.943217
1290.000000	99.939075
1289.000000	99.933965
1288.000000	99.930788
1287.000000	99.929917
1286.000000	99.928944
1285.000000	99.925572
1284.000000	99.920199
1283.000000	99.915447
1282.000000	99.913657
1281.000000	99.915207
1280.000000	99.918545
1279.000000	99.920595
1278.000000	99.918128
1277.000000	99.910862
1276.000000	99.903433
1275.000000	99.901920
1274.000000	99.907346
1273.000000	99.914462
1272.000000	99.918131
1271.000000	99.918836
1270.000000	99.920081
1269.000000	99.922691
1268.000000	99.924764
1267.000000	99.925674
1266.000000	99.926603
1265.000000	99.927664
1264.000000	99.928351
1263.000000	99.930864
1262.000000	99.938477
1261.000000	99.948872
1260.000000	99.953019
1259.000000	99.943744
1258.000000	99.923815
1257.000000	99.903397
1256.000000	99.890791
1255.000000	99.887096
1254.000000	99.887886
1253.000000	99.887431
1252.000000	99.881785
1251.000000	99.870008
1250.000000	99.853517
1249.000000	99.834440
1248.000000	99.815172
1247.000000	99.799093
1246.000000	99.789352
1245.000000	99.785263
1244.000000	99.781435
1243.000000	99.772460
1242.000000	99.757973
1241.000000	99.741817
1240.000000	99.727146
1239.000000	99.714121
1238.000000	99.701715
1237.000000	99.689497
1236.000000	99.676962
1235.000000	99.662440
1234.000000	99.643842
1233.000000	99.620493
1232.000000	99.594292
1231.000000	99.568982
1230.000000	99.547258
1229.000000	99.527615
1228.000000	99.504618
1227.000000	99.473686
1226.000000	99.435927
1225.000000	99.397220
1224.000000	99.361751
1223.000000	99.327140
1222.000000	99.286976
1221.000000	99.237932
1220.000000	99.183454
1219.000000	99.130353
1218.000000	99.082380
1217.000000	99.037315
1216.000000	98.989450
1215.000000	98.933930
1214.000000	98.869496
1213.000000	98.798462
1212.000000	98.724040
1211.000000	98.647219
1210.000000	98.566933
1209.000000	98.483564
1208.000000	98.400302
1207.000000	98.319469
1206.000000	98.239538
1205.000000	98.158309
1204.000000	98.077043
1203.000000	97.998273
1202.000000	97.921652
1201.000000	97.845826
1200.000000	97.771889
1199.000000	97.699818
1198.000000	97.623996
1197.000000	97.539313
1196.000000	97.450361
1195.000000	97.366207
1194.000000	97.285333
1193.000000	97.195287
1192.000000	97.090641
1191.000000	96.982415
1190.000000	96.883949
1189.000000	96.794122
1188.000000	96.701718
1187.000000	96.601133
1186.000000	96.496184
1185.000000	96.391418
1184.000000	96.287186
1183.000000	96.182941
1182.000000	96.079764
1181.000000	95.978578
1180.000000	95.878166
1179.000000	95.774383
1178.000000	95.660463
1177.000000	95.530812
1176.000000	95.386585
1175.000000	95.235420
1174.000000	95.084227
1173.000000	94.934835
1172.000000	94.787259
1171.000000	94.642463
1170.000000	94.499945
1169.000000	94.357583
1168.000000	94.216755
1167.000000	94.083893
1166.000000	93.965459
1165.000000	93.865921
1164.000000	93.791226
1163.000000	93.747540
1162.000000	93.734124
1161.000000	93.742994
1160.000000	93.766579
1159.000000	93.798427
1158.000000	93.824950
1157.000000	93.825813
1156.000000	93.788058
1155.000000	93.715431
1154.000000	93.621527
1153.000000	93.518169
1152.000000	93.412149
1151.000000	93.306541
1150.000000	93.199945
1149.000000	93.088247
1148.000000	92.970655
1147.000000	92.850970
1146.000000	92.731935
1145.000000	92.613373
1144.000000	92.496957
1143.000000	92.386420
1142.000000	92.281159
1141.000000	92.175864
1140.000000	92.067842
1139.000000	91.957801
1138.000000	91.842880
1137.000000	91.717756
1136.000000	91.584782
1135.000000	91.454070
1134.000000	91.330030
1133.000000	91.206131
1132.000000	91.076406
1131.000000	90.943784
1130.000000	90.813533
1129.000000	90.686312
1128.000000	90.560794
1127.000000	90.434698
1126.000000	90.300575
1125.000000	90.150473
1124.000000	89.988667
1123.000000	89.830527
1122.000000	89.684444
1121.000000	89.543623
1120.000000	89.398903
1119.000000	89.249528
1118.000000	89.097973
1117.000000	88.946020
1116.000000	88.801192
1115.000000	88.675222
1114.000000	88.569249
1113.000000	88.470558
1112.000000	88.370211
1111.000000	88.273358
1110.000000	88.185544
1109.000000	88.100107
1108.000000	88.006753
1107.000000	87.903950
1106.000000	87.796592
1105.000000	87.689547
1104.000000	87.587744
1103.000000	87.493200
1102.000000	87.398095
1101.000000	87.291366
1100.000000	87.175635
1099.000000	87.067313
1098.000000	86.974713
1097.000000	86.887798
1096.000000	86.793439
1095.000000	86.689939
1094.000000	86.583376
1093.000000	86.481700
1092.000000	86.395618
1091.000000	86.331231
1090.000000	86.276014
1089.000000	86.204987
1088.000000	86.107317
1087.000000	85.997101
1086.000000	85.894886
1085.000000	85.809198
1084.000000	85.737911
1083.000000	85.673804
1082.000000	85.605069
1081.000000	85.523371
1080.000000	85.435149
1079.000000	85.353331
1078.000000	85.276040
1077.000000	85.187071
1076.000000	85.079199
1075.000000	84.961811
1074.000000	84.842296
1073.000000	84.713944
1072.000000	84.565722
1071.000000	84.391194
1070.000000	84.187229
1069.000000	83.957820
1068.000000	83.719009
1067.000000	83.483898
1066.000000	83.241701
1065.000000	82.969066
1064.000000	82.663406
1063.000000	82.348153
1062.000000	82.044456
1061.000000	81.755697
1060.000000	81.479854
1059.000000	81.213863
1058.000000	80.942854
1057.000000	80.649199
1056.000000	80.338391
1055.000000	80.034841
1054.000000	79.746391
1053.000000	79.454652
1052.000000	79.146876
1051.000000	78.833021
1050.000000	78.521794
1049.000000	78.205725
1048.000000	77.880711
1047.000000	77.554513
1046.000000	77.228572
1045.000000	76.897458
1044.000000	76.570858
1043.000000	76.268709
1042.000000	75.987709
1041.000000	75.698490
1040.000000	75.384465
1039.000000	75.059662
1038.000000	74.741514
1037.000000	74.432816
1036.000000	74.138468
1035.000000	73.871209
1034.000000	73.629545
1033.000000	73.396792
1032.000000	73.173532
1031.000000	72.984935
1030.000000	72.843599
1029.000000	72.729404
1028.000000	72.617722
1027.000000	72.506034
1026.000000	72.403311
1025.000000	72.315783
1024.000000	72.251687
1023.000000	72.216040
1022.000000	72.191195
1021.000000	72.145131
1020.000000	72.067607
1019.000000	71.976671
1018.000000	71.884632
1017.000000	71.782886
1016.000000	71.666549
1015.000000	71.546946
1014.000000	71.429946
1013.000000	71.306539
1012.000000	71.174527
1011.000000	71.046056
1010.000000	70.925094
1009.000000	70.801831
1008.000000	70.678783
1007.000000	70.578494
1006.000000	70.514933
1005.000000	70.479237
1004.000000	70.462437
1003.000000	70.470182
1002.000000	70.506095
1001.000000	70.561992
1000.000000	70.633176
999.000000	70.723605
998.000000	70.829552
997.000000	70.938404
996.000000	71.049213
995.000000	71.173715
994.000000	71.311890
993.000000	71.448063
992.000000	71.576845
991.000000	71.711867
990.000000	71.862948
989.000000	72.024221
988.000000	72.189079
987.000000	72.357636
986.000000	72.526948
985.000000	72.694695
984.000000	72.874409
983.000000	73.084556
982.000000	73.319306
981.000000	73.552577
980.000000	73.775412
979.000000	74.007116
978.000000	74.264951
977.000000	74.545256
976.000000	74.839085
975.000000	75.143754
974.000000	75.452465
973.000000	75.754032
972.000000	76.050704
971.000000	76.357930
970.000000	76.680390
969.000000	77.005686
968.000000	77.326207
967.000000	77.648796
966.000000	77.977826
965.000000	78.306866
964.000000	78.632581
963.000000	78.959326
962.000000	79.284439
961.000000	79.596323
960.000000	79.893825
959.000000	80.191614
958.000000	80.498514
957.000000	80.803243
956.000000	81.088339
955.000000	81.347683
954.000000	81.587076
953.000000	81.818452
952.000000	82.054903
951.000000	82.298512
950.000000	82.531096
949.000000	82.730121
948.000000	82.895548
947.000000	83.048633
946.000000	83.202957
945.000000	83.350359
944.000000	83.478031
943.000000	83.584957
942.000000	83.677715
941.000000	83.763427
940.000000	83.851765
939.000000	83.951710
938.000000	84.060568
937.000000	84.166012
936.000000	84.262439
935.000000	84.356156
934.000000	84.453114
933.000000	84.551801
932.000000	84.649408
931.000000	84.744790
930.000000	84.835476
929.000000	84.922097
928.000000	85.013209
927.000000	85.112157
926.000000	85.201084
925.000000	85.254510
924.000000	85.270393
923.000000	85.272894
922.000000	85.281970
921.000000	85.294530
920.000000	85.297747
919.000000	85.285455
918.000000	85.257698
917.000000	85.219286
916.000000	85.185218
915.000000	85.175844
914.000000	85.201478
913.000000	85.261262
912.000000	85.358364
911.000000	85.503776
910.000000	85.703010
909.000000	85.950297
908.000000	86.235556
907.000000	86.545243
906.000000	86.860399
905.000000	87.170662
904.000000	87.488202
903.000000	87.830338
902.000000	88.189433
901.000000	88.537571
900.000000	88.861062
899.000000	89.171796
898.000000	89.482444
897.000000	89.789639
896.000000	90.086427
895.000000	90.374027
894.000000	90.653706
893.000000	90.920569
892.000000	91.172886
891.000000	91.416909
890.000000	91.656008
889.000000	91.884256
888.000000	92.096808
887.000000	92.299390
886.000000	92.502551
885.000000	92.711583
884.000000	92.924211
883.000000	93.132522
882.000000	93.326948
881.000000	93.505142
880.000000	93.676718
879.000000	93.852602
878.000000	94.031463
877.000000	94.205078
876.000000	94.374738
875.000000	94.551817
874.000000	94.743229
873.000000	94.946375
872.000000	95.156868
871.000000	95.370657
870.000000	95.580093
869.000000	95.778509
868.000000	95.968509
867.000000	96.157616
866.000000	96.346970
865.000000	96.531589
864.000000	96.709061
863.000000	96.880284
862.000000	97.044987
861.000000	97.204262
860.000000	97.363079
859.000000	97.521879
858.000000	97.671516
857.000000	97.807489
856.000000	97.943051
855.000000	98.094067
854.000000	98.254041
853.000000	98.399157
852.000000	98.516655
851.000000	98.614067
850.000000	98.701025
849.000000	98.776498
848.000000	98.836289
847.000000	98.879781
846.000000	98.906878
845.000000	98.921222
844.000000	98.938781
843.000000	98.978165
842.000000	99.035895
841.000000	99.084025
840.000000	99.100267
839.000000	99.091317
838.000000	99.080059
837.000000	99.077814
836.000000	99.076250
835.000000	99.060485
834.000000	99.024885
833.000000	98.981631
832.000000	98.957492
831.000000	98.975018
830.000000	99.030788
829.000000	99.096890
828.000000	99.147359
827.000000	99.177682
826.000000	99.197283
825.000000	99.212768
824.000000	99.224078
823.000000	99.228788
822.000000	99.223415
821.000000	99.205595
820.000000	99.178867
819.000000	99.151321
818.000000	99.127799
817.000000	99.104892
816.000000	99.069557
815.000000	98.998620
814.000000	98.867393
813.000000	98.669228
812.000000	98.422482
811.000000	98.146521
810.000000	97.832907
809.000000	97.453443
808.000000	96.995501
807.000000	96.474856
806.000000	95.914082
805.000000	95.327155
804.000000	94.731701
803.000000	94.158489
802.000000	93.637210
801.000000	93.183995
800.000000	92.808745
799.000000	92.520401
798.000000	92.320072
797.000000	92.204017
796.000000	92.175383
795.000000	92.233300
794.000000	92.347056
793.000000	92.464109
792.000000	92.552401
791.000000	92.616426
790.000000	92.666342
789.000000	92.692926
788.000000	92.682132
787.000000	92.632955
786.000000	92.547113
785.000000	92.418093
784.000000	92.245625
783.000000	92.048696
782.000000	91.851512
781.000000	91.668322
780.000000	91.513079
779.000000	91.409650
778.000000	91.377163
777.000000	91.413705
776.000000	91.504785
775.000000	91.638579
774.000000	91.805061
773.000000	91.992158
772.000000	92.192958
771.000000	92.407787
770.000000	92.630703
769.000000	92.842122
768.000000	93.022262
767.000000	93.165625
766.000000	93.279058
765.000000	93.375164
764.000000	93.471241
763.000000	93.581653
762.000000	93.702625
761.000000	93.814264
760.000000	93.905684
759.000000	93.990018
758.000000	94.087611
757.000000	94.202665
756.000000	94.323461
755.000000	94.437800
754.000000	94.541938
753.000000	94.641141
752.000000	94.746324
751.000000	94.863004
750.000000	94.979995
