4000.000000	102.026271
3999.000000	102.025066
3998.000000	102.024826
3997.000000	102.024407
3996.000000	102.022715
3995.000000	102.019465
3994.000000	102.015548
3993.000000	102.012390
3992.000000	102.010556
3991.000000	102.009662
3990.000000	102.009165
3989.000000	102.008927
3988.000000	102.009190
3987.000000	102.010177
3986.000000	102.011705
3985.000000	102.013084
3984.000000	102.013367
3983.000000	102.011902
3982.000000	102.008781
3981.000000	102.004868
3980.000000	102.001239
3979.000000	101.998505
3978.000000	101.996749
3977.000000	101.995946
3976.000000	101.996194
3975.000000	101.997416
3974.000000	101.998947
3973.000000	101.999780
3972.000000	101.999372
3971.000000	101.998077
3970.000000	101.996595
3969.000000	101.994974
3968.000000	101.992533
3967.000000	101.988958
3966.000000	101.985290
3965.000000	101.983366
3964.000000	101.984164
3963.000000	101.986924
3962.000000	101.989716
3961.000000	101.991034
3960.000000	101.990786
3959.000000	101.989940
3958.000000	101.989600
3957.000000	101.990242
3956.000000	101.991609
3955.000000	101.993170
3954.000000	101.994551
3953.000000	101.995490
3952.000000	101.995520
3951.000000	101.994005
3950.000000	101.990792
3949.000000	101.986842
3948.000000	101.983851
3947.000000	101.982887
3946.000000	101.983609
3945.000000	101.984675
3944.000000	101.984864
3943.000000	101.983903
3942.000000	101.982222
3941.000000	101.980267
3940.000000	101.978318
3939.000000	101.976839
3938.000000	101.976425
3937.000000	101.977156
3936.000000	101.978225
3935.000000	101.978658
3934.000000	101.978397
3933.000000	101.978347
3932.000000	101.979298
3931.000000	101.980931
3930.000000	101.982086
3929.000000	101.981925
3928.000000	101.980629
3927.000000	101.979100
3926.000000	101.978198
3925.000000	101.978302
3924.000000	101.979187
3923.000000	101.980328
3922.000000	101.981264
3921.000000	101.981750
3920.000000	101.981736
3919.000000	101.981416
3918.000000	101.981305
3917.000000	101.981910
3916.000000	101.983177
3915.000000	101.984453
3914.000000	101.985132
3913.000000	101.985247
3912.000000	101.985305
3911.000000	101.985689
3910.000000	101.986323
3909.000000	101.986827
3908.000000	101.986798
3907.000000	101.986047
3906.000000	101.984703
3905.000000	101.983323
3904.000000	101.982671
3903.000000	101.983094
3902.000000	101.984323
3901.000000	101.985853
3900.000000	101.987369
3899.000000	101.988714
3898.000000	101.989668
3897.000000	101.990085
3896.000000	101.990176
3895.000000	101.990410
3894.000000	101.991142
3893.000000	101.992422
3892.000000	101.994020
3891.000000	101.995479
3890.000000	101.996258
3889.000000	101.996086
3888.000000	101.995225
3887.000000	101.994420
3886.000000	101.994305
3885.000000	101.994846
3884.000000	101.995478
3883.000000	101.995643
3882.000000	101.995297
3881.000000	101.994846
3880.000000	101.994733
3879.000000	101.995047
3878.000000	101.995597
3877.000000	101.996202
3876.000000	101.996878
3875.000000	101.997681
3874.000000	101.998534
3873.000000	101.999277
3872.000000	101.999820
3871.000000	102.000219
3870.000000	102.000616
3869.000000	102.001094
3868.000000	102.001617
3867.000000	102.002145
3866.000000	102.002734
3865.000000	102.003435
3864.000000	102.004186
3863.000000	102.004865
3862.000000	102.005418
3861.000000	102.005861
3860.000000	102.006260
3859.000000	102.006707
3858.000000	102.007271
3857.000000	102.007958
3856.000000	102.008684
3855.000000	102.009335
3854.000000	102.009905
3853.000000	102.010539
3852.000000	102.011308
3851.000000	102.012048
3850.000000	102.012626
3849.000000	102.013165
3848.000000	102.013771
3847.000000	102.014349
3846.000000	102.014801
3845.000000	102.015137
3844.000000	102.015415
3843.000000	102.015713
3842.000000	102.016123
3841.000000	102.016706
3840.000000	102.017483
3839.000000	102.018409
3838.000000	102.019361
3837.000000	102.020192
3836.000000	102.020766
3835.000000	102.020982
3834.000000	102.020843
3833.000000	102.020524
3832.000000	102.020240
3831.000000	102.020026
3830.000000	102.019686
3829.000000	102.019012
3828.000000	102.018130
3827.000000	102.017549
3826.000000	102.017729
3825.000000	102.018629
3824.000000	102.019746
3823.000000	102.020574
3822.000000	102.020985
3821.000000	102.021166
3820.000000	102.021087
3819.000000	102.020307
3818.000000	102.018805
3817.000000	102.017455
3816.000000	102.017088
3815.000000	102.017623
3814.000000	102.018223
3813.000000	102.018099
3812.000000	102.017289
3811.000000	102.016332
3810.000000	102.015375
3809.000000	102.014258
3808.000000	102.013107
3807.000000	102.012325
3806.000000	102.012068
3805.000000	102.011903
3804.000000	102.011296
3803.000000	102.010313
3802.000000	102.009488
3801.000000	102.009186
3800.000000	102.009239
3799.000000	102.009095
3798.000000	102.008595
3797.000000	102.008195
3796.000000	102.008106
3795.000000	102.008061
3794.000000	102.007895
3793.000000	102.007750
3792.000000	102.007828
3791.000000	102.008132
3790.000000	102.008463
3789.000000	102.008661
3788.000000	102.008797
3787.000000	102.008933
3786.000000	102.008771
3785.000000	102.007837
3784.000000	102.006016
3783.000000	102.003780
3782.000000	102.001996
3781.000000	102.001596
3780.000000	102.003089
3779.000000	102.005706
3778.000000	102.007282
3777.000000	102.005622
3776.000000	102.000472
3775.000000	101.994147
3774.000000	101.989575
3773.000000	101.988153
3772.000000	101.989846
3771.000000	101.994368
3770.000000	102.000907
3769.000000	102.006913
3768.000000	102.008820
3767.000000	102.005179
3766.000000	101.998822
3765.000000	101.994574
3764.000000	101.994487
3763.000000	101.996801
3762.000000	101.998879
3761.000000	101.998981
3760.000000	101.995794
3759.000000	101.988951
3758.000000	101.980674
3757.000000	101.974765
3756.000000	101.973324
3755.000000	101.975324
3754.000000	101.978200
3753.000000	101.980243
3752.000000	101.981641
3751.000000	101.984941
3750.000000	101.992963
3749.000000	102.004218
3748.000000	102.011911
3747.000000	102.008541
3746.000000	101.991783
3745.000000	101.968230
3744.000000	101.950289
3743.000000	101.942445
3742.000000	101.935319
3741.000000	101.924711
3740.000000	101.921315
3739.000000	101.927432
3738.000000	101.929988
3737.000000	101.920676
3736.000000	101.903046
3735.000000	101.885791
3734.000000	101.873842
3733.000000	101.866366
3732.000000	101.861859
3731.000000	101.858899
3730.000000	101.854481
3729.000000	101.846418
3728.000000	101.836276
3727.000000	101.827689
3726.000000	101.821638
3725.000000	101.814052
3724.000000	101.798841
3723.000000	101.774503
3722.000000	101.746447
3721.000000	101.721389
3720.000000	101.702038
3719.000000	101.687177
3718.000000	101.674828
3717.000000	101.663730
3716.000000	101.651563
3715.000000	101.633954
3714.000000	101.605836
3713.000000	101.564216
3712.000000	101.511824
3711.000000	101.456948
3710.000000	101.406311
3709.000000	101.360434
3708.000000	101.317604
3707.000000	101.278164
3706.000000	101.243641
3705.000000	101.213195
3704.000000	101.181798
3703.000000	101.143630
3702.000000	101.098426
3701.000000	101.052729
3700.000000	101.013353
3699.000000	100.982479
3698.000000	100.959822
3697.000000	100.945692
3696.000000	100.939900
3695.000000	100.940566
3694.000000	100.946463
3693.000000	100.958732
3692.000000	100.978588
3691.000000	101.004258
3690.000000	101.032054
3689.000000	101.059699
3688.000000	101.086501
3687.000000	101.109794
3686.000000	101.124039
3685.000000	101.126637
3684.000000	101.120859
3683.000000	101.111181
3682.000000	101.101221
3681.000000	101.094713
3680.000000	101.092390
3679.000000	101.089288
3678.000000	101.077842
3677.000000	101.055935
3676.000000	101.032260
3675.000000	101.016656
3674.000000	101.004033
3673.000000	100.979537
3672.000000	100.940981
3671.000000	100.903338
3670.000000	100.880195
3669.000000	100.870583
3668.000000	100.862466
3667.000000	100.846038
3666.000000	100.823468
3665.000000	100.801998
3664.000000	100.782503
3663.000000	100.759781
3662.000000	100.729916
3661.000000	100.694570
3660.000000	100.658908
3659.000000	100.627301
3658.000000	100.601080
3657.000000	100.579355
3656.000000	100.560119
3655.000000	100.540002
3654.000000	100.515445
3653.000000	100.486794
3652.000000	100.458746
3651.000000	100.434060
3650.000000	100.411056
3649.000000	100.386805
3648.000000	100.359180
3647.000000	100.328342
3646.000000	100.296523
3645.000000	100.265932
3644.000000	100.239941
3643.000000	100.222390
3642.000000	100.213336
3641.000000	100.208193
3640.000000	100.201553
3639.000000	100.191416
3638.000000	100.178983
3637.000000	100.165532
3636.000000	100.151021
3635.000000	100.135509
3634.000000	100.119184
3633.000000	100.100172
3632.000000	100.075559
3631.000000	100.046263
3630.000000	100.019372
3629.000000	100.001699
3628.000000	99.989540
3627.000000	99.970111
3626.000000	99.937870
3625.000000	99.902357
3624.000000	99.872940
3623.000000	99.846742
3622.000000	99.819967
3621.000000	99.800614
3620.000000	99.802119
3619.000000	99.827108
3618.000000	99.862154
3617.000000	99.892197
3616.000000	99.915633
3615.000000	99.941275
3614.000000	99.974381
3613.000000	100.009106
3612.000000	100.034827
3611.000000	100.046820
3610.000000	100.049314
3609.000000	100.050065
3608.000000	100.053059
3607.000000	100.056165
3606.000000	100.055389
3605.000000	100.050248
3604.000000	100.044461
3603.000000	100.042831
3602.000000	100.048148
3601.000000	100.059752
3600.000000	100.073616
3599.000000	100.084905
3598.000000	100.091760
3597.000000	100.096803
3596.000000	100.104170
3595.000000	100.114786
3594.000000	100.124301
3593.000000	100.126326
3592.000000	100.118490
3591.000000	100.105065
3590.000000	100.094297
3589.000000	100.092733
3588.000000	100.100341
3587.000000	100.110244
3586.000000	100.114815
3585.000000	100.112737
3584.000000	100.109260
3583.000000	100.110315
3582.000000	100.117295
3581.000000	100.126887
3580.000000	100.134555
3579.000000	100.137941
3578.000000	100.137568
3577.000000	100.135349
3576.000000	100.132801
3575.000000	100.130220
3574.000000	100.127254
3573.000000	100.123993
3572.000000	100.121342
3571.000000	100.120367
3570.000000	100.121305
3569.000000	100.123041
3568.000000	100.123648
3567.000000	100.121832
3566.000000	100.117883
3565.000000	100.113412
3564.000000	100.110379
3563.000000	100.109932
3562.000000	100.111687
3561.000000	100.113894
3560.000000	100.114528
3559.000000	100.112607
3558.000000	100.108581
3557.000000	100.103820
3556.000000	100.099811
3555.000000	100.097519
3554.000000	100.097085
3553.000000	100.097743
3552.000000	100.098079
3551.000000	100.096953
3550.000000	100.094305
3549.000000	100.091064
3548.000000	100.088226
3547.000000	100.085811
3546.000000	100.082951
3545.000000	100.079055
3544.000000	100.074489
3543.000000	100.070039
3542.000000	100.066117
3541.000000	100.062696
3540.000000	100.059810
3539.000000	100.057769
3538.000000	100.056843
3537.000000	100.056821
3536.000000	100.056823
3535.000000	100.055617
3534.000000	100.052274
3533.000000	100.046709
3532.000000	100.039912
3531.000000	100.033572
3530.000000	100.029018
3529.000000	100.026364
3528.000000	100.024479
3527.000000	100.021841
3526.000000	100.017779
3525.000000	100.012944
3524.000000	100.008691
3523.000000	100.005767
3522.000000	100.003508
3521.000000	100.000437
3520.000000	99.995752
3519.000000	99.990072
3518.000000	99.984588
3517.000000	99.979700
3516.000000	99.974870
3515.000000	99.969801
3514.000000	99.965143
3513.000000	99.961563
3512.000000	99.958501
3511.000000	99.954615
3510.000000	99.949681
3509.000000	99.945328
3508.000000	99.943330
3507.000000	99.943596
3506.000000	99.944366
3505.000000	99.944141
3504.000000	99.943040
3503.000000	99.942251
3502.000000	99.942405
3501.000000	99.942667
3500.000000	99.941300
3499.000000	99.937038
3498.000000	99.930222
3497.000000	99.922921
3496.000000	99.917465
3495.000000	99.914281
3494.000000	99.911380
3493.000000	99.906386
3492.000000	99.899140
3491.000000	99.892027
3490.000000	99.887692
3489.000000	99.886720
3488.000000	99.887663
3487.000000	99.888716
3486.000000	99.889263
3485.000000	99.889836
3484.000000	99.890807
3483.000000	99.891441
3482.000000	99.890313
3481.000000	99.886656
3480.000000	99.881180
3479.000000	99.875563
3478.000000	99.871272
3477.000000	99.868843
3476.000000	99.867717
3475.000000	99.866312
3474.000000	99.862720
3473.000000	99.855990
3472.000000	99.846888
3471.000000	99.837336
3470.000000	99.829043
3469.000000	99.822825
3468.000000	99.818895
3467.000000	99.817040
3466.000000	99.816406
3465.000000	99.815792
3464.000000	99.814504
3463.000000	99.812584
3462.000000	99.810201
3461.000000	99.807430
3460.000000	99.804687
3459.000000	99.802492
3458.000000	99.800307
3457.000000	99.796472
3456.000000	99.790065
3455.000000	99.782362
3454.000000	99.775636
3453.000000	99.770663
3452.000000	99.766203
3451.000000	99.760836
3450.000000	99.754619
3449.000000	99.748786
3448.000000	99.744392
3447.000000	99.741528
3446.000000	99.739401
3445.000000	99.736921
3444.000000	99.733476
3443.000000	99.729458
3442.000000	99.725955
3441.000000	99.723669
3440.000000	99.722134
3439.000000	99.720221
3438.000000	99.717381
3437.000000	99.714249
3436.000000	99.711852
3435.000000	99.710301
3434.000000	99.708455
3433.000000	99.704961
3432.000000	99.699414
3431.000000	99.692487
3430.000000	99.685367
3429.000000	99.679357
3428.000000	99.675620
3427.000000	99.674562
3426.000000	99.675192
3425.000000	99.675483
3424.000000	99.673728
3423.000000	99.669451
3422.000000	99.663265
3421.000000	99.656568
3420.000000	99.651397
3419.000000	99.649633
3418.000000	99.651649
3417.000000	99.655805
3416.000000	99.659597
3415.000000	99.661444
3414.000000	99.661201
3413.000000	99.659632
3412.000000	99.657963
3411.000000	99.657320
3410.000000	99.657670
3409.000000	99.657398
3408.000000	99.654809
3407.000000	99.650122
3406.000000	99.645331
3405.000000	99.641874
3404.000000	99.639101
3403.000000	99.635419
3402.000000	99.630312
3401.000000	99.624889
3400.000000	99.620856
3399.000000	99.619350
3398.000000	99.620307
3397.000000	99.622337
3396.000000	99.623541
3395.000000	99.623069
3394.000000	99.621816
3393.000000	99.621307
3392.000000	99.621960
3391.000000	99.622691
3390.000000	99.622182
3389.000000	99.620278
3388.000000	99.618117
3387.000000	99.617072
3386.000000	99.617523
3385.000000	99.618522
3384.000000	99.618781
3383.000000	99.618075
3382.000000	99.617346
3381.000000	99.617320
3380.000000	99.617458
3379.000000	99.616680
3378.000000	99.614844
3377.000000	99.612948
3376.000000	99.611957
3375.000000	99.611865
3374.000000	99.611878
3373.000000	99.610960
3372.000000	99.608160
3371.000000	99.603064
3370.000000	99.596589
3369.000000	99.591156
3368.000000	99.589300
3367.000000	99.591911
3366.000000	99.597704
3365.000000	99.604201
3364.000000	99.609626
3363.000000	99.613783
3362.000000	99.617101
3361.000000	99.619196
3360.000000	99.618768
3359.000000	99.615070
3358.000000	99.609160
3357.000000	99.603402
3356.000000	99.599623
3355.000000	99.597978
3354.000000	99.597549
3353.000000	99.597557
3352.000000	99.597820
3351.000000	99.598308
3350.000000	99.598666
3349.000000	99.598350
3348.000000	99.597251
3347.000000	99.596096
3346.000000	99.596011
3345.000000	99.597455
3344.000000	99.599629
3343.000000	99.601181
3342.000000	99.601584
3341.000000	99.601535
3340.000000	99.602023
3339.000000	99.603348
3338.000000	99.605223
3337.000000	99.607347
3336.000000	99.609335
3335.000000	99.610407
3334.000000	99.609904
3333.000000	99.608290
3332.000000	99.607299
3331.000000	99.608639
3330.000000	99.612578
3329.000000	99.617683
3328.000000	99.621780
3327.000000	99.623501
3326.000000	99.623008
3325.000000	99.621672
3324.000000	99.621050
3323.000000	99.621749
3322.000000	99.623264
3321.000000	99.624838
3320.000000	99.626275
3319.000000	99.627821
3318.000000	99.629407
3317.000000	99.630406
3316.000000	99.630260
3315.000000	99.629156
3314.000000	99.627963
3313.000000	99.627559
3312.000000	99.628212
3311.000000	99.629480
3310.000000	99.630585
3309.000000	99.630992
3308.000000	99.630751
3307.000000	99.630324
3306.000000	99.630076
3305.000000	99.629983
3304.000000	99.629800
3303.000000	99.629445
3302.000000	99.629273
3301.000000	99.630032
3300.000000	99.632308
3299.000000	99.635632
3298.000000	99.638176
3297.000000	99.637985
3296.000000	99.634667
3295.000000	99.629970
3294.000000	99.626492
3293.000000	99.625493
3292.000000	99.626412
3291.000000	99.627909
3290.000000	99.629118
3289.000000	99.630021
3288.000000	99.631092
3287.000000	99.632697
3286.000000	99.634534
3285.000000	99.635722
3284.000000	99.635859
3283.000000	99.635841
3282.000000	99.637055
3281.000000	99.639755
3280.000000	99.642768
3279.000000	99.644916
3278.000000	99.646256
3277.000000	99.647695
3276.000000	99.649941
3275.000000	99.653007
3274.000000	99.656273
3273.000000	99.658772
3272.000000	99.659843
3271.000000	99.659827
3270.000000	99.659790
3269.000000	99.660229
3268.000000	99.660490
3267.000000	99.659985
3266.000000	99.659527
3265.000000	99.660691
3264.000000	99.663986
3263.000000	99.668217
3262.000000	99.671716
3261.000000	99.673814
3260.000000	99.674905
3259.000000	99.675712
3258.000000	99.676781
3257.000000	99.678286
3256.000000	99.679971
3255.000000	99.681343
3254.000000	99.682168
3253.000000	99.682749
3252.000000	99.683560
3251.000000	99.684781
3250.000000	99.686307
3249.000000	99.688098
3248.000000	99.690409
3247.000000	99.693544
3246.000000	99.697394
3245.000000	99.701270
3244.000000	99.704294
3243.000000	99.706109
3242.000000	99.707164
3241.000000	99.708282
3240.000000	99.709828
3239.000000	99.711422
3238.000000	99.712495
3237.000000	99.713001
3236.000000	99.713510
3235.000000	99.714689
3234.000000	99.716871
3233.000000	99.720004
3232.000000	99.723683
3231.000000	99.727275
3230.000000	99.730370
3229.000000	99.733213
3228.000000	99.736456
3227.000000	99.740300
3226.000000	99.743999
3225.000000	99.746522
3224.000000	99.747626
3223.000000	99.748124
3222.000000	99.749223
3221.000000	99.751635
3220.000000	99.755312
3219.000000	99.759596
3218.000000	99.763457
3217.000000	99.766001
3216.000000	99.767088
3215.000000	99.767551
3214.000000	99.768647
3213.000000	99.771099
3212.000000	99.774885
3211.000000	99.779685
3210.000000	99.785091
3209.000000	99.790328
3208.000000	99.794326
3207.000000	99.796524
3206.000000	99.797504
3205.000000	99.798574
3204.000000	99.800565
3203.000000	99.803283
3202.000000	99.806046
3201.000000	99.808479
3200.000000	99.810773
3199.000000	99.813501
3198.000000	99.817274
3197.000000	99.822257
3196.000000	99.827915
3195.000000	99.833542
3194.000000	99.839079
3193.000000	99.845028
3192.000000	99.851448
3191.000000	99.857434
3190.000000	99.861925
3189.000000	99.864798
3188.000000	99.866900
3187.000000	99.869157
3186.000000	99.871912
3185.000000	99.875165
3184.000000	99.879086
3183.000000	99.884013
3182.000000	99.889985
3181.000000	99.896373
3180.000000	99.902131
3179.000000	99.906478
3178.000000	99.909508
3177.000000	99.912185
3176.000000	99.915622
3175.000000	99.920305
3174.000000	99.925902
3173.000000	99.931565
3172.000000	99.936441
3171.000000	99.940157
3170.000000	99.943084
3169.000000	99.946099
3168.000000	99.949830
3167.000000	99.954152
3166.000000	99.958533
3165.000000	99.962770
3164.000000	99.967156
3163.000000	99.971890
3162.000000	99.976570
3161.000000	99.980525
3160.000000	99.983557
3159.000000	99.986189
3158.000000	99.989257
3157.000000	99.993252
3156.000000	99.998111
3155.000000	100.003401
3154.000000	100.008642
3153.000000	100.013589
3152.000000	100.018297
3151.000000	100.022978
3150.000000	100.027757
3149.000000	100.032522
3148.000000	100.037017
3147.000000	100.041071
3146.000000	100.044770
3145.000000	100.048473
3144.000000	100.052663
3143.000000	100.057667
3142.000000	100.063344
3141.000000	100.068974
3140.000000	100.073654
3139.000000	100.077001
3138.000000	100.079528
3137.000000	100.082320
3136.000000	100.086124
3135.000000	100.090800
3134.000000	100.095594
3133.000000	100.099825
3132.000000	100.103314
3131.000000	100.106398
3130.000000	100.109805
3129.000000	100.114375
3128.000000	100.120506
3127.000000	100.127726
3126.000000	100.135031
3125.000000	100.141825
3124.000000	100.148189
3123.000000	100.154019
3122.000000	100.158461
3121.000000	100.160808
3120.000000	100.161645
3119.000000	100.162641
3118.000000	100.164941
3117.000000	100.168401
3116.000000	100.172391
3115.000000	100.176709
3114.000000	100.181468
3113.000000	100.186501
3112.000000	100.191415
3111.000000	100.196068
3110.000000	100.200612
3109.000000	100.205067
3108.000000	100.209167
3107.000000	100.212708
3106.000000	100.215948
3105.000000	100.219581
3104.000000	100.224243
3103.000000	100.229888
3102.000000	100.235624
3101.000000	100.240443
3100.000000	100.244270
3099.000000	100.248018
3098.000000	100.252390
3097.000000	100.257002
3096.000000	100.261086
3095.000000	100.264784
3094.000000	100.269040
3093.000000	100.274262
3092.000000	100.279719
3091.000000	100.284456
3090.000000	100.288315
3089.000000	100.291801
3088.000000	100.295372
3087.000000	100.299234
3086.000000	100.303512
3085.000000	100.308140
3084.000000	100.312703
3083.000000	100.316680
3082.000000	100.319762
3081.000000	100.321773
3080.000000	100.322661
3079.000000	100.323095
3078.000000	100.324741
3077.000000	100.329012
3076.000000	100.335636
3075.000000	100.342612
3074.000000	100.348125
3073.000000	100.352247
3072.000000	100.356202
3071.000000	100.360644
3070.000000	100.365201
3069.000000	100.369490
3068.000000	100.373878
3067.000000	100.379025
3066.000000	100.385089
3065.000000	100.391570
3064.000000	100.397707
3063.000000	100.402961
3062.000000	100.407390
3061.000000	100.411643
3060.000000	100.416345
3059.000000	100.421290
3058.000000	100.425552
3057.000000	100.428525
3056.000000	100.430598
3055.000000	100.432723
3054.000000	100.435572
3053.000000	100.439346
3052.000000	100.444085
3051.000000	100.449686
3050.000000	100.455589
3049.000000	100.460744
3048.000000	100.464139
3047.000000	100.465604
3046.000000	100.466353
3045.000000	100.468563
3044.000000	100.473825
3043.000000	100.481747
3042.000000	100.490310
3041.000000	100.497707
3040.000000	100.503524
3039.000000	100.508043
3038.000000	100.511316
3037.000000	100.513570
3036.000000	100.515908
3035.000000	100.519589
3034.000000	100.524743
3033.000000	100.530563
3032.000000	100.536761
3031.000000	100.543850
3030.000000	100.551963
3029.000000	100.560449
3028.000000	100.568855
3027.000000	100.577481
3026.000000	100.586582
3025.000000	100.595627
3024.000000	100.603743
3023.000000	100.610357
3022.000000	100.615001
3021.000000	100.617153
3020.000000	100.617004
3019.000000	100.616104
3018.000000	100.616416
3017.000000	100.618632
3016.000000	100.621863
3015.000000	100.625024
3014.000000	100.628148
3013.000000	100.632313
3012.000000	100.638469
3011.000000	100.646336
3010.000000	100.654314
3009.000000	100.660654
3008.000000	100.664869
3007.000000	100.668223
3006.000000	100.673121
3005.000000	100.681796
3004.000000	100.694375
3003.000000	100.707405
3002.000000	100.715500
3001.000000	100.716273
3000.000000	100.713409
2999.000000	100.713155
2998.000000	100.717727
2997.000000	100.724154
2996.000000	100.729684
2995.000000	100.735600
2994.000000	100.744184
2993.000000	100.754480
2992.000000	100.763695
2991.000000	100.771469
2990.000000	100.779964
2989.000000	100.790098
2988.000000	100.800269
2987.000000	100.809253
2986.000000	100.818454
2985.000000	100.830301
2984.000000	100.845357
2983.000000	100.861552
2982.000000	100.875734
2981.000000	100.885726
2980.000000	100.891431
2979.000000	100.894171
2978.000000	100.895136
2977.000000	100.895116
2976.000000	100.895703
2975.000000	100.898839
2974.000000	100.903741
2973.000000	100.905811
2972.000000	100.900767
2971.000000	100.889241
2970.000000	100.875638
2969.000000	100.863132
2968.000000	100.852217
2967.000000	100.843444
2966.000000	100.837952
2965.000000	100.834466
2964.000000	100.829152
2963.000000	100.820482
2962.000000	100.812068
2961.000000	100.808489
2960.000000	100.809972
2959.000000	100.813133
2958.000000	100.815231
2957.000000	100.815043
2956.000000	100.810687
2955.000000	100.800052
2954.000000	100.784229
2953.000000	100.768414
2952.000000	100.758141
2951.000000	100.755164
2950.000000	100.756985
2949.000000	100.759119
2948.000000	100.757849
2947.000000	100.752368
2946.000000	100.745226
2945.000000	100.740156
2944.000000	100.739029
2943.000000	100.741056
2942.000000	100.744448
2941.000000	100.747862
2940.000000	100.750500
2939.000000	100.752250
2938.000000	100.754044
2937.000000	100.756972
2936.000000	100.760665
2935.000000	100.763474
2934.000000	100.764286
2933.000000	100.762880
2932.000000	100.758700
2931.000000	100.751610
2930.000000	100.744687
2929.000000	100.743509
2928.000000	100.750449
2927.000000	100.761442
2926.000000	100.770673
2925.000000	100.777367
2924.000000	100.784627
2923.000000	100.792709
2922.000000	100.798279
2921.000000	100.801244
2920.000000	100.807533
2919.000000	100.821938
2918.000000	100.840975
2917.000000	100.856250
2916.000000	100.864107
2915.000000	100.868474
2914.000000	100.874493
2913.000000	100.882592
2912.000000	100.889701
2911.000000	100.893971
2910.000000	100.896499
2909.000000	100.899568
2908.000000	100.904755
2907.000000	100.912577
2906.000000	100.922859
2905.000000	100.934920
2904.000000	100.947491
2903.000000	100.958714
2902.000000	100.966860
2901.000000	100.971707
2900.000000	100.974978
2899.000000	100.978621
2898.000000	100.982628
2897.000000	100.985349
2896.000000	100.986072
2895.000000	100.986596
2894.000000	100.989923
2893.000000	100.997680
2892.000000	101.008756
2891.000000	101.019798
2890.000000	101.027278
2889.000000	101.030058
2888.000000	101.030343
2887.000000	101.031532
2886.000000	101.034681
2885.000000	101.037587
2884.000000	101.037431
2883.000000	101.033546
2882.000000	101.027791
2881.000000	101.023417
2880.000000	101.023716
2879.000000	101.030210
2878.000000	101.041119
2877.000000	101.052200
2876.000000	101.060133
2875.000000	101.064507
2874.000000	101.066110
2873.000000	101.064983
2872.000000	101.061516
2871.000000	101.058085
2870.000000	101.057493
2869.000000	101.059916
2868.000000	101.063028
2867.000000	101.065073
2866.000000	101.066314
2865.000000	101.067454
2864.000000	101.068227
2863.000000	101.067896
2862.000000	101.065788
2861.000000	101.061075
2860.000000	101.053525
2859.000000	101.045016
2858.000000	101.038912
2857.000000	101.037230
2856.000000	101.039340
2855.000000	101.043683
2854.000000	101.049296
2853.000000	101.055064
2852.000000	101.059190
2851.000000	101.061196
2850.000000	101.063728
2849.000000	101.070628
2848.000000	101.083139
2847.000000	101.098658
2846.000000	101.112991
2845.000000	101.123440
2844.000000	101.130116
2843.000000	101.135434
2842.000000	101.142488
2841.000000	101.152684
2840.000000	101.164068
2839.000000	101.172362
2838.000000	101.174421
2837.000000	101.171022
2836.000000	101.166460
2835.000000	101.165175
2834.000000	101.168508
2833.000000	101.174621
2832.000000	101.181005
2831.000000	101.186718
2830.000000	101.192158
2829.000000	101.197257
2828.000000	101.200794
2827.000000	101.201814
2826.000000	101.201245
2825.000000	101.201604
2824.000000	101.205078
2823.000000	101.211960
2822.000000	101.220619
2821.000000	101.228646
2820.000000	101.234426
2819.000000	101.238104
2818.000000	101.241160
2817.000000	101.244845
2816.000000	101.249032
2815.000000	101.252836
2814.000000	101.256047
2813.000000	101.259377
2812.000000	101.263337
2811.000000	101.267520
2810.000000	101.271263
2809.000000	101.274567
2808.000000	101.277989
2807.000000	101.281861
2806.000000	101.285978
2805.000000	101.289977
2804.000000	101.293703
2803.000000	101.297102
2802.000000	101.300047
2801.000000	101.302546
2800.000000	101.304916
2799.000000	101.307507
2798.000000	101.310400
2797.000000	101.313521
2796.000000	101.316897
2795.000000	101.320540
2794.000000	101.324193
2793.000000	101.327478
2792.000000	101.330292
2791.000000	101.332903
2790.000000	101.335571
2789.000000	101.338373
2788.000000	101.341431
2787.000000	101.344886
2786.000000	101.348598
2785.000000	101.352143
2784.000000	101.355251
2783.000000	101.358133
2782.000000	101.361197
2781.000000	101.364580
2780.000000	101.368088
2779.000000	101.371487
2778.000000	101.374717
2777.000000	101.377849
2776.000000	101.380967
2775.000000	101.384133
2774.000000	101.387373
2773.000000	101.390645
2772.000000	101.393861
2771.000000	101.396967
2770.000000	101.399997
2769.000000	101.403030
2768.000000	101.406105
2767.000000	101.409199
2766.000000	101.412269
2765.000000	101.415293
2764.000000	101.418280
2763.000000	101.421242
2762.000000	101.424191
2761.000000	101.427139
2760.000000	101.430095
2759.000000	101.433064
2758.000000	101.436039
2757.000000	101.439004
2756.000000	101.441935
2755.000000	101.444818
2754.000000	101.447656
2753.000000	101.450465
2752.000000	101.453264
2751.000000	101.456068
2750.000000	101.458891
2749.000000	101.461740
2748.000000	101.464614
2747.000000	101.467491
2746.000000	101.470336
2745.000000	101.473123
2744.000000	101.475842
2743.000000	101.478526
2742.000000	101.481219
2741.000000	101.483921
2740.000000	101.486576
2739.000000	101.489142
2738.000000	101.491617
2737.000000	101.494022
2736.000000	101.496390
2735.000000	101.498766
2734.000000	101.501164
2733.000000	101.503531
2732.000000	101.505795
2731.000000	101.507966
2730.000000	101.510126
2729.000000	101.512343
2728.000000	101.514600
2727.000000	101.516800
2726.000000	101.518817
2725.000000	101.520587
2724.000000	101.522240
2723.000000	101.524071
2722.000000	101.526256
2721.000000	101.528576
2720.000000	101.530574
2719.000000	101.532115
2718.000000	101.533568
2717.000000	101.535353
2716.000000	101.537464
2715.000000	101.539613
2714.000000	101.541686
2713.000000	101.543807
2712.000000	101.546056
2711.000000	101.548315
2710.000000	101.550320
2709.000000	101.551790
2708.000000	101.552701
2707.000000	101.553479
2706.000000	101.554656
2705.000000	101.556218
2704.000000	101.557620
2703.000000	101.558518
2702.000000	101.559170
2701.000000	101.559927
2700.000000	101.560689
2699.000000	101.561260
2698.000000	101.561851
2697.000000	101.562900
2696.000000	101.564505
2695.000000	101.566294
2694.000000	101.567752
2693.000000	101.568567
2692.000000	101.568758
2691.000000	101.568643
2690.000000	101.568681
2689.000000	101.569189
2688.000000	101.570212
2687.000000	101.571667
2686.000000	101.573446
2685.000000	101.575342
2684.000000	101.577034
2683.000000	101.578337
2682.000000	101.579414
2681.000000	101.580535
2680.000000	101.581635
2679.000000	101.582374
2678.000000	101.582669
2677.000000	101.582952
2676.000000	101.583756
2675.000000	101.585123
2674.000000	101.586596
2673.000000	101.587718
2672.000000	101.588490
2671.000000	101.589249
2670.000000	101.590272
2669.000000	101.591574
2668.000000	101.593009
2667.000000	101.594419
2666.000000	101.595693
2665.000000	101.596791
2664.000000	101.597756
2663.000000	101.598697
2662.000000	101.599696
2661.000000	101.600760
2660.000000	101.601886
2659.000000	101.603136
2658.000000	101.604584
2657.000000	101.606195
2656.000000	101.607750
2655.000000	101.608977
2654.000000	101.609782
2653.000000	101.610326
2652.000000	101.610922
2651.000000	101.611771
2650.000000	101.612854
2649.000000	101.614049
2648.000000	101.615290
2647.000000	101.616574
2646.000000	101.617810
2645.000000	101.618787
2644.000000	101.619392
2643.000000	101.619745
2642.000000	101.620091
2641.000000	101.620550
2640.000000	101.621087
2639.000000	101.621660
2638.000000	101.622283
2637.000000	101.622970
2636.000000	101.623697
2635.000000	101.624414
2634.000000	101.625073
2633.000000	101.625644
2632.000000	101.626136
2631.000000	101.626594
2630.000000	101.627071
2629.000000	101.627571
2628.000000	101.628074
2627.000000	101.628554
2626.000000	101.629003
2625.000000	101.629421
2624.000000	101.629814
2623.000000	101.630190
2622.000000	101.630561
2621.000000	101.630937
2620.000000	101.631321
2619.000000	101.631702
2618.000000	101.632062
2617.000000	101.632389
2616.000000	101.632680
2615.000000	101.632946
2614.000000	101.633202
2613.000000	101.633465
2612.000000	101.633746
2611.000000	101.634052
2610.000000	101.634379
2609.000000	101.634721
2608.000000	101.635073
2607.000000	101.635438
2606.000000	101.635819
2605.000000	101.636217
2604.000000	101.636644
2603.000000	101.637093
2602.000000	101.637548
2601.000000	101.638032
2600.000000	101.638594
2599.000000	101.639235
2598.000000	101.639895
2597.000000	101.640546
2596.000000	101.641219
2595.000000	101.641925
2594.000000	101.642612
2593.000000	101.643204
2592.000000	101.643647
2591.000000	101.643925
2590.000000	101.644147
2589.000000	101.644602
2588.000000	101.645580
2587.000000	101.647050
2586.000000	101.648504
2585.000000	101.649365
2584.000000	101.649494
2583.000000	101.649281
2582.000000	101.649294
2581.000000	101.649826
2580.000000	101.650762
2579.000000	101.651708
2578.000000	101.652224
2577.000000	101.652087
2576.000000	101.651447
2575.000000	101.650794
2574.000000	101.650735
2573.000000	101.651747
2572.000000	101.654022
2571.000000	101.657315
2570.000000	101.660875
2569.000000	101.663812
2568.000000	101.665724
2567.000000	101.666897
2566.000000	101.667818
2565.000000	101.668482
2564.000000	101.668417
2563.000000	101.667394
2562.000000	101.665982
2561.000000	101.665299
2560.000000	101.666137
2559.000000	101.668299
2558.000000	101.670615
2557.000000	101.671747
2556.000000	101.671150
2555.000000	101.669386
2554.000000	101.667693
2553.000000	101.667152
2552.000000	101.668185
2551.000000	101.670612
2550.000000	101.673863
2549.000000	101.677160
2548.000000	101.679773
2547.000000	101.681338
2546.000000	101.682017
2545.000000	101.682287
2544.000000	101.682496
2543.000000	101.682587
2542.000000	101.682307
2541.000000	101.681672
2540.000000	101.681158
2539.000000	101.681344
2538.000000	101.682352
2537.000000	101.683799
2536.000000	101.685476
2535.000000	101.687868
2534.000000	101.691648
2533.000000	101.696601
2532.000000	101.701311
2531.000000	101.704254
2530.000000	101.705195
2529.000000	101.705343
2528.000000	101.706089
2527.000000	101.707568
2526.000000	101.708747
2525.000000	101.708782
2524.000000	101.707967
2523.000000	101.707350
2522.000000	101.707585
2521.000000	101.708352
2520.000000	101.708977
2519.000000	101.709452
2518.000000	101.710597
2517.000000	101.713038
2516.000000	101.716338
2515.000000	101.719511
2514.000000	101.722190
2513.000000	101.724742
2512.000000	101.727175
2511.000000	101.728648
2510.000000	101.728618
2509.000000	101.727963
2508.000000	101.728220
2507.000000	101.729713
2506.000000	101.731231
2505.000000	101.731757
2504.000000	101.731947
2503.000000	101.733271
2502.000000	101.736168
2501.000000	101.739718
2500.000000	101.742747
2499.000000	101.744910
2498.000000	101.746616
2497.000000	101.748414
2496.000000	101.750592
2495.000000	101.753058
2494.000000	101.755456
2493.000000	101.757513
2492.000000	101.759290
2491.000000	101.760996
2490.000000	101.762632
2489.000000	101.764018
2488.000000	101.765213
2487.000000	101.766566
2486.000000	101.768232
2485.000000	101.769991
2484.000000	101.771577
2483.000000	101.773023
2482.000000	101.774608
2481.000000	101.776545
2480.000000	101.778798
2479.000000	101.781130
2478.000000	101.783273
2477.000000	101.785134
2476.000000	101.786875
2475.000000	101.788753
2474.000000	101.790804
2473.000000	101.792762
2472.000000	101.794387
2471.000000	101.795769
2470.000000	101.797259
2469.000000	101.799101
2468.000000	101.801239
2467.000000	101.803454
2466.000000	101.805589
2465.000000	101.807582
2464.000000	101.809414
2463.000000	101.811101
2462.000000	101.812681
2461.000000	101.814151
2460.000000	101.815521
2459.000000	101.816978
2458.000000	101.818872
2457.000000	101.821422
2456.000000	101.824412
2455.000000	101.827257
2454.000000	101.829502
2453.000000	101.831248
2452.000000	101.833041
2451.000000	101.835197
2450.000000	101.837281
2449.000000	101.838538
2448.000000	101.838826
2447.000000	101.838929
2446.000000	101.839875
2445.000000	101.841984
2444.000000	101.844792
2443.000000	101.847588
2442.000000	101.849866
2441.000000	101.851310
2440.000000	101.851785
2439.000000	101.851605
2438.000000	101.851518
2437.000000	101.852134
2436.000000	101.853566
2435.000000	101.855787
2434.000000	101.858936
2433.000000	101.862984
2432.000000	101.867326
2431.000000	101.871079
2430.000000	101.873750
2429.000000	101.875372
2428.000000	101.876131
2427.000000	101.876138
2426.000000	101.875621
2425.000000	101.875117
2424.000000	101.875292
2423.000000	101.876562
2422.000000	101.878821
2421.000000	101.881480
2420.000000	101.883919
2419.000000	101.885986
2418.000000	101.887950
2417.000000	101.890012
2416.000000	101.892115
2415.000000	101.894243
2414.000000	101.896532
2413.000000	101.898851
2412.000000	101.900646
2411.000000	101.901582
2410.000000	101.902204
2409.000000	101.903541
2408.000000	101.906119
2407.000000	101.909548
2406.000000	101.912925
2405.000000	101.915448
2404.000000	101.916776
2403.000000	101.917124
2402.000000	101.917209
2401.000000	101.917740
2400.000000	101.918911
2399.000000	101.920535
2398.000000	101.922423
2397.000000	101.924347
2396.000000	101.925824
2395.000000	101.926380
2394.000000	101.926125
2393.000000	101.925793
2392.000000	101.926106
2391.000000	101.927301
2390.000000	101.929247
2389.000000	101.931656
2388.000000	101.934074
2387.000000	101.936048
2386.000000	101.937607
2385.000000	101.939298
2384.000000	101.941514
2383.000000	101.943924
2382.000000	101.945846
2381.000000	101.947093
2380.000000	101.948106
2379.000000	101.949299
2378.000000	101.950594
2377.000000	101.951690
2376.000000	101.952365
2375.000000	101.952390
2374.000000	101.951676
2373.000000	101.950861
2372.000000	101.951219
2371.000000	101.953347
2370.000000	101.956149
2369.000000	101.957778
2368.000000	101.957783
2367.000000	101.957475
2366.000000	101.958181
2365.000000	101.959905
2364.000000	101.961939
2363.000000	101.963763
2362.000000	101.965003
2361.000000	101.965395
2360.000000	101.965196
2359.000000	101.964873
2358.000000	101.964075
2357.000000	101.961980
2356.000000	101.959071
2355.000000	101.957439
2354.000000	101.958406
2353.000000	101.960725
2352.000000	101.962068
2351.000000	101.961834
2350.000000	101.961315
2349.000000	101.961763
2348.000000	101.963215
2347.000000	101.964723
2346.000000	101.965150
2345.000000	101.964212
2344.000000	101.962917
2343.000000	101.962491
2342.000000	101.962957
2341.000000	101.963264
2340.000000	101.962651
2339.000000	101.961409
2338.000000	101.960245
2337.000000	101.958972
2336.000000	101.956354
2335.000000	101.951485
2334.000000	101.945100
2333.000000	101.939223
2332.000000	101.935384
2331.000000	101.933555
2330.000000	101.932997
2329.000000	101.933674
2328.000000	101.936037
2327.000000	101.939567
2326.000000	101.942318
2325.000000	101.942502
2324.000000	101.940112
2323.000000	101.936711
2322.000000	101.933924
2321.000000	101.932294
2320.000000	101.931456
2319.000000	101.930669
2318.000000	101.929159
2317.000000	101.926530
2316.000000	101.923228
2315.000000	101.920330
2314.000000	101.918548
2313.000000	101.917571
2312.000000	101.916645
2311.000000	101.915691
2310.000000	101.915391
2309.000000	101.916095
2308.000000	101.916938
2307.000000	101.916463
2306.000000	101.914138
2305.000000	101.911012
2304.000000	101.908698
2303.000000	101.907709
2302.000000	101.907108
2301.000000	101.905809
2300.000000	101.903956
2299.000000	101.902653
2298.000000	101.902542
2297.000000	101.903210
2296.000000	101.903906
2295.000000	101.904427
2294.000000	101.904955
2293.000000	101.905332
2292.000000	101.905059
2291.000000	101.904020
2290.000000	101.902680
2289.000000	101.901422
2288.000000	101.900081
2287.000000	101.898387
2286.000000	101.896537
2285.000000	101.894976
2284.000000	101.893721
2283.000000	101.892316
2282.000000	101.890570
2281.000000	101.888957
2280.000000	101.887968
2279.000000	101.887316
2278.000000	101.886179
2277.000000	101.884219
2276.000000	101.882031
2275.000000	101.880476
2274.000000	101.879847
2273.000000	101.879843
2272.000000	101.880034
2271.000000	101.880058
2270.000000	101.879551
2269.000000	101.878259
2268.000000	101.876279
2267.000000	101.874012
2266.000000	101.871848
2265.000000	101.870022
2264.000000	101.868719
2263.000000	101.867994
2262.000000	101.867602
2261.000000	101.867216
2260.000000	101.866816
2259.000000	101.866546
2258.000000	101.866129
2257.000000	101.864910
2256.000000	101.862705
2255.000000	101.860301
2254.000000	101.858790
2253.000000	101.858493
2252.000000	101.858843
2251.000000	101.859005
2250.000000	101.858400
2249.000000	101.856705
2248.000000	101.853920
2247.000000	101.850622
2246.000000	101.847788
2245.000000	101.845968
2244.000000	101.844865
2243.000000	101.843814
2242.000000	101.842561
2241.000000	101.841406
2240.000000	101.840714
2239.000000	101.840520
2238.000000	101.840494
2237.000000	101.840156
2236.000000	101.839303
2235.000000	101.838337
2234.000000	101.837927
2233.000000	101.838199
2232.000000	101.838493
2231.000000	101.838090
2230.000000	101.837053
2229.000000	101.836101
2228.000000	101.835748
2227.000000	101.835847
2226.000000	101.835907
2225.000000	101.835609
2224.000000	101.834978
2223.000000	101.834267
2222.000000	101.833836
2221.000000	101.833993
2220.000000	101.834763
2219.000000	101.835783
2218.000000	101.836591
2217.000000	101.836961
2216.000000	101.836925
2215.000000	101.836620
2214.000000	101.836239
2213.000000	101.836072
2212.000000	101.836336
2211.000000	101.836933
2210.000000	101.837501
2209.000000	101.837857
2208.000000	101.838187
2207.000000	101.838695
2206.000000	101.839322
2205.000000	101.839857
2204.000000	101.840227
2203.000000	101.840537
2202.000000	101.840895
2201.000000	101.841307
2200.000000	101.841737
2199.000000	101.842170
2198.000000	101.842600
2197.000000	101.843025
2196.000000	101.843452
2195.000000	101.843889
2194.000000	101.844337
2193.000000	101.844795
2192.000000	101.845257
2191.000000	101.845721
2190.000000	101.846191
2189.000000	101.846671
2188.000000	101.847164
2187.000000	101.847672
2186.000000	101.848196
2185.000000	101.848742
2184.000000	101.849309
2183.000000	101.849896
2182.000000	101.850491
2181.000000	101.851085
2180.000000	101.851673
2179.000000	101.852264
2178.000000	101.852874
2177.000000	101.853515
2176.000000	101.854186
2175.000000	101.854881
2174.000000	101.855592
2173.000000	101.856317
2172.000000	101.857055
2171.000000	101.857801
2170.000000	101.858550
2169.000000	101.859301
2168.000000	101.860058
2167.000000	101.860834
2166.000000	101.861642
2165.000000	101.862490
2164.000000	101.863374
2163.000000	101.864289
2162.000000	101.865227
2161.000000	101.866186
2160.000000	101.867165
2159.000000	101.868163
2158.000000	101.869180
2157.000000	101.870225
2156.000000	101.871310
2155.000000	101.872449
2154.000000	101.873648
2153.000000	101.874897
2152.000000	101.876183
2151.000000	101.877490
2150.000000	101.878812
2149.000000	101.880149
2148.000000	101.881518
2147.000000	101.882932
2146.000000	101.884395
2145.000000	101.885891
2144.000000	101.887401
2143.000000	101.888919
2142.000000	101.890449
2141.000000	101.892000
2140.000000	101.893580
2139.000000	101.895190
2138.000000	101.896837
2137.000000	101.898526
2136.000000	101.900243
2135.000000	101.901974
2134.000000	101.903712
2133.000000	101.905456
2132.000000	101.907214
2131.000000	101.908993
2130.000000	101.910797
2129.000000	101.912626
2128.000000	101.914477
2127.000000	101.916354
2126.000000	101.918258
2125.000000	101.920187
2124.000000	101.922130
2123.000000	101.924074
2122.000000	101.926012
2121.000000	101.927949
2120.000000	101.929898
2119.000000	101.931867
2118.000000	101.933861
2117.000000	101.935874
2116.000000	101.937900
2115.000000	101.939927
2114.000000	101.941941
2113.000000	101.943930
2112.000000	101.945893
2111.000000	101.947836
2110.000000	101.949771
2109.000000	101.951709
2108.000000	101.953657
2107.000000	101.955615
2106.000000	101.957580
2105.000000	101.959544
2104.000000	101.961493
2103.000000	101.963413
2102.000000	101.965303
2101.000000	101.967164
2100.000000	101.968987
2099.000000	101.970777
2098.000000	101.972590
2097.000000	101.974496
2096.000000	101.976522
2095.000000	101.978608
2094.000000	101.980625
2093.000000	101.982462
2092.000000	101.984093
2091.000000	101.985629
2090.000000	101.987249
2089.000000	101.989080
2088.000000	101.991117
2087.000000	101.993221
2086.000000	101.995223
2085.000000	101.996991
2084.000000	101.998370
2083.000000	101.999253
2082.000000	101.999906
2081.000000	102.001007
2080.000000	102.002999
2079.000000	102.005427
2078.000000	102.007293
2077.000000	102.008192
2076.000000	102.008687
2075.000000	102.009420
2074.000000	102.010272
2073.000000	102.010777
2072.000000	102.011073
2071.000000	102.012006
2070.000000	102.014305
2069.000000	102.017853
2068.000000	102.021598
2067.000000	102.024103
2066.000000	102.024429
2065.000000	102.022799
2064.000000	102.020473
2063.000000	102.018734
2062.000000	102.018052
2061.000000	102.018214
2060.000000	102.018752
2059.000000	102.019123
2058.000000	102.019076
2057.000000	102.019210
2056.000000	102.020583
2055.000000	102.023215
2054.000000	102.025447
2053.000000	102.025628
2052.000000	102.024067
2051.000000	102.022665
2050.000000	102.022793
2049.000000	102.024273
2048.000000	102.026350
2047.000000	102.028596
2046.000000	102.030532
2045.000000	102.031186
2044.000000	102.029659
2043.000000	102.026005
2042.000000	102.021416
2041.000000	102.017530
2040.000000	102.015389
2039.000000	102.014927
2038.000000	102.015319
2037.000000	102.015711
2036.000000	102.015516
2035.000000	102.014237
2034.000000	102.011612
2033.000000	102.008134
2032.000000	102.004937
2031.000000	102.002921
2030.000000	102.002272
2029.000000	102.002851
2028.000000	102.004453
2027.000000	102.006470
2026.000000	102.008135
2025.000000	102.009507
2024.000000	102.011331
2023.000000	102.013526
2022.000000	102.014616
2021.000000	102.013446
2020.000000	102.010650
2019.000000	102.007722
2018.000000	102.005249
2017.000000	102.003033
2016.000000	102.001372
2015.000000	102.000905
2014.000000	102.001336
2013.000000	102.001446
2012.000000	102.000489
2011.000000	101.998780
2010.000000	101.996880
2009.000000	101.994907
2008.000000	101.992732
2007.000000	101.990289
2006.000000	101.987597
2005.000000	101.985022
2004.000000	101.983448
2003.000000	101.983590
2002.000000	101.985100
2001.000000	101.986732
2000.000000	101.987457
1999.000000	101.987186
1998.000000	101.986449
1997.000000	101.985752
1996.000000	101.985361
1995.000000	101.985285
1994.000000	101.985296
1993.000000	101.985223
1992.000000	101.985330
1991.000000	101.986074
1990.000000	101.987359
1989.000000	101.988370
1988.000000	101.988397
1987.000000	101.987656
1986.000000	101.987100
1985.000000	101.987444
1984.000000	101.988518
1983.000000	101.989510
1982.000000	101.989772
1981.000000	101.989371
1980.000000	101.988857
1979.000000	101.988626
1978.000000	101.988618
1977.000000	101.988618
1976.000000	101.988687
1975.000000	101.989082
1974.000000	101.989847
1973.000000	101.990754
1972.000000	101.991691
1971.000000	101.992809
1970.000000	101.994066
1969.000000	101.994876
1968.000000	101.994587
1967.000000	101.993310
1966.000000	101.992125
1965.000000	101.992176
1964.000000	101.993787
1963.000000	101.996380
1962.000000	101.998889
1961.000000	102.000374
1960.000000	102.000491
1959.000000	101.999782
1958.000000	101.999453
1957.000000	102.000561
1956.000000	102.003125
1955.000000	102.005890
1954.000000	102.007260
1953.000000	102.006736
1952.000000	102.005285
1951.000000	102.004036
1950.000000	102.002847
1949.000000	102.000853
1948.000000	101.998022
1947.000000	101.995419
1946.000000	101.993850
1945.000000	101.992957
1944.000000	101.991928
1943.000000	101.990552
1942.000000	101.989311
1941.000000	101.988942
1940.000000	101.990032
1939.000000	101.992281
1938.000000	101.994383
1937.000000	101.995417
1936.000000	101.996071
1935.000000	101.997676
1934.000000	101.999828
1933.000000	102.000176
1932.000000	101.997306
1931.000000	101.992724
1930.000000	101.989222
1929.000000	101.988015
1928.000000	101.987792
1927.000000	101.986466
1926.000000	101.983145
1925.000000	101.978799
1924.000000	101.975740
1923.000000	101.975235
1922.000000	101.975708
1921.000000	101.974120
1920.000000	101.969037
1919.000000	101.961528
1918.000000	101.953906
1917.000000	101.947485
1916.000000	101.942318
1915.000000	101.938508
1914.000000	101.935772
1913.000000	101.932597
1912.000000	101.927332
1911.000000	101.919950
1910.000000	101.912101
1909.000000	101.905319
1908.000000	101.899872
1907.000000	101.895624
1906.000000	101.892420
1905.000000	101.889421
1904.000000	101.885605
1903.000000	101.880947
1902.000000	101.876877
1901.000000	101.874494
1900.000000	101.872831
1899.000000	101.869755
1898.000000	101.863986
1897.000000	101.855992
1896.000000	101.847794
1895.000000	101.841717
1894.000000	101.838805
1893.000000	101.837751
1892.000000	101.835690
1891.000000	101.830526
1890.000000	101.822652
1889.000000	101.814282
1888.000000	101.807645
1887.000000	101.804210
1886.000000	101.804368
1885.000000	101.807314
1884.000000	101.811367
1883.000000	101.814552
1882.000000	101.815307
1881.000000	101.812899
1880.000000	101.808166
1879.000000	101.804307
1878.000000	101.804918
1877.000000	101.810036
1876.000000	101.815420
1875.000000	101.816846
1874.000000	101.814483
1873.000000	101.811958
1872.000000	101.811745
1871.000000	101.813064
1870.000000	101.814017
1869.000000	101.814281
1868.000000	101.815092
1867.000000	101.817930
1866.000000	101.823642
1865.000000	101.831475
1864.000000	101.839821
1863.000000	101.847508
1862.000000	101.853544
1861.000000	101.857045
1860.000000	101.858428
1859.000000	101.860296
1858.000000	101.865791
1857.000000	101.875346
1856.000000	101.885942
1855.000000	101.894613
1854.000000	101.901780
1853.000000	101.909868
1852.000000	101.919206
1851.000000	101.927311
1850.000000	101.932207
1849.000000	101.934510
1848.000000	101.936634
1847.000000	101.940092
1846.000000	101.944491
1845.000000	101.948701
1844.000000	101.952836
1843.000000	101.958162
1842.000000	101.965725
1841.000000	101.975201
1840.000000	101.984137
1839.000000	101.989960
1838.000000	101.992237
1837.000000	101.992888
1836.000000	101.994031
1835.000000	101.995282
1834.000000	101.994598
1833.000000	101.991605
1832.000000	101.989079
1831.000000	101.990637
1830.000000	101.996059
1829.000000	102.000398
1828.000000	102.000871
1827.000000	101.999611
1826.000000	101.999037
1825.000000	101.999877
1824.000000	102.001389
1823.000000	102.002379
1822.000000	102.002517
1821.000000	102.002210
1820.000000	102.002407
1819.000000	102.003754
1818.000000	102.005436
1817.000000	102.005924
1816.000000	102.004490
1815.000000	102.001526
1814.000000	101.998172
1813.000000	101.995731
1812.000000	101.995318
1811.000000	101.996991
1810.000000	101.999209
1809.000000	102.000381
1808.000000	101.999935
1807.000000	101.998106
1806.000000	101.995661
1805.000000	101.993441
1804.000000	101.991646
1803.000000	101.989512
1802.000000	101.986297
1801.000000	101.982736
1800.000000	101.981109
1799.000000	101.983004
1798.000000	101.987053
1797.000000	101.990337
1796.000000	101.991526
1795.000000	101.992005
1794.000000	101.993634
1793.000000	101.995937
1792.000000	101.996224
1791.000000	101.993300
1790.000000	101.990073
1789.000000	101.990339
1788.000000	101.994528
1787.000000	102.000587
1786.000000	102.006026
1785.000000	102.009107
1784.000000	102.009654
1783.000000	102.008939
1782.000000	102.008487
1781.000000	102.008441
1780.000000	102.007877
1779.000000	102.006684
1778.000000	102.005840
1777.000000	102.006622
1776.000000	102.009244
1775.000000	102.012845
1774.000000	102.015827
1773.000000	102.017338
1772.000000	102.018728
1771.000000	102.021581
1770.000000	102.025881
1769.000000	102.029419
1768.000000	102.029576
1767.000000	102.026711
1766.000000	102.023117
1765.000000	102.020659
1764.000000	102.020593
1763.000000	102.023755
1762.000000	102.028916
1761.000000	102.032110
1760.000000	102.031108
1759.000000	102.027123
1758.000000	102.021210
1757.000000	102.014153
1756.000000	102.007356
1755.000000	102.002583
1754.000000	101.999826
1753.000000	101.996937
1752.000000	101.992507
1751.000000	101.987143
1750.000000	101.981244
1749.000000	101.975216
1748.000000	101.970590
1747.000000	101.967390
1746.000000	101.963256
1745.000000	101.956050
1744.000000	101.947892
1743.000000	101.943492
1742.000000	101.943840
1741.000000	101.944940
1740.000000	101.942902
1739.000000	101.937984
1738.000000	101.932399
1737.000000	101.927087
1736.000000	101.920528
1735.000000	101.910968
1734.000000	101.898968
1733.000000	101.883677
1732.000000	101.866150
1731.000000	101.851179
1730.000000	101.839894
1729.000000	101.831613
1728.000000	101.825531
1727.000000	101.820059
1726.000000	101.812321
1725.000000	101.799838
1724.000000	101.784513
1723.000000	101.771792
1722.000000	101.765107
1721.000000	101.763158
1720.000000	101.761577
1719.000000	101.755832
1718.000000	101.742884
1717.000000	101.722189
1716.000000	101.698089
1715.000000	101.677604
1714.000000	101.663148
1713.000000	101.653076
1712.000000	101.645254
1711.000000	101.637835
1710.000000	101.629522
1709.000000	101.619098
1708.000000	101.605654
1707.000000	101.589124
1706.000000	101.569766
1705.000000	101.548796
1704.000000	101.529031
1703.000000	101.512732
1702.000000	101.498070
1701.000000	101.482152
1700.000000	101.467383
1699.000000	101.454164
1698.000000	101.439617
1697.000000	101.421465
1696.000000	101.395998
1695.000000	101.365905
1694.000000	101.339954
1693.000000	101.321427
1692.000000	101.306724
1691.000000	101.291263
1690.000000	101.271695
1689.000000	101.247865
1688.000000	101.222866
1687.000000	101.199514
1686.000000	101.175102
1685.000000	101.143750
1684.000000	101.107455
1683.000000	101.076219
1682.000000	101.058135
1681.000000	101.048113
1680.000000	101.033906
1679.000000	101.012712
1678.000000	100.988059
1677.000000	100.963150
1676.000000	100.939458
1675.000000	100.917730
1674.000000	100.896071
1673.000000	100.872173
1672.000000	100.847243
1671.000000	100.823652
1670.000000	100.801755
1669.000000	100.778890
1668.000000	100.753564
1667.000000	100.728179
1666.000000	100.703929
1665.000000	100.680716
1664.000000	100.659673
1663.000000	100.640571
1662.000000	100.619338
1661.000000	100.593273
1660.000000	100.566180
1659.000000	100.542444
1658.000000	100.521354
1657.000000	100.497922
1656.000000	100.469539
1655.000000	100.438084
1654.000000	100.412492
1653.000000	100.403257
1652.000000	100.401175
1651.000000	100.398626
1650.000000	100.395018
1649.000000	100.384700
1648.000000	100.366080
1647.000000	100.342942
1646.000000	100.324053
1645.000000	100.312116
1644.000000	100.303209
1643.000000	100.293946
1642.000000	100.287185
1641.000000	100.284518
1640.000000	100.282384
1639.000000	100.277801
1638.000000	100.270868
1637.000000	100.263499
1636.000000	100.258718
1635.000000	100.258328
1634.000000	100.261933
1633.000000	100.266644
1632.000000	100.268163
1631.000000	100.266197
1630.000000	100.263468
1629.000000	100.262535
1628.000000	100.265466
1627.000000	100.272655
1626.000000	100.282840
1625.000000	100.293952
1624.000000	100.305663
1623.000000	100.319332
1622.000000	100.333625
1621.000000	100.345572
1620.000000	100.354740
1619.000000	100.364282
1618.000000	100.379530
1617.000000	100.403670
1616.000000	100.431924
1615.000000	100.458425
1614.000000	100.483674
1613.000000	100.507391
1612.000000	100.527064
1611.000000	100.542197
1610.000000	100.554666
1609.000000	100.565897
1608.000000	100.575642
1607.000000	100.584160
1606.000000	100.593573
1605.000000	100.606200
1604.000000	100.623003
1603.000000	100.643152
1602.000000	100.663557
1601.000000	100.681430
1600.000000	100.697420
1599.000000	100.714695
1598.000000	100.734683
1597.000000	100.755110
1596.000000	100.772968
1595.000000	100.787910
1594.000000	100.801970
1593.000000	100.816919
1592.000000	100.833073
1591.000000	100.849979
1590.000000	100.866642
1589.000000	100.881577
1588.000000	100.894212
1587.000000	100.905942
1586.000000	100.918530
1585.000000	100.931988
1584.000000	100.944934
1583.000000	100.957102
1582.000000	100.969288
1581.000000	100.981424
1580.000000	100.992848
1579.000000	101.004229
1578.000000	101.017420
1577.000000	101.033146
1576.000000	101.048129
1575.000000	101.058345
1574.000000	101.066463
1573.000000	101.077517
1572.000000	101.093036
1571.000000	101.111908
1570.000000	101.130076
1569.000000	101.142657
1568.000000	101.149530
1567.000000	101.154794
1566.000000	101.160662
1565.000000	101.167320
1564.000000	101.174880
1563.000000	101.183544
1562.000000	101.193837
1561.000000	101.206145
1560.000000	101.220581
1559.000000	101.233947
1558.000000	101.237958
1557.000000	101.239973
1556.000000	101.248619
1555.000000	101.259383
1554.000000	101.270663
1553.000000	101.280519
1552.000000	101.288182
1551.000000	101.294657
1550.000000	101.300996
1549.000000	101.307646
1548.000000	101.314370
1547.000000	101.320360
1546.000000	101.324602
1545.000000	101.327485
1544.000000	101.331306
1543.000000	101.338853
1542.000000	101.351153
1541.000000	101.366446
1540.000000	101.381045
1539.000000	101.392353
1538.000000	101.402268
1537.000000	101.411783
1536.000000	101.419886
1535.000000	101.427082
1534.000000	101.433762
1533.000000	101.439364
1532.000000	101.444082
1531.000000	101.449914
1530.000000	101.457291
1529.000000	101.465241
1528.000000	101.473674
1527.000000	101.483542
1526.000000	101.495839
1525.000000	101.509583
1524.000000	101.522704
1523.000000	101.534095
1522.000000	101.543727
1521.000000	101.550619
1520.000000	101.554663
1519.000000	101.559793
1518.000000	101.569119
1517.000000	101.582298
1516.000000	101.596084
1515.000000	101.607681
1514.000000	101.617716
1513.000000	101.626836
1512.000000	101.635650
1511.000000	101.645259
1510.000000	101.658025
1509.000000	101.677443
1508.000000	101.704331
1507.000000	101.729227
1506.000000	101.738144
1505.000000	101.739145
1504.000000	101.742498
1503.000000	101.746328
1502.000000	101.753437
1501.000000	101.764860
1500.000000	101.778583
1499.000000	101.793178
1498.000000	101.808392
1497.000000	101.823561
1496.000000	101.835559
1495.000000	101.841466
1494.000000	101.842764
1493.000000	101.843918
1492.000000	101.848986
1491.000000	101.858823
1490.000000	101.868725
1489.000000	101.873353
1488.000000	101.875235
1487.000000	101.879016
1486.000000	101.883241
1485.000000	101.884740
1484.000000	101.883797
1483.000000	101.884709
1482.000000	101.890492
1481.000000	101.898636
1480.000000	101.904265
1479.000000	101.905289
1478.000000	101.902081
1477.000000	101.894680
1476.000000	101.882969
1475.000000	101.867988
1474.000000	101.852380
1473.000000	101.839245
1472.000000	101.831164
1471.000000	101.828924
1470.000000	101.829729
1469.000000	101.828883
1468.000000	101.825195
1467.000000	101.821070
1466.000000	101.818073
1465.000000	101.814275
1464.000000	101.807183
1463.000000	101.798783
1462.000000	101.792275
1461.000000	101.788265
1460.000000	101.786083
1459.000000	101.784958
1458.000000	101.784518
1457.000000	101.785011
1456.000000	101.787878
1455.000000	101.795121
1454.000000	101.803543
1453.000000	101.807955
1452.000000	101.806837
1451.000000	101.802589
1450.000000	101.799655
1449.000000	101.798950
1448.000000	101.797073
1447.000000	101.791585
1446.000000	101.784582
1445.000000	101.778544
1444.000000	101.773765
1443.000000	101.770498
1442.000000	101.769196
1441.000000	101.768958
1440.000000	101.767187
1439.000000	101.762090
1438.000000	101.754311
1437.000000	101.747600
1436.000000	101.744756
1435.000000	101.744007
1434.000000	101.742173
1433.000000	101.737693
1432.000000	101.731725
1431.000000	101.728054
1430.000000	101.729595
1429.000000	101.735192
1428.000000	101.741443
1427.000000	101.746634
1426.000000	101.751510
1425.000000	101.755771
1424.000000	101.756690
1423.000000	101.752949
1422.000000	101.747333
1421.000000	101.743327
1420.000000	101.742531
1419.000000	101.745161
1418.000000	101.749395
1417.000000	101.754593
1416.000000	101.760575
1415.000000	101.765383
1414.000000	101.768803
1413.000000	101.772658
1412.000000	101.778047
1411.000000	101.784559
1410.000000	101.791536
1409.000000	101.798922
1408.000000	101.806291
1407.000000	101.812424
1406.000000	101.817015
1405.000000	101.820984
1404.000000	101.825061
1403.000000	101.829577
1402.000000	101.835434
1401.000000	101.844115
1400.000000	101.855185
1399.000000	101.864157
1398.000000	101.866769
1397.000000	101.864993
1396.000000	101.864978
1395.000000	101.871332
1394.000000	101.883989
1393.000000	101.898782
1392.000000	101.911264
1391.000000	101.919224
1390.000000	101.923046
1389.000000	101.924903
1388.000000	101.927139
1387.000000	101.930405
1386.000000	101.933714
1385.000000	101.936344
1384.000000	101.938191
1383.000000	101.939209
1382.000000	101.939032
1381.000000	101.937070
1380.000000	101.933349
1379.000000	101.929269
1378.000000	101.926880
1377.000000	101.927044
1376.000000	101.928845
1375.000000	101.931122
1374.000000	101.934263
1373.000000	101.939773
1372.000000	101.947937
1371.000000	101.956468
1370.000000	101.962584
1369.000000	101.965363
1368.000000	101.966171
1367.000000	101.967425
1366.000000	101.970288
1365.000000	101.973678
1364.000000	101.975616
1363.000000	101.975561
1362.000000	101.975542
1361.000000	101.978119
1360.000000	101.982951
1359.000000	101.987357
1358.000000	101.990071
1357.000000	101.992178
1356.000000	101.994801
1355.000000	101.997556
1354.000000	101.999814
1353.000000	102.002473
1352.000000	102.007248
1351.000000	102.014184
1350.000000	102.021175
1349.000000	102.025797
1348.000000	102.027704
1347.000000	102.028567
1346.000000	102.029590
1345.000000	102.029865
1344.000000	102.027546
1343.000000	102.022333
1342.000000	102.016337
1341.000000	102.012547
1340.000000	102.012429
1339.000000	102.014987
1338.000000	102.018190
1337.000000	102.020729
1336.000000	102.022501
1335.000000	102.024422
1334.000000	102.027632
1333.000000	102.032204
1332.000000	102.036263
1331.000000	102.036488
1330.000000	102.030719
1329.000000	102.021106
1328.000000	102.014137
1327.000000	102.015501
1326.000000	102.024196
1325.000000	102.032935
1324.000000	102.035633
1323.000000	102.033018
1322.000000	102.030031
1321.000000	102.029409
1320.000000	102.029779
1319.000000	102.029066
1318.000000	102.026978
1317.000000	102.023941
1316.000000	102.020074
1315.000000	102.016280
1314.000000	102.014445
1313.000000	102.015301
1312.000000	102.017415
1311.000000	102.019271
1310.000000	102.021070
1309.000000	102.023521
1308.000000	102.026120
1307.000000	102.027774
1306.000000	102.028640
1305.000000	102.030063
1304.000000	102.032846
1303.000000	102.036013
1302.000000	102.037301
1301.000000	102.034964
1300.000000	102.029644
1299.000000	102.024608
1298.000000	102.023359
1297.000000	102.026571
1296.000000	102.031467
1295.000000	102.034026
1294.000000	102.031619
1293.000000	102.024646
1292.000000	102.016947
1291.000000	102.013585
1290.000000	102.016049
1289.000000	102.019801
1288.000000	102.018590
1287.000000	102.011401
1286.000000	102.003305
1285.000000	101.999332
1284.000000	101.999762
1283.000000	102.001751
1282.000000	102.002827
1281.000000	102.001659
1280.000000	101.997683
1279.000000	101.991957
1278.000000	101.987151
1277.000000	101.985219
1276.000000	101.985914
1275.000000	101.988318
1274.000000	101.992128
1273.000000	101.996165
1272.000000	101.997365
1271.000000	101.993465
1270.000000	101.986028
1269.000000	101.978932
1268.000000	101.974249
1267.000000	101.971051
1266.000000	101.967537
1265.000000	101.962661
1264.000000	101.955922
1263.000000	101.947166
1262.000000	101.936943
1261.000000	101.926257
1260.000000	101.916018
1259.000000	101.907288
1258.000000	101.901274
1257.000000	101.897935
1256.000000	101.894813
1255.000000	101.888303
1254.000000	101.876414
1253.000000	101.859949
1252.000000	101.841221
1251.000000	101.822153
1250.000000	101.803230
1249.000000	101.783605
1248.000000	101.762539
1247.000000	101.741250
1246.000000	101.722802
1245.000000	101.709244
1244.000000	101.698878
1243.000000	101.687117
1242.000000	101.670414
1241.000000	101.648977
1240.000000	101.625681
1239.000000	101.603123
1238.000000	101.582223
1237.000000	101.562855
1236.000000	101.544557
1235.000000	101.526536
1234.000000	101.508109
1233.000000	101.489601
1232.000000	101.471734
1231.000000	101.453405
1230.000000	101.431356
1229.000000	101.403295
1228.000000	101.370248
1227.000000	101.334212
1226.000000	101.294603
1225.000000	101.249459
1224.000000	101.199783
1223.000000	101.149690
1222.000000	101.101458
1221.000000	101.052854
1220.000000	101.000345
1219.000000	100.942479
1218.000000	100.879139
1217.000000	100.810367
1216.000000	100.737917
1215.000000	100.665434
1214.000000	100.594254
1213.000000	100.520639
1212.000000	100.439887
1211.000000	100.352169
1210.000000	100.262231
1209.000000	100.174138
1208.000000	100.088210
1207.000000	100.002321
1206.000000	99.914773
1205.000000	99.826544
1204.000000	99.740819
1203.000000	99.658543
1202.000000	99.574864
1201.000000	99.483481
1200.000000	99.385264
1199.000000	99.288641
1198.000000	99.199054
1197.000000	99.111735
1196.000000	99.018242
1195.000000	98.917146
1194.000000	98.814663
1193.000000	98.716274
1192.000000	98.620957
1191.000000	98.523200
1190.000000	98.418553
1189.000000	98.307491
1188.000000	98.194818
1187.000000	98.084773
1186.000000	97.976709
1185.000000	97.867030
1184.000000	97.754575
1183.000000	97.640976
1182.000000	97.525891
1181.000000	97.405862
1180.000000	97.279022
1179.000000	97.147476
1178.000000	97.013551
1177.000000	96.876541
1176.000000	96.734352
1175.000000	96.585806
1174.000000	96.430897
1173.000000	96.271578
1172.000000	96.112127
1171.000000	95.955237
1170.000000	95.798264
1169.000000	95.637800
1168.000000	95.477487
1167.000000	95.326403
1166.000000	95.190811
1165.000000	95.074021
1164.000000	94.983776
1163.000000	94.931277
1162.000000	94.920307
1161.000000	94.942301
1160.000000	94.981776
1159.000000	95.020626
1158.000000	95.039139
1157.000000	95.022801
1156.000000	94.971181
1155.000000	94.895319
1154.000000	94.805503
1153.000000	94.705652
1152.000000	94.598109
1151.000000	94.485948
1150.000000	94.369306
1149.000000	94.246418
1148.000000	94.119513
1147.000000	93.993246
1146.000000	93.866927
1145.000000	93.735648
1144.000000	93.599712
1143.000000	93.465500
1142.000000	93.336438
1141.000000	93.210605
1140.000000	93.087087
1139.000000	92.966147
1138.000000	92.843545
1137.000000	92.714395
1136.000000	92.582692
1135.000000	92.456681
1134.000000	92.334343
1133.000000	92.204705
1132.000000	92.064578
1131.000000	91.922186
1130.000000	91.782298
1129.000000	91.639731
1128.000000	91.490731
1127.000000	91.338858
1126.000000	91.185910
1125.000000	91.028315
1124.000000	90.866483
1123.000000	90.706626
1122.000000	90.549429
1121.000000	90.388217
1120.000000	90.222356
1119.000000	90.060743
1118.000000	89.907605
1117.000000	89.756826
1116.000000	89.604886
1115.000000	89.457989
1114.000000	89.321870
1113.000000	89.195603
1112.000000	89.078584
1111.000000	88.971492
1110.000000	88.867505
1109.000000	88.755347
1108.000000	88.634509
1107.000000	88.515745
1106.000000	88.404766
1105.000000	88.297508
1104.000000	88.191746
1103.000000	88.089337
1102.000000	87.986325
1101.000000	87.875856
1100.000000	87.761948
1099.000000	87.655226
1098.000000	87.554564
1097.000000	87.448583
1096.000000	87.335640
1095.000000	87.225194
1094.000000	87.119334
1093.000000	87.011631
1092.000000	86.904945
1091.000000	86.809899
1090.000000	86.723357
1089.000000	86.629601
1088.000000	86.526927
1087.000000	86.432045
1086.000000	86.352539
1085.000000	86.275031
1084.000000	86.187637
1083.000000	86.095583
1082.000000	86.007984
1081.000000	85.926155
1080.000000	85.850810
1079.000000	85.783873
1078.000000	85.717337
1077.000000	85.636375
1076.000000	85.537830
1075.000000	85.429890
1074.000000	85.311246
1073.000000	85.168194
1072.000000	84.995403
1071.000000	84.801984
1070.000000	84.594078
1069.000000	84.368406
1068.000000	84.125392
1067.000000	83.870789
1066.000000	83.602066
1065.000000	83.311717
1064.000000	83.006006
1063.000000	82.701222
1062.000000	82.400079
1061.000000	82.092781
1060.000000	81.782300
1059.000000	81.484882
1058.000000	81.203095
1057.000000	80.923027
1056.000000	80.641115
1055.000000	80.367294
1054.000000	80.096658
1053.000000	79.805789
1052.000000	79.486661
1051.000000	79.157896
1050.000000	78.831963
1049.000000	78.499721
1048.000000	78.157885
1047.000000	77.820266
1046.000000	77.491514
1045.000000	77.159152
1044.000000	76.819792
1043.000000	76.486488
1042.000000	76.163219
1041.000000	75.838105
1040.000000	75.509252
1039.000000	75.191291
1038.000000	74.888480
1037.000000	74.587835
1036.000000	74.287450
1035.000000	74.005218
1034.000000	73.750548
1033.000000	73.512944
1032.000000	73.286681
1031.000000	73.082002
1030.000000	72.904876
1029.000000	72.750389
1028.000000	72.621274
1027.000000	72.526628
1026.000000	72.457263
1025.000000	72.389395
1024.000000	72.317968
1023.000000	72.259182
1022.000000	72.215715
1021.000000	72.167874
1020.000000	72.104497
1019.000000	72.034619
1018.000000	71.962904
1017.000000	71.880767
1016.000000	71.787009
1015.000000	71.690567
1014.000000	71.588761
1013.000000	71.469661
1012.000000	71.338904
1011.000000	71.216452
1010.000000	71.105199
1009.000000	70.993025
1008.000000	70.887871
1007.000000	70.817339
1006.000000	70.788222
1005.000000	70.779314
1004.000000	70.780870
1003.000000	70.808174
1002.000000	70.866888
1001.000000	70.937780
1000.000000	71.008318
999.000000	71.091320
998.000000	71.199723
997.000000	71.327387
996.000000	71.464699
995.000000	71.610170
994.000000	71.758676
993.000000	71.900585
992.000000	72.039169
991.000000	72.188173
990.000000	72.349019
989.000000	72.511969
988.000000	72.679964
987.000000	72.865990
986.000000	73.066029
985.000000	73.262131
984.000000	73.455196
983.000000	73.667025
982.000000	73.905614
981.000000	74.155030
980.000000	74.404310
979.000000	74.660871
978.000000	74.930692
977.000000	75.210694
976.000000	75.505370
975.000000	75.825870
974.000000	76.167398
973.000000	76.511099
972.000000	76.852458
971.000000	77.204439
970.000000	77.569492
969.000000	77.933014
968.000000	78.288301
967.000000	78.643722
966.000000	79.001197
965.000000	79.351805
964.000000	79.697176
963.000000	80.050875
962.000000	80.412705
961.000000	80.764916
960.000000	81.100128
959.000000	81.430249
958.000000	81.761078
957.000000	82.080177
956.000000	82.378292
955.000000	82.662426
954.000000	82.939378
953.000000	83.204442
952.000000	83.454103
951.000000	83.692761
950.000000	83.920333
949.000000	84.129937
948.000000	84.323555
947.000000	84.512856
946.000000	84.698206
945.000000	84.863859
944.000000	85.001106
943.000000	85.120403
942.000000	85.234219
941.000000	85.343274
940.000000	85.446710
939.000000	85.550674
938.000000	85.658962
937.000000	85.768485
936.000000	85.880618
935.000000	86.003983
934.000000	86.140035
933.000000	86.278360
932.000000	86.411126
931.000000	86.539742
930.000000	86.663516
929.000000	86.775120
928.000000	86.871827
927.000000	86.959294
926.000000	87.040850
925.000000	87.114638
924.000000	87.182703
923.000000	87.249267
922.000000	87.308052
921.000000	87.345641
920.000000	87.359985
919.000000	87.362061
918.000000	87.358280
917.000000	87.347176
916.000000	87.335663
915.000000	87.341620
914.000000	87.376486
913.000000	87.441538
912.000000	87.544708
911.000000	87.702968
910.000000	87.922008
909.000000	88.189024
908.000000	88.489818
907.000000	88.817269
906.000000	89.160134
905.000000	89.502565
904.000000	89.841553
903.000000	90.189118
902.000000	90.550633
901.000000	90.913924
900.000000	91.264415
899.000000	91.598375
898.000000	91.917266
897.000000	92.221673
896.000000	92.515512
895.000000	92.805129
894.000000	93.089562
893.000000	93.360308
892.000000	93.613083
891.000000	93.851882
890.000000	94.081596
889.000000	94.305446
888.000000	94.528365
887.000000	94.752839
886.000000	94.973252
885.000000	95.184943
884.000000	95.395263
883.000000	95.612217
882.000000	95.825685
881.000000	96.016811
880.000000	96.185295
879.000000	96.350202
878.000000	96.522694
877.000000	96.696042
876.000000	96.866023
875.000000	97.042623
874.000000	97.235037
873.000000	97.439674
872.000000	97.648049
871.000000	97.853335
870.000000	98.046555
869.000000	98.220654
868.000000	98.382085
867.000000	98.546246
866.000000	98.718772
865.000000	98.892758
864.000000	99.064876
863.000000	99.239695
862.000000	99.415915
861.000000	99.583781
860.000000	99.741090
859.000000	99.898061
858.000000	100.060387
857.000000	100.219575
856.000000	100.366439
855.000000	100.502844
854.000000	100.633648
853.000000	100.757050
852.000000	100.869664
851.000000	100.972833
850.000000	101.068010
849.000000	101.153000
848.000000	101.226995
847.000000	101.291856
846.000000	101.345835
845.000000	101.385218
844.000000	101.414273
843.000000	101.441954
842.000000	101.464993
841.000000	101.467445
840.000000	101.443608
839.000000	101.409091
838.000000	101.380649
837.000000	101.356032
836.000000	101.324338
835.000000	101.287252
834.000000	101.258298
833.000000	101.246417
832.000000	101.250381
831.000000	101.265393
830.000000	101.286932
829.000000	101.311979
828.000000	101.343197
827.000000	101.386863
826.000000	101.439659
825.000000	101.483735
824.000000	101.503625
823.000000	101.502776
822.000000	101.495430
821.000000	101.487892
820.000000	101.474746
819.000000	101.446327
818.000000	101.392257
817.000000	101.303094
816.000000	101.175648
815.000000	101.014468
814.000000	100.824445
813.000000	100.604911
812.000000	100.351880
811.000000	100.057620
810.000000	99.703119
809.000000	99.260948
808.000000	98.717430
807.000000	98.090274
806.000000	97.417087
805.000000	96.729329
804.000000	96.044537
803.000000	95.378333
802.000000	94.752996
801.000000	94.195303
800.000000	93.731617
799.000000	93.381109
798.000000	93.148859
797.000000	93.028456
796.000000	93.009074
795.000000	93.070639
794.000000	93.175887
793.000000	93.284021
792.000000	93.376042
791.000000	93.456115
790.000000	93.527674
789.000000	93.579149
788.000000	93.592660
787.000000	93.554799
786.000000	93.459049
785.000000	93.309736
784.000000	93.124527
783.000000	92.922566
782.000000	92.711233
781.000000	92.496501
780.000000	92.303277
779.000000	92.168347
778.000000	92.111646
777.000000	92.129312
776.000000	92.214044
775.000000	92.364138
774.000000	92.571373
773.000000	92.818515
772.000000	93.091740
771.000000	93.379578
770.000000	93.659648
769.000000	93.905710
768.000000	94.111246
767.000000	94.289916
766.000000	94.450989
765.000000	94.591406
764.000000	94.714042
763.000000	94.833981
762.000000	94.960154
761.000000	95.087682
760.000000	95.215241
759.000000	95.353649
758.000000	95.508359
757.000000	95.666940
756.000000	95.812745
755.000000	95.940889
754.000000	96.055626
753.000000	96.163065
752.000000	96.271287
751.000000	96.386522
750.000000	96.504384
