4000.000000	100.831052
3999.000000	100.829848
3998.000000	100.831644
3997.000000	100.834924
3996.000000	100.837262
3995.000000	100.837602
3994.000000	100.836282
3993.000000	100.834163
3992.000000	100.831833
3991.000000	100.829733
3990.000000	100.828538
3989.000000	100.828941
3988.000000	100.831054
3987.000000	100.834066
3986.000000	100.836560
3985.000000	100.837336
3984.000000	100.836136
3983.000000	100.833814
3982.000000	100.831741
3981.000000	100.830656
3980.000000	100.830040
3979.000000	100.828683
3978.000000	100.825935
3977.000000	100.822512
3976.000000	100.820118
3975.000000	100.820069
3974.000000	100.822395
3973.000000	100.826022
3972.000000	100.829534
3971.000000	100.831829
3970.000000	100.832200
3969.000000	100.830397
3968.000000	100.827008
3967.000000	100.823568
3966.000000	100.821665
3965.000000	100.821700
3964.000000	100.822703
3963.000000	100.823479
3962.000000	100.823916
3961.000000	100.824789
3960.000000	100.826449
3959.000000	100.828247
3958.000000	100.829310
3957.000000	100.829479
3956.000000	100.829226
3955.000000	100.828960
3954.000000	100.828612
3953.000000	100.827860
3952.000000	100.826515
3951.000000	100.824633
3950.000000	100.822486
3949.000000	100.820635
3948.000000	100.819821
3947.000000	100.820443
3946.000000	100.822111
3945.000000	100.823828
3944.000000	100.824849
3943.000000	100.825218
3942.000000	100.825319
3941.000000	100.825094
3940.000000	100.824051
3939.000000	100.821976
3938.000000	100.819256
3937.000000	100.816487
3936.000000	100.814029
3935.000000	100.812142
3934.000000	100.811333
3933.000000	100.812173
3932.000000	100.814593
3931.000000	100.817492
3930.000000	100.819517
3929.000000	100.820116
3928.000000	100.819638
3927.000000	100.818681
3926.000000	100.817569
3925.000000	100.816386
3924.000000	100.815175
3923.000000	100.814079
3922.000000	100.813395
3921.000000	100.813389
3920.000000	100.814029
3919.000000	100.815046
3918.000000	100.816312
3917.000000	100.817856
3916.000000	100.819371
3915.000000	100.820148
3914.000000	100.819797
3913.000000	100.818885
3912.000000	100.818522
3911.000000	100.819402
3910.000000	100.821264
3909.000000	100.823164
3908.000000	100.824011
3907.000000	100.823013
3906.000000	100.820002
3905.000000	100.815949
3904.000000	100.812767
3903.000000	100.811860
3902.000000	100.813302
3901.000000	100.816434
3900.000000	100.820622
3899.000000	100.824950
3898.000000	100.827801
3897.000000	100.827888
3896.000000	100.825459
3895.000000	100.822193
3894.000000	100.819884
3893.000000	100.819486
3892.000000	100.821129
3891.000000	100.824546
3890.000000	100.828814
3889.000000	100.832587
3888.000000	100.834839
3887.000000	100.835505
3886.000000	100.835675
3885.000000	100.836490
3884.000000	100.837249
3883.000000	100.836122
3882.000000	100.832334
3881.000000	100.827002
3880.000000	100.822221
3879.000000	100.818996
3878.000000	100.816798
3877.000000	100.814816
3876.000000	100.812247
3875.000000	100.808877
3874.000000	100.805993
3873.000000	100.805294
3872.000000	100.807242
3871.000000	100.811247
3870.000000	100.816371
3869.000000	100.821202
3868.000000	100.824151
3867.000000	100.825337
3866.000000	100.826885
3865.000000	100.830297
3864.000000	100.833973
3863.000000	100.834752
3862.000000	100.831433
3861.000000	100.825889
3860.000000	100.820961
3859.000000	100.818319
3858.000000	100.817616
3857.000000	100.817189
3856.000000	100.815174
3855.000000	100.810995
3854.000000	100.807103
3853.000000	100.807451
3852.000000	100.810912
3851.000000	100.812860
3850.000000	100.812060
3849.000000	100.810173
3848.000000	100.808809
3847.000000	100.808477
3846.000000	100.808990
3845.000000	100.810107
3844.000000	100.811703
3843.000000	100.813821
3842.000000	100.816155
3841.000000	100.818133
3840.000000	100.819712
3839.000000	100.821492
3838.000000	100.823520
3837.000000	100.824881
3836.000000	100.824831
3835.000000	100.823859
3834.000000	100.823186
3833.000000	100.823528
3832.000000	100.824483
3831.000000	100.824973
3830.000000	100.824384
3829.000000	100.823101
3828.000000	100.821937
3827.000000	100.821448
3826.000000	100.821641
3825.000000	100.822131
3824.000000	100.822546
3823.000000	100.822811
3822.000000	100.823048
3821.000000	100.823361
3820.000000	100.823603
3819.000000	100.823603
3818.000000	100.823496
3817.000000	100.823501
3816.000000	100.823688
3815.000000	100.823948
3814.000000	100.824168
3813.000000	100.824336
3812.000000	100.824482
3811.000000	100.824615
3810.000000	100.824731
3809.000000	100.824832
3808.000000	100.824920
3807.000000	100.824992
3806.000000	100.825047
3805.000000	100.825083
3804.000000	100.825105
3803.000000	100.825118
3802.000000	100.825125
3801.000000	100.825121
3800.000000	100.825094
3799.000000	100.825040
3798.000000	100.824968
3797.000000	100.824893
3796.000000	100.824826
3795.000000	100.824764
3794.000000	100.824697
3793.000000	100.824614
3792.000000	100.824511
3791.000000	100.824395
3790.000000	100.824285
3789.000000	100.824201
3788.000000	100.824159
3787.000000	100.824150
3786.000000	100.824287
3785.000000	100.824633
3784.000000	100.824834
3783.000000	100.824375
3782.000000	100.823199
3781.000000	100.822091
3780.000000	100.822305
3779.000000	100.824479
3778.000000	100.827504
3777.000000	100.829119
3776.000000	100.827866
3775.000000	100.824189
3774.000000	100.820076
3773.000000	100.817514
3772.000000	100.817278
3771.000000	100.818954
3770.000000	100.821574
3769.000000	100.824028
3768.000000	100.825355
3767.000000	100.825163
3766.000000	100.823535
3765.000000	100.820712
3764.000000	100.817109
3763.000000	100.813770
3762.000000	100.812299
3761.000000	100.813067
3760.000000	100.812932
3759.000000	100.807163
3758.000000	100.795314
3757.000000	100.783387
3756.000000	100.778166
3755.000000	100.781205
3754.000000	100.788695
3753.000000	100.795406
3752.000000	100.798928
3751.000000	100.801596
3750.000000	100.807492
3749.000000	100.817355
3748.000000	100.828244
3747.000000	100.835063
3746.000000	100.833049
3745.000000	100.821674
3744.000000	100.805071
3743.000000	100.786137
3742.000000	100.765991
3741.000000	100.747898
3740.000000	100.735037
3739.000000	100.726978
3738.000000	100.719839
3737.000000	100.711842
3736.000000	100.707908
3735.000000	100.714133
3734.000000	100.726451
3733.000000	100.732498
3732.000000	100.725392
3731.000000	100.708812
3730.000000	100.690683
3729.000000	100.675463
3728.000000	100.662697
3727.000000	100.650674
3726.000000	100.639816
3725.000000	100.632078
3724.000000	100.627868
3723.000000	100.623813
3722.000000	100.614007
3721.000000	100.595351
3720.000000	100.571274
3719.000000	100.548751
3718.000000	100.532421
3717.000000	100.521803
3716.000000	100.512163
3715.000000	100.497530
3714.000000	100.473196
3713.000000	100.437258
3712.000000	100.392904
3711.000000	100.348859
3710.000000	100.313057
3709.000000	100.286935
3708.000000	100.267225
3707.000000	100.249666
3706.000000	100.229861
3705.000000	100.203076
3704.000000	100.165528
3703.000000	100.117476
3702.000000	100.065754
3701.000000	100.020656
3700.000000	99.987898
3699.000000	99.965221
3698.000000	99.946466
3697.000000	99.927778
3696.000000	99.910797
3695.000000	99.900983
3694.000000	99.903215
3693.000000	99.917510
3692.000000	99.937352
3691.000000	99.953903
3690.000000	99.964093
3689.000000	99.972836
3688.000000	99.984680
3687.000000	99.997766
3686.000000	100.007152
3685.000000	100.009512
3684.000000	100.004951
3683.000000	99.996139
3682.000000	99.986020
3681.000000	99.976200
3680.000000	99.966821
3679.000000	99.955787
3678.000000	99.939598
3677.000000	99.918455
3676.000000	99.900967
3675.000000	99.895135
3674.000000	99.893522
3673.000000	99.882891
3672.000000	99.860337
3671.000000	99.832897
3670.000000	99.810863
3669.000000	99.798612
3668.000000	99.790499
3667.000000	99.780077
3666.000000	99.765979
3665.000000	99.748947
3664.000000	99.729005
3663.000000	99.705283
3662.000000	99.677733
3661.000000	99.648625
3660.000000	99.621933
3659.000000	99.600926
3658.000000	99.586309
3657.000000	99.575986
3656.000000	99.566641
3655.000000	99.555331
3654.000000	99.540957
3653.000000	99.524345
3652.000000	99.506734
3651.000000	99.488737
3650.000000	99.470941
3649.000000	99.454111
3648.000000	99.437175
3647.000000	99.417841
3646.000000	99.395494
3645.000000	99.371829
3644.000000	99.349768
3643.000000	99.331944
3642.000000	99.319021
3641.000000	99.308921
3640.000000	99.298427
3639.000000	99.286393
3638.000000	99.274240
3637.000000	99.262841
3636.000000	99.250594
3635.000000	99.235770
3634.000000	99.219500
3633.000000	99.204153
3632.000000	99.189666
3631.000000	99.173369
3630.000000	99.153454
3629.000000	99.131573
3628.000000	99.107785
3627.000000	99.077277
3626.000000	99.040550
3625.000000	99.005350
3624.000000	98.977572
3623.000000	98.956706
3622.000000	98.939319
3621.000000	98.926387
3620.000000	98.924568
3619.000000	98.937374
3618.000000	98.958185
3617.000000	98.978177
3616.000000	98.997246
3615.000000	99.021101
3614.000000	99.050308
3613.000000	99.075875
3612.000000	99.087482
3611.000000	99.084845
3610.000000	99.078450
3609.000000	99.078935
3608.000000	99.086632
3607.000000	99.092906
3606.000000	99.090931
3605.000000	99.082654
3604.000000	99.075239
3603.000000	99.073597
3602.000000	99.076942
3601.000000	99.081120
3600.000000	99.082744
3599.000000	99.080807
3598.000000	99.076681
3597.000000	99.073120
3596.000000	99.072704
3595.000000	99.076469
3594.000000	99.083142
3593.000000	99.089453
3592.000000	99.092417
3591.000000	99.090707
3590.000000	99.084837
3589.000000	99.077595
3588.000000	99.073883
3587.000000	99.076145
3586.000000	99.079598
3585.000000	99.076956
3584.000000	99.066914
3583.000000	99.054718
3582.000000	99.047002
3581.000000	99.046498
3580.000000	99.050603
3579.000000	99.054137
3578.000000	99.053689
3577.000000	99.049488
3576.000000	99.043867
3575.000000	99.038658
3574.000000	99.033908
3573.000000	99.028677
3572.000000	99.022515
3571.000000	99.015864
3570.000000	99.009068
3569.000000	99.002011
3568.000000	98.995141
3567.000000	98.989900
3566.000000	98.986923
3565.000000	98.984901
3564.000000	98.982402
3563.000000	98.979286
3562.000000	98.976143
3561.000000	98.973278
3560.000000	98.970289
3559.000000	98.966455
3558.000000	98.961523
3557.000000	98.956017
3556.000000	98.950699
3555.000000	98.945858
3554.000000	98.941247
3553.000000	98.936557
3552.000000	98.931671
3551.000000	98.926560
3550.000000	98.921249
3549.000000	98.915916
3548.000000	98.910791
3547.000000	98.905907
3546.000000	98.901054
3545.000000	98.896051
3544.000000	98.890960
3543.000000	98.885932
3542.000000	98.880957
3541.000000	98.875894
3540.000000	98.870748
3539.000000	98.865797
3538.000000	98.861367
3537.000000	98.857506
3536.000000	98.853864
3535.000000	98.849794
3534.000000	98.844760
3533.000000	98.838669
3532.000000	98.831913
3531.000000	98.825244
3530.000000	98.819302
3529.000000	98.814263
3528.000000	98.809816
3527.000000	98.805271
3526.000000	98.800066
3525.000000	98.794196
3524.000000	98.788262
3523.000000	98.782959
3522.000000	98.778401
3521.000000	98.773987
3520.000000	98.769016
3519.000000	98.763308
3518.000000	98.757104
3517.000000	98.750513
3516.000000	98.743350
3515.000000	98.735607
3514.000000	98.727853
3513.000000	98.720893
3512.000000	98.715146
3511.000000	98.710469
3510.000000	98.706440
3509.000000	98.702618
3508.000000	98.698627
3507.000000	98.694286
3506.000000	98.689746
3505.000000	98.685407
3504.000000	98.681543
3503.000000	98.677899
3502.000000	98.673682
3501.000000	98.668195
3500.000000	98.661592
3499.000000	98.654865
3498.000000	98.648912
3497.000000	98.643553
3496.000000	98.637536
3495.000000	98.629635
3494.000000	98.619884
3493.000000	98.609852
3492.000000	98.601687
3491.000000	98.596599
3490.000000	98.593725
3489.000000	98.590713
3488.000000	98.585888
3487.000000	98.579632
3486.000000	98.573435
3485.000000	98.568006
3484.000000	98.563107
3483.000000	98.558934
3482.000000	98.556656
3481.000000	98.557064
3480.000000	98.559118
3479.000000	98.560459
3478.000000	98.559334
3477.000000	98.555576
3476.000000	98.550103
3475.000000	98.543862
3474.000000	98.537079
3473.000000	98.529268
3472.000000	98.519867
3471.000000	98.509052
3470.000000	98.498054
3469.000000	98.488600
3468.000000	98.481994
3467.000000	98.478562
3466.000000	98.477657
3465.000000	98.478020
3464.000000	98.478270
3463.000000	98.477328
3462.000000	98.474650
3461.000000	98.470303
3460.000000	98.464850
3459.000000	98.458917
3458.000000	98.452689
3457.000000	98.446104
3456.000000	98.439674
3455.000000	98.434593
3454.000000	98.431362
3453.000000	98.428581
3452.000000	98.423985
3451.000000	98.416825
3450.000000	98.408615
3449.000000	98.401416
3448.000000	98.395920
3447.000000	98.391541
3446.000000	98.387628
3445.000000	98.383759
3444.000000	98.379245
3443.000000	98.373402
3442.000000	98.366541
3441.000000	98.359997
3440.000000	98.354773
3439.000000	98.350616
3438.000000	98.346720
3437.000000	98.342883
3436.000000	98.339458
3435.000000	98.336438
3434.000000	98.333190
3433.000000	98.329036
3432.000000	98.323649
3431.000000	98.317026
3430.000000	98.309726
3429.000000	98.303137
3428.000000	98.298685
3427.000000	98.296362
3426.000000	98.294407
3425.000000	98.290965
3424.000000	98.286022
3423.000000	98.281196
3422.000000	98.277851
3421.000000	98.275998
3420.000000	98.274878
3419.000000	98.273845
3418.000000	98.272343
3417.000000	98.269672
3416.000000	98.265514
3415.000000	98.260537
3414.000000	98.255932
3413.000000	98.252255
3412.000000	98.249072
3411.000000	98.245676
3410.000000	98.241689
3409.000000	98.237040
3408.000000	98.232007
3407.000000	98.227519
3406.000000	98.224736
3405.000000	98.223738
3404.000000	98.222983
3403.000000	98.220710
3402.000000	98.216726
3401.000000	98.212336
3400.000000	98.208758
3399.000000	98.206346
3398.000000	98.205226
3397.000000	98.205710
3396.000000	98.207558
3395.000000	98.209432
3394.000000	98.209860
3393.000000	98.208691
3392.000000	98.207089
3391.000000	98.206027
3390.000000	98.205166
3389.000000	98.203406
3388.000000	98.200191
3387.000000	98.195910
3386.000000	98.191243
3385.000000	98.186607
3384.000000	98.182532
3383.000000	98.180152
3382.000000	98.180577
3381.000000	98.183544
3380.000000	98.187112
3379.000000	98.189248
3378.000000	98.189638
3377.000000	98.189396
3376.000000	98.189137
3375.000000	98.187941
3374.000000	98.184495
3373.000000	98.178732
3372.000000	98.171943
3371.000000	98.165630
3370.000000	98.160638
3369.000000	98.157349
3368.000000	98.156131
3367.000000	98.157132
3366.000000	98.159759
3365.000000	98.162668
3364.000000	98.164595
3363.000000	98.165256
3362.000000	98.165236
3361.000000	98.164954
3360.000000	98.163992
3359.000000	98.161778
3358.000000	98.158817
3357.000000	98.156721
3356.000000	98.156753
3355.000000	98.158586
3354.000000	98.160596
3353.000000	98.161231
3352.000000	98.159944
3351.000000	98.157109
3350.000000	98.153661
3349.000000	98.150768
3348.000000	98.149331
3347.000000	98.149428
3346.000000	98.150303
3345.000000	98.151014
3344.000000	98.151102
3343.000000	98.150698
3342.000000	98.150196
3341.000000	98.149892
3340.000000	98.149773
3339.000000	98.149654
3338.000000	98.149631
3337.000000	98.150233
3336.000000	98.151713
3335.000000	98.153295
3334.000000	98.153847
3333.000000	98.153494
3332.000000	98.153857
3331.000000	98.156166
3330.000000	98.159571
3329.000000	98.161897
3328.000000	98.162127
3327.000000	98.161427
3326.000000	98.161628
3325.000000	98.163225
3324.000000	98.165195
3323.000000	98.166349
3322.000000	98.166534
3321.000000	98.166621
3320.000000	98.167688
3319.000000	98.170193
3318.000000	98.173625
3317.000000	98.176812
3316.000000	98.178865
3315.000000	98.179890
3314.000000	98.180627
3313.000000	98.181394
3312.000000	98.181796
3311.000000	98.181629
3310.000000	98.181616
3309.000000	98.182691
3308.000000	98.184589
3307.000000	98.185788
3306.000000	98.185143
3305.000000	98.183197
3304.000000	98.181611
3303.000000	98.181367
3302.000000	98.182063
3301.000000	98.183056
3300.000000	98.184697
3299.000000	98.187801
3298.000000	98.192050
3297.000000	98.195600
3296.000000	98.196753
3295.000000	98.195640
3294.000000	98.193986
3293.000000	98.193303
3292.000000	98.193559
3291.000000	98.193780
3290.000000	98.193554
3289.000000	98.193622
3288.000000	98.194934
3287.000000	98.197254
3286.000000	98.198915
3285.000000	98.198270
3284.000000	98.195595
3283.000000	98.193303
3282.000000	98.193736
3281.000000	98.196969
3280.000000	98.201086
3279.000000	98.204339
3278.000000	98.206651
3277.000000	98.209163
3276.000000	98.213055
3275.000000	98.218776
3274.000000	98.225553
3273.000000	98.231410
3272.000000	98.234622
3271.000000	98.235468
3270.000000	98.235900
3269.000000	98.237129
3268.000000	98.238246
3267.000000	98.238083
3266.000000	98.237650
3265.000000	98.239400
3264.000000	98.244128
3263.000000	98.249746
3262.000000	98.253495
3261.000000	98.254669
3260.000000	98.254641
3259.000000	98.254877
3258.000000	98.255521
3257.000000	98.255815
3256.000000	98.255427
3255.000000	98.255104
3254.000000	98.256045
3253.000000	98.258768
3252.000000	98.262766
3251.000000	98.267336
3250.000000	98.272383
3249.000000	98.278104
3248.000000	98.284284
3247.000000	98.290384
3246.000000	98.296192
3245.000000	98.301891
3244.000000	98.307457
3243.000000	98.312336
3242.000000	98.315797
3241.000000	98.317349
3240.000000	98.316821
3239.000000	98.314527
3238.000000	98.311592
3237.000000	98.309705
3236.000000	98.310250
3235.000000	98.313652
3234.000000	98.319470
3233.000000	98.326746
3232.000000	98.334153
3231.000000	98.340322
3230.000000	98.344594
3229.000000	98.347581
3228.000000	98.350767
3227.000000	98.355286
3226.000000	98.360976
3225.000000	98.366548
3224.000000	98.370733
3223.000000	98.373333
3222.000000	98.375324
3221.000000	98.378078
3220.000000	98.382271
3219.000000	98.387545
3218.000000	98.392942
3217.000000	98.397676
3216.000000	98.401620
3215.000000	98.405157
3214.000000	98.408725
3213.000000	98.412528
3212.000000	98.416611
3211.000000	98.421053
3210.000000	98.425916
3209.000000	98.431058
3208.000000	98.436148
3207.000000	98.440911
3206.000000	98.445344
3205.000000	98.449647
3204.000000	98.454054
3203.000000	98.458692
3202.000000	98.463531
3201.000000	98.468452
3200.000000	98.473354
3199.000000	98.478230
3198.000000	98.483141
3197.000000	98.488143
3196.000000	98.493232
3195.000000	98.498359
3194.000000	98.503488
3193.000000	98.508612
3192.000000	98.513730
3191.000000	98.518843
3190.000000	98.523949
3189.000000	98.529049
3188.000000	98.534171
3187.000000	98.539345
3186.000000	98.544566
3185.000000	98.549818
3184.000000	98.555131
3183.000000	98.560570
3182.000000	98.566175
3181.000000	98.571881
3180.000000	98.577513
3179.000000	98.582923
3178.000000	98.588115
3177.000000	98.593290
3176.000000	98.598648
3175.000000	98.604228
3174.000000	98.609908
3173.000000	98.615542
3172.000000	98.621088
3171.000000	98.626604
3170.000000	98.632148
3169.000000	98.637714
3168.000000	98.643233
3167.000000	98.648635
3166.000000	98.653928
3165.000000	98.659201
3164.000000	98.664507
3163.000000	98.669781
3162.000000	98.674931
3161.000000	98.679968
3160.000000	98.684955
3159.000000	98.689935
3158.000000	98.695059
3157.000000	98.700681
3156.000000	98.707077
3155.000000	98.714045
3154.000000	98.720989
3153.000000	98.727467
3152.000000	98.733529
3151.000000	98.739437
3150.000000	98.745176
3149.000000	98.750431
3148.000000	98.755020
3147.000000	98.759198
3146.000000	98.763577
3145.000000	98.768744
3144.000000	98.774973
3143.000000	98.782111
3142.000000	98.789541
3141.000000	98.796315
3140.000000	98.801628
3139.000000	98.805342
3138.000000	98.808178
3137.000000	98.811320
3136.000000	98.815533
3135.000000	98.820716
3134.000000	98.826238
3133.000000	98.831530
3132.000000	98.836441
3131.000000	98.841280
3130.000000	98.846646
3129.000000	98.853008
3128.000000	98.860180
3127.000000	98.867294
3126.000000	98.873587
3125.000000	98.879154
3124.000000	98.884658
3123.000000	98.890319
3122.000000	98.895594
3121.000000	98.900056
3120.000000	98.904124
3119.000000	98.908676
3118.000000	98.914079
3117.000000	98.919939
3116.000000	98.925678
3115.000000	98.931123
3114.000000	98.936375
3113.000000	98.941373
3112.000000	98.945924
3111.000000	98.950167
3110.000000	98.954698
3109.000000	98.959978
3108.000000	98.965754
3107.000000	98.971264
3106.000000	98.976194
3105.000000	98.981145
3104.000000	98.986933
3103.000000	98.993507
3102.000000	98.999857
3101.000000	99.005157
3100.000000	99.009656
3099.000000	99.014232
3098.000000	99.019250
3097.000000	99.024291
3096.000000	99.028889
3095.000000	99.033109
3094.000000	99.037382
3093.000000	99.042045
3092.000000	99.047105
3091.000000	99.052273
3090.000000	99.057154
3089.000000	99.061574
3088.000000	99.065910
3087.000000	99.070965
3086.000000	99.077228
3085.000000	99.084163
3084.000000	99.090400
3083.000000	99.094808
3082.000000	99.097325
3081.000000	99.098877
3080.000000	99.100606
3079.000000	99.103255
3078.000000	99.107164
3077.000000	99.112346
3076.000000	99.118323
3075.000000	99.124103
3074.000000	99.128858
3073.000000	99.132780
3072.000000	99.136937
3071.000000	99.142124
3070.000000	99.147999
3069.000000	99.153501
3068.000000	99.158032
3067.000000	99.162183
3066.000000	99.167378
3065.000000	99.174824
3064.000000	99.184527
3063.000000	99.194921
3062.000000	99.203576
3061.000000	99.208690
3060.000000	99.210255
3059.000000	99.210185
3058.000000	99.211235
3057.000000	99.215237
3056.000000	99.221934
3055.000000	99.229319
3054.000000	99.235411
3053.000000	99.239961
3052.000000	99.244439
3051.000000	99.250414
3050.000000	99.258013
3049.000000	99.265678
3048.000000	99.271078
3047.000000	99.272611
3046.000000	99.270871
3045.000000	99.268938
3044.000000	99.270378
3043.000000	99.276301
3042.000000	99.284538
3041.000000	99.291645
3040.000000	99.295367
3039.000000	99.295367
3038.000000	99.292829
3037.000000	99.290136
3036.000000	99.289893
3035.000000	99.293069
3034.000000	99.298181
3033.000000	99.302836
3032.000000	99.305823
3031.000000	99.307505
3030.000000	99.309030
3029.000000	99.311771
3028.000000	99.316628
3027.000000	99.322769
3026.000000	99.327642
3025.000000	99.329438
3024.000000	99.329200
3023.000000	99.329365
3022.000000	99.330517
3021.000000	99.330764
3020.000000	99.328040
3019.000000	99.321825
3018.000000	99.312992
3017.000000	99.303434
3016.000000	99.295872
3015.000000	99.292437
3014.000000	99.292683
3013.000000	99.293684
3012.000000	99.292508
3011.000000	99.288076
3010.000000	99.280897
3009.000000	99.272308
3008.000000	99.264209
3007.000000	99.258267
3006.000000	99.254641
3005.000000	99.252033
3004.000000	99.249208
3003.000000	99.245882
3002.000000	99.242138
3001.000000	99.238064
3000.000000	99.234183
2999.000000	99.231156
2998.000000	99.228761
2997.000000	99.226343
2996.000000	99.224586
2995.000000	99.225037
2994.000000	99.226652
2993.000000	99.224513
2992.000000	99.214324
2991.000000	99.197868
2990.000000	99.182363
2989.000000	99.173844
2988.000000	99.172798
2987.000000	99.176146
2986.000000	99.181225
2985.000000	99.186863
2984.000000	99.191795
2983.000000	99.194347
2982.000000	99.194124
2981.000000	99.192885
2980.000000	99.192996
2979.000000	99.195146
2978.000000	99.197875
2977.000000	99.199206
2976.000000	99.198437
2975.000000	99.196177
2974.000000	99.193025
2973.000000	99.189101
2972.000000	99.185313
2971.000000	99.184272
2970.000000	99.188646
2969.000000	99.198260
2968.000000	99.209411
2967.000000	99.217661
2966.000000	99.221138
2965.000000	99.220914
2964.000000	99.219363
2963.000000	99.218826
2962.000000	99.221007
2961.000000	99.226243
2960.000000	99.233174
2959.000000	99.239979
2958.000000	99.246006
2957.000000	99.251342
2956.000000	99.254977
2955.000000	99.254874
2954.000000	99.250633
2953.000000	99.244966
2952.000000	99.241360
2951.000000	99.240783
2950.000000	99.241871
2949.000000	99.243780
2948.000000	99.247075
2947.000000	99.251486
2946.000000	99.254400
2945.000000	99.252879
2944.000000	99.246734
2943.000000	99.238862
2942.000000	99.232655
2941.000000	99.229375
2940.000000	99.227838
2939.000000	99.226205
2938.000000	99.224231
2937.000000	99.223693
2936.000000	99.226192
2935.000000	99.230606
2934.000000	99.233566
2933.000000	99.232820
2932.000000	99.229654
2931.000000	99.227668
2930.000000	99.229884
2929.000000	99.237098
2928.000000	99.247603
2927.000000	99.257618
2926.000000	99.263387
2925.000000	99.264538
2924.000000	99.264725
2923.000000	99.267990
2922.000000	99.275468
2921.000000	99.286528
2920.000000	99.301165
2919.000000	99.318876
2918.000000	99.336361
2917.000000	99.349562
2916.000000	99.358292
2915.000000	99.366224
2914.000000	99.375440
2913.000000	99.383307
2912.000000	99.386222
2911.000000	99.384573
2910.000000	99.382242
2909.000000	99.382328
2908.000000	99.384870
2907.000000	99.388224
2906.000000	99.390825
2905.000000	99.391703
2904.000000	99.390920
2903.000000	99.390202
2902.000000	99.392283
2901.000000	99.398832
2900.000000	99.409021
2899.000000	99.420037
2898.000000	99.428981
2897.000000	99.434801
2896.000000	99.438797
2895.000000	99.443337
2894.000000	99.449770
2893.000000	99.457419
2892.000000	99.464544
2891.000000	99.470021
2890.000000	99.474116
2889.000000	99.478105
2888.000000	99.483380
2887.000000	99.490443
2886.000000	99.498320
2885.000000	99.505058
2884.000000	99.509357
2883.000000	99.511921
2882.000000	99.515109
2881.000000	99.520991
2880.000000	99.529901
2879.000000	99.540471
2878.000000	99.550702
2877.000000	99.559314
2876.000000	99.566309
2875.000000	99.572351
2874.000000	99.577712
2873.000000	99.582155
2872.000000	99.586025
2871.000000	99.590864
2870.000000	99.598133
2869.000000	99.607366
2868.000000	99.616276
2867.000000	99.622978
2866.000000	99.627632
2865.000000	99.631843
2864.000000	99.637143
2863.000000	99.644126
2862.000000	99.652044
2861.000000	99.658706
2860.000000	99.661994
2859.000000	99.662497
2858.000000	99.663985
2857.000000	99.670055
2856.000000	99.680957
2855.000000	99.694181
2854.000000	99.707176
2853.000000	99.718694
2852.000000	99.728209
2851.000000	99.736040
2850.000000	99.744137
2849.000000	99.755090
2848.000000	99.769595
2847.000000	99.785550
2846.000000	99.799945
2845.000000	99.811000
2844.000000	99.818560
2843.000000	99.823758
2842.000000	99.828796
2841.000000	99.835759
2840.000000	99.844558
2839.000000	99.852620
2838.000000	99.857578
2837.000000	99.860056
2836.000000	99.863252
2835.000000	99.869974
2834.000000	99.880394
2833.000000	99.892151
2832.000000	99.902199
2831.000000	99.909014
2830.000000	99.913593
2829.000000	99.918164
2828.000000	99.923706
2827.000000	99.929263
2826.000000	99.933933
2825.000000	99.938500
2824.000000	99.944276
2823.000000	99.951095
2822.000000	99.957684
2821.000000	99.963651
2820.000000	99.969889
2819.000000	99.977037
2818.000000	99.984628
2817.000000	99.991878
2816.000000	99.998392
2815.000000	100.003809
2814.000000	100.007621
2813.000000	100.009771
2812.000000	100.010927
2811.000000	100.012148
2810.000000	100.014602
2809.000000	100.019266
2808.000000	100.026186
2807.000000	100.033948
2806.000000	100.040613
2805.000000	100.045506
2804.000000	100.049527
2803.000000	100.053562
2802.000000	100.057354
2801.000000	100.060254
2800.000000	100.062378
2799.000000	100.064567
2798.000000	100.067546
2797.000000	100.071394
2796.000000	100.075672
2795.000000	100.079830
2794.000000	100.083637
2793.000000	100.087365
2792.000000	100.091410
2791.000000	100.095735
2790.000000	100.099930
2789.000000	100.103773
2788.000000	100.107378
2787.000000	100.110843
2786.000000	100.114086
2785.000000	100.117114
2784.000000	100.120207
2783.000000	100.123636
2782.000000	100.127352
2781.000000	100.131110
2780.000000	100.134703
2779.000000	100.138129
2778.000000	100.141478
2777.000000	100.144817
2776.000000	100.148156
2775.000000	100.151484
2774.000000	100.154790
2773.000000	100.158072
2772.000000	100.161328
2771.000000	100.164556
2770.000000	100.167764
2769.000000	100.170955
2768.000000	100.174129
2767.000000	100.177280
2766.000000	100.180400
2765.000000	100.183487
2764.000000	100.186549
2763.000000	100.189599
2762.000000	100.192645
2761.000000	100.195688
2760.000000	100.198725
2759.000000	100.201749
2758.000000	100.204756
2757.000000	100.207740
2756.000000	100.210696
2755.000000	100.213619
2754.000000	100.216502
2753.000000	100.219344
2752.000000	100.222149
2751.000000	100.224929
2750.000000	100.227693
2749.000000	100.230447
2748.000000	100.233190
2747.000000	100.235914
2746.000000	100.238607
2745.000000	100.241264
2744.000000	100.243887
2743.000000	100.246493
2742.000000	100.249092
2741.000000	100.251681
2740.000000	100.254240
2739.000000	100.256752
2738.000000	100.259220
2737.000000	100.261671
2736.000000	100.264133
2735.000000	100.266627
2734.000000	100.269143
2733.000000	100.271647
2732.000000	100.274107
2731.000000	100.276525
2730.000000	100.278930
2729.000000	100.281346
2728.000000	100.283770
2727.000000	100.286179
2726.000000	100.288544
2725.000000	100.290854
2724.000000	100.293113
2723.000000	100.295343
2722.000000	100.297566
2721.000000	100.299791
2720.000000	100.301999
2719.000000	100.304163
2718.000000	100.306264
2717.000000	100.308311
2716.000000	100.310331
2715.000000	100.312344
2714.000000	100.314350
2713.000000	100.316326
2712.000000	100.318258
2711.000000	100.320151
2710.000000	100.322021
2709.000000	100.323872
2708.000000	100.325689
2707.000000	100.327452
2706.000000	100.329164
2705.000000	100.330849
2704.000000	100.332535
2703.000000	100.334238
2702.000000	100.335955
2701.000000	100.337670
2700.000000	100.339362
2699.000000	100.341020
2698.000000	100.342649
2697.000000	100.344263
2696.000000	100.345872
2695.000000	100.347472
2694.000000	100.349051
2693.000000	100.350583
2692.000000	100.352048
2691.000000	100.353441
2690.000000	100.354780
2689.000000	100.356094
2688.000000	100.357405
2687.000000	100.358732
2686.000000	100.360082
2685.000000	100.361447
2684.000000	100.362801
2683.000000	100.364127
2682.000000	100.365431
2681.000000	100.366725
2680.000000	100.368008
2679.000000	100.369269
2678.000000	100.370517
2677.000000	100.371776
2676.000000	100.373046
2675.000000	100.374306
2674.000000	100.375537
2673.000000	100.376753
2672.000000	100.377979
2671.000000	100.379212
2670.000000	100.380432
2669.000000	100.381642
2668.000000	100.382884
2667.000000	100.384200
2666.000000	100.385584
2665.000000	100.386969
2664.000000	100.388266
2663.000000	100.389454
2662.000000	100.390628
2661.000000	100.391907
2660.000000	100.393271
2659.000000	100.394563
2658.000000	100.395699
2657.000000	100.396785
2656.000000	100.397920
2655.000000	100.398970
2654.000000	100.399731
2653.000000	100.400287
2652.000000	100.401035
2651.000000	100.402174
2650.000000	100.403510
2649.000000	100.404762
2648.000000	100.405974
2647.000000	100.407381
2646.000000	100.408999
2645.000000	100.410545
2644.000000	100.411766
2643.000000	100.412655
2642.000000	100.413304
2641.000000	100.413767
2640.000000	100.414158
2639.000000	100.414749
2638.000000	100.415772
2637.000000	100.417203
2636.000000	100.418744
2635.000000	100.420072
2634.000000	100.421096
2633.000000	100.421901
2632.000000	100.422595
2631.000000	100.423200
2630.000000	100.423719
2629.000000	100.424255
2628.000000	100.424987
2627.000000	100.426009
2626.000000	100.427224
2625.000000	100.428397
2624.000000	100.429362
2623.000000	100.430141
2622.000000	100.430890
2621.000000	100.431761
2620.000000	100.432790
2619.000000	100.433865
2618.000000	100.434819
2617.000000	100.435588
2616.000000	100.436267
2615.000000	100.436968
2614.000000	100.437647
2613.000000	100.438170
2612.000000	100.438545
2611.000000	100.438959
2610.000000	100.439577
2609.000000	100.440372
2608.000000	100.441181
2607.000000	100.441886
2606.000000	100.442524
2605.000000	100.443207
2604.000000	100.443950
2603.000000	100.444647
2602.000000	100.445238
2601.000000	100.445828
2600.000000	100.446590
2599.000000	100.447561
2598.000000	100.448595
2597.000000	100.449516
2596.000000	100.450293
2595.000000	100.451052
2594.000000	100.451951
2593.000000	100.453046
2592.000000	100.454212
2591.000000	100.455197
2590.000000	100.455835
2589.000000	100.456196
2588.000000	100.456619
2587.000000	100.457408
2586.000000	100.458547
2585.000000	100.459721
2584.000000	100.460695
2583.000000	100.461575
2582.000000	100.462575
2581.000000	100.463672
2580.000000	100.464682
2579.000000	100.465524
2578.000000	100.466195
2577.000000	100.466599
2576.000000	100.466680
2575.000000	100.466723
2574.000000	100.467231
2573.000000	100.468464
2572.000000	100.470287
2571.000000	100.472454
2570.000000	100.474828
2569.000000	100.477232
2568.000000	100.479316
2567.000000	100.480721
2566.000000	100.481308
2565.000000	100.481203
2564.000000	100.480751
2563.000000	100.480471
2562.000000	100.480806
2561.000000	100.481829
2560.000000	100.483227
2559.000000	100.484512
2558.000000	100.485190
2557.000000	100.484892
2556.000000	100.483752
2555.000000	100.482731
2554.000000	100.483041
2553.000000	100.484997
2552.000000	100.487655
2551.000000	100.489823
2550.000000	100.491364
2549.000000	100.493037
2548.000000	100.495274
2547.000000	100.497646
2546.000000	100.499589
2545.000000	100.501083
2544.000000	100.502288
2543.000000	100.502946
2542.000000	100.502610
2541.000000	100.501422
2540.000000	100.500247
2539.000000	100.499935
2538.000000	100.500669
2537.000000	100.502057
2536.000000	100.503626
2535.000000	100.505117
2534.000000	100.506528
2533.000000	100.508033
2532.000000	100.509771
2531.000000	100.511558
2530.000000	100.512943
2529.000000	100.513774
2528.000000	100.514586
2527.000000	100.516141
2526.000000	100.518487
2525.000000	100.520687
2524.000000	100.521656
2523.000000	100.521139
2522.000000	100.519825
2521.000000	100.518687
2520.000000	100.518263
2519.000000	100.518608
2518.000000	100.519718
2517.000000	100.521693
2516.000000	100.524404
2515.000000	100.527246
2514.000000	100.529504
2513.000000	100.530986
2512.000000	100.532064
2511.000000	100.533144
2510.000000	100.534337
2509.000000	100.535656
2508.000000	100.537209
2507.000000	100.538990
2506.000000	100.540754
2505.000000	100.542352
2504.000000	100.544068
2503.000000	100.546341
2502.000000	100.549206
2501.000000	100.552123
2500.000000	100.554364
2499.000000	100.555563
2498.000000	100.555968
2497.000000	100.556374
2496.000000	100.557553
2495.000000	100.559566
2494.000000	100.561785
2493.000000	100.563621
2492.000000	100.565131
2491.000000	100.566665
2490.000000	100.568190
2489.000000	100.569384
2488.000000	100.570324
2487.000000	100.571579
2486.000000	100.573517
2485.000000	100.575947
2484.000000	100.578466
2483.000000	100.580787
2482.000000	100.582672
2481.000000	100.583975
2480.000000	100.584943
2479.000000	100.586047
2478.000000	100.587372
2477.000000	100.588667
2476.000000	100.590079
2475.000000	100.592189
2474.000000	100.595134
2473.000000	100.598247
2472.000000	100.600899
2471.000000	100.603275
2470.000000	100.605736
2469.000000	100.607993
2468.000000	100.609612
2467.000000	100.610902
2466.000000	100.612577
2465.000000	100.614655
2464.000000	100.616397
2463.000000	100.617354
2462.000000	100.617858
2461.000000	100.618468
2460.000000	100.619394
2459.000000	100.620670
2458.000000	100.622442
2457.000000	100.624773
2456.000000	100.627330
2455.000000	100.629583
2454.000000	100.631295
2453.000000	100.632710
2452.000000	100.634289
2451.000000	100.636187
2450.000000	100.638012
2449.000000	100.639213
2448.000000	100.639748
2447.000000	100.640185
2446.000000	100.641039
2445.000000	100.642216
2444.000000	100.643340
2443.000000	100.644408
2442.000000	100.645766
2441.000000	100.647521
2440.000000	100.649340
2439.000000	100.650868
2438.000000	100.652071
2437.000000	100.653112
2436.000000	100.654148
2435.000000	100.655389
2434.000000	100.657111
2433.000000	100.659409
2432.000000	100.661920
2431.000000	100.663968
2430.000000	100.665142
2429.000000	100.665559
2428.000000	100.665728
2427.000000	100.666126
2426.000000	100.666893
2425.000000	100.667904
2424.000000	100.668976
2423.000000	100.670052
2422.000000	100.671192
2421.000000	100.672481
2420.000000	100.674035
2419.000000	100.675990
2418.000000	100.678246
2417.000000	100.680280
2416.000000	100.681568
2415.000000	100.682261
2414.000000	100.683112
2413.000000	100.684487
2412.000000	100.685842
2411.000000	100.686561
2410.000000	100.687016
2409.000000	100.688255
2408.000000	100.690689
2407.000000	100.693554
2406.000000	100.695712
2405.000000	100.696786
2404.000000	100.697366
2403.000000	100.698317
2402.000000	100.699904
2401.000000	100.701590
2400.000000	100.702851
2399.000000	100.704110
2398.000000	100.706418
2397.000000	100.709836
2396.000000	100.712660
2395.000000	100.713077
2394.000000	100.711171
2393.000000	100.708881
2392.000000	100.707828
2391.000000	100.707974
2390.000000	100.708547
2389.000000	100.709253
2388.000000	100.710200
2387.000000	100.711303
2386.000000	100.712357
2385.000000	100.713344
2384.000000	100.714224
2383.000000	100.714733
2382.000000	100.714709
2381.000000	100.714395
2380.000000	100.714030
2379.000000	100.713357
2378.000000	100.712081
2377.000000	100.710603
2376.000000	100.709743
2375.000000	100.709675
2374.000000	100.709656
2373.000000	100.708915
2372.000000	100.707365
2371.000000	100.705306
2370.000000	100.703054
2369.000000	100.701151
2368.000000	100.700407
2367.000000	100.701141
2366.000000	100.702683
2365.000000	100.704059
2364.000000	100.705060
2363.000000	100.705981
2362.000000	100.706470
2361.000000	100.705564
2360.000000	100.702956
2359.000000	100.699635
2358.000000	100.696937
2357.000000	100.695208
2356.000000	100.694091
2355.000000	100.693661
2354.000000	100.694354
2353.000000	100.695742
2352.000000	100.696551
2351.000000	100.696135
2350.000000	100.695077
2349.000000	100.694333
2348.000000	100.694175
2347.000000	100.694106
2346.000000	100.693642
2345.000000	100.693125
2344.000000	100.693231
2343.000000	100.693774
2342.000000	100.693804
2341.000000	100.692831
2340.000000	100.691448
2339.000000	100.690577
2338.000000	100.690346
2337.000000	100.689941
2336.000000	100.688617
2335.000000	100.686656
2334.000000	100.685141
2333.000000	100.684710
2332.000000	100.684970
2331.000000	100.685259
2330.000000	100.685536
2329.000000	100.686250
2328.000000	100.687568
2327.000000	100.689258
2326.000000	100.690769
2325.000000	100.691454
2324.000000	100.690919
2323.000000	100.689473
2322.000000	100.687974
2321.000000	100.687010
2320.000000	100.686539
2319.000000	100.686388
2318.000000	100.686598
2317.000000	100.687035
2316.000000	100.687061
2315.000000	100.686231
2314.000000	100.685000
2313.000000	100.684382
2312.000000	100.684678
2311.000000	100.685174
2310.000000	100.685016
2309.000000	100.684247
2308.000000	100.683505
2307.000000	100.683194
2306.000000	100.683221
2305.000000	100.683441
2304.000000	100.683768
2303.000000	100.683993
2302.000000	100.683814
2301.000000	100.683353
2300.000000	100.683272
2299.000000	100.684118
2298.000000	100.685577
2297.000000	100.686770
2296.000000	100.687243
2295.000000	100.687430
2294.000000	100.687894
2293.000000	100.688488
2292.000000	100.688610
2291.000000	100.688135
2290.000000	100.687502
2289.000000	100.687010
2288.000000	100.686435
2287.000000	100.685580
2286.000000	100.684748
2285.000000	100.684353
2284.000000	100.684308
2283.000000	100.684139
2282.000000	100.683631
2281.000000	100.683049
2280.000000	100.682681
2279.000000	100.682369
2278.000000	100.681719
2277.000000	100.680641
2276.000000	100.679443
2275.000000	100.678478
2274.000000	100.677889
2273.000000	100.677652
2272.000000	100.677607
2271.000000	100.677400
2270.000000	100.676659
2269.000000	100.675329
2268.000000	100.673761
2267.000000	100.672431
2266.000000	100.671524
2265.000000	100.670915
2264.000000	100.670360
2263.000000	100.669663
2262.000000	100.668725
2261.000000	100.667559
2260.000000	100.666278
2259.000000	100.664967
2258.000000	100.663565
2257.000000	100.661955
2256.000000	100.660208
2255.000000	100.658644
2254.000000	100.657607
2253.000000	100.657194
2252.000000	100.657138
2251.000000	100.656896
2250.000000	100.655968
2249.000000	100.654270
2248.000000	100.652269
2247.000000	100.650633
2246.000000	100.649584
2245.000000	100.648690
2244.000000	100.647356
2243.000000	100.645487
2242.000000	100.643605
2241.000000	100.642339
2240.000000	100.641924
2239.000000	100.642151
2238.000000	100.642610
2237.000000	100.642980
2236.000000	100.643118
2235.000000	100.642936
2234.000000	100.642325
2233.000000	100.641282
2232.000000	100.640061
2231.000000	100.639054
2230.000000	100.638463
2229.000000	100.638150
2228.000000	100.637850
2227.000000	100.637428
2226.000000	100.636920
2225.000000	100.636452
2224.000000	100.636203
2223.000000	100.636322
2222.000000	100.636801
2221.000000	100.637456
2220.000000	100.638047
2219.000000	100.638415
2218.000000	100.638515
2217.000000	100.638377
2216.000000	100.638099
2215.000000	100.637840
2214.000000	100.637748
2213.000000	100.637854
2212.000000	100.638035
2211.000000	100.638119
2210.000000	100.638055
2209.000000	100.637967
2208.000000	100.638040
2207.000000	100.638331
2206.000000	100.638743
2205.000000	100.639116
2204.000000	100.639352
2203.000000	100.639478
2202.000000	100.639573
2201.000000	100.639712
2200.000000	100.639921
2199.000000	100.640172
2198.000000	100.640435
2197.000000	100.640692
2196.000000	100.640942
2195.000000	100.641192
2194.000000	100.641452
2193.000000	100.641730
2192.000000	100.642028
2191.000000	100.642350
2190.000000	100.642700
2189.000000	100.643084
2188.000000	100.643502
2187.000000	100.643949
2186.000000	100.644401
2185.000000	100.644833
2184.000000	100.645238
2183.000000	100.645627
2182.000000	100.646004
2181.000000	100.646347
2180.000000	100.646648
2179.000000	100.646973
2178.000000	100.647415
2177.000000	100.647992
2176.000000	100.648629
2175.000000	100.649274
2174.000000	100.649945
2173.000000	100.650661
2172.000000	100.651392
2171.000000	100.652092
2170.000000	100.652731
2169.000000	100.653282
2168.000000	100.653750
2167.000000	100.654252
2166.000000	100.654981
2165.000000	100.656017
2164.000000	100.657199
2163.000000	100.658259
2162.000000	100.659150
2161.000000	100.660009
2160.000000	100.660922
2159.000000	100.661809
2158.000000	100.662619
2157.000000	100.663479
2156.000000	100.664547
2155.000000	100.665789
2154.000000	100.667024
2153.000000	100.668150
2152.000000	100.669225
2151.000000	100.670320
2150.000000	100.671405
2149.000000	100.672439
2148.000000	100.673498
2147.000000	100.674699
2146.000000	100.676036
2145.000000	100.677378
2144.000000	100.678647
2143.000000	100.679894
2142.000000	100.681183
2141.000000	100.682491
2140.000000	100.683776
2139.000000	100.685098
2138.000000	100.686593
2137.000000	100.688310
2136.000000	100.690110
2135.000000	100.691764
2134.000000	100.693130
2133.000000	100.694212
2132.000000	100.695134
2131.000000	100.696066
2130.000000	100.697180
2129.000000	100.698614
2128.000000	100.700379
2127.000000	100.702291
2126.000000	100.704111
2125.000000	100.705863
2124.000000	100.707885
2123.000000	100.710409
2122.000000	100.713119
2121.000000	100.715344
2120.000000	100.716780
2119.000000	100.717856
2118.000000	100.719305
2117.000000	100.721391
2116.000000	100.723740
2115.000000	100.725802
2114.000000	100.727345
2113.000000	100.728573
2112.000000	100.729945
2111.000000	100.731787
2110.000000	100.733970
2109.000000	100.736035
2108.000000	100.737796
2107.000000	100.739633
2106.000000	100.741922
2105.000000	100.744321
2104.000000	100.746019
2103.000000	100.746745
2102.000000	100.747124
2101.000000	100.747950
2100.000000	100.749400
2099.000000	100.751189
2098.000000	100.753215
2097.000000	100.755734
2096.000000	100.758943
2095.000000	100.762588
2094.000000	100.766021
2093.000000	100.768749
2092.000000	100.770999
2091.000000	100.773632
2090.000000	100.777222
2089.000000	100.781196
2088.000000	100.784224
2087.000000	100.785530
2086.000000	100.785507
2085.000000	100.785217
2084.000000	100.785515
2083.000000	100.786766
2082.000000	100.788983
2081.000000	100.791770
2080.000000	100.794323
2079.000000	100.795957
2078.000000	100.796730
2077.000000	100.797387
2076.000000	100.798567
2075.000000	100.800149
2074.000000	100.801430
2073.000000	100.801942
2072.000000	100.802141
2071.000000	100.803228
2070.000000	100.806114
2069.000000	100.810497
2068.000000	100.814956
2067.000000	100.818051
2066.000000	100.819230
2065.000000	100.818721
2064.000000	100.817033
2063.000000	100.814784
2062.000000	100.812748
2061.000000	100.811627
2060.000000	100.811697
2059.000000	100.812872
2058.000000	100.815090
2057.000000	100.818274
2056.000000	100.821876
2055.000000	100.824842
2054.000000	100.826443
2053.000000	100.827082
2052.000000	100.827971
2051.000000	100.829822
2050.000000	100.832024
2049.000000	100.833387
2048.000000	100.833586
2047.000000	100.833563
2046.000000	100.834379
2045.000000	100.835788
2044.000000	100.836384
2043.000000	100.835223
2042.000000	100.832937
2041.000000	100.831091
2040.000000	100.830523
2039.000000	100.830698
2038.000000	100.830715
2037.000000	100.830360
2036.000000	100.829950
2035.000000	100.829641
2034.000000	100.829383
2033.000000	100.829415
2032.000000	100.830238
2031.000000	100.831937
2030.000000	100.833816
2029.000000	100.834860
2028.000000	100.834515
2027.000000	100.833073
2026.000000	100.831526
2025.000000	100.831009
2024.000000	100.831995
2023.000000	100.833844
2022.000000	100.835277
2021.000000	100.835478
2020.000000	100.834576
2019.000000	100.833192
2018.000000	100.831883
2017.000000	100.831067
2016.000000	100.831088
2015.000000	100.831959
2014.000000	100.833134
2013.000000	100.833785
2012.000000	100.833373
2011.000000	100.831969
2010.000000	100.830063
2009.000000	100.828152
2008.000000	100.826497
2007.000000	100.825129
2006.000000	100.824004
2005.000000	100.823127
2004.000000	100.822555
2003.000000	100.822362
2002.000000	100.822651
2001.000000	100.823459
2000.000000	100.824521
1999.000000	100.825296
1998.000000	100.825427
1997.000000	100.825083
1996.000000	100.824755
1995.000000	100.824733
1994.000000	100.824928
1993.000000	100.825156
1992.000000	100.825382
1991.000000	100.825597
1990.000000	100.825661
1989.000000	100.825478
1988.000000	100.825205
1987.000000	100.825130
1986.000000	100.825346
1985.000000	100.825669
1984.000000	100.825841
1983.000000	100.825776
1982.000000	100.825582
1981.000000	100.825446
1980.000000	100.825477
1979.000000	100.825652
1978.000000	100.825862
1977.000000	100.826000
1976.000000	100.826035
1975.000000	100.826015
1974.000000	100.826007
1973.000000	100.826052
1972.000000	100.826145
1971.000000	100.826243
1970.000000	100.826272
1969.000000	100.826156
1968.000000	100.825863
1967.000000	100.825491
1966.000000	100.825248
1965.000000	100.825295
1964.000000	100.825675
1963.000000	100.826260
1962.000000	100.826782
1961.000000	100.826995
1960.000000	100.826875
1959.000000	100.826713
1958.000000	100.826902
1957.000000	100.827585
1956.000000	100.828458
1955.000000	100.828877
1954.000000	100.828325
1953.000000	100.826897
1952.000000	100.825318
1951.000000	100.824279
1950.000000	100.823782
1949.000000	100.823299
1948.000000	100.822469
1947.000000	100.821380
1946.000000	100.820256
1945.000000	100.819241
1944.000000	100.818558
1943.000000	100.818375
1942.000000	100.818361
1941.000000	100.817891
1940.000000	100.816920
1939.000000	100.816141
1938.000000	100.816039
1937.000000	100.816195
1936.000000	100.815861
1935.000000	100.814838
1934.000000	100.813378
1933.000000	100.811628
1932.000000	100.809725
1931.000000	100.808260
1930.000000	100.807919
1929.000000	100.808401
1928.000000	100.808257
1927.000000	100.806351
1926.000000	100.803306
1925.000000	100.801193
1924.000000	100.801534
1923.000000	100.803484
1922.000000	100.804297
1921.000000	100.801843
1920.000000	100.796189
1919.000000	100.789093
1918.000000	100.782427
1917.000000	100.776932
1916.000000	100.772567
1915.000000	100.769552
1914.000000	100.768110
1913.000000	100.767384
1912.000000	100.765697
1911.000000	100.762446
1910.000000	100.758980
1909.000000	100.756887
1908.000000	100.755951
1907.000000	100.754686
1906.000000	100.752487
1905.000000	100.750217
1904.000000	100.748618
1903.000000	100.746801
1902.000000	100.742741
1901.000000	100.735317
1900.000000	100.725927
1899.000000	100.717697
1898.000000	100.712797
1897.000000	100.710847
1896.000000	100.710058
1895.000000	100.709459
1894.000000	100.709126
1893.000000	100.708459
1892.000000	100.706203
1891.000000	100.702631
1890.000000	100.699998
1889.000000	100.699613
1888.000000	100.699659
1887.000000	100.697747
1886.000000	100.694299
1885.000000	100.691626
1884.000000	100.690589
1883.000000	100.689895
1882.000000	100.688406
1881.000000	100.686298
1880.000000	100.684004
1879.000000	100.681765
1878.000000	100.680635
1877.000000	100.682281
1876.000000	100.686919
1875.000000	100.692396
1874.000000	100.696091
1873.000000	100.697071
1872.000000	100.696106
1871.000000	100.694735
1870.000000	100.695000
1869.000000	100.698485
1868.000000	100.704133
1867.000000	100.708537
1866.000000	100.709670
1865.000000	100.708976
1864.000000	100.709608
1863.000000	100.713210
1862.000000	100.718736
1861.000000	100.723996
1860.000000	100.727797
1859.000000	100.730481
1858.000000	100.733133
1857.000000	100.736707
1856.000000	100.741690
1855.000000	100.748116
1854.000000	100.755439
1853.000000	100.762568
1852.000000	100.768465
1851.000000	100.772766
1850.000000	100.775860
1849.000000	100.778549
1848.000000	100.781777
1847.000000	100.786422
1846.000000	100.792945
1845.000000	100.800646
1844.000000	100.807449
1843.000000	100.811736
1842.000000	100.813993
1841.000000	100.815791
1840.000000	100.818229
1839.000000	100.821148
1838.000000	100.823613
1837.000000	100.825191
1836.000000	100.826307
1835.000000	100.827137
1834.000000	100.826836
1833.000000	100.824545
1832.000000	100.820846
1831.000000	100.817607
1830.000000	100.816462
1829.000000	100.817623
1828.000000	100.819972
1827.000000	100.822232
1826.000000	100.824161
1825.000000	100.826221
1824.000000	100.828036
1823.000000	100.828019
1822.000000	100.825351
1821.000000	100.821722
1820.000000	100.820186
1819.000000	100.822078
1818.000000	100.825808
1817.000000	100.828589
1816.000000	100.828769
1815.000000	100.826494
1814.000000	100.823096
1813.000000	100.820445
1812.000000	100.819899
1811.000000	100.821223
1810.000000	100.823081
1809.000000	100.824662
1808.000000	100.826017
1807.000000	100.827059
1806.000000	100.827178
1805.000000	100.826040
1804.000000	100.824348
1803.000000	100.823425
1802.000000	100.824074
1801.000000	100.825959
1800.000000	100.827843
1799.000000	100.828613
1798.000000	100.828254
1797.000000	100.827709
1796.000000	100.827915
1795.000000	100.828933
1794.000000	100.829864
1793.000000	100.829643
1792.000000	100.828162
1791.000000	100.826439
1790.000000	100.825545
1789.000000	100.825798
1788.000000	100.827002
1787.000000	100.828676
1786.000000	100.830080
1785.000000	100.830569
1784.000000	100.830071
1783.000000	100.829016
1782.000000	100.827956
1781.000000	100.827695
1780.000000	100.829156
1779.000000	100.832484
1778.000000	100.836664
1777.000000	100.840341
1776.000000	100.842524
1775.000000	100.842152
1774.000000	100.837936
1773.000000	100.830352
1772.000000	100.823854
1771.000000	100.822706
1770.000000	100.825677
1769.000000	100.829061
1768.000000	100.831052
1767.000000	100.831378
1766.000000	100.829985
1765.000000	100.827778
1764.000000	100.827230
1763.000000	100.830250
1762.000000	100.835126
1761.000000	100.838201
1760.000000	100.838377
1759.000000	100.836756
1758.000000	100.833927
1757.000000	100.830137
1756.000000	100.826588
1755.000000	100.823404
1754.000000	100.818108
1753.000000	100.809317
1752.000000	100.800756
1751.000000	100.798818
1750.000000	100.803921
1749.000000	100.809852
1748.000000	100.812569
1747.000000	100.811950
1746.000000	100.807480
1745.000000	100.798977
1744.000000	100.790177
1743.000000	100.785995
1742.000000	100.785593
1741.000000	100.782986
1740.000000	100.775248
1739.000000	100.766128
1738.000000	100.759310
1737.000000	100.753396
1736.000000	100.745613
1735.000000	100.734905
1734.000000	100.721089
1733.000000	100.704339
1732.000000	100.686411
1731.000000	100.670172
1730.000000	100.657901
1729.000000	100.648862
1728.000000	100.640236
1727.000000	100.629319
1726.000000	100.614434
1725.000000	100.595865
1724.000000	100.576882
1723.000000	100.561642
1722.000000	100.551051
1721.000000	100.542934
1720.000000	100.535742
1719.000000	100.529008
1718.000000	100.519529
1717.000000	100.502603
1716.000000	100.478082
1715.000000	100.450477
1714.000000	100.425266
1713.000000	100.406295
1712.000000	100.394276
1711.000000	100.386911
1710.000000	100.379660
1709.000000	100.368409
1708.000000	100.352426
1707.000000	100.333120
1706.000000	100.310546
1705.000000	100.284708
1704.000000	100.258511
1703.000000	100.234033
1702.000000	100.209240
1701.000000	100.181163
1700.000000	100.153036
1699.000000	100.130102
1698.000000	100.109031
1697.000000	100.081028
1696.000000	100.042257
1695.000000	100.000343
1694.000000	99.964512
1693.000000	99.934432
1692.000000	99.906671
1691.000000	99.879514
1690.000000	99.852258
1689.000000	99.825262
1688.000000	99.800114
1687.000000	99.775880
1686.000000	99.745885
1685.000000	99.701144
1684.000000	99.646837
1683.000000	99.604508
1682.000000	99.578577
1681.000000	99.556008
1680.000000	99.530105
1679.000000	99.502504
1678.000000	99.475494
1677.000000	99.447253
1676.000000	99.415698
1675.000000	99.383348
1674.000000	99.353528
1673.000000	99.325083
1672.000000	99.295721
1671.000000	99.264938
1670.000000	99.231553
1669.000000	99.194682
1668.000000	99.158477
1667.000000	99.128078
1666.000000	99.102792
1665.000000	99.078257
1664.000000	99.051475
1663.000000	99.022632
1662.000000	98.992946
1661.000000	98.963043
1660.000000	98.934399
1659.000000	98.909354
1658.000000	98.887798
1657.000000	98.867874
1656.000000	98.849539
1655.000000	98.836392
1654.000000	98.827049
1653.000000	98.810438
1652.000000	98.787459
1651.000000	98.771325
1650.000000	98.762925
1649.000000	98.759917
1648.000000	98.755512
1647.000000	98.741539
1646.000000	98.717074
1645.000000	98.691035
1644.000000	98.670901
1643.000000	98.659499
1642.000000	98.656081
1641.000000	98.657050
1640.000000	98.659570
1639.000000	98.663408
1638.000000	98.667468
1637.000000	98.666222
1636.000000	98.653719
1635.000000	98.636236
1634.000000	98.625787
1633.000000	98.623676
1632.000000	98.626756
1631.000000	98.634129
1630.000000	98.644504
1629.000000	98.655088
1628.000000	98.664979
1627.000000	98.676975
1626.000000	98.692671
1625.000000	98.709977
1624.000000	98.727056
1623.000000	98.744780
1622.000000	98.763191
1621.000000	98.779494
1620.000000	98.792839
1619.000000	98.806975
1618.000000	98.826901
1617.000000	98.852776
1616.000000	98.878279
1615.000000	98.898218
1614.000000	98.912341
1613.000000	98.922152
1612.000000	98.930176
1611.000000	98.939907
1610.000000	98.953188
1609.000000	98.967808
1608.000000	98.980201
1607.000000	98.988762
1606.000000	98.993341
1605.000000	98.994897
1604.000000	98.997119
1603.000000	99.004853
1602.000000	99.018533
1601.000000	99.033022
1600.000000	99.043974
1599.000000	99.052235
1598.000000	99.060807
1597.000000	99.071050
1596.000000	99.083384
1595.000000	99.098516
1594.000000	99.115564
1593.000000	99.131372
1592.000000	99.144243
1591.000000	99.155984
1590.000000	99.168462
1589.000000	99.180443
1588.000000	99.190022
1587.000000	99.197973
1586.000000	99.206342
1585.000000	99.215477
1584.000000	99.224638
1583.000000	99.234073
1582.000000	99.244473
1581.000000	99.255398
1580.000000	99.266327
1579.000000	99.278325
1578.000000	99.292794
1577.000000	99.307916
1576.000000	99.318842
1575.000000	99.324687
1574.000000	99.329869
1573.000000	99.337423
1572.000000	99.347440
1571.000000	99.358474
1570.000000	99.368286
1569.000000	99.375471
1568.000000	99.381518
1567.000000	99.388494
1566.000000	99.396233
1565.000000	99.403275
1564.000000	99.409038
1563.000000	99.414772
1562.000000	99.421804
1561.000000	99.430070
1560.000000	99.439642
1559.000000	99.448931
1558.000000	99.457694
1557.000000	99.467861
1556.000000	99.478054
1555.000000	99.488021
1554.000000	99.497557
1553.000000	99.505917
1552.000000	99.512696
1551.000000	99.518647
1550.000000	99.525299
1549.000000	99.533753
1548.000000	99.543842
1547.000000	99.554246
1546.000000	99.563617
1545.000000	99.571642
1544.000000	99.580046
1543.000000	99.592010
1542.000000	99.609692
1541.000000	99.631503
1540.000000	99.651149
1539.000000	99.664831
1538.000000	99.674716
1537.000000	99.682660
1536.000000	99.689996
1535.000000	99.698514
1534.000000	99.709202
1533.000000	99.720376
1532.000000	99.729501
1531.000000	99.736834
1530.000000	99.744540
1529.000000	99.754316
1528.000000	99.766372
1527.000000	99.780520
1526.000000	99.796807
1525.000000	99.814118
1524.000000	99.829606
1523.000000	99.841256
1522.000000	99.849777
1521.000000	99.858378
1520.000000	99.869137
1519.000000	99.881573
1518.000000	99.895581
1517.000000	99.911615
1516.000000	99.928416
1515.000000	99.943963
1514.000000	99.957152
1513.000000	99.968304
1512.000000	99.978716
1511.000000	99.990024
1510.000000	100.004543
1509.000000	100.025608
1508.000000	100.055229
1507.000000	100.084515
1506.000000	100.100412
1505.000000	100.106002
1504.000000	100.110306
1503.000000	100.118274
1502.000000	100.131139
1501.000000	100.147089
1500.000000	100.164936
1499.000000	100.186444
1498.000000	100.213355
1497.000000	100.241938
1496.000000	100.264431
1495.000000	100.278347
1494.000000	100.288926
1493.000000	100.301565
1492.000000	100.317031
1491.000000	100.331729
1490.000000	100.341021
1489.000000	100.345666
1488.000000	100.351424
1487.000000	100.360596
1486.000000	100.369989
1485.000000	100.375543
1484.000000	100.377567
1483.000000	100.380367
1482.000000	100.386444
1481.000000	100.392963
1480.000000	100.395232
1479.000000	100.391658
1478.000000	100.383085
1477.000000	100.370031
1476.000000	100.352702
1475.000000	100.332583
1474.000000	100.313250
1473.000000	100.299582
1472.000000	100.294398
1471.000000	100.293668
1470.000000	100.290343
1469.000000	100.281673
1468.000000	100.270551
1467.000000	100.261391
1466.000000	100.254907
1465.000000	100.246558
1464.000000	100.232934
1463.000000	100.217107
1462.000000	100.203360
1461.000000	100.192334
1460.000000	100.181645
1459.000000	100.167768
1458.000000	100.148524
1457.000000	100.130662
1456.000000	100.127464
1455.000000	100.138120
1454.000000	100.150628
1453.000000	100.157182
1452.000000	100.155904
1451.000000	100.149216
1450.000000	100.140530
1449.000000	100.131464
1448.000000	100.122822
1447.000000	100.116193
1446.000000	100.112322
1445.000000	100.109709
1444.000000	100.106495
1443.000000	100.102925
1442.000000	100.100893
1441.000000	100.101057
1440.000000	100.101385
1439.000000	100.098343
1438.000000	100.089277
1437.000000	100.075883
1436.000000	100.065637
1435.000000	100.062759
1434.000000	100.062588
1433.000000	100.059283
1432.000000	100.052132
1431.000000	100.045408
1430.000000	100.042747
1429.000000	100.042327
1428.000000	100.040121
1427.000000	100.035369
1426.000000	100.030014
1425.000000	100.024837
1424.000000	100.018765
1423.000000	100.011171
1422.000000	100.002421
1421.000000	99.992906
1420.000000	99.984070
1419.000000	99.979081
1418.000000	99.979023
1417.000000	99.980904
1416.000000	99.981043
1415.000000	99.978313
1414.000000	99.974870
1413.000000	99.974429
1412.000000	99.979259
1411.000000	99.988140
1410.000000	99.997270
1409.000000	100.003709
1408.000000	100.007358
1407.000000	100.010024
1406.000000	100.014109
1405.000000	100.022024
1404.000000	100.035173
1403.000000	100.052245
1402.000000	100.070194
1401.000000	100.087274
1400.000000	100.103032
1399.000000	100.115943
1398.000000	100.122974
1397.000000	100.122402
1396.000000	100.116498
1395.000000	100.112690
1394.000000	100.119808
1393.000000	100.140042
1392.000000	100.167361
1391.000000	100.193321
1390.000000	100.213026
1389.000000	100.227122
1388.000000	100.239487
1387.000000	100.252320
1386.000000	100.263635
1385.000000	100.270333
1384.000000	100.271657
1383.000000	100.269384
1382.000000	100.266754
1381.000000	100.267331
1380.000000	100.273815
1379.000000	100.287144
1378.000000	100.305887
1377.000000	100.326554
1376.000000	100.345126
1375.000000	100.359013
1374.000000	100.369130
1373.000000	100.379973
1372.000000	100.395420
1371.000000	100.415189
1370.000000	100.436297
1369.000000	100.456440
1368.000000	100.475830
1367.000000	100.495429
1366.000000	100.514255
1365.000000	100.529972
1364.000000	100.541734
1363.000000	100.551850
1362.000000	100.564178
1361.000000	100.579906
1360.000000	100.596183
1359.000000	100.609809
1358.000000	100.620962
1357.000000	100.632731
1356.000000	100.647175
1355.000000	100.662335
1354.000000	100.674447
1353.000000	100.683054
1352.000000	100.691904
1351.000000	100.704284
1350.000000	100.718817
1349.000000	100.730802
1348.000000	100.737907
1347.000000	100.742786
1346.000000	100.749555
1345.000000	100.758725
1344.000000	100.766840
1343.000000	100.770439
1342.000000	100.769410
1341.000000	100.767052
1340.000000	100.767715
1339.000000	100.773634
1338.000000	100.783060
1337.000000	100.792041
1336.000000	100.798315
1335.000000	100.802875
1334.000000	100.807899
1333.000000	100.813753
1332.000000	100.818330
1331.000000	100.819087
1330.000000	100.815559
1329.000000	100.810400
1328.000000	100.808191
1327.000000	100.811956
1326.000000	100.819796
1325.000000	100.825988
1324.000000	100.826999
1323.000000	100.825115
1322.000000	100.824755
1321.000000	100.826653
1320.000000	100.828102
1319.000000	100.827777
1318.000000	100.827125
1317.000000	100.826970
1316.000000	100.826175
1315.000000	100.824626
1314.000000	100.824468
1313.000000	100.826961
1312.000000	100.830447
1311.000000	100.833108
1310.000000	100.835521
1309.000000	100.838446
1308.000000	100.840077
1307.000000	100.838264
1306.000000	100.834523
1305.000000	100.832872
1304.000000	100.834820
1303.000000	100.837651
1302.000000	100.838188
1301.000000	100.836364
1300.000000	100.834436
1299.000000	100.834086
1298.000000	100.835237
1297.000000	100.836856
1296.000000	100.837945
1295.000000	100.838212
1294.000000	100.838516
1293.000000	100.840413
1292.000000	100.844491
1291.000000	100.848896
1290.000000	100.849925
1289.000000	100.844558
1288.000000	100.832988
1287.000000	100.819255
1286.000000	100.809191
1285.000000	100.806855
1284.000000	100.811973
1283.000000	100.819870
1282.000000	100.824021
1281.000000	100.819931
1280.000000	100.807750
1279.000000	100.792025
1278.000000	100.778864
1277.000000	100.772478
1276.000000	100.773254
1275.000000	100.777909
1274.000000	100.781422
1273.000000	100.780063
1272.000000	100.773449
1271.000000	100.763856
1270.000000	100.753818
1269.000000	100.744840
1268.000000	100.737962
1267.000000	100.733772
1266.000000	100.731148
1265.000000	100.727474
1264.000000	100.720997
1263.000000	100.711862
1262.000000	100.700397
1261.000000	100.686377
1260.000000	100.671415
1259.000000	100.660131
1258.000000	100.655978
1257.000000	100.656439
1256.000000	100.654501
1255.000000	100.644966
1254.000000	100.628343
1253.000000	100.609341
1252.000000	100.593110
1251.000000	100.582267
1250.000000	100.575352
1249.000000	100.568178
1248.000000	100.558421
1247.000000	100.548597
1246.000000	100.542682
1245.000000	100.540038
1244.000000	100.534952
1243.000000	100.522804
1242.000000	100.505065
1241.000000	100.487438
1240.000000	100.474208
1239.000000	100.465102
1238.000000	100.456711
1237.000000	100.445983
1236.000000	100.432243
1235.000000	100.416266
1234.000000	100.398445
1233.000000	100.379032
1232.000000	100.359839
1231.000000	100.343727
1230.000000	100.331548
1229.000000	100.320964
1228.000000	100.308766
1227.000000	100.292702
1226.000000	100.270961
1225.000000	100.243036
1224.000000	100.212679
1223.000000	100.186914
1222.000000	100.168937
1221.000000	100.153857
1220.000000	100.134172
1219.000000	100.107467
1218.000000	100.075908
1217.000000	100.040515
1216.000000	100.000209
1215.000000	99.955439
1214.000000	99.908145
1213.000000	99.858172
1212.000000	99.804324
1211.000000	99.749551
1210.000000	99.700314
1209.000000	99.658501
1208.000000	99.617396
1207.000000	99.568431
1206.000000	99.510345
1205.000000	99.449780
1204.000000	99.393637
1203.000000	99.342313
1202.000000	99.290315
1201.000000	99.232424
1200.000000	99.168634
1199.000000	99.103292
1198.000000	99.040080
1197.000000	98.978868
1196.000000	98.917273
1195.000000	98.853317
1194.000000	98.785780
1193.000000	98.713810
1192.000000	98.637877
1191.000000	98.560273
1190.000000	98.483199
1189.000000	98.406720
1188.000000	98.329305
1187.000000	98.249734
1186.000000	98.168069
1185.000000	98.085379
1184.000000	98.002565
1183.000000	97.918787
1182.000000	97.831754
1181.000000	97.740712
1180.000000	97.647745
1179.000000	97.554006
1178.000000	97.456301
1177.000000	97.350699
1176.000000	97.238205
1175.000000	97.122998
1174.000000	97.006157
1173.000000	96.885802
1172.000000	96.762628
1171.000000	96.639449
1170.000000	96.515304
1169.000000	96.386793
1168.000000	96.256664
1167.000000	96.134567
1166.000000	96.027421
1165.000000	95.935901
1164.000000	95.862877
1163.000000	95.817365
1162.000000	95.804725
1161.000000	95.817520
1160.000000	95.839753
1159.000000	95.856353
1158.000000	95.856224
1157.000000	95.831707
1156.000000	95.780813
1155.000000	95.709015
1154.000000	95.626057
1153.000000	95.540711
1152.000000	95.457371
1151.000000	95.373865
1150.000000	95.282600
1149.000000	95.178672
1148.000000	95.067524
1147.000000	94.959856
1146.000000	94.858417
1145.000000	94.755720
1144.000000	94.645739
1143.000000	94.531185
1142.000000	94.417540
1141.000000	94.306463
1140.000000	94.197501
1139.000000	94.090105
1138.000000	93.981553
1137.000000	93.868845
1136.000000	93.754215
1135.000000	93.642099
1134.000000	93.529317
1133.000000	93.406615
1132.000000	93.272709
1131.000000	93.138641
1130.000000	93.014296
1129.000000	92.897763
1128.000000	92.781870
1127.000000	92.663327
1126.000000	92.540792
1125.000000	92.411051
1124.000000	92.272384
1123.000000	92.126817
1122.000000	91.976043
1121.000000	91.820858
1120.000000	91.666595
1119.000000	91.521268
1118.000000	91.385034
1117.000000	91.249251
1116.000000	91.109230
1115.000000	90.970655
1114.000000	90.840681
1113.000000	90.720444
1112.000000	90.608636
1111.000000	90.503699
1110.000000	90.399783
1109.000000	90.289135
1108.000000	90.171315
1107.000000	90.052488
1106.000000	89.935156
1105.000000	89.817683
1104.000000	89.703359
1103.000000	89.598163
1102.000000	89.499065
1101.000000	89.396860
1100.000000	89.291649
1099.000000	89.191869
1098.000000	89.097366
1097.000000	88.997793
1096.000000	88.890783
1095.000000	88.786678
1094.000000	88.690937
1093.000000	88.596201
1092.000000	88.496759
1091.000000	88.396869
1090.000000	88.299236
1089.000000	88.198559
1088.000000	88.092430
1087.000000	87.986438
1086.000000	87.883182
1085.000000	87.778036
1084.000000	87.670662
1083.000000	87.569203
1082.000000	87.478822
1081.000000	87.397097
1080.000000	87.322947
1079.000000	87.257079
1078.000000	87.191343
1077.000000	87.112465
1076.000000	87.020340
1075.000000	86.928663
1074.000000	86.842836
1073.000000	86.749932
1072.000000	86.634093
1071.000000	86.489060
1070.000000	86.314105
1069.000000	86.112643
1068.000000	85.898767
1067.000000	85.690980
1066.000000	85.493583
1065.000000	85.294934
1064.000000	85.085609
1063.000000	84.865150
1062.000000	84.631520
1061.000000	84.381159
1060.000000	84.122125
1059.000000	83.870342
1058.000000	83.628874
1057.000000	83.386485
1056.000000	83.138626
1055.000000	82.891847
1054.000000	82.644577
1053.000000	82.383366
1052.000000	82.104868
1051.000000	81.823199
1050.000000	81.548461
1049.000000	81.277178
1048.000000	81.009068
1047.000000	80.750609
1046.000000	80.497131
1045.000000	80.233580
1044.000000	79.957564
1043.000000	79.682653
1042.000000	79.416190
1041.000000	79.152857
1040.000000	78.892209
1039.000000	78.641733
1038.000000	78.399234
1037.000000	78.153339
1036.000000	77.905332
1035.000000	77.670147
1034.000000	77.453611
1033.000000	77.250130
1032.000000	77.063384
1031.000000	76.904867
1030.000000	76.770603
1029.000000	76.645711
1028.000000	76.535245
1027.000000	76.462909
1026.000000	76.433281
1025.000000	76.420999
1024.000000	76.403048
1023.000000	76.376884
1022.000000	76.341762
1021.000000	76.289876
1020.000000	76.225018
1019.000000	76.165257
1018.000000	76.116683
1017.000000	76.064474
1016.000000	75.996661
1015.000000	75.916685
1014.000000	75.828270
1013.000000	75.730129
1012.000000	75.630459
1011.000000	75.544141
1010.000000	75.470657
1009.000000	75.397248
1008.000000	75.327786
1007.000000	75.283861
1006.000000	75.272160
1005.000000	75.276495
1004.000000	75.289380
1003.000000	75.326282
1002.000000	75.398323
1001.000000	75.493263
1000.000000	75.593890
999.000000	75.696545
998.000000	75.803130
997.000000	75.912798
996.000000	76.029119
995.000000	76.159166
994.000000	76.299735
993.000000	76.439472
992.000000	76.577309
991.000000	76.722797
990.000000	76.877638
989.000000	77.035050
988.000000	77.197595
987.000000	77.375563
986.000000	77.566392
985.000000	77.755849
984.000000	77.941642
983.000000	78.136139
982.000000	78.344196
981.000000	78.558470
980.000000	78.778403
979.000000	79.013446
978.000000	79.264516
977.000000	79.521806
976.000000	79.783689
975.000000	80.058951
974.000000	80.348275
973.000000	80.642416
972.000000	80.940300
971.000000	81.249445
970.000000	81.566299
969.000000	81.875904
968.000000	82.174062
967.000000	82.471027
966.000000	82.770673
965.000000	83.065392
964.000000	83.355160
963.000000	83.651894
962.000000	83.958819
961.000000	84.262684
960.000000	84.552467
959.000000	84.830097
958.000000	85.097734
957.000000	85.350353
956.000000	85.587659
955.000000	85.819342
954.000000	86.051139
953.000000	86.276386
952.000000	86.486615
951.000000	86.680782
950.000000	86.861474
949.000000	87.032381
948.000000	87.200941
947.000000	87.371888
946.000000	87.536144
945.000000	87.677631
944.000000	87.792890
943.000000	87.893509
942.000000	87.989385
941.000000	88.082042
940.000000	88.175109
939.000000	88.276702
938.000000	88.387695
937.000000	88.500274
936.000000	88.611528
935.000000	88.726627
934.000000	88.846023
933.000000	88.961987
932.000000	89.071307
931.000000	89.179700
930.000000	89.290012
929.000000	89.396382
928.000000	89.492938
927.000000	89.578585
926.000000	89.652058
925.000000	89.712898
924.000000	89.767992
923.000000	89.825336
922.000000	89.879800
921.000000	89.917092
920.000000	89.933515
919.000000	89.939854
918.000000	89.944521
917.000000	89.946487
916.000000	89.947832
915.000000	89.959610
914.000000	89.990827
913.000000	90.044090
912.000000	90.126253
911.000000	90.250047
910.000000	90.419408
909.000000	90.624111
908.000000	90.852767
907.000000	91.100290
906.000000	91.360419
905.000000	91.624614
904.000000	91.893253
903.000000	92.175628
902.000000	92.472760
901.000000	92.769609
900.000000	93.049534
899.000000	93.308611
898.000000	93.552021
897.000000	93.784258
896.000000	94.007665
895.000000	94.224765
894.000000	94.437242
893.000000	94.644887
892.000000	94.846481
891.000000	95.039346
890.000000	95.219922
889.000000	95.388424
888.000000	95.549663
887.000000	95.704759
886.000000	95.847134
885.000000	95.973913
884.000000	96.096186
883.000000	96.228055
882.000000	96.368447
881.000000	96.504560
880.000000	96.631527
879.000000	96.757655
878.000000	96.890804
877.000000	97.030045
876.000000	97.171010
875.000000	97.310273
874.000000	97.445597
873.000000	97.581023
872.000000	97.729217
871.000000	97.898184
870.000000	98.077199
869.000000	98.246172
868.000000	98.397352
867.000000	98.538806
866.000000	98.679883
865.000000	98.823756
864.000000	98.972040
863.000000	99.124812
862.000000	99.275606
861.000000	99.416524
860.000000	99.548707
859.000000	99.678767
858.000000	99.805456
857.000000	99.919749
856.000000	100.018155
855.000000	100.106068
854.000000	100.187868
853.000000	100.263765
852.000000	100.337230
851.000000	100.414794
850.000000	100.495358
849.000000	100.568874
848.000000	100.628731
847.000000	100.677692
846.000000	100.720068
845.000000	100.756540
844.000000	100.788255
843.000000	100.816331
842.000000	100.834448
841.000000	100.831643
840.000000	100.807017
839.000000	100.773661
838.000000	100.743477
837.000000	100.715616
836.000000	100.684819
835.000000	100.653238
834.000000	100.627449
833.000000	100.609881
832.000000	100.600101
831.000000	100.599799
830.000000	100.609584
829.000000	100.624330
828.000000	100.638767
827.000000	100.655760
826.000000	100.682119
825.000000	100.715965
824.000000	100.744247
823.000000	100.755317
822.000000	100.750637
821.000000	100.740671
820.000000	100.730123
819.000000	100.710224
818.000000	100.666436
817.000000	100.591132
816.000000	100.485660
815.000000	100.352907
814.000000	100.195164
813.000000	100.019973
812.000000	99.837703
811.000000	99.644911
810.000000	99.415641
809.000000	99.119117
808.000000	98.745000
807.000000	98.306468
806.000000	97.824450
805.000000	97.319059
804.000000	96.813666
803.000000	96.333319
802.000000	95.894974
801.000000	95.507950
800.000000	95.184376
799.000000	94.938372
798.000000	94.774372
797.000000	94.686759
796.000000	94.668798
795.000000	94.708650
794.000000	94.779558
793.000000	94.851229
792.000000	94.912494
791.000000	94.969610
790.000000	95.022986
789.000000	95.059098
788.000000	95.064894
787.000000	95.036762
786.000000	94.975292
785.000000	94.883586
784.000000	94.770589
783.000000	94.644624
782.000000	94.505267
781.000000	94.354268
780.000000	94.212382
779.000000	94.110711
778.000000	94.065759
777.000000	94.075836
776.000000	94.137415
775.000000	94.247078
774.000000	94.389417
773.000000	94.542819
772.000000	94.699206
771.000000	94.862396
770.000000	95.028343
769.000000	95.184552
768.000000	95.327960
767.000000	95.464445
766.000000	95.590180
765.000000	95.692821
764.000000	95.773371
763.000000	95.848023
762.000000	95.925362
761.000000	96.000486
760.000000	96.075229
759.000000	96.164057
758.000000	96.272326
757.000000	96.385753
756.000000	96.489196
755.000000	96.581333
754.000000	96.665412
753.000000	96.741641
752.000000	96.815594
751.000000	96.898553
750.000000	96.991128
