4000.000000	100.689018
3999.000000	100.688531
3998.000000	100.689393
3997.000000	100.690205
3996.000000	100.689760
3995.000000	100.687675
3994.000000	100.685262
3993.000000	100.684487
3992.000000	100.685911
3991.000000	100.688068
3990.000000	100.688715
3989.000000	100.686878
3988.000000	100.683208
3987.000000	100.679249
3986.000000	100.676150
3985.000000	100.674161
3984.000000	100.673079
3983.000000	100.672794
3982.000000	100.673305
3981.000000	100.674292
3980.000000	100.674868
3979.000000	100.674003
3978.000000	100.671395
3977.000000	100.668021
3976.000000	100.665637
3975.000000	100.665359
3974.000000	100.666742
3973.000000	100.668199
3972.000000	100.668428
3971.000000	100.667408
3970.000000	100.666057
3969.000000	100.665184
3968.000000	100.664872
3967.000000	100.664808
3966.000000	100.664928
3965.000000	100.665487
3964.000000	100.666499
3963.000000	100.667487
3962.000000	100.667968
3961.000000	100.668062
3960.000000	100.668387
3959.000000	100.669460
3958.000000	100.671415
3957.000000	100.674278
3956.000000	100.678151
3955.000000	100.682752
3954.000000	100.686873
3953.000000	100.688653
3952.000000	100.686826
3951.000000	100.681574
3950.000000	100.674514
3949.000000	100.668010
3948.000000	100.663873
3947.000000	100.662507
3946.000000	100.663086
3945.000000	100.664366
3944.000000	100.665734
3943.000000	100.667511
3942.000000	100.670097
3941.000000	100.673069
3940.000000	100.675392
3939.000000	100.676381
3938.000000	100.676213
3937.000000	100.675549
3936.000000	100.674780
3935.000000	100.673722
3934.000000	100.672088
3933.000000	100.670084
3932.000000	100.668471
3931.000000	100.667982
3930.000000	100.668800
3929.000000	100.670580
3928.000000	100.672670
3927.000000	100.674267
3926.000000	100.674819
3925.000000	100.674401
3924.000000	100.673659
3923.000000	100.673224
3922.000000	100.673267
3921.000000	100.673583
3920.000000	100.673912
3919.000000	100.674138
3918.000000	100.674293
3917.000000	100.674436
3916.000000	100.674554
3915.000000	100.674599
3914.000000	100.674574
3913.000000	100.674554
3912.000000	100.674617
3911.000000	100.674790
3910.000000	100.675071
3909.000000	100.675447
3908.000000	100.675886
3907.000000	100.676304
3906.000000	100.676589
3905.000000	100.676691
3904.000000	100.676741
3903.000000	100.676969
3902.000000	100.677507
3901.000000	100.678257
3900.000000	100.678937
3899.000000	100.679297
3898.000000	100.679224
3897.000000	100.678820
3896.000000	100.678412
3895.000000	100.678336
3894.000000	100.678666
3893.000000	100.679160
3892.000000	100.679566
3891.000000	100.679978
3890.000000	100.680553
3889.000000	100.681015
3888.000000	100.680818
3887.000000	100.679876
3886.000000	100.679060
3885.000000	100.679419
3884.000000	100.680601
3883.000000	100.680792
3882.000000	100.678603
3881.000000	100.674649
3880.000000	100.671295
3879.000000	100.670155
3878.000000	100.670769
3877.000000	100.671790
3876.000000	100.672441
3875.000000	100.672998
3874.000000	100.674361
3873.000000	100.676752
3872.000000	100.679148
3871.000000	100.680713
3870.000000	100.682274
3869.000000	100.685254
3868.000000	100.689177
3867.000000	100.691956
3866.000000	100.692468
3865.000000	100.691581
3864.000000	100.690676
3863.000000	100.689912
3862.000000	100.688203
3861.000000	100.684974
3860.000000	100.681158
3859.000000	100.678737
3858.000000	100.679192
3857.000000	100.682337
3856.000000	100.686026
3855.000000	100.686981
3854.000000	100.683540
3853.000000	100.678754
3852.000000	100.676560
3851.000000	100.676450
3850.000000	100.676069
3849.000000	100.674269
3848.000000	100.671231
3847.000000	100.667815
3846.000000	100.665009
3845.000000	100.663692
3844.000000	100.664455
3843.000000	100.667597
3842.000000	100.672478
3841.000000	100.677636
3840.000000	100.681879
3839.000000	100.684797
3838.000000	100.686114
3837.000000	100.685465
3836.000000	100.683242
3835.000000	100.680950
3834.000000	100.680164
3833.000000	100.681281
3832.000000	100.683227
3831.000000	100.684293
3830.000000	100.683642
3829.000000	100.681973
3828.000000	100.680637
3827.000000	100.680563
3826.000000	100.681716
3825.000000	100.683192
3824.000000	100.683766
3823.000000	100.682881
3822.000000	100.681108
3821.000000	100.679683
3820.000000	100.678670
3819.000000	100.676251
3818.000000	100.671475
3817.000000	100.666262
3816.000000	100.663935
3815.000000	100.665491
3814.000000	100.668293
3813.000000	100.669309
3812.000000	100.668287
3811.000000	100.667051
3810.000000	100.667174
3809.000000	100.668708
3808.000000	100.670716
3807.000000	100.672600
3806.000000	100.674231
3805.000000	100.674874
3804.000000	100.672984
3803.000000	100.667630
3802.000000	100.660108
3801.000000	100.653735
3800.000000	100.650434
3799.000000	100.649494
3798.000000	100.650074
3797.000000	100.652445
3796.000000	100.656810
3795.000000	100.661941
3794.000000	100.665937
3793.000000	100.668084
3792.000000	100.669056
3791.000000	100.669558
3790.000000	100.669475
3789.000000	100.668278
3788.000000	100.665823
3787.000000	100.662473
3786.000000	100.658814
3785.000000	100.655663
3784.000000	100.654044
3783.000000	100.654658
3782.000000	100.657403
3781.000000	100.661568
3780.000000	100.666274
3779.000000	100.670728
3778.000000	100.673740
3777.000000	100.673620
3776.000000	100.669412
3775.000000	100.662249
3774.000000	100.655005
3773.000000	100.650354
3772.000000	100.649330
3771.000000	100.651761
3770.000000	100.657156
3769.000000	100.664379
3768.000000	100.671228
3767.000000	100.675402
3766.000000	100.676244
3765.000000	100.675424
3764.000000	100.675199
3763.000000	100.675890
3762.000000	100.675549
3761.000000	100.671786
3760.000000	100.663257
3759.000000	100.650868
3758.000000	100.638255
3757.000000	100.630036
3756.000000	100.628321
3755.000000	100.631274
3754.000000	100.635538
3753.000000	100.639545
3752.000000	100.643885
3751.000000	100.648969
3750.000000	100.653822
3749.000000	100.657531
3748.000000	100.659546
3747.000000	100.657324
3746.000000	100.648451
3745.000000	100.635470
3744.000000	100.624062
3743.000000	100.614941
3742.000000	100.604556
3741.000000	100.592727
3740.000000	100.583106
3739.000000	100.578351
3738.000000	100.576584
3737.000000	100.573562
3736.000000	100.568898
3735.000000	100.566764
3734.000000	100.568216
3733.000000	100.568576
3732.000000	100.564488
3731.000000	100.557634
3730.000000	100.550948
3729.000000	100.544382
3728.000000	100.536017
3727.000000	100.525747
3726.000000	100.515970
3725.000000	100.507992
3724.000000	100.499546
3723.000000	100.486874
3722.000000	100.468489
3721.000000	100.447827
3720.000000	100.431278
3719.000000	100.422439
3718.000000	100.419089
3717.000000	100.415606
3716.000000	100.406485
3715.000000	100.387529
3714.000000	100.355907
3713.000000	100.311955
3712.000000	100.262658
3711.000000	100.220633
3710.000000	100.193358
3709.000000	100.176108
3708.000000	100.158991
3707.000000	100.136837
3706.000000	100.111038
3705.000000	100.085054
3704.000000	100.060151
3703.000000	100.034980
3702.000000	100.008328
3701.000000	99.981550
3700.000000	99.957407
3699.000000	99.937421
3698.000000	99.921557
3697.000000	99.909622
3696.000000	99.901719
3695.000000	99.897764
3694.000000	99.897772
3693.000000	99.902298
3692.000000	99.911558
3691.000000	99.925025
3690.000000	99.942286
3689.000000	99.962815
3688.000000	99.983821
3687.000000	100.000407
3686.000000	100.007771
3685.000000	100.003330
3684.000000	99.989263
3683.000000	99.972521
3682.000000	99.960530
3681.000000	99.956256
3680.000000	99.957995
3679.000000	99.961154
3678.000000	99.959439
3677.000000	99.947926
3676.000000	99.928377
3675.000000	99.909199
3674.000000	99.894109
3673.000000	99.878651
3672.000000	99.859143
3671.000000	99.837043
3670.000000	99.817421
3669.000000	99.803914
3668.000000	99.794344
3667.000000	99.785169
3666.000000	99.775449
3665.000000	99.764666
3664.000000	99.750698
3663.000000	99.730862
3662.000000	99.704823
3661.000000	99.675728
3660.000000	99.648354
3659.000000	99.626027
3658.000000	99.609367
3657.000000	99.596452
3656.000000	99.583913
3655.000000	99.568947
3654.000000	99.551429
3653.000000	99.534172
3652.000000	99.521013
3651.000000	99.513874
3650.000000	99.510942
3649.000000	99.508574
3648.000000	99.504217
3647.000000	99.496245
3646.000000	99.483006
3645.000000	99.463961
3644.000000	99.441317
3643.000000	99.419466
3642.000000	99.402120
3641.000000	99.389466
3640.000000	99.378730
3639.000000	99.367823
3638.000000	99.357312
3637.000000	99.348059
3636.000000	99.338320
3635.000000	99.324782
3634.000000	99.306300
3633.000000	99.285107
3632.000000	99.264549
3631.000000	99.247588
3630.000000	99.236492
3629.000000	99.230748
3628.000000	99.223918
3627.000000	99.207335
3626.000000	99.179916
3625.000000	99.148808
3624.000000	99.121841
3623.000000	99.102473
3622.000000	99.089215
3621.000000	99.079391
3620.000000	99.073841
3619.000000	99.076834
3618.000000	99.090716
3617.000000	99.113097
3616.000000	99.139630
3615.000000	99.166729
3614.000000	99.191622
3613.000000	99.211969
3612.000000	99.226212
3611.000000	99.234216
3610.000000	99.237187
3609.000000	99.236665
3608.000000	99.233880
3607.000000	99.230038
3606.000000	99.226412
3605.000000	99.223932
3604.000000	99.222714
3603.000000	99.222103
3602.000000	99.221851
3601.000000	99.223205
3600.000000	99.227631
3599.000000	99.234297
3598.000000	99.240812
3597.000000	99.245933
3596.000000	99.250362
3595.000000	99.255162
3594.000000	99.259849
3593.000000	99.262409
3592.000000	99.261645
3591.000000	99.258152
3590.000000	99.253168
3589.000000	99.247706
3588.000000	99.243109
3587.000000	99.240522
3586.000000	99.238632
3585.000000	99.234784
3584.000000	99.229057
3583.000000	99.224450
3582.000000	99.223514
3581.000000	99.225525
3580.000000	99.226856
3579.000000	99.224206
3578.000000	99.217590
3577.000000	99.210362
3576.000000	99.206229
3575.000000	99.206086
3574.000000	99.207412
3573.000000	99.206490
3572.000000	99.201537
3571.000000	99.194046
3570.000000	99.187195
3569.000000	99.183368
3568.000000	99.182816
3567.000000	99.184086
3566.000000	99.185100
3565.000000	99.184331
3564.000000	99.181667
3563.000000	99.178167
3562.000000	99.175022
3561.000000	99.172710
3560.000000	99.170749
3559.000000	99.168138
3558.000000	99.164192
3557.000000	99.159154
3556.000000	99.154045
3555.000000	99.149888
3554.000000	99.146962
3553.000000	99.144683
3552.000000	99.142124
3551.000000	99.138792
3550.000000	99.134921
3549.000000	99.131074
3548.000000	99.127526
3547.000000	99.124048
3546.000000	99.120322
3545.000000	99.116474
3544.000000	99.112998
3543.000000	99.110159
3542.000000	99.107734
3541.000000	99.105420
3540.000000	99.103355
3539.000000	99.102078
3538.000000	99.101964
3537.000000	99.102676
3536.000000	99.103066
3535.000000	99.101718
3534.000000	99.097753
3533.000000	99.091331
3532.000000	99.083813
3531.000000	99.077237
3530.000000	99.073037
3529.000000	99.071211
3528.000000	99.070313
3527.000000	99.068462
3526.000000	99.064837
3525.000000	99.060176
3524.000000	99.056043
3523.000000	99.053379
3522.000000	99.051689
3521.000000	99.049598
3520.000000	99.046281
3519.000000	99.042115
3518.000000	99.037956
3517.000000	99.033963
3516.000000	99.029550
3515.000000	99.024452
3514.000000	99.019375
3513.000000	99.015290
3512.000000	99.012479
3511.000000	99.010564
3510.000000	99.009303
3509.000000	99.008941
3508.000000	99.009649
3507.000000	99.010786
3506.000000	99.010877
3505.000000	99.008500
3504.000000	99.003594
3503.000000	98.998034
3502.000000	98.994245
3501.000000	98.992841
3500.000000	98.991957
3499.000000	98.988976
3498.000000	98.982728
3497.000000	98.974235
3496.000000	98.965653
3495.000000	98.958390
3494.000000	98.952008
3493.000000	98.944821
3492.000000	98.935792
3491.000000	98.926026
3490.000000	98.918063
3489.000000	98.913417
3488.000000	98.911313
3487.000000	98.909901
3486.000000	98.908408
3485.000000	98.907530
3484.000000	98.907826
3483.000000	98.908601
3482.000000	98.908609
3481.000000	98.907185
3480.000000	98.904355
3479.000000	98.900427
3478.000000	98.895970
3477.000000	98.891931
3476.000000	98.889125
3475.000000	98.887250
3474.000000	98.884622
3473.000000	98.879283
3472.000000	98.870578
3471.000000	98.859758
3470.000000	98.849038
3469.000000	98.840052
3468.000000	98.833342
3467.000000	98.829113
3466.000000	98.827919
3465.000000	98.830130
3464.000000	98.834833
3463.000000	98.839602
3462.000000	98.841843
3461.000000	98.840559
3460.000000	98.836790
3459.000000	98.832427
3458.000000	98.828489
3457.000000	98.824552
3456.000000	98.819780
3455.000000	98.814097
3454.000000	98.808056
3453.000000	98.801943
3452.000000	98.795670
3451.000000	98.789522
3450.000000	98.784486
3449.000000	98.781577
3448.000000	98.781124
3447.000000	98.782691
3446.000000	98.785143
3445.000000	98.786639
3444.000000	98.785241
3443.000000	98.780277
3442.000000	98.773265
3441.000000	98.766966
3440.000000	98.762956
3439.000000	98.760477
3438.000000	98.757792
3437.000000	98.754324
3436.000000	98.751143
3435.000000	98.749401
3434.000000	98.748640
3433.000000	98.746878
3432.000000	98.742300
3431.000000	98.734669
3430.000000	98.725282
3429.000000	98.715965
3428.000000	98.708179
3427.000000	98.702782
3426.000000	98.700005
3425.000000	98.699229
3424.000000	98.699039
3423.000000	98.697894
3422.000000	98.695138
3421.000000	98.691390
3420.000000	98.687950
3419.000000	98.685819
3418.000000	98.685261
3417.000000	98.686141
3416.000000	98.688292
3415.000000	98.691181
3414.000000	98.693489
3413.000000	98.693792
3412.000000	98.691963
3411.000000	98.689346
3410.000000	98.687124
3409.000000	98.684977
3408.000000	98.681984
3407.000000	98.678417
3406.000000	98.675563
3405.000000	98.673728
3404.000000	98.671466
3403.000000	98.667321
3402.000000	98.661715
3401.000000	98.656654
3400.000000	98.653874
3399.000000	98.653792
3398.000000	98.655755
3397.000000	98.658464
3396.000000	98.660350
3395.000000	98.660342
3394.000000	98.658550
3393.000000	98.656126
3392.000000	98.654198
3391.000000	98.652803
3390.000000	98.650945
3389.000000	98.647823
3388.000000	98.643987
3387.000000	98.641010
3386.000000	98.639794
3385.000000	98.639508
3384.000000	98.638683
3383.000000	98.637293
3382.000000	98.636929
3381.000000	98.638725
3380.000000	98.641863
3379.000000	98.644313
3378.000000	98.644870
3377.000000	98.643922
3376.000000	98.642654
3375.000000	98.642003
3374.000000	98.642120
3373.000000	98.642235
3372.000000	98.641074
3371.000000	98.637918
3370.000000	98.633534
3369.000000	98.629748
3368.000000	98.627906
3367.000000	98.628068
3366.000000	98.629377
3365.000000	98.630924
3364.000000	98.632285
3363.000000	98.633514
3362.000000	98.634790
3361.000000	98.635981
3360.000000	98.636607
3359.000000	98.636331
3358.000000	98.635350
3357.000000	98.634131
3356.000000	98.632899
3355.000000	98.631633
3354.000000	98.630461
3353.000000	98.629760
3352.000000	98.629843
3351.000000	98.630721
3350.000000	98.632156
3349.000000	98.633799
3348.000000	98.635363
3347.000000	98.636867
3346.000000	98.638538
3345.000000	98.640334
3344.000000	98.641734
3343.000000	98.642269
3342.000000	98.642083
3341.000000	98.641719
3340.000000	98.641477
3339.000000	98.641332
3338.000000	98.641400
3337.000000	98.641925
3336.000000	98.642741
3335.000000	98.643218
3334.000000	98.643089
3333.000000	98.643023
3332.000000	98.643974
3331.000000	98.646153
3330.000000	98.648833
3329.000000	98.650908
3328.000000	98.651762
3327.000000	98.651509
3326.000000	98.650817
3325.000000	98.650485
3324.000000	98.650850
3323.000000	98.651627
3322.000000	98.652304
3321.000000	98.652775
3320.000000	98.653492
3319.000000	98.654869
3318.000000	98.656698
3317.000000	98.658294
3316.000000	98.659218
3315.000000	98.659686
3314.000000	98.660275
3313.000000	98.661351
3312.000000	98.662844
3311.000000	98.664485
3310.000000	98.666021
3309.000000	98.667142
3308.000000	98.667397
3307.000000	98.666503
3306.000000	98.664824
3305.000000	98.663252
3304.000000	98.662452
3303.000000	98.662276
3302.000000	98.662156
3301.000000	98.662009
3300.000000	98.662455
3299.000000	98.664002
3298.000000	98.666268
3297.000000	98.668173
3296.000000	98.668918
3295.000000	98.668601
3294.000000	98.668006
3293.000000	98.667938
3292.000000	98.668658
3291.000000	98.669740
3290.000000	98.670436
3289.000000	98.670404
3288.000000	98.670127
3287.000000	98.670388
3286.000000	98.671300
3285.000000	98.672168
3284.000000	98.672483
3283.000000	98.672722
3282.000000	98.673697
3281.000000	98.675378
3280.000000	98.676898
3279.000000	98.677686
3278.000000	98.678128
3277.000000	98.679062
3276.000000	98.680990
3275.000000	98.683836
3274.000000	98.687032
3273.000000	98.689673
3272.000000	98.691012
3271.000000	98.691113
3270.000000	98.690867
3269.000000	98.691057
3268.000000	98.691571
3267.000000	98.692025
3266.000000	98.692893
3265.000000	98.695308
3264.000000	98.699632
3263.000000	98.704623
3262.000000	98.708413
3261.000000	98.710325
3260.000000	98.711169
3259.000000	98.712079
3258.000000	98.713297
3257.000000	98.714305
3256.000000	98.714756
3255.000000	98.714911
3254.000000	98.715270
3253.000000	98.716111
3252.000000	98.717571
3251.000000	98.720001
3250.000000	98.723837
3249.000000	98.728829
3248.000000	98.733700
3247.000000	98.737064
3246.000000	98.738762
3245.000000	98.739966
3244.000000	98.741836
3243.000000	98.744307
3242.000000	98.746417
3241.000000	98.747449
3240.000000	98.747463
3239.000000	98.747004
3238.000000	98.746618
3237.000000	98.746562
3236.000000	98.746727
3235.000000	98.747058
3234.000000	98.748247
3233.000000	98.751489
3232.000000	98.757046
3231.000000	98.763365
3230.000000	98.768462
3229.000000	98.772191
3228.000000	98.776231
3227.000000	98.781741
3226.000000	98.787777
3225.000000	98.792436
3224.000000	98.794889
3223.000000	98.795619
3222.000000	98.795381
3221.000000	98.794841
3220.000000	98.794869
3219.000000	98.796217
3218.000000	98.798658
3217.000000	98.801250
3216.000000	98.803765
3215.000000	98.807003
3214.000000	98.811223
3213.000000	98.815148
3212.000000	98.817483
3211.000000	98.818908
3210.000000	98.821454
3209.000000	98.825884
3208.000000	98.830760
3207.000000	98.834341
3206.000000	98.836583
3205.000000	98.838658
3204.000000	98.841197
3203.000000	98.843773
3202.000000	98.845781
3201.000000	98.847187
3200.000000	98.848568
3199.000000	98.850944
3198.000000	98.855294
3197.000000	98.861664
3196.000000	98.868712
3195.000000	98.874722
3194.000000	98.879279
3193.000000	98.883435
3192.000000	98.888239
3191.000000	98.893438
3190.000000	98.897809
3189.000000	98.900565
3188.000000	98.902101
3187.000000	98.903572
3186.000000	98.905885
3185.000000	98.909216
3184.000000	98.913429
3183.000000	98.918537
3182.000000	98.924514
3181.000000	98.930768
3180.000000	98.936274
3179.000000	98.940464
3178.000000	98.943708
3177.000000	98.946829
3176.000000	98.950235
3175.000000	98.953799
3174.000000	98.957415
3173.000000	98.961196
3172.000000	98.965176
3171.000000	98.969174
3170.000000	98.973057
3169.000000	98.976844
3168.000000	98.980497
3167.000000	98.983870
3166.000000	98.987052
3165.000000	98.990516
3164.000000	98.994695
3163.000000	98.999532
3162.000000	99.004525
3161.000000	99.009185
3160.000000	99.013381
3159.000000	99.017294
3158.000000	99.021195
3157.000000	99.025262
3156.000000	99.029475
3155.000000	99.033629
3154.000000	99.037499
3153.000000	99.041096
3152.000000	99.044745
3151.000000	99.048778
3150.000000	99.053098
3149.000000	99.057187
3148.000000	99.060662
3147.000000	99.063754
3146.000000	99.067146
3145.000000	99.071239
3144.000000	99.075837
3143.000000	99.080543
3142.000000	99.085191
3141.000000	99.089732
3140.000000	99.093898
3139.000000	99.097414
3138.000000	99.100507
3137.000000	99.103848
3136.000000	99.107816
3135.000000	99.112148
3134.000000	99.116445
3133.000000	99.120629
3132.000000	99.124762
3131.000000	99.128907
3130.000000	99.133377
3129.000000	99.138664
3128.000000	99.144759
3127.000000	99.150765
3126.000000	99.155711
3125.000000	99.159665
3124.000000	99.163581
3123.000000	99.168058
3122.000000	99.172693
3121.000000	99.176800
3120.000000	99.180261
3119.000000	99.183439
3118.000000	99.186710
3117.000000	99.190290
3116.000000	99.194272
3115.000000	99.198569
3114.000000	99.202838
3113.000000	99.206705
3112.000000	99.210115
3111.000000	99.213419
3110.000000	99.217089
3109.000000	99.221318
3108.000000	99.225900
3107.000000	99.230435
3106.000000	99.234700
3105.000000	99.238810
3104.000000	99.243018
3103.000000	99.247399
3102.000000	99.251740
3101.000000	99.255790
3100.000000	99.259552
3099.000000	99.263234
3098.000000	99.266979
3097.000000	99.270747
3096.000000	99.274479
3095.000000	99.278228
3094.000000	99.282074
3093.000000	99.285992
3092.000000	99.289880
3091.000000	99.293680
3090.000000	99.297423
3089.000000	99.301186
3088.000000	99.305013
3087.000000	99.308888
3086.000000	99.312768
3085.000000	99.316608
3084.000000	99.320391
3083.000000	99.324124
3082.000000	99.327825
3081.000000	99.331520
3080.000000	99.335247
3079.000000	99.339030
3078.000000	99.342872
3077.000000	99.346749
3076.000000	99.350622
3075.000000	99.354466
3074.000000	99.358281
3073.000000	99.362087
3072.000000	99.365910
3071.000000	99.369743
3070.000000	99.373562
3069.000000	99.377347
3068.000000	99.381111
3067.000000	99.384892
3066.000000	99.388725
3065.000000	99.392634
3064.000000	99.396639
3063.000000	99.400695
3062.000000	99.404571
3061.000000	99.407967
3060.000000	99.410889
3059.000000	99.413826
3058.000000	99.417269
3057.000000	99.421175
3056.000000	99.425085
3055.000000	99.428754
3054.000000	99.432388
3053.000000	99.436186
3052.000000	99.440017
3051.000000	99.443766
3050.000000	99.447707
3049.000000	99.452066
3048.000000	99.456279
3047.000000	99.459239
3046.000000	99.460464
3045.000000	99.460797
3044.000000	99.461839
3043.000000	99.464494
3042.000000	99.468446
3041.000000	99.472822
3040.000000	99.476968
3039.000000	99.480531
3038.000000	99.483261
3037.000000	99.485233
3036.000000	99.487100
3035.000000	99.489574
3034.000000	99.492663
3033.000000	99.495889
3032.000000	99.499243
3031.000000	99.503300
3030.000000	99.508190
3029.000000	99.513072
3028.000000	99.517053
3027.000000	99.520115
3026.000000	99.522679
3025.000000	99.524766
3024.000000	99.526274
3023.000000	99.527699
3022.000000	99.529580
3021.000000	99.531287
3020.000000	99.531435
3019.000000	99.529760
3018.000000	99.527792
3017.000000	99.527217
3016.000000	99.528111
3015.000000	99.529450
3014.000000	99.530742
3013.000000	99.532422
3012.000000	99.534699
3011.000000	99.536752
3010.000000	99.537409
3009.000000	99.536307
3008.000000	99.534201
3007.000000	99.532485
3006.000000	99.532355
3005.000000	99.534211
3004.000000	99.537471
3003.000000	99.540757
3002.000000	99.542790
3001.000000	99.543260
3000.000000	99.542787
2999.000000	99.542198
2998.000000	99.541855
2997.000000	99.541742
2996.000000	99.541955
2995.000000	99.542696
2994.000000	99.543716
2993.000000	99.544086
2992.000000	99.542937
2991.000000	99.540457
2990.000000	99.538031
2989.000000	99.537064
2988.000000	99.537798
2987.000000	99.539317
2986.000000	99.540520
2985.000000	99.541000
2984.000000	99.540942
2983.000000	99.540596
2982.000000	99.540112
2981.000000	99.539758
2980.000000	99.539876
2979.000000	99.540420
2978.000000	99.540662
2977.000000	99.539645
2976.000000	99.537020
2975.000000	99.533330
2974.000000	99.529359
2973.000000	99.525386
2972.000000	99.521288
2971.000000	99.517355
2970.000000	99.514740
2969.000000	99.514884
2968.000000	99.518538
2967.000000	99.524928
2966.000000	99.531438
2965.000000	99.534712
2964.000000	99.533372
2963.000000	99.530002
2962.000000	99.529084
2961.000000	99.531895
2960.000000	99.535019
2959.000000	99.535112
2958.000000	99.533732
2957.000000	99.535218
2956.000000	99.540564
2955.000000	99.545850
2954.000000	99.546854
2953.000000	99.542973
2952.000000	99.536021
2951.000000	99.527575
2950.000000	99.518922
2949.000000	99.511847
2948.000000	99.507437
2947.000000	99.504840
2946.000000	99.502742
2945.000000	99.501370
2944.000000	99.501602
2943.000000	99.502629
2942.000000	99.502089
2941.000000	99.498387
2940.000000	99.491702
2939.000000	99.483159
2938.000000	99.474382
2937.000000	99.467302
2936.000000	99.462417
2935.000000	99.457183
2934.000000	99.448027
2933.000000	99.434431
2932.000000	99.419683
2931.000000	99.407516
2930.000000	99.399989
2929.000000	99.398799
2928.000000	99.405765
2927.000000	99.420049
2926.000000	99.436520
2925.000000	99.449173
2924.000000	99.456108
2923.000000	99.460360
2922.000000	99.467191
2921.000000	99.481413
2920.000000	99.504945
2919.000000	99.534021
2918.000000	99.559679
2917.000000	99.574674
2916.000000	99.580521
2915.000000	99.585782
2914.000000	99.596618
2913.000000	99.610744
2912.000000	99.621300
2911.000000	99.625021
2910.000000	99.625085
2909.000000	99.626973
2908.000000	99.632900
2907.000000	99.640523
2906.000000	99.646163
2905.000000	99.648724
2904.000000	99.650466
2903.000000	99.654485
2902.000000	99.661953
2901.000000	99.671768
2900.000000	99.681656
2899.000000	99.689167
2898.000000	99.692553
2897.000000	99.692189
2896.000000	99.690895
2895.000000	99.691701
2894.000000	99.695385
2893.000000	99.700924
2892.000000	99.707637
2891.000000	99.715397
2890.000000	99.723147
2889.000000	99.729212
2888.000000	99.733513
2887.000000	99.738012
2886.000000	99.744319
2885.000000	99.751732
2884.000000	99.757963
2883.000000	99.760833
2882.000000	99.759310
2881.000000	99.754501
2880.000000	99.750232
2879.000000	99.750975
2878.000000	99.758186
2877.000000	99.769372
2876.000000	99.781263
2875.000000	99.792410
2874.000000	99.801684
2873.000000	99.806710
2872.000000	99.806220
2871.000000	99.802739
2870.000000	99.800375
2869.000000	99.800237
2868.000000	99.800449
2867.000000	99.800051
2866.000000	99.800221
2865.000000	99.801733
2864.000000	99.803855
2863.000000	99.805927
2862.000000	99.807410
2861.000000	99.806152
2860.000000	99.799797
2859.000000	99.790084
2858.000000	99.782911
2857.000000	99.782516
2856.000000	99.787847
2855.000000	99.795632
2854.000000	99.804391
2853.000000	99.813724
2852.000000	99.822143
2851.000000	99.828667
2850.000000	99.835419
2849.000000	99.845983
2848.000000	99.861412
2847.000000	99.879366
2846.000000	99.896559
2845.000000	99.910546
2844.000000	99.919838
2843.000000	99.924367
2842.000000	99.926204
2841.000000	99.928286
2840.000000	99.931771
2839.000000	99.935411
2838.000000	99.937751
2837.000000	99.939249
2836.000000	99.941892
2835.000000	99.947138
2834.000000	99.954529
2833.000000	99.962351
2832.000000	99.969665
2831.000000	99.977357
2830.000000	99.986608
2829.000000	99.996500
2828.000000	100.004185
2827.000000	100.007849
2826.000000	100.008681
2825.000000	100.009595
2824.000000	100.012655
2823.000000	100.017969
2822.000000	100.024107
2821.000000	100.029019
2820.000000	100.031672
2819.000000	100.033543
2818.000000	100.037598
2817.000000	100.044768
2816.000000	100.052324
2815.000000	100.056796
2814.000000	100.057663
2813.000000	100.057234
2812.000000	100.057722
2811.000000	100.059639
2810.000000	100.062648
2809.000000	100.066631
2808.000000	100.071588
2807.000000	100.077178
2806.000000	100.082718
2805.000000	100.087478
2804.000000	100.091023
2803.000000	100.093533
2802.000000	100.095790
2801.000000	100.098542
2800.000000	100.101867
2799.000000	100.105382
2798.000000	100.108867
2797.000000	100.112264
2796.000000	100.115268
2795.000000	100.117482
2794.000000	100.119105
2793.000000	100.121019
2792.000000	100.123961
2791.000000	100.127837
2790.000000	100.131938
2789.000000	100.135600
2788.000000	100.138576
2787.000000	100.140980
2786.000000	100.142990
2785.000000	100.144594
2784.000000	100.145690
2783.000000	100.146556
2782.000000	100.147995
2781.000000	100.150607
2780.000000	100.153936
2779.000000	100.156742
2778.000000	100.158399
2777.000000	100.159744
2776.000000	100.162277
2775.000000	100.166724
2774.000000	100.172544
2773.000000	100.178374
2772.000000	100.183010
2771.000000	100.186062
2770.000000	100.187971
2769.000000	100.189481
2768.000000	100.190943
2767.000000	100.192215
2766.000000	100.193213
2765.000000	100.194240
2764.000000	100.195701
2763.000000	100.197749
2762.000000	100.200364
2761.000000	100.203514
2760.000000	100.206974
2759.000000	100.210215
2758.000000	100.212782
2757.000000	100.214734
2756.000000	100.216539
2755.000000	100.218530
2754.000000	100.220716
2753.000000	100.223077
2752.000000	100.225713
2751.000000	100.228612
2750.000000	100.231531
2749.000000	100.234265
2748.000000	100.236857
2747.000000	100.239362
2746.000000	100.241608
2745.000000	100.243450
2744.000000	100.245163
2743.000000	100.247232
2742.000000	100.249714
2741.000000	100.252081
2740.000000	100.253878
2739.000000	100.255242
2738.000000	100.256634
2737.000000	100.258278
2736.000000	100.260151
2735.000000	100.262326
2734.000000	100.264874
2733.000000	100.267476
2732.000000	100.269508
2731.000000	100.270761
2730.000000	100.271731
2729.000000	100.273080
2728.000000	100.274954
2727.000000	100.277059
2726.000000	100.279164
2725.000000	100.281250
2724.000000	100.283319
2723.000000	100.285372
2722.000000	100.287590
2721.000000	100.290209
2720.000000	100.293079
2719.000000	100.295570
2718.000000	100.297138
2717.000000	100.297808
2716.000000	100.298078
2715.000000	100.298505
2714.000000	100.299414
2713.000000	100.300858
2712.000000	100.302657
2711.000000	100.304503
2710.000000	100.306154
2709.000000	100.307509
2708.000000	100.308535
2707.000000	100.309264
2706.000000	100.309882
2705.000000	100.310639
2704.000000	100.311662
2703.000000	100.312974
2702.000000	100.314663
2701.000000	100.316772
2700.000000	100.318990
2699.000000	100.320763
2698.000000	100.321931
2697.000000	100.323006
2696.000000	100.324631
2695.000000	100.326824
2694.000000	100.328937
2693.000000	100.330375
2692.000000	100.331122
2691.000000	100.331590
2690.000000	100.332208
2689.000000	100.333160
2688.000000	100.334421
2687.000000	100.335859
2686.000000	100.337346
2685.000000	100.338814
2684.000000	100.340176
2683.000000	100.341271
2682.000000	100.341990
2681.000000	100.342468
2680.000000	100.343040
2679.000000	100.343946
2678.000000	100.345155
2677.000000	100.346533
2676.000000	100.348057
2675.000000	100.349765
2674.000000	100.351586
2673.000000	100.353313
2672.000000	100.354746
2671.000000	100.355867
2670.000000	100.356914
2669.000000	100.358213
2668.000000	100.359892
2667.000000	100.361777
2666.000000	100.363533
2665.000000	100.364941
2664.000000	100.365974
2663.000000	100.366728
2662.000000	100.367397
2661.000000	100.368236
2660.000000	100.369398
2659.000000	100.370780
2658.000000	100.372145
2657.000000	100.373419
2656.000000	100.374736
2655.000000	100.376112
2654.000000	100.377287
2653.000000	100.378043
2652.000000	100.378533
2651.000000	100.379148
2650.000000	100.380142
2649.000000	100.381554
2648.000000	100.383340
2647.000000	100.385339
2646.000000	100.387125
2645.000000	100.388241
2644.000000	100.388611
2643.000000	100.388595
2642.000000	100.388615
2641.000000	100.388780
2640.000000	100.389014
2639.000000	100.389343
2638.000000	100.389956
2637.000000	100.391044
2636.000000	100.392627
2635.000000	100.394479
2634.000000	100.396157
2633.000000	100.397234
2632.000000	100.397590
2631.000000	100.397432
2630.000000	100.397053
2629.000000	100.396690
2628.000000	100.396608
2627.000000	100.397082
2626.000000	100.398081
2625.000000	100.399076
2624.000000	100.399440
2623.000000	100.399069
2622.000000	100.398552
2621.000000	100.398661
2620.000000	100.399662
2619.000000	100.401105
2618.000000	100.402290
2617.000000	100.402997
2616.000000	100.403595
2615.000000	100.404343
2614.000000	100.404817
2613.000000	100.404376
2612.000000	100.403118
2611.000000	100.401987
2610.000000	100.401792
2609.000000	100.402395
2608.000000	100.403047
2607.000000	100.403215
2606.000000	100.402858
2605.000000	100.402162
2604.000000	100.401356
2603.000000	100.400660
2602.000000	100.400075
2601.000000	100.399296
2600.000000	100.398198
2599.000000	100.397380
2598.000000	100.397784
2597.000000	100.399722
2596.000000	100.402597
2595.000000	100.405593
2594.000000	100.408336
2593.000000	100.410702
2592.000000	100.412289
2591.000000	100.412498
2590.000000	100.411280
2589.000000	100.409655
2588.000000	100.409185
2587.000000	100.410703
2586.000000	100.413563
2585.000000	100.416111
2584.000000	100.417053
2583.000000	100.416282
2582.000000	100.414676
2581.000000	100.413481
2580.000000	100.413669
2579.000000	100.415309
2578.000000	100.417245
2577.000000	100.417873
2576.000000	100.416717
2575.000000	100.414933
2574.000000	100.413983
2573.000000	100.414216
2572.000000	100.415211
2571.000000	100.416929
2570.000000	100.419696
2569.000000	100.423217
2568.000000	100.426620
2567.000000	100.429538
2566.000000	100.432378
2565.000000	100.435400
2564.000000	100.438246
2563.000000	100.440580
2562.000000	100.442467
2561.000000	100.443808
2560.000000	100.444061
2559.000000	100.442907
2558.000000	100.440750
2557.000000	100.438287
2556.000000	100.436014
2555.000000	100.434343
2554.000000	100.433612
2553.000000	100.433597
2552.000000	100.433496
2551.000000	100.432837
2550.000000	100.432103
2549.000000	100.432137
2548.000000	100.433250
2547.000000	100.435210
2546.000000	100.437695
2545.000000	100.440199
2544.000000	100.441865
2543.000000	100.442125
2542.000000	100.441423
2541.000000	100.440913
2540.000000	100.441346
2539.000000	100.442551
2538.000000	100.443889
2537.000000	100.444867
2536.000000	100.445417
2535.000000	100.445911
2534.000000	100.446975
2533.000000	100.448978
2532.000000	100.451551
2531.000000	100.453712
2530.000000	100.454688
2529.000000	100.454664
2528.000000	100.454652
2527.000000	100.455568
2526.000000	100.457384
2525.000000	100.459228
2524.000000	100.460292
2523.000000	100.460539
2522.000000	100.460458
2521.000000	100.460400
2520.000000	100.460329
2519.000000	100.460176
2518.000000	100.460153
2517.000000	100.460596
2516.000000	100.461622
2515.000000	100.463068
2514.000000	100.464689
2513.000000	100.466308
2512.000000	100.467768
2511.000000	100.468894
2510.000000	100.469623
2509.000000	100.470107
2508.000000	100.470604
2507.000000	100.471201
2506.000000	100.471739
2505.000000	100.472103
2504.000000	100.472606
2503.000000	100.473901
2502.000000	100.476389
2501.000000	100.479658
2500.000000	100.482517
2499.000000	100.483989
2498.000000	100.484053
2497.000000	100.483567
2496.000000	100.483477
2495.000000	100.483979
2494.000000	100.484602
2493.000000	100.484902
2492.000000	100.484958
2491.000000	100.485191
2490.000000	100.485766
2489.000000	100.486416
2488.000000	100.486951
2487.000000	100.487701
2486.000000	100.489136
2485.000000	100.491152
2484.000000	100.493039
2483.000000	100.494337
2482.000000	100.495367
2481.000000	100.496716
2480.000000	100.498448
2479.000000	100.500089
2478.000000	100.501264
2477.000000	100.502115
2476.000000	100.503105
2475.000000	100.504535
2474.000000	100.506331
2473.000000	100.508240
2472.000000	100.510142
2471.000000	100.512098
2470.000000	100.514075
2469.000000	100.515808
2468.000000	100.517085
2467.000000	100.518074
2466.000000	100.519134
2465.000000	100.520302
2464.000000	100.521243
2463.000000	100.521790
2462.000000	100.522295
2461.000000	100.523257
2460.000000	100.524755
2459.000000	100.526494
2458.000000	100.528323
2457.000000	100.530378
2456.000000	100.532631
2455.000000	100.534614
2454.000000	100.535846
2453.000000	100.536420
2452.000000	100.536966
2451.000000	100.537893
2450.000000	100.538861
2449.000000	100.539269
2448.000000	100.539078
2447.000000	100.538977
2446.000000	100.539699
2445.000000	100.541328
2444.000000	100.543300
2443.000000	100.544869
2442.000000	100.545683
2441.000000	100.545878
2440.000000	100.545923
2439.000000	100.546378
2438.000000	100.547571
2437.000000	100.549358
2436.000000	100.551190
2435.000000	100.552666
2434.000000	100.553969
2433.000000	100.555555
2432.000000	100.557463
2431.000000	100.559158
2430.000000	100.560162
2429.000000	100.560626
2428.000000	100.561119
2427.000000	100.561896
2426.000000	100.562625
2425.000000	100.562941
2424.000000	100.563101
2423.000000	100.563838
2422.000000	100.565544
2421.000000	100.567833
2420.000000	100.569941
2419.000000	100.571554
2418.000000	100.572946
2417.000000	100.574396
2416.000000	100.575830
2415.000000	100.577103
2414.000000	100.578318
2413.000000	100.579625
2412.000000	100.580900
2411.000000	100.581938
2410.000000	100.582918
2409.000000	100.584365
2408.000000	100.586544
2407.000000	100.589046
2406.000000	100.591098
2405.000000	100.592305
2404.000000	100.592913
2403.000000	100.593436
2402.000000	100.594144
2401.000000	100.594963
2400.000000	100.595792
2399.000000	100.596725
2398.000000	100.597849
2397.000000	100.598937
2396.000000	100.599579
2395.000000	100.599674
2394.000000	100.599574
2393.000000	100.599750
2392.000000	100.600348
2391.000000	100.601181
2390.000000	100.602005
2389.000000	100.602698
2388.000000	100.603239
2387.000000	100.603657
2386.000000	100.604018
2385.000000	100.604402
2384.000000	100.604845
2383.000000	100.605323
2382.000000	100.605785
2381.000000	100.606193
2380.000000	100.606522
2379.000000	100.606779
2378.000000	100.606996
2377.000000	100.607168
2376.000000	100.607293
2375.000000	100.607385
2374.000000	100.607460
2373.000000	100.607524
2372.000000	100.607581
2371.000000	100.607629
2370.000000	100.607672
2369.000000	100.607714
2368.000000	100.607763
2367.000000	100.607825
2366.000000	100.607892
2365.000000	100.607957
2364.000000	100.608011
2363.000000	100.608055
2362.000000	100.608090
2361.000000	100.608116
2360.000000	100.608130
2359.000000	100.608129
2358.000000	100.608109
2357.000000	100.608065
2356.000000	100.608001
2355.000000	100.607926
2354.000000	100.607845
2353.000000	100.607771
2352.000000	100.607704
2351.000000	100.607603
2350.000000	100.607440
2349.000000	100.607250
2348.000000	100.607089
2347.000000	100.606952
2346.000000	100.606759
2345.000000	100.606466
2344.000000	100.606116
2343.000000	100.605744
2342.000000	100.605388
2341.000000	100.605204
2340.000000	100.605413
2339.000000	100.605902
2338.000000	100.606076
2337.000000	100.605289
2336.000000	100.603399
2335.000000	100.601141
2334.000000	100.599696
2333.000000	100.599741
2332.000000	100.601071
2331.000000	100.602878
2330.000000	100.604543
2329.000000	100.605897
2328.000000	100.606794
2327.000000	100.607177
2326.000000	100.607165
2325.000000	100.606880
2324.000000	100.605935
2323.000000	100.603744
2322.000000	100.600513
2321.000000	100.597454
2320.000000	100.595696
2319.000000	100.595068
2318.000000	100.594421
2317.000000	100.592997
2316.000000	100.591225
2315.000000	100.590094
2314.000000	100.589991
2313.000000	100.590472
2312.000000	100.590844
2311.000000	100.590929
2310.000000	100.590934
2309.000000	100.590946
2308.000000	100.590497
2307.000000	100.588961
2306.000000	100.586359
2305.000000	100.583881
2304.000000	100.583107
2303.000000	100.584584
2302.000000	100.587186
2301.000000	100.589231
2300.000000	100.590169
2299.000000	100.590795
2298.000000	100.591806
2297.000000	100.592924
2296.000000	100.593582
2295.000000	100.593931
2294.000000	100.594320
2293.000000	100.594438
2292.000000	100.593691
2291.000000	100.592454
2290.000000	100.591923
2289.000000	100.592522
2288.000000	100.593415
2287.000000	100.593834
2286.000000	100.593945
2285.000000	100.593974
2284.000000	100.593337
2283.000000	100.591419
2282.000000	100.588739
2281.000000	100.586693
2280.000000	100.586093
2279.000000	100.586447
2278.000000	100.586704
2277.000000	100.586327
2276.000000	100.585523
2275.000000	100.584772
2274.000000	100.584456
2273.000000	100.584638
2272.000000	100.584884
2271.000000	100.584494
2270.000000	100.583168
2269.000000	100.581360
2268.000000	100.579876
2267.000000	100.579084
2266.000000	100.578785
2265.000000	100.578683
2264.000000	100.578663
2263.000000	100.578615
2262.000000	100.578364
2261.000000	100.577934
2260.000000	100.577594
2259.000000	100.577423
2258.000000	100.577026
2257.000000	100.575983
2256.000000	100.574500
2255.000000	100.573328
2254.000000	100.572980
2253.000000	100.573252
2252.000000	100.573472
2251.000000	100.573096
2250.000000	100.571995
2249.000000	100.570433
2248.000000	100.568893
2247.000000	100.567723
2246.000000	100.566807
2245.000000	100.565690
2244.000000	100.564146
2243.000000	100.562470
2242.000000	100.561133
2241.000000	100.560386
2240.000000	100.560321
2239.000000	100.560955
2238.000000	100.561999
2237.000000	100.562742
2236.000000	100.562658
2235.000000	100.561951
2234.000000	100.561266
2233.000000	100.560982
2232.000000	100.561035
2231.000000	100.561230
2230.000000	100.561385
2229.000000	100.561242
2228.000000	100.560642
2227.000000	100.559844
2226.000000	100.559323
2225.000000	100.559181
2224.000000	100.559075
2223.000000	100.558774
2222.000000	100.558531
2221.000000	100.558705
2220.000000	100.559274
2219.000000	100.559891
2218.000000	100.560265
2217.000000	100.560341
2216.000000	100.560223
2215.000000	100.560053
2214.000000	100.559918
2213.000000	100.559750
2212.000000	100.559392
2211.000000	100.558827
2210.000000	100.558270
2209.000000	100.557968
2208.000000	100.557998
2207.000000	100.558282
2206.000000	100.558676
2205.000000	100.559015
2204.000000	100.559165
2203.000000	100.559134
2202.000000	100.559053
2201.000000	100.559050
2200.000000	100.559123
2199.000000	100.559198
2198.000000	100.559233
2197.000000	100.559247
2196.000000	100.559284
2195.000000	100.559369
2194.000000	100.559493
2193.000000	100.559617
2192.000000	100.559711
2191.000000	100.559769
2190.000000	100.559805
2189.000000	100.559849
2188.000000	100.559931
2187.000000	100.560055
2186.000000	100.560201
2185.000000	100.560338
2184.000000	100.560472
2183.000000	100.560638
2182.000000	100.560858
2181.000000	100.561112
2180.000000	100.561357
2179.000000	100.561573
2178.000000	100.561779
2177.000000	100.562008
2176.000000	100.562295
2175.000000	100.562680
2174.000000	100.563199
2173.000000	100.563848
2172.000000	100.564562
2171.000000	100.565257
2170.000000	100.565880
2169.000000	100.566386
2168.000000	100.566722
2167.000000	100.566900
2166.000000	100.567090
2165.000000	100.567528
2164.000000	100.568291
2163.000000	100.569213
2162.000000	100.570068
2161.000000	100.570727
2160.000000	100.571140
2159.000000	100.571348
2158.000000	100.571595
2157.000000	100.572249
2156.000000	100.573447
2155.000000	100.574934
2154.000000	100.576296
2153.000000	100.577352
2152.000000	100.578138
2151.000000	100.578688
2150.000000	100.579000
2149.000000	100.579241
2148.000000	100.579726
2147.000000	100.580629
2146.000000	100.581826
2145.000000	100.582993
2144.000000	100.583843
2143.000000	100.584343
2142.000000	100.584844
2141.000000	100.585889
2140.000000	100.587711
2139.000000	100.589988
2138.000000	100.592197
2137.000000	100.594135
2136.000000	100.595809
2135.000000	100.597072
2134.000000	100.597821
2133.000000	100.598475
2132.000000	100.599674
2131.000000	100.601323
2130.000000	100.602475
2129.000000	100.602433
2128.000000	100.601546
2127.000000	100.600793
2126.000000	100.600871
2125.000000	100.601979
2124.000000	100.603999
2123.000000	100.606367
2122.000000	100.608107
2121.000000	100.608648
2120.000000	100.608518
2119.000000	100.608841
2118.000000	100.610180
2117.000000	100.612330
2116.000000	100.615020
2115.000000	100.618177
2114.000000	100.621457
2113.000000	100.624147
2112.000000	100.625797
2111.000000	100.626462
2110.000000	100.626241
2109.000000	100.625162
2108.000000	100.623805
2107.000000	100.623349
2106.000000	100.624435
2105.000000	100.626330
2104.000000	100.627716
2103.000000	100.628221
2102.000000	100.628579
2101.000000	100.629398
2100.000000	100.630551
2099.000000	100.631895
2098.000000	100.633890
2097.000000	100.637042
2096.000000	100.641164
2095.000000	100.645492
2094.000000	100.649242
2093.000000	100.651849
2092.000000	100.653030
2091.000000	100.653124
2090.000000	100.653126
2089.000000	100.653751
2088.000000	100.654541
2087.000000	100.654562
2086.000000	100.653997
2085.000000	100.654242
2084.000000	100.656065
2083.000000	100.658471
2082.000000	100.659978
2081.000000	100.660545
2080.000000	100.661349
2079.000000	100.662950
2078.000000	100.664682
2077.000000	100.665947
2076.000000	100.667123
2075.000000	100.668725
2074.000000	100.670350
2073.000000	100.671116
2072.000000	100.670911
2071.000000	100.670692
2070.000000	100.671558
2069.000000	100.673772
2068.000000	100.676604
2067.000000	100.678974
2066.000000	100.680305
2065.000000	100.680799
2064.000000	100.680841
2063.000000	100.680357
2062.000000	100.679122
2061.000000	100.677513
2060.000000	100.676429
2059.000000	100.676398
2058.000000	100.677287
2057.000000	100.678938
2056.000000	100.681473
2055.000000	100.684739
2054.000000	100.688070
2053.000000	100.690917
2052.000000	100.693115
2051.000000	100.694189
2050.000000	100.693296
2049.000000	100.690524
2048.000000	100.687560
2047.000000	100.686073
2046.000000	100.685825
2045.000000	100.685399
2044.000000	100.684444
2043.000000	100.684134
2042.000000	100.685312
2041.000000	100.687068
2040.000000	100.687676
2039.000000	100.686451
2038.000000	100.684275
2037.000000	100.682585
2036.000000	100.682081
2035.000000	100.682251
2034.000000	100.681979
2033.000000	100.680641
2032.000000	100.678681
2031.000000	100.677163
2030.000000	100.676895
2029.000000	100.677995
2028.000000	100.679920
2027.000000	100.681728
2026.000000	100.682719
2025.000000	100.683102
2024.000000	100.683831
2023.000000	100.685414
2022.000000	100.687074
2021.000000	100.687513
2020.000000	100.686305
2019.000000	100.684118
2018.000000	100.681863
2017.000000	100.679974
2016.000000	100.678515
2015.000000	100.677503
2014.000000	100.676933
2013.000000	100.676729
2012.000000	100.676779
2011.000000	100.676923
2010.000000	100.676923
2009.000000	100.676600
2008.000000	100.676025
2007.000000	100.675442
2006.000000	100.675011
2005.000000	100.674711
2004.000000	100.674489
2003.000000	100.674367
2002.000000	100.674323
2001.000000	100.674179
2000.000000	100.673734
1999.000000	100.673020
1998.000000	100.672344
1997.000000	100.672021
1996.000000	100.672084
1995.000000	100.672309
1994.000000	100.672444
1993.000000	100.672446
1992.000000	100.672428
1991.000000	100.672450
1990.000000	100.672457
1989.000000	100.672387
1988.000000	100.672265
1987.000000	100.672196
1986.000000	100.672265
1985.000000	100.672482
1984.000000	100.672767
1983.000000	100.672990
1982.000000	100.673069
1981.000000	100.673016
1980.000000	100.672954
1979.000000	100.672995
1978.000000	100.673114
1977.000000	100.673181
1976.000000	100.673165
1975.000000	100.673266
1974.000000	100.673719
1973.000000	100.674501
1972.000000	100.675316
1971.000000	100.675933
1970.000000	100.676382
1969.000000	100.676805
1968.000000	100.677243
1967.000000	100.677640
1966.000000	100.677946
1965.000000	100.678131
1964.000000	100.678160
1963.000000	100.678096
1962.000000	100.678180
1961.000000	100.678692
1960.000000	100.679647
1959.000000	100.680694
1958.000000	100.681417
1957.000000	100.681644
1956.000000	100.681328
1955.000000	100.680303
1954.000000	100.678634
1953.000000	100.677234
1952.000000	100.677475
1951.000000	100.679854
1950.000000	100.683408
1949.000000	100.686666
1948.000000	100.688799
1947.000000	100.689611
1946.000000	100.689116
1945.000000	100.687746
1944.000000	100.686453
1943.000000	100.685794
1942.000000	100.685216
1941.000000	100.684004
1940.000000	100.682457
1939.000000	100.681219
1938.000000	100.680106
1937.000000	100.678644
1936.000000	100.677485
1935.000000	100.678007
1934.000000	100.680226
1933.000000	100.682158
1932.000000	100.681636
1931.000000	100.678134
1930.000000	100.672792
1929.000000	100.667362
1928.000000	100.663234
1927.000000	100.660895
1926.000000	100.659989
1925.000000	100.660120
1924.000000	100.661333
1923.000000	100.663257
1922.000000	100.664203
1921.000000	100.662415
1920.000000	100.658040
1919.000000	100.652908
1918.000000	100.648251
1917.000000	100.643575
1916.000000	100.638519
1915.000000	100.634229
1914.000000	100.631634
1913.000000	100.629556
1912.000000	100.625886
1911.000000	100.620464
1910.000000	100.615449
1909.000000	100.612494
1908.000000	100.610991
1907.000000	100.609630
1906.000000	100.608154
1905.000000	100.606743
1904.000000	100.604667
1903.000000	100.600673
1902.000000	100.594358
1901.000000	100.586617
1900.000000	100.579095
1899.000000	100.573288
1898.000000	100.569721
1897.000000	100.567976
1896.000000	100.567713
1895.000000	100.569279
1894.000000	100.572375
1893.000000	100.574625
1892.000000	100.573359
1891.000000	100.568984
1890.000000	100.565144
1889.000000	100.564536
1888.000000	100.565742
1887.000000	100.565795
1886.000000	100.563986
1885.000000	100.561626
1884.000000	100.559695
1883.000000	100.558137
1882.000000	100.556645
1881.000000	100.554586
1880.000000	100.550875
1879.000000	100.545401
1878.000000	100.540155
1877.000000	100.537633
1876.000000	100.538292
1875.000000	100.540554
1874.000000	100.542954
1873.000000	100.544990
1872.000000	100.546166
1871.000000	100.546024
1870.000000	100.545610
1869.000000	100.547431
1868.000000	100.552534
1867.000000	100.558940
1866.000000	100.564027
1865.000000	100.566882
1864.000000	100.568250
1863.000000	100.569475
1862.000000	100.571781
1861.000000	100.575800
1860.000000	100.581117
1859.000000	100.586409
1858.000000	100.590366
1857.000000	100.592564
1856.000000	100.593832
1855.000000	100.595923
1854.000000	100.600138
1853.000000	100.605688
1852.000000	100.609966
1851.000000	100.611283
1850.000000	100.610996
1849.000000	100.612485
1848.000000	100.617823
1847.000000	100.626033
1846.000000	100.634564
1845.000000	100.641429
1844.000000	100.646214
1843.000000	100.650057
1842.000000	100.654248
1841.000000	100.658781
1840.000000	100.662823
1839.000000	100.665385
1838.000000	100.665704
1837.000000	100.664214
1836.000000	100.662706
1835.000000	100.662552
1834.000000	100.662945
1833.000000	100.661947
1832.000000	100.659335
1831.000000	100.657367
1830.000000	100.658183
1829.000000	100.661239
1828.000000	100.664786
1827.000000	100.668348
1826.000000	100.671954
1825.000000	100.674265
1824.000000	100.673495
1823.000000	100.670309
1822.000000	100.667708
1821.000000	100.668003
1820.000000	100.671010
1819.000000	100.674886
1818.000000	100.677994
1817.000000	100.679398
1816.000000	100.678264
1815.000000	100.674405
1814.000000	100.669367
1813.000000	100.665843
1812.000000	100.665384
1811.000000	100.667035
1810.000000	100.668799
1809.000000	100.669724
1808.000000	100.669791
1807.000000	100.669081
1806.000000	100.667945
1805.000000	100.667040
1804.000000	100.666520
1803.000000	100.665852
1802.000000	100.664855
1801.000000	100.664290
1800.000000	100.664641
1799.000000	100.664967
1798.000000	100.664249
1797.000000	100.662946
1796.000000	100.662364
1795.000000	100.663144
1794.000000	100.664797
1793.000000	100.666217
1792.000000	100.666566
1791.000000	100.666026
1790.000000	100.665611
1789.000000	100.666093
1788.000000	100.667593
1787.000000	100.669846
1786.000000	100.672276
1785.000000	100.673938
1784.000000	100.673986
1783.000000	100.672808
1782.000000	100.672288
1781.000000	100.674280
1780.000000	100.678463
1779.000000	100.682265
1778.000000	100.683902
1777.000000	100.684020
1776.000000	100.684015
1775.000000	100.683901
1774.000000	100.682571
1773.000000	100.680007
1772.000000	100.678604
1771.000000	100.680674
1770.000000	100.685554
1769.000000	100.691010
1768.000000	100.694995
1767.000000	100.695621
1766.000000	100.692258
1765.000000	100.686957
1764.000000	100.683770
1763.000000	100.685728
1762.000000	100.691020
1761.000000	100.693956
1760.000000	100.691412
1759.000000	100.684654
1758.000000	100.676685
1757.000000	100.670423
1756.000000	100.667590
1755.000000	100.667292
1754.000000	100.666889
1753.000000	100.665238
1752.000000	100.663968
1751.000000	100.664525
1750.000000	100.664906
1749.000000	100.662582
1748.000000	100.658802
1747.000000	100.656688
1746.000000	100.656846
1745.000000	100.657661
1744.000000	100.658343
1743.000000	100.658735
1742.000000	100.657395
1741.000000	100.652880
1740.000000	100.646504
1739.000000	100.640808
1738.000000	100.635185
1737.000000	100.626889
1736.000000	100.616453
1735.000000	100.608604
1734.000000	100.604692
1733.000000	100.599307
1732.000000	100.591103
1731.000000	100.583581
1730.000000	100.578851
1729.000000	100.575245
1728.000000	100.569337
1727.000000	100.559741
1726.000000	100.547560
1725.000000	100.534715
1724.000000	100.523162
1723.000000	100.514075
1722.000000	100.506873
1721.000000	100.500000
1720.000000	100.493395
1719.000000	100.488785
1718.000000	100.485345
1717.000000	100.478534
1716.000000	100.466587
1715.000000	100.452347
1714.000000	100.438786
1713.000000	100.427102
1712.000000	100.417349
1711.000000	100.409421
1710.000000	100.402679
1709.000000	100.395605
1708.000000	100.386778
1707.000000	100.375481
1706.000000	100.361569
1705.000000	100.346160
1704.000000	100.331532
1703.000000	100.318754
1702.000000	100.307309
1701.000000	100.294309
1700.000000	100.275514
1699.000000	100.253376
1698.000000	100.233142
1697.000000	100.213456
1696.000000	100.191371
1695.000000	100.167750
1694.000000	100.147028
1693.000000	100.130275
1692.000000	100.115125
1691.000000	100.099968
1690.000000	100.083221
1689.000000	100.062969
1688.000000	100.039660
1687.000000	100.016188
1686.000000	99.995005
1685.000000	99.974483
1684.000000	99.950447
1683.000000	99.926861
1682.000000	99.910383
1681.000000	99.897917
1680.000000	99.883959
1679.000000	99.866273
1678.000000	99.845653
1677.000000	99.824073
1676.000000	99.803786
1675.000000	99.786254
1674.000000	99.770997
1673.000000	99.756915
1672.000000	99.743701
1671.000000	99.731227
1670.000000	99.716957
1669.000000	99.696632
1668.000000	99.671315
1667.000000	99.646815
1666.000000	99.626218
1665.000000	99.609308
1664.000000	99.594626
1663.000000	99.579034
1662.000000	99.559033
1661.000000	99.535252
1660.000000	99.512311
1659.000000	99.493947
1658.000000	99.479639
1657.000000	99.465573
1656.000000	99.449395
1655.000000	99.435213
1654.000000	99.429626
1653.000000	99.428380
1652.000000	99.423736
1651.000000	99.422596
1650.000000	99.423903
1649.000000	99.421439
1648.000000	99.412271
1647.000000	99.397234
1646.000000	99.378808
1645.000000	99.360336
1644.000000	99.344189
1643.000000	99.331803
1642.000000	99.325128
1641.000000	99.325544
1640.000000	99.331850
1639.000000	99.340578
1638.000000	99.348419
1637.000000	99.353705
1636.000000	99.356010
1635.000000	99.357134
1634.000000	99.359532
1633.000000	99.361975
1632.000000	99.361388
1631.000000	99.358083
1630.000000	99.355585
1629.000000	99.356934
1628.000000	99.362069
1627.000000	99.368838
1626.000000	99.375464
1625.000000	99.382041
1624.000000	99.390432
1623.000000	99.401819
1622.000000	99.413873
1621.000000	99.422556
1620.000000	99.426909
1619.000000	99.431303
1618.000000	99.443983
1617.000000	99.468930
1616.000000	99.497605
1615.000000	99.518933
1614.000000	99.531304
1613.000000	99.538651
1612.000000	99.545647
1611.000000	99.555423
1610.000000	99.568051
1609.000000	99.581175
1608.000000	99.592591
1607.000000	99.601450
1606.000000	99.607708
1605.000000	99.612230
1604.000000	99.617293
1603.000000	99.624906
1602.000000	99.634285
1601.000000	99.642887
1600.000000	99.650324
1599.000000	99.659097
1598.000000	99.670981
1597.000000	99.684765
1596.000000	99.698319
1595.000000	99.711201
1594.000000	99.724134
1593.000000	99.736912
1592.000000	99.748267
1591.000000	99.757198
1590.000000	99.763580
1589.000000	99.768037
1588.000000	99.771954
1587.000000	99.777003
1586.000000	99.783878
1585.000000	99.791844
1584.000000	99.800007
1583.000000	99.808231
1582.000000	99.816294
1581.000000	99.823256
1580.000000	99.828751
1579.000000	99.834402
1578.000000	99.843024
1577.000000	99.855101
1576.000000	99.865749
1575.000000	99.870756
1574.000000	99.872944
1573.000000	99.876461
1572.000000	99.883333
1571.000000	99.894067
1570.000000	99.906188
1569.000000	99.914868
1568.000000	99.918806
1567.000000	99.920794
1566.000000	99.923092
1565.000000	99.926263
1564.000000	99.930061
1563.000000	99.933981
1562.000000	99.937627
1561.000000	99.941904
1560.000000	99.949128
1559.000000	99.959348
1558.000000	99.968505
1557.000000	99.975709
1556.000000	99.981582
1555.000000	99.985881
1554.000000	99.989125
1553.000000	99.992382
1552.000000	99.996327
1551.000000	100.000761
1550.000000	100.005131
1549.000000	100.009214
1548.000000	100.013463
1547.000000	100.018204
1546.000000	100.022962
1545.000000	100.027359
1544.000000	100.032748
1543.000000	100.042090
1542.000000	100.057339
1541.000000	100.076816
1540.000000	100.094075
1539.000000	100.105082
1538.000000	100.113687
1537.000000	100.122726
1536.000000	100.131294
1535.000000	100.138821
1534.000000	100.145583
1533.000000	100.151392
1532.000000	100.156603
1531.000000	100.162347
1530.000000	100.168965
1529.000000	100.175835
1528.000000	100.182744
1527.000000	100.191507
1526.000000	100.204289
1525.000000	100.219949
1524.000000	100.234502
1523.000000	100.245202
1522.000000	100.251873
1521.000000	100.255630
1520.000000	100.258723
1519.000000	100.263928
1518.000000	100.272650
1517.000000	100.284514
1516.000000	100.296798
1515.000000	100.307198
1514.000000	100.316387
1513.000000	100.325978
1512.000000	100.336088
1511.000000	100.344900
1510.000000	100.351267
1509.000000	100.357693
1508.000000	100.370319
1507.000000	100.390297
1506.000000	100.406228
1505.000000	100.412623
1504.000000	100.416228
1503.000000	100.421719
1502.000000	100.430132
1501.000000	100.440488
1500.000000	100.450775
1499.000000	100.460324
1498.000000	100.470546
1497.000000	100.481413
1496.000000	100.489162
1495.000000	100.491679
1494.000000	100.492580
1493.000000	100.496885
1492.000000	100.506853
1491.000000	100.519839
1490.000000	100.528618
1489.000000	100.529073
1488.000000	100.525454
1487.000000	100.523572
1486.000000	100.524663
1485.000000	100.526408
1484.000000	100.527633
1483.000000	100.530271
1482.000000	100.535654
1481.000000	100.541177
1480.000000	100.542810
1479.000000	100.539931
1478.000000	100.534690
1477.000000	100.527949
1476.000000	100.517954
1475.000000	100.503655
1474.000000	100.488511
1473.000000	100.478629
1472.000000	100.475915
1471.000000	100.474857
1470.000000	100.469759
1469.000000	100.460013
1468.000000	100.449342
1467.000000	100.442249
1466.000000	100.439760
1465.000000	100.437705
1464.000000	100.431808
1463.000000	100.423772
1462.000000	100.417203
1461.000000	100.411820
1460.000000	100.404317
1459.000000	100.392996
1458.000000	100.381063
1457.000000	100.375159
1456.000000	100.377842
1455.000000	100.384741
1454.000000	100.390295
1453.000000	100.392371
1452.000000	100.392266
1451.000000	100.392181
1450.000000	100.392762
1449.000000	100.392923
1448.000000	100.391664
1447.000000	100.389353
1446.000000	100.386661
1445.000000	100.382909
1444.000000	100.377129
1443.000000	100.370457
1442.000000	100.365788
1441.000000	100.364224
1440.000000	100.363446
1439.000000	100.360315
1438.000000	100.353899
1437.000000	100.346299
1436.000000	100.341047
1435.000000	100.339596
1434.000000	100.340152
1433.000000	100.340345
1432.000000	100.339277
1431.000000	100.337839
1430.000000	100.337467
1429.000000	100.338359
1428.000000	100.339375
1427.000000	100.339758
1426.000000	100.339966
1425.000000	100.340164
1424.000000	100.338903
1423.000000	100.334383
1422.000000	100.326986
1421.000000	100.320060
1420.000000	100.318561
1419.000000	100.324990
1418.000000	100.335211
1417.000000	100.342922
1416.000000	100.345876
1415.000000	100.345375
1414.000000	100.344004
1413.000000	100.343523
1412.000000	100.344177
1411.000000	100.346017
1410.000000	100.349991
1409.000000	100.356870
1408.000000	100.365259
1407.000000	100.371819
1406.000000	100.374412
1405.000000	100.374321
1404.000000	100.374797
1403.000000	100.377637
1402.000000	100.382565
1401.000000	100.389192
1400.000000	100.397214
1399.000000	100.405165
1398.000000	100.411106
1397.000000	100.414777
1396.000000	100.417395
1395.000000	100.420410
1394.000000	100.425182
1393.000000	100.432608
1392.000000	100.442130
1391.000000	100.451282
1390.000000	100.457626
1389.000000	100.461159
1388.000000	100.464341
1387.000000	100.469137
1386.000000	100.474369
1385.000000	100.477250
1384.000000	100.476560
1383.000000	100.473620
1382.000000	100.471132
1381.000000	100.471193
1380.000000	100.474247
1379.000000	100.479768
1378.000000	100.487045
1377.000000	100.494919
1376.000000	100.501604
1375.000000	100.506051
1374.000000	100.509605
1373.000000	100.514793
1372.000000	100.522165
1371.000000	100.530108
1370.000000	100.537734
1369.000000	100.545978
1368.000000	100.555851
1367.000000	100.566555
1366.000000	100.576351
1365.000000	100.584440
1364.000000	100.590885
1363.000000	100.595869
1362.000000	100.600290
1361.000000	100.605645
1360.000000	100.611768
1359.000000	100.616224
1358.000000	100.617381
1357.000000	100.617160
1356.000000	100.619458
1355.000000	100.625772
1354.000000	100.633930
1353.000000	100.641499
1352.000000	100.648382
1351.000000	100.655163
1350.000000	100.660825
1349.000000	100.663300
1348.000000	100.662430
1347.000000	100.660761
1346.000000	100.660939
1345.000000	100.662877
1344.000000	100.664270
1343.000000	100.663544
1342.000000	100.661739
1341.000000	100.661488
1340.000000	100.664462
1339.000000	100.669957
1338.000000	100.676023
1337.000000	100.681503
1336.000000	100.686427
1335.000000	100.690984
1334.000000	100.694920
1333.000000	100.697620
1332.000000	100.698108
1331.000000	100.695187
1330.000000	100.688653
1329.000000	100.680990
1328.000000	100.677068
1327.000000	100.680461
1326.000000	100.689372
1325.000000	100.697157
1324.000000	100.698577
1323.000000	100.694726
1322.000000	100.690921
1321.000000	100.690283
1320.000000	100.691108
1319.000000	100.690550
1318.000000	100.688582
1317.000000	100.687020
1316.000000	100.686432
1315.000000	100.686078
1314.000000	100.685927
1313.000000	100.686755
1312.000000	100.688395
1311.000000	100.689578
1310.000000	100.689780
1309.000000	100.689917
1308.000000	100.690772
1307.000000	100.691785
1306.000000	100.692072
1305.000000	100.691725
1304.000000	100.691441
1303.000000	100.691165
1302.000000	100.690010
1301.000000	100.687583
1300.000000	100.684983
1299.000000	100.684192
1298.000000	100.686438
1297.000000	100.691102
1296.000000	100.696124
1295.000000	100.699484
1294.000000	100.700385
1293.000000	100.699298
1292.000000	100.697224
1291.000000	100.695068
1290.000000	100.693328
1289.000000	100.691888
1288.000000	100.690125
1287.000000	100.687452
1286.000000	100.683896
1285.000000	100.680328
1284.000000	100.678110
1283.000000	100.677961
1282.000000	100.678718
1281.000000	100.677559
1280.000000	100.672224
1279.000000	100.663382
1278.000000	100.654685
1277.000000	100.650344
1276.000000	100.652467
1275.000000	100.659960
1274.000000	100.669099
1273.000000	100.675639
1272.000000	100.677507
1271.000000	100.675787
1270.000000	100.672702
1269.000000	100.668919
1268.000000	100.663982
1267.000000	100.658906
1266.000000	100.656074
1265.000000	100.655627
1264.000000	100.653725
1263.000000	100.646096
1262.000000	100.632693
1261.000000	100.617732
1260.000000	100.605809
1259.000000	100.599074
1258.000000	100.597151
1257.000000	100.597681
1256.000000	100.596720
1255.000000	100.590674
1254.000000	100.579479
1253.000000	100.567398
1252.000000	100.559401
1251.000000	100.556229
1250.000000	100.553144
1249.000000	100.544037
1248.000000	100.527288
1247.000000	100.507757
1246.000000	100.492514
1245.000000	100.484128
1244.000000	100.478604
1243.000000	100.470089
1242.000000	100.456699
1241.000000	100.440934
1240.000000	100.425520
1239.000000	100.410939
1238.000000	100.396950
1237.000000	100.384129
1236.000000	100.372499
1235.000000	100.360247
1234.000000	100.345800
1233.000000	100.330429
1232.000000	100.316763
1231.000000	100.304866
1230.000000	100.291683
1229.000000	100.274495
1228.000000	100.252965
1227.000000	100.227581
1226.000000	100.198542
1225.000000	100.167263
1224.000000	100.136645
1223.000000	100.107843
1222.000000	100.078193
1221.000000	100.044501
1220.000000	100.007194
1219.000000	99.969008
1218.000000	99.930553
1217.000000	99.890098
1216.000000	99.847343
1215.000000	99.803874
1214.000000	99.759090
1213.000000	99.709008
1212.000000	99.651274
1211.000000	99.589452
1210.000000	99.530043
1209.000000	99.476021
1208.000000	99.424840
1207.000000	99.371885
1206.000000	99.314534
1205.000000	99.253423
1204.000000	99.190577
1203.000000	99.126066
1202.000000	99.056916
1201.000000	98.980544
1200.000000	98.899174
1199.000000	98.819424
1198.000000	98.746758
1197.000000	98.681041
1196.000000	98.617571
1195.000000	98.551295
1194.000000	98.480123
1193.000000	98.405255
1192.000000	98.328518
1191.000000	98.249366
1190.000000	98.165620
1189.000000	98.077554
1188.000000	97.988994
1187.000000	97.902977
1186.000000	97.818737
1185.000000	97.735074
1184.000000	97.653455
1183.000000	97.574031
1182.000000	97.491383
1181.000000	97.399265
1180.000000	97.298132
1179.000000	97.193180
1178.000000	97.086153
1177.000000	96.974211
1176.000000	96.856148
1175.000000	96.734485
1174.000000	96.611717
1173.000000	96.489400
1172.000000	96.370027
1171.000000	96.253885
1170.000000	96.135051
1169.000000	96.007854
1168.000000	95.877667
1167.000000	95.757887
1166.000000	95.655675
1165.000000	95.569018
1164.000000	95.499432
1163.000000	95.457930
1162.000000	95.452928
1161.000000	95.477808
1160.000000	95.513930
1159.000000	95.541913
1158.000000	95.548308
1157.000000	95.526965
1156.000000	95.478892
1155.000000	95.409885
1154.000000	95.326573
1153.000000	95.234858
1152.000000	95.139870
1151.000000	95.043378
1150.000000	94.942489
1149.000000	94.835743
1148.000000	94.728846
1147.000000	94.628366
1146.000000	94.531432
1145.000000	94.429357
1144.000000	94.320762
1143.000000	94.212919
1142.000000	94.110044
1141.000000	94.008896
1140.000000	93.906954
1139.000000	93.806012
1138.000000	93.705802
1137.000000	93.602669
1136.000000	93.496983
1135.000000	93.393887
1134.000000	93.294452
1133.000000	93.193842
1132.000000	93.090225
1131.000000	92.987267
1130.000000	92.885619
1129.000000	92.780174
1128.000000	92.668200
1127.000000	92.552352
1126.000000	92.433720
1125.000000	92.310192
1124.000000	92.183630
1123.000000	92.059867
1122.000000	91.939316
1121.000000	91.816483
1120.000000	91.690893
1119.000000	91.568747
1118.000000	91.451333
1117.000000	91.332447
1116.000000	91.210528
1115.000000	91.093447
1114.000000	90.987895
1113.000000	90.893034
1112.000000	90.806205
1111.000000	90.724520
1110.000000	90.639914
1109.000000	90.544612
1108.000000	90.443559
1107.000000	90.349908
1106.000000	90.266762
1105.000000	90.184789
1104.000000	90.098343
1103.000000	90.011063
1102.000000	89.924902
1101.000000	89.837595
1100.000000	89.752235
1099.000000	89.674530
1098.000000	89.599570
1097.000000	89.516107
1096.000000	89.425760
1095.000000	89.342032
1094.000000	89.268157
1093.000000	89.192747
1092.000000	89.110741
1091.000000	89.031499
1090.000000	88.961339
1089.000000	88.894496
1088.000000	88.826714
1087.000000	88.761847
1086.000000	88.699456
1085.000000	88.631306
1084.000000	88.555975
1083.000000	88.482638
1082.000000	88.415718
1081.000000	88.350193
1080.000000	88.285632
1079.000000	88.228344
1078.000000	88.174810
1077.000000	88.110218
1076.000000	88.030048
1075.000000	87.946878
1074.000000	87.868282
1073.000000	87.782441
1072.000000	87.673300
1071.000000	87.536886
1070.000000	87.377363
1069.000000	87.199716
1068.000000	87.011332
1067.000000	86.818485
1066.000000	86.616791
1065.000000	86.396997
1064.000000	86.161873
1063.000000	85.923409
1062.000000	85.682583
1061.000000	85.429398
1060.000000	85.165520
1059.000000	84.908129
1058.000000	84.666996
1057.000000	84.435781
1056.000000	84.209375
1055.000000	83.989113
1054.000000	83.766076
1053.000000	83.522002
1052.000000	83.256425
1051.000000	82.991924
1050.000000	82.741613
1049.000000	82.493747
1048.000000	82.238497
1047.000000	81.984206
1046.000000	81.736924
1045.000000	81.488708
1044.000000	81.236179
1043.000000	80.988949
1042.000000	80.750466
1041.000000	80.510548
1040.000000	80.266369
1039.000000	80.031502
1038.000000	79.813995
1037.000000	79.603749
1036.000000	79.391203
1035.000000	79.181380
1034.000000	78.981457
1033.000000	78.792350
1032.000000	78.620263
1031.000000	78.478426
1030.000000	78.369554
1029.000000	78.282828
1028.000000	78.213152
1027.000000	78.165778
1026.000000	78.138393
1025.000000	78.118359
1024.000000	78.101674
1023.000000	78.094409
1022.000000	78.091464
1021.000000	78.075093
1020.000000	78.039395
1019.000000	77.995605
1018.000000	77.948665
1017.000000	77.889933
1016.000000	77.818256
1015.000000	77.746341
1014.000000	77.679231
1013.000000	77.606735
1012.000000	77.524147
1011.000000	77.441546
1010.000000	77.366843
1009.000000	77.298584
1008.000000	77.240596
1007.000000	77.204026
1006.000000	77.189411
1005.000000	77.186006
1004.000000	77.193446
1003.000000	77.224633
1002.000000	77.282893
1001.000000	77.356376
1000.000000	77.439482
999.000000	77.539335
998.000000	77.655588
997.000000	77.773962
996.000000	77.886316
995.000000	77.999320
994.000000	78.117889
993.000000	78.237383
992.000000	78.356938
991.000000	78.484034
990.000000	78.621903
989.000000	78.767753
988.000000	78.924428
987.000000	79.096408
986.000000	79.273817
985.000000	79.439970
984.000000	79.597077
983.000000	79.765415
982.000000	79.954843
981.000000	80.156048
980.000000	80.361715
979.000000	80.576313
978.000000	80.801276
977.000000	81.030053
976.000000	81.262886
975.000000	81.509178
974.000000	81.770800
973.000000	82.038919
972.000000	82.309778
971.000000	82.587349
970.000000	82.869081
969.000000	83.146897
968.000000	83.424015
967.000000	83.711825
966.000000	84.006787
965.000000	84.289403
964.000000	84.551230
963.000000	84.805476
962.000000	85.065266
961.000000	85.327482
960.000000	85.584306
959.000000	85.835005
958.000000	86.078698
957.000000	86.308997
956.000000	86.523992
955.000000	86.731442
954.000000	86.938022
953.000000	87.141636
952.000000	87.337253
951.000000	87.520835
950.000000	87.686638
949.000000	87.831964
948.000000	87.965840
947.000000	88.101173
946.000000	88.236473
945.000000	88.357750
944.000000	88.460323
943.000000	88.555493
942.000000	88.652842
941.000000	88.749106
940.000000	88.838959
939.000000	88.924444
938.000000	89.008773
937.000000	89.091793
936.000000	89.176320
935.000000	89.268651
934.000000	89.368520
933.000000	89.468159
932.000000	89.564482
931.000000	89.662266
930.000000	89.762321
929.000000	89.856477
928.000000	89.937436
927.000000	90.004856
926.000000	90.060565
925.000000	90.107573
924.000000	90.154196
923.000000	90.207328
922.000000	90.259595
921.000000	90.294868
920.000000	90.308731
919.000000	90.311984
918.000000	90.312770
917.000000	90.309290
916.000000	90.303762
915.000000	90.308998
914.000000	90.335038
913.000000	90.382365
912.000000	90.455100
911.000000	90.568060
910.000000	90.731715
909.000000	90.938925
908.000000	91.172597
907.000000	91.418209
906.000000	91.664955
905.000000	91.905463
904.000000	92.141596
903.000000	92.383403
902.000000	92.636570
901.000000	92.895412
900.000000	93.150373
899.000000	93.396254
898.000000	93.631314
897.000000	93.854681
896.000000	94.067053
895.000000	94.269338
894.000000	94.460135
893.000000	94.639106
892.000000	94.811435
891.000000	94.982913
890.000000	95.152178
889.000000	95.314414
888.000000	95.470429
887.000000	95.624013
886.000000	95.772555
885.000000	95.910159
884.000000	96.039687
883.000000	96.171817
882.000000	96.311049
881.000000	96.451520
880.000000	96.587614
879.000000	96.719756
878.000000	96.848976
877.000000	96.975156
876.000000	97.101852
875.000000	97.233755
874.000000	97.368268
873.000000	97.498626
872.000000	97.626206
871.000000	97.760492
870.000000	97.905381
869.000000	98.053768
868.000000	98.197015
867.000000	98.332706
866.000000	98.462967
865.000000	98.592098
864.000000	98.725626
863.000000	98.864379
862.000000	98.999831
861.000000	99.122465
860.000000	99.233431
859.000000	99.340353
858.000000	99.443359
857.000000	99.534972
856.000000	99.614224
855.000000	99.691302
854.000000	99.776089
853.000000	99.869261
852.000000	99.965481
851.000000	100.057578
850.000000	100.137004
849.000000	100.198944
848.000000	100.248739
847.000000	100.295738
846.000000	100.340222
845.000000	100.374901
844.000000	100.399084
843.000000	100.420216
842.000000	100.439408
841.000000	100.447246
840.000000	100.438843
839.000000	100.422831
838.000000	100.409323
837.000000	100.397628
836.000000	100.382746
835.000000	100.366906
834.000000	100.357377
833.000000	100.357900
832.000000	100.368452
831.000000	100.389014
830.000000	100.418105
829.000000	100.451572
828.000000	100.486973
827.000000	100.524472
826.000000	100.560211
825.000000	100.586371
824.000000	100.603073
823.000000	100.621269
822.000000	100.645593
821.000000	100.662036
820.000000	100.651425
819.000000	100.609310
818.000000	100.545337
817.000000	100.466606
816.000000	100.368456
815.000000	100.241986
814.000000	100.086607
813.000000	99.912347
812.000000	99.727949
811.000000	99.525438
810.000000	99.278809
809.000000	98.962875
808.000000	98.573482
807.000000	98.126056
806.000000	97.638022
805.000000	97.122711
804.000000	96.601424
803.000000	96.107483
802.000000	95.668810
801.000000	95.294146
800.000000	94.983049
799.000000	94.740665
798.000000	94.575323
797.000000	94.488452
796.000000	94.471864
795.000000	94.508115
794.000000	94.571242
793.000000	94.636472
792.000000	94.693454
791.000000	94.744410
790.000000	94.788899
789.000000	94.816925
788.000000	94.815999
787.000000	94.777279
786.000000	94.696783
785.000000	94.579828
784.000000	94.442890
783.000000	94.301379
782.000000	94.156957
781.000000	94.007893
780.000000	93.869923
779.000000	93.772323
778.000000	93.731622
777.000000	93.742002
776.000000	93.792402
775.000000	93.879184
774.000000	94.000052
773.000000	94.149505
772.000000	94.323065
771.000000	94.513371
770.000000	94.701260
769.000000	94.865235
768.000000	95.002431
767.000000	95.127053
766.000000	95.246084
765.000000	95.350633
764.000000	95.434785
763.000000	95.508644
762.000000	95.586712
761.000000	95.675306
760.000000	95.776630
759.000000	95.892818
758.000000	96.018518
757.000000	96.139080
756.000000	96.243009
755.000000	96.330343
754.000000	96.407151
753.000000	96.480663
752.000000	96.561145
751.000000	96.657010
750.000000	96.763357
