4000.000000	99.824897
3999.000000	99.821660
3998.000000	99.819340
3997.000000	99.818219
3996.000000	99.818330
3995.000000	99.819649
3994.000000	99.821881
3993.000000	99.824188
3992.000000	99.825605
3991.000000	99.825759
3990.000000	99.824932
3989.000000	99.823535
3988.000000	99.821871
3987.000000	99.820342
3986.000000	99.819448
3985.000000	99.819332
3984.000000	99.819445
3983.000000	99.818725
3982.000000	99.816241
3981.000000	99.812004
3980.000000	99.807510
3979.000000	99.805015
3978.000000	99.805569
3977.000000	99.807789
3976.000000	99.808758
3975.000000	99.806588
3974.000000	99.801893
3973.000000	99.797047
3972.000000	99.794271
3971.000000	99.794368
3970.000000	99.796720
3969.000000	99.799980
3968.000000	99.803051
3967.000000	99.805594
3966.000000	99.807654
3965.000000	99.809144
3964.000000	99.810079
3963.000000	99.810988
3962.000000	99.812437
3961.000000	99.814154
3960.000000	99.815282
3959.000000	99.815495
3958.000000	99.815200
3957.000000	99.814562
3956.000000	99.813056
3955.000000	99.810353
3954.000000	99.807103
3953.000000	99.804343
3952.000000	99.802486
3951.000000	99.801250
3950.000000	99.800435
3949.000000	99.800294
3948.000000	99.801085
3947.000000	99.802570
3946.000000	99.804110
3945.000000	99.805047
3944.000000	99.804934
3943.000000	99.803673
3942.000000	99.801464
3941.000000	99.798611
3940.000000	99.795723
3939.000000	99.793929
3938.000000	99.794117
3937.000000	99.796006
3936.000000	99.798261
3935.000000	99.799643
3934.000000	99.799912
3933.000000	99.799448
3932.000000	99.798498
3931.000000	99.796997
3930.000000	99.794895
3929.000000	99.792441
3928.000000	99.790233
3927.000000	99.789039
3926.000000	99.789320
3925.000000	99.790797
3924.000000	99.792580
3923.000000	99.793852
3922.000000	99.794414
3921.000000	99.794480
3920.000000	99.794170
3919.000000	99.793493
3918.000000	99.792714
3917.000000	99.792357
3916.000000	99.792695
3915.000000	99.793412
3914.000000	99.793864
3913.000000	99.793575
3912.000000	99.792599
3911.000000	99.791456
3910.000000	99.790762
3909.000000	99.790812
3908.000000	99.791421
3907.000000	99.792141
3906.000000	99.792552
3905.000000	99.792514
3904.000000	99.792298
3903.000000	99.792142
3902.000000	99.791684
3901.000000	99.790393
3900.000000	99.788317
3899.000000	99.786287
3898.000000	99.785185
3897.000000	99.785212
3896.000000	99.785823
3895.000000	99.786355
3894.000000	99.786497
3893.000000	99.786309
3892.000000	99.786220
3891.000000	99.786693
3890.000000	99.787645
3889.000000	99.788634
3888.000000	99.789397
3887.000000	99.789794
3886.000000	99.789766
3885.000000	99.789458
3884.000000	99.789110
3883.000000	99.788878
3882.000000	99.788792
3881.000000	99.788855
3880.000000	99.789071
3879.000000	99.789383
3878.000000	99.789706
3877.000000	99.790015
3876.000000	99.790330
3875.000000	99.790677
3874.000000	99.791074
3873.000000	99.791515
3872.000000	99.791992
3871.000000	99.792510
3870.000000	99.793067
3869.000000	99.793656
3868.000000	99.794276
3867.000000	99.794922
3866.000000	99.795596
3865.000000	99.796295
3864.000000	99.797024
3863.000000	99.797787
3862.000000	99.798581
3861.000000	99.799397
3860.000000	99.800221
3859.000000	99.801045
3858.000000	99.801861
3857.000000	99.802663
3856.000000	99.803439
3855.000000	99.804166
3854.000000	99.804837
3853.000000	99.805473
3852.000000	99.806120
3851.000000	99.806805
3850.000000	99.807526
3849.000000	99.808267
3848.000000	99.809012
3847.000000	99.809763
3846.000000	99.810531
3845.000000	99.811327
3844.000000	99.812143
3843.000000	99.812959
3842.000000	99.813751
3841.000000	99.814508
3840.000000	99.815234
3839.000000	99.815940
3838.000000	99.816632
3837.000000	99.817306
3836.000000	99.817949
3835.000000	99.818553
3834.000000	99.819119
3833.000000	99.819656
3832.000000	99.820171
3831.000000	99.820670
3830.000000	99.821157
3829.000000	99.821592
3828.000000	99.821919
3827.000000	99.822127
3826.000000	99.822295
3825.000000	99.822511
3824.000000	99.822804
3823.000000	99.823087
3822.000000	99.823213
3821.000000	99.823186
3820.000000	99.823228
3819.000000	99.823411
3818.000000	99.823538
3817.000000	99.823371
3816.000000	99.822837
3815.000000	99.822112
3814.000000	99.821454
3813.000000	99.821007
3812.000000	99.820815
3811.000000	99.820855
3810.000000	99.821021
3809.000000	99.821177
3808.000000	99.821220
3807.000000	99.821188
3806.000000	99.821214
3805.000000	99.821231
3804.000000	99.820951
3803.000000	99.820104
3802.000000	99.818775
3801.000000	99.817665
3800.000000	99.817261
3799.000000	99.817117
3798.000000	99.816452
3797.000000	99.814994
3796.000000	99.813296
3795.000000	99.812315
3794.000000	99.812475
3793.000000	99.813413
3792.000000	99.814432
3791.000000	99.815139
3790.000000	99.815642
3789.000000	99.816127
3788.000000	99.816341
3787.000000	99.815707
3786.000000	99.813959
3785.000000	99.811622
3784.000000	99.809741
3783.000000	99.808989
3782.000000	99.809226
3781.000000	99.809646
3780.000000	99.809455
3779.000000	99.808567
3778.000000	99.807588
3777.000000	99.807108
3776.000000	99.807157
3775.000000	99.807257
3774.000000	99.806820
3773.000000	99.805635
3772.000000	99.804134
3771.000000	99.803201
3770.000000	99.803550
3769.000000	99.804906
3768.000000	99.805635
3767.000000	99.803937
3766.000000	99.799760
3765.000000	99.795210
3764.000000	99.792557
3763.000000	99.792250
3762.000000	99.793233
3761.000000	99.794343
3760.000000	99.795443
3759.000000	99.797440
3758.000000	99.800497
3757.000000	99.802865
3756.000000	99.802511
3755.000000	99.798933
3754.000000	99.792886
3753.000000	99.785323
3752.000000	99.777386
3751.000000	99.770919
3750.000000	99.766258
3749.000000	99.759484
3748.000000	99.748027
3747.000000	99.736884
3746.000000	99.733470
3745.000000	99.738630
3744.000000	99.745644
3743.000000	99.747233
3742.000000	99.743002
3741.000000	99.739033
3740.000000	99.740056
3739.000000	99.745077
3738.000000	99.748278
3737.000000	99.743047
3736.000000	99.728998
3735.000000	99.715221
3734.000000	99.710960
3733.000000	99.714323
3732.000000	99.716390
3731.000000	99.712117
3730.000000	99.703857
3729.000000	99.697511
3728.000000	99.696194
3727.000000	99.697639
3726.000000	99.697364
3725.000000	99.693117
3724.000000	99.685425
3723.000000	99.675156
3722.000000	99.662399
3721.000000	99.646442
3720.000000	99.626970
3719.000000	99.605822
3718.000000	99.586340
3717.000000	99.570614
3716.000000	99.557400
3715.000000	99.542440
3714.000000	99.520254
3713.000000	99.486972
3712.000000	99.445027
3711.000000	99.404143
3710.000000	99.372208
3709.000000	99.348369
3708.000000	99.328062
3707.000000	99.308913
3706.000000	99.290367
3705.000000	99.271146
3704.000000	99.248948
3703.000000	99.222915
3702.000000	99.196329
3701.000000	99.174257
3700.000000	99.157545
3699.000000	99.142910
3698.000000	99.128728
3697.000000	99.117314
3696.000000	99.112217
3695.000000	99.114839
3694.000000	99.123323
3693.000000	99.134157
3692.000000	99.144816
3691.000000	99.155306
3690.000000	99.167353
3689.000000	99.181676
3688.000000	99.194864
3687.000000	99.201417
3686.000000	99.201089
3685.000000	99.198937
3684.000000	99.198897
3683.000000	99.200664
3682.000000	99.200908
3681.000000	99.196450
3680.000000	99.186383
3679.000000	99.172625
3678.000000	99.158542
3677.000000	99.145866
3676.000000	99.134541
3675.000000	99.126814
3674.000000	99.121432
3673.000000	99.111697
3672.000000	99.096440
3671.000000	99.079664
3670.000000	99.065161
3669.000000	99.054846
3668.000000	99.045043
3667.000000	99.030560
3666.000000	99.012735
3665.000000	98.996754
3664.000000	98.984768
3663.000000	98.974218
3662.000000	98.961325
3661.000000	98.945635
3660.000000	98.929989
3659.000000	98.916698
3658.000000	98.905025
3657.000000	98.893355
3656.000000	98.882949
3655.000000	98.875911
3654.000000	98.871277
3653.000000	98.866578
3652.000000	98.860123
3651.000000	98.850366
3650.000000	98.835897
3649.000000	98.817690
3648.000000	98.799040
3647.000000	98.783100
3646.000000	98.772194
3645.000000	98.766658
3644.000000	98.763878
3643.000000	98.760504
3642.000000	98.755354
3641.000000	98.750205
3640.000000	98.747114
3639.000000	98.745675
3638.000000	98.743453
3637.000000	98.738271
3636.000000	98.729545
3635.000000	98.718061
3634.000000	98.705230
3633.000000	98.692385
3632.000000	98.679877
3631.000000	98.666115
3630.000000	98.648016
3629.000000	98.626585
3628.000000	98.608845
3627.000000	98.595647
3626.000000	98.581936
3625.000000	98.567718
3624.000000	98.556954
3623.000000	98.552257
3622.000000	98.553141
3621.000000	98.556553
3620.000000	98.560119
3619.000000	98.565794
3618.000000	98.576995
3617.000000	98.592153
3616.000000	98.606010
3615.000000	98.614619
3614.000000	98.617432
3613.000000	98.617268
3612.000000	98.618053
3611.000000	98.622155
3610.000000	98.629869
3609.000000	98.639362
3608.000000	98.647001
3607.000000	98.649743
3606.000000	98.647353
3605.000000	98.643043
3604.000000	98.641318
3603.000000	98.643892
3602.000000	98.648068
3601.000000	98.649264
3600.000000	98.645579
3599.000000	98.639476
3598.000000	98.635209
3597.000000	98.635279
3596.000000	98.638981
3595.000000	98.643243
3594.000000	98.645260
3593.000000	98.644450
3592.000000	98.642528
3591.000000	98.642367
3590.000000	98.645678
3589.000000	98.651017
3588.000000	98.655033
3587.000000	98.656763
3586.000000	98.657783
3585.000000	98.659007
3584.000000	98.660300
3583.000000	98.661416
3582.000000	98.662289
3581.000000	98.663379
3580.000000	98.665404
3579.000000	98.668429
3578.000000	98.671447
3577.000000	98.672925
3576.000000	98.671663
3575.000000	98.667294
3574.000000	98.660588
3573.000000	98.653449
3572.000000	98.648046
3571.000000	98.645380
3570.000000	98.644461
3569.000000	98.642766
3568.000000	98.638512
3567.000000	98.633378
3566.000000	98.631232
3565.000000	98.633435
3564.000000	98.637999
3563.000000	98.642050
3562.000000	98.643710
3561.000000	98.642657
3560.000000	98.639841
3559.000000	98.636738
3558.000000	98.634554
3557.000000	98.633717
3556.000000	98.633824
3555.000000	98.633975
3554.000000	98.633398
3553.000000	98.632011
3552.000000	98.630289
3551.000000	98.628507
3550.000000	98.626372
3549.000000	98.623519
3548.000000	98.620030
3547.000000	98.616444
3546.000000	98.613341
3545.000000	98.610879
3544.000000	98.608709
3543.000000	98.606392
3542.000000	98.603903
3541.000000	98.601704
3540.000000	98.600318
3539.000000	98.599813
3538.000000	98.599696
3537.000000	98.599223
3536.000000	98.597935
3535.000000	98.595896
3534.000000	98.593487
3533.000000	98.591121
3532.000000	98.589015
3531.000000	98.587148
3530.000000	98.585390
3529.000000	98.583703
3528.000000	98.582220
3527.000000	98.581080
3526.000000	98.580225
3525.000000	98.579379
3524.000000	98.578217
3523.000000	98.576606
3522.000000	98.574655
3521.000000	98.572678
3520.000000	98.570997
3519.000000	98.569717
3518.000000	98.568693
3517.000000	98.567628
3516.000000	98.566341
3515.000000	98.564871
3514.000000	98.563403
3513.000000	98.562093
3512.000000	98.560952
3511.000000	98.559867
3510.000000	98.558717
3509.000000	98.557458
3508.000000	98.556118
3507.000000	98.554723
3506.000000	98.553275
3505.000000	98.551787
3504.000000	98.550318
3503.000000	98.548929
3502.000000	98.547618
3501.000000	98.546321
3500.000000	98.545014
3499.000000	98.543765
3498.000000	98.542706
3497.000000	98.541994
3496.000000	98.541760
3495.000000	98.541993
3494.000000	98.542400
3493.000000	98.542438
3492.000000	98.541575
3491.000000	98.539621
3490.000000	98.536976
3489.000000	98.534665
3488.000000	98.533784
3487.000000	98.534528
3486.000000	98.535585
3485.000000	98.534921
3484.000000	98.531488
3483.000000	98.526177
3482.000000	98.521200
3481.000000	98.518248
3480.000000	98.517440
3479.000000	98.517822
3478.000000	98.518409
3477.000000	98.518496
3476.000000	98.517397
3475.000000	98.514598
3474.000000	98.510262
3473.000000	98.505269
3472.000000	98.500517
3471.000000	98.496431
3470.000000	98.493282
3469.000000	98.491497
3468.000000	98.491097
3467.000000	98.490915
3466.000000	98.489259
3465.000000	98.485750
3464.000000	98.482053
3463.000000	98.480328
3462.000000	98.481089
3461.000000	98.482920
3460.000000	98.484119
3459.000000	98.484352
3458.000000	98.484575
3457.000000	98.485621
3456.000000	98.487162
3455.000000	98.488077
3454.000000	98.487723
3453.000000	98.486474
3452.000000	98.484919
3451.000000	98.482931
3450.000000	98.480063
3449.000000	98.476751
3448.000000	98.474298
3447.000000	98.473181
3446.000000	98.471899
3445.000000	98.468470
3444.000000	98.462868
3443.000000	98.457125
3442.000000	98.453008
3441.000000	98.450193
3440.000000	98.447094
3439.000000	98.442986
3438.000000	98.438829
3437.000000	98.436113
3436.000000	98.435447
3435.000000	98.436327
3434.000000	98.437670
3433.000000	98.438346
3432.000000	98.437553
3431.000000	98.435292
3430.000000	98.432590
3429.000000	98.430839
3428.000000	98.430544
3427.000000	98.430822
3426.000000	98.430204
3425.000000	98.427937
3424.000000	98.424364
3423.000000	98.420453
3422.000000	98.417172
3421.000000	98.415079
3420.000000	98.414201
3419.000000	98.413996
3418.000000	98.413684
3417.000000	98.412877
3416.000000	98.411752
3415.000000	98.410625
3414.000000	98.409541
3413.000000	98.408300
3412.000000	98.406781
3411.000000	98.405103
3410.000000	98.403507
3409.000000	98.402179
3408.000000	98.401141
3407.000000	98.400245
3406.000000	98.399252
3405.000000	98.398016
3404.000000	98.396649
3403.000000	98.395477
3402.000000	98.394776
3401.000000	98.394546
3400.000000	98.394560
3399.000000	98.394617
3398.000000	98.394625
3397.000000	98.394438
3396.000000	98.393801
3395.000000	98.392604
3394.000000	98.391169
3393.000000	98.390121
3392.000000	98.389779
3391.000000	98.389734
3390.000000	98.389185
3389.000000	98.387815
3388.000000	98.386190
3387.000000	98.385230
3386.000000	98.385310
3385.000000	98.385959
3384.000000	98.386411
3383.000000	98.386425
3382.000000	98.386444
3381.000000	98.387043
3380.000000	98.388269
3379.000000	98.389436
3378.000000	98.389543
3377.000000	98.387920
3376.000000	98.384666
3375.000000	98.380761
3374.000000	98.377720
3373.000000	98.376806
3372.000000	98.378309
3371.000000	98.381325
3370.000000	98.384314
3369.000000	98.386210
3368.000000	98.387015
3367.000000	98.387480
3366.000000	98.388353
3365.000000	98.389874
3364.000000	98.391792
3363.000000	98.393630
3362.000000	98.394916
3361.000000	98.395276
3360.000000	98.394420
3359.000000	98.392180
3358.000000	98.388722
3357.000000	98.384734
3356.000000	98.381161
3355.000000	98.378616
3354.000000	98.377203
3353.000000	98.377026
3352.000000	98.378540
3351.000000	98.382028
3350.000000	98.386774
3349.000000	98.391129
3348.000000	98.393675
3347.000000	98.394110
3346.000000	98.393003
3345.000000	98.391041
3344.000000	98.388753
3343.000000	98.386797
3342.000000	98.385975
3341.000000	98.386674
3340.000000	98.388307
3339.000000	98.389469
3338.000000	98.388930
3337.000000	98.386566
3336.000000	98.383415
3335.000000	98.380878
3334.000000	98.379691
3333.000000	98.379657
3332.000000	98.380236
3331.000000	98.381213
3330.000000	98.382717
3329.000000	98.384729
3328.000000	98.386771
3327.000000	98.388067
3326.000000	98.388081
3325.000000	98.386918
3324.000000	98.385283
3323.000000	98.384077
3322.000000	98.383809
3321.000000	98.384340
3320.000000	98.385078
3319.000000	98.385423
3318.000000	98.385179
3317.000000	98.384593
3316.000000	98.384122
3315.000000	98.384081
3314.000000	98.384436
3313.000000	98.384879
3312.000000	98.385111
3311.000000	98.385060
3310.000000	98.384855
3309.000000	98.384628
3308.000000	98.384390
3307.000000	98.384107
3306.000000	98.383854
3305.000000	98.383801
3304.000000	98.384025
3303.000000	98.384412
3302.000000	98.384787
3301.000000	98.385118
3300.000000	98.385529
3299.000000	98.386066
3298.000000	98.386510
3297.000000	98.386509
3296.000000	98.385881
3295.000000	98.384827
3294.000000	98.383910
3293.000000	98.383654
3292.000000	98.384188
3291.000000	98.385240
3290.000000	98.386423
3289.000000	98.387513
3288.000000	98.388396
3287.000000	98.388961
3286.000000	98.389207
3285.000000	98.389399
3284.000000	98.389906
3283.000000	98.390799
3282.000000	98.391692
3281.000000	98.392077
3280.000000	98.391770
3279.000000	98.391042
3278.000000	98.390450
3277.000000	98.390460
3276.000000	98.391152
3275.000000	98.392121
3274.000000	98.392810
3273.000000	98.393107
3272.000000	98.393430
3271.000000	98.394128
3270.000000	98.394993
3269.000000	98.395587
3268.000000	98.395959
3267.000000	98.396689
3266.000000	98.398174
3265.000000	98.400112
3264.000000	98.401773
3263.000000	98.402727
3262.000000	98.403063
3261.000000	98.403047
3260.000000	98.402824
3259.000000	98.402523
3258.000000	98.402453
3257.000000	98.402910
3256.000000	98.403847
3255.000000	98.404880
3254.000000	98.405696
3253.000000	98.406392
3252.000000	98.407254
3251.000000	98.408294
3250.000000	98.409217
3249.000000	98.409854
3248.000000	98.410384
3247.000000	98.411038
3246.000000	98.411723
3245.000000	98.412145
3244.000000	98.412330
3243.000000	98.412761
3242.000000	98.413859
3241.000000	98.415537
3240.000000	98.417320
3239.000000	98.418798
3238.000000	98.419888
3237.000000	98.420763
3236.000000	98.421729
3235.000000	98.423062
3234.000000	98.424797
3233.000000	98.426667
3232.000000	98.428332
3231.000000	98.429671
3230.000000	98.430813
3229.000000	98.431901
3228.000000	98.432924
3227.000000	98.433859
3226.000000	98.434866
3225.000000	98.436237
3224.000000	98.438119
3223.000000	98.440208
3222.000000	98.441994
3221.000000	98.443336
3220.000000	98.444586
3219.000000	98.446154
3218.000000	98.447976
3217.000000	98.449571
3216.000000	98.450575
3215.000000	98.451103
3214.000000	98.451641
3213.000000	98.452691
3212.000000	98.454521
3211.000000	98.457077
3210.000000	98.459960
3209.000000	98.462662
3208.000000	98.464956
3207.000000	98.466992
3206.000000	98.469011
3205.000000	98.471084
3204.000000	98.473161
3203.000000	98.475221
3202.000000	98.477209
3201.000000	98.478932
3200.000000	98.480210
3199.000000	98.481175
3198.000000	98.482340
3197.000000	98.484265
3196.000000	98.487096
3195.000000	98.490357
3194.000000	98.493258
3193.000000	98.495373
3192.000000	98.497040
3191.000000	98.498944
3190.000000	98.501148
3189.000000	98.502737
3188.000000	98.502678
3187.000000	98.501056
3186.000000	98.499494
3185.000000	98.500005
3184.000000	98.503416
3183.000000	98.508968
3182.000000	98.514912
3181.000000	98.519862
3180.000000	98.523650
3179.000000	98.526966
3178.000000	98.530399
3177.000000	98.533734
3176.000000	98.536179
3175.000000	98.537240
3174.000000	98.537300
3173.000000	98.537430
3172.000000	98.538629
3171.000000	98.541222
3170.000000	98.544938
3169.000000	98.549333
3168.000000	98.553949
3167.000000	98.558274
3166.000000	98.561838
3165.000000	98.564534
3164.000000	98.566739
3163.000000	98.568938
3162.000000	98.571259
3161.000000	98.573523
3160.000000	98.575724
3159.000000	98.578205
3158.000000	98.581303
3157.000000	98.584910
3156.000000	98.588462
3155.000000	98.591362
3154.000000	98.593443
3153.000000	98.595145
3152.000000	98.597186
3151.000000	98.599899
3150.000000	98.602903
3149.000000	98.605595
3148.000000	98.607982
3147.000000	98.610780
3146.000000	98.614582
3145.000000	98.619185
3144.000000	98.623866
3143.000000	98.628150
3142.000000	98.631989
3141.000000	98.635343
3140.000000	98.637955
3139.000000	98.639592
3138.000000	98.640419
3137.000000	98.641063
3136.000000	98.642212
3135.000000	98.644249
3134.000000	98.647254
3133.000000	98.651158
3132.000000	98.655729
3131.000000	98.660383
3130.000000	98.664277
3129.000000	98.666920
3128.000000	98.668675
3127.000000	98.670635
3126.000000	98.673634
3125.000000	98.677565
3124.000000	98.681698
3123.000000	98.685531
3122.000000	98.689136
3121.000000	98.692673
3120.000000	98.695961
3119.000000	98.698696
3118.000000	98.700896
3117.000000	98.702932
3116.000000	98.705206
3115.000000	98.707850
3114.000000	98.710706
3113.000000	98.713542
3112.000000	98.716328
3111.000000	98.719276
3110.000000	98.722542
3109.000000	98.726009
3108.000000	98.729484
3107.000000	98.733006
3106.000000	98.736724
3105.000000	98.740512
3104.000000	98.743968
3103.000000	98.746904
3102.000000	98.749639
3101.000000	98.752657
3100.000000	98.755970
3099.000000	98.759079
3098.000000	98.761579
3097.000000	98.763628
3096.000000	98.765847
3095.000000	98.768733
3094.000000	98.772313
3093.000000	98.776262
3092.000000	98.780241
3091.000000	98.784063
3090.000000	98.787547
3089.000000	98.790441
3088.000000	98.792654
3087.000000	98.794486
3086.000000	98.796477
3085.000000	98.798917
3084.000000	98.801694
3083.000000	98.804616
3082.000000	98.807674
3081.000000	98.810945
3080.000000	98.814327
3079.000000	98.817523
3078.000000	98.820253
3077.000000	98.822403
3076.000000	98.824087
3075.000000	98.825679
3074.000000	98.827672
3073.000000	98.830324
3072.000000	98.833417
3071.000000	98.836453
3070.000000	98.839103
3069.000000	98.841427
3068.000000	98.843787
3067.000000	98.846665
3066.000000	98.850376
3065.000000	98.854678
3064.000000	98.858677
3063.000000	98.861521
3062.000000	98.863239
3061.000000	98.864634
3060.000000	98.866270
3059.000000	98.867787
3058.000000	98.868524
3057.000000	98.868589
3056.000000	98.869081
3055.000000	98.871108
3054.000000	98.874698
3053.000000	98.878667
3052.000000	98.881633
3051.000000	98.883349
3050.000000	98.884789
3049.000000	98.886923
3048.000000	98.889531
3047.000000	98.891494
3046.000000	98.892104
3045.000000	98.891792
3044.000000	98.891708
3043.000000	98.892858
3042.000000	98.895690
3041.000000	98.900003
3040.000000	98.904872
3039.000000	98.909020
3038.000000	98.911725
3037.000000	98.913281
3036.000000	98.914582
3035.000000	98.916296
3034.000000	98.918545
3033.000000	98.921182
3032.000000	98.924004
3031.000000	98.926740
3030.000000	98.929191
3029.000000	98.931488
3028.000000	98.933942
3027.000000	98.936620
3026.000000	98.939387
3025.000000	98.942421
3024.000000	98.946266
3023.000000	98.951031
3022.000000	98.955830
3021.000000	98.959502
3020.000000	98.961899
3019.000000	98.964142
3018.000000	98.967442
3017.000000	98.971894
3016.000000	98.976669
3015.000000	98.981151
3014.000000	98.985455
3013.000000	98.989730
3012.000000	98.993408
3011.000000	98.995642
3010.000000	98.996231
3009.000000	98.995918
3008.000000	98.995979
3007.000000	98.997556
3006.000000	99.001241
3005.000000	99.006595
3004.000000	99.011929
3003.000000	99.015391
3002.000000	99.016793
3001.000000	99.017947
3000.000000	99.020590
2999.000000	99.024178
2998.000000	99.026618
2997.000000	99.027262
2996.000000	99.028218
2995.000000	99.031987
2994.000000	99.038581
2993.000000	99.045746
2992.000000	99.051545
2991.000000	99.055960
2990.000000	99.059932
2989.000000	99.064009
2988.000000	99.068354
2987.000000	99.073269
2986.000000	99.078921
2985.000000	99.084837
2984.000000	99.090278
2983.000000	99.095030
2982.000000	99.099306
2981.000000	99.103011
2980.000000	99.105753
2979.000000	99.107766
2978.000000	99.110204
2977.000000	99.114097
2976.000000	99.119270
2975.000000	99.124501
2974.000000	99.128511
2973.000000	99.130666
2972.000000	99.131200
2971.000000	99.131315
2970.000000	99.132758
2969.000000	99.136518
2968.000000	99.141779
2967.000000	99.146354
2966.000000	99.148645
2965.000000	99.149048
2964.000000	99.149495
2963.000000	99.151817
2962.000000	99.156770
2961.000000	99.164087
2960.000000	99.172578
2959.000000	99.180256
2958.000000	99.185206
2957.000000	99.186844
2956.000000	99.186360
2955.000000	99.185691
2954.000000	99.186055
2953.000000	99.187694
2952.000000	99.190661
2951.000000	99.195138
2950.000000	99.200779
2949.000000	99.206157
2948.000000	99.209348
2947.000000	99.209167
2946.000000	99.205864
2945.000000	99.200985
2944.000000	99.197001
2943.000000	99.196705
2942.000000	99.201963
2941.000000	99.212313
2940.000000	99.224895
2939.000000	99.236332
2938.000000	99.244749
2937.000000	99.249953
2936.000000	99.252588
2935.000000	99.254048
2934.000000	99.256730
2933.000000	99.263002
2932.000000	99.273247
2931.000000	99.285387
2930.000000	99.296537
2929.000000	99.304805
2928.000000	99.309617
2927.000000	99.311262
2926.000000	99.310762
2925.000000	99.309690
2924.000000	99.309585
2923.000000	99.311556
2922.000000	99.316147
2921.000000	99.322839
2920.000000	99.329777
2919.000000	99.334763
2918.000000	99.336759
2917.000000	99.335952
2916.000000	99.332531
2915.000000	99.326466
2914.000000	99.318849
2913.000000	99.312201
2912.000000	99.308388
2911.000000	99.306412
2910.000000	99.302865
2909.000000	99.294866
2908.000000	99.282977
2907.000000	99.271483
2906.000000	99.265287
2905.000000	99.265650
2904.000000	99.269129
2903.000000	99.271310
2902.000000	99.271488
2901.000000	99.272274
2900.000000	99.275189
2899.000000	99.278212
2898.000000	99.278623
2897.000000	99.276407
2896.000000	99.273627
2895.000000	99.271719
2894.000000	99.270784
2893.000000	99.270717
2892.000000	99.271559
2891.000000	99.273065
2890.000000	99.274988
2889.000000	99.277389
2888.000000	99.279782
2887.000000	99.280522
2886.000000	99.278218
2885.000000	99.273582
2884.000000	99.268925
2883.000000	99.266093
2882.000000	99.265742
2881.000000	99.268024
2880.000000	99.272403
2879.000000	99.276925
2878.000000	99.279398
2877.000000	99.280081
2876.000000	99.281969
2875.000000	99.287492
2874.000000	99.295505
2873.000000	99.302129
2872.000000	99.304433
2871.000000	99.302875
2870.000000	99.300445
2869.000000	99.299959
2868.000000	99.301934
2867.000000	99.304730
2866.000000	99.306374
2865.000000	99.306311
2864.000000	99.305649
2863.000000	99.306159
2862.000000	99.309232
2861.000000	99.315275
2860.000000	99.323248
2859.000000	99.330710
2858.000000	99.335253
2857.000000	99.336302
2856.000000	99.335486
2855.000000	99.335230
2854.000000	99.337027
2853.000000	99.340616
2852.000000	99.344136
2851.000000	99.345192
2850.000000	99.342661
2849.000000	99.337862
2848.000000	99.333505
2847.000000	99.331178
2846.000000	99.330381
2845.000000	99.329994
2844.000000	99.329732
2843.000000	99.329788
2842.000000	99.329954
2841.000000	99.329806
2840.000000	99.329292
2839.000000	99.328605
2838.000000	99.327934
2837.000000	99.327756
2836.000000	99.328773
2835.000000	99.330797
2834.000000	99.332175
2833.000000	99.331190
2832.000000	99.328003
2831.000000	99.324520
2830.000000	99.322314
2829.000000	99.321349
2828.000000	99.320710
2827.000000	99.320022
2826.000000	99.319793
2825.000000	99.320781
2824.000000	99.323298
2823.000000	99.326793
2822.000000	99.329870
2821.000000	99.331112
2820.000000	99.330248
2819.000000	99.328578
2818.000000	99.328073
2817.000000	99.329921
2816.000000	99.333817
2815.000000	99.338407
2814.000000	99.342234
2813.000000	99.344485
2812.000000	99.345310
2811.000000	99.345723
2810.000000	99.346954
2809.000000	99.349489
2808.000000	99.352723
2807.000000	99.355783
2806.000000	99.358701
2805.000000	99.362299
2804.000000	99.366777
2803.000000	99.370878
2802.000000	99.373036
2801.000000	99.373081
2800.000000	99.372426
2799.000000	99.372745
2798.000000	99.374584
2797.000000	99.377416
2796.000000	99.380455
2795.000000	99.383212
2794.000000	99.385617
2793.000000	99.387914
2792.000000	99.390417
2791.000000	99.393180
2790.000000	99.395964
2789.000000	99.398566
2788.000000	99.401047
2787.000000	99.403546
2786.000000	99.405974
2785.000000	99.408085
2784.000000	99.409794
2783.000000	99.411312
2782.000000	99.413010
2781.000000	99.415137
2780.000000	99.417638
2779.000000	99.420163
2778.000000	99.422305
2777.000000	99.423955
2776.000000	99.425405
2775.000000	99.427135
2774.000000	99.429403
2773.000000	99.432120
2772.000000	99.434960
2771.000000	99.437593
2770.000000	99.439882
2769.000000	99.441903
2768.000000	99.443873
2767.000000	99.446011
2766.000000	99.448370
2765.000000	99.450797
2764.000000	99.453058
2763.000000	99.455032
2762.000000	99.456761
2761.000000	99.458349
2760.000000	99.459821
2759.000000	99.461139
2758.000000	99.462429
2757.000000	99.464092
2756.000000	99.466494
2755.000000	99.469441
2754.000000	99.472183
2753.000000	99.474165
2752.000000	99.475614
2751.000000	99.477110
2750.000000	99.478710
2749.000000	99.479887
2748.000000	99.480315
2747.000000	99.480312
2746.000000	99.480454
2745.000000	99.481033
2744.000000	99.481982
2743.000000	99.483161
2742.000000	99.484511
2741.000000	99.486077
2740.000000	99.487937
2739.000000	99.490030
2738.000000	99.492096
2737.000000	99.493997
2736.000000	99.496026
2735.000000	99.498555
2734.000000	99.501315
2733.000000	99.503402
2732.000000	99.504291
2731.000000	99.504442
2730.000000	99.504936
2729.000000	99.506423
2728.000000	99.508698
2727.000000	99.511057
2726.000000	99.512904
2725.000000	99.514069
2724.000000	99.514714
2723.000000	99.515148
2722.000000	99.515644
2721.000000	99.516343
2720.000000	99.517238
2719.000000	99.518245
2718.000000	99.519298
2717.000000	99.520373
2716.000000	99.521446
2715.000000	99.522466
2714.000000	99.523393
2713.000000	99.524254
2712.000000	99.525122
2711.000000	99.526044
2710.000000	99.527006
2709.000000	99.527962
2708.000000	99.528885
2707.000000	99.529775
2706.000000	99.530647
2705.000000	99.531514
2704.000000	99.532375
2703.000000	99.533222
2702.000000	99.534046
2701.000000	99.534841
2700.000000	99.535600
2699.000000	99.536326
2698.000000	99.537020
2697.000000	99.537681
2696.000000	99.538307
2695.000000	99.538895
2694.000000	99.539449
2693.000000	99.539982
2692.000000	99.540507
2691.000000	99.541035
2690.000000	99.541558
2689.000000	99.542058
2688.000000	99.542520
2687.000000	99.542937
2686.000000	99.543320
2685.000000	99.543678
2684.000000	99.544016
2683.000000	99.544330
2682.000000	99.544622
2681.000000	99.544904
2680.000000	99.545189
2679.000000	99.545485
2678.000000	99.545789
2677.000000	99.546090
2676.000000	99.546378
2675.000000	99.546650
2674.000000	99.546911
2673.000000	99.547168
2672.000000	99.547427
2671.000000	99.547689
2670.000000	99.547952
2669.000000	99.548210
2668.000000	99.548462
2667.000000	99.548706
2666.000000	99.548942
2665.000000	99.549171
2664.000000	99.549393
2663.000000	99.549609
2662.000000	99.549821
2661.000000	99.550034
2660.000000	99.550248
2659.000000	99.550461
2658.000000	99.550664
2657.000000	99.550845
2656.000000	99.550997
2655.000000	99.551120
2654.000000	99.551224
2653.000000	99.551319
2652.000000	99.551410
2651.000000	99.551493
2650.000000	99.551561
2649.000000	99.551610
2648.000000	99.551646
2647.000000	99.551675
2646.000000	99.551708
2645.000000	99.551747
2644.000000	99.551786
2643.000000	99.551821
2642.000000	99.551856
2641.000000	99.551901
2640.000000	99.551960
2639.000000	99.552028
2638.000000	99.552091
2637.000000	99.552140
2636.000000	99.552175
2635.000000	99.552204
2634.000000	99.552234
2633.000000	99.552264
2632.000000	99.552291
2631.000000	99.552313
2630.000000	99.552332
2629.000000	99.552350
2628.000000	99.552367
2627.000000	99.552380
2626.000000	99.552393
2625.000000	99.552411
2624.000000	99.552439
2623.000000	99.552476
2622.000000	99.552517
2621.000000	99.552552
2620.000000	99.552572
2619.000000	99.552573
2618.000000	99.552553
2617.000000	99.552514
2616.000000	99.552464
2615.000000	99.552415
2614.000000	99.552383
2613.000000	99.552382
2612.000000	99.552421
2611.000000	99.552502
2610.000000	99.552617
2609.000000	99.552757
2608.000000	99.552907
2607.000000	99.553059
2606.000000	99.553207
2605.000000	99.553353
2604.000000	99.553502
2603.000000	99.553655
2602.000000	99.553814
2601.000000	99.553982
2600.000000	99.554163
2599.000000	99.554357
2598.000000	99.554562
2597.000000	99.554774
2596.000000	99.554987
2595.000000	99.555199
2594.000000	99.555411
2593.000000	99.555629
2592.000000	99.555862
2591.000000	99.556117
2590.000000	99.556396
2589.000000	99.556691
2588.000000	99.556989
2587.000000	99.557281
2586.000000	99.557565
2585.000000	99.557846
2584.000000	99.558126
2583.000000	99.558403
2582.000000	99.558674
2581.000000	99.558942
2580.000000	99.559215
2579.000000	99.559499
2578.000000	99.559794
2577.000000	99.560100
2576.000000	99.560422
2575.000000	99.560772
2574.000000	99.561159
2573.000000	99.561586
2572.000000	99.562045
2571.000000	99.562516
2570.000000	99.562979
2569.000000	99.563420
2568.000000	99.563839
2567.000000	99.564242
2566.000000	99.564645
2565.000000	99.565060
2564.000000	99.565499
2563.000000	99.565960
2562.000000	99.566438
2561.000000	99.566923
2560.000000	99.567413
2559.000000	99.567903
2558.000000	99.568395
2557.000000	99.568887
2556.000000	99.569386
2555.000000	99.569896
2554.000000	99.570427
2553.000000	99.570986
2552.000000	99.571579
2551.000000	99.572209
2550.000000	99.572864
2549.000000	99.573530
2548.000000	99.574183
2547.000000	99.574816
2546.000000	99.575433
2545.000000	99.576052
2544.000000	99.576701
2543.000000	99.577412
2542.000000	99.578212
2541.000000	99.579101
2540.000000	99.580041
2539.000000	99.580977
2538.000000	99.581879
2537.000000	99.582753
2536.000000	99.583652
2535.000000	99.584620
2534.000000	99.585664
2533.000000	99.586748
2532.000000	99.587834
2531.000000	99.588905
2530.000000	99.589962
2529.000000	99.591018
2528.000000	99.592078
2527.000000	99.593134
2526.000000	99.594187
2525.000000	99.595257
2524.000000	99.596366
2523.000000	99.597507
2522.000000	99.598655
2521.000000	99.599802
2520.000000	99.600968
2519.000000	99.602172
2518.000000	99.603418
2517.000000	99.604702
2516.000000	99.606020
2515.000000	99.607366
2514.000000	99.608737
2513.000000	99.610131
2512.000000	99.611540
2511.000000	99.612954
2510.000000	99.614369
2509.000000	99.615778
2508.000000	99.617186
2507.000000	99.618605
2506.000000	99.620045
2505.000000	99.621510
2504.000000	99.622993
2503.000000	99.624482
2502.000000	99.625965
2501.000000	99.627432
2500.000000	99.628879
2499.000000	99.630304
2498.000000	99.631711
2497.000000	99.633109
2496.000000	99.634512
2495.000000	99.635929
2494.000000	99.637362
2493.000000	99.638806
2492.000000	99.640259
2491.000000	99.641723
2490.000000	99.643202
2489.000000	99.644696
2488.000000	99.646198
2487.000000	99.647703
2486.000000	99.649206
2485.000000	99.650713
2484.000000	99.652231
2483.000000	99.653772
2482.000000	99.655337
2481.000000	99.656919
2480.000000	99.658510
2479.000000	99.660104
2478.000000	99.661702
2477.000000	99.663310
2476.000000	99.664926
2475.000000	99.666541
2474.000000	99.668142
2473.000000	99.669719
2472.000000	99.671273
2471.000000	99.672809
2470.000000	99.674336
2469.000000	99.675857
2468.000000	99.677373
2467.000000	99.678888
2466.000000	99.680402
2465.000000	99.681912
2464.000000	99.683416
2463.000000	99.684912
2462.000000	99.686406
2461.000000	99.687902
2460.000000	99.689405
2459.000000	99.690919
2458.000000	99.692444
2457.000000	99.693977
2456.000000	99.695515
2455.000000	99.697050
2454.000000	99.698579
2453.000000	99.700098
2452.000000	99.701606
2451.000000	99.703103
2450.000000	99.704589
2449.000000	99.706056
2448.000000	99.707498
2447.000000	99.708916
2446.000000	99.710321
2445.000000	99.711725
2444.000000	99.713132
2443.000000	99.714533
2442.000000	99.715919
2441.000000	99.717281
2440.000000	99.718615
2439.000000	99.719927
2438.000000	99.721221
2437.000000	99.722500
2436.000000	99.723766
2435.000000	99.725016
2434.000000	99.726254
2433.000000	99.727487
2432.000000	99.728725
2431.000000	99.729971
2430.000000	99.731224
2429.000000	99.732478
2428.000000	99.733725
2427.000000	99.734961
2426.000000	99.736176
2425.000000	99.737362
2424.000000	99.738512
2423.000000	99.739619
2422.000000	99.740731
2421.000000	99.741946
2420.000000	99.743283
2419.000000	99.744600
2418.000000	99.745707
2417.000000	99.746584
2416.000000	99.747411
2415.000000	99.748408
2414.000000	99.749702
2413.000000	99.751241
2412.000000	99.752686
2411.000000	99.753539
2410.000000	99.753586
2409.000000	99.753262
2408.000000	99.753340
2407.000000	99.754198
2406.000000	99.755633
2405.000000	99.757155
2404.000000	99.758304
2403.000000	99.758774
2402.000000	99.758547
2401.000000	99.758093
2400.000000	99.758113
2399.000000	99.758895
2398.000000	99.760109
2397.000000	99.761228
2396.000000	99.762060
2395.000000	99.762798
2394.000000	99.763737
2393.000000	99.764997
2392.000000	99.766372
2391.000000	99.767372
2390.000000	99.767559
2389.000000	99.766914
2388.000000	99.765805
2387.000000	99.764615
2386.000000	99.763541
2385.000000	99.762693
2384.000000	99.762141
2383.000000	99.761853
2382.000000	99.761723
2381.000000	99.761744
2380.000000	99.762008
2379.000000	99.762468
2378.000000	99.762891
2377.000000	99.763081
2376.000000	99.762978
2375.000000	99.762527
2374.000000	99.761660
2373.000000	99.760552
2372.000000	99.759745
2371.000000	99.759706
2370.000000	99.760393
2369.000000	99.761349
2368.000000	99.762048
2367.000000	99.762230
2366.000000	99.761907
2365.000000	99.761263
2364.000000	99.760562
2363.000000	99.759972
2362.000000	99.759474
2361.000000	99.759003
2360.000000	99.758602
2359.000000	99.758368
2358.000000	99.758290
2357.000000	99.758242
2356.000000	99.758091
2355.000000	99.757803
2354.000000	99.757422
2353.000000	99.757003
2352.000000	99.756573
2351.000000	99.756139
2350.000000	99.755701
2349.000000	99.755262
2348.000000	99.754826
2347.000000	99.754393
2346.000000	99.753961
2345.000000	99.753530
2344.000000	99.753101
2343.000000	99.752672
2342.000000	99.752246
2341.000000	99.751829
2340.000000	99.751422
2339.000000	99.751016
2338.000000	99.750592
2337.000000	99.750135
2336.000000	99.749644
2335.000000	99.749130
2334.000000	99.748606
2333.000000	99.748074
2332.000000	99.747529
2331.000000	99.746963
2330.000000	99.746370
2329.000000	99.745749
2328.000000	99.745094
2327.000000	99.744398
2326.000000	99.743658
2325.000000	99.742880
2324.000000	99.742079
2323.000000	99.741271
2322.000000	99.740463
2321.000000	99.739654
2320.000000	99.738831
2319.000000	99.737976
2318.000000	99.737074
2317.000000	99.736123
2316.000000	99.735128
2315.000000	99.734099
2314.000000	99.733041
2313.000000	99.731963
2312.000000	99.730876
2311.000000	99.729786
2310.000000	99.728695
2309.000000	99.727594
2308.000000	99.726475
2307.000000	99.725332
2306.000000	99.724165
2305.000000	99.722978
2304.000000	99.721776
2303.000000	99.720552
2302.000000	99.719299
2301.000000	99.718008
2300.000000	99.716676
2299.000000	99.715304
2298.000000	99.713895
2297.000000	99.712450
2296.000000	99.710977
2295.000000	99.709483
2294.000000	99.707974
2293.000000	99.706454
2292.000000	99.704924
2291.000000	99.703384
2290.000000	99.701833
2289.000000	99.700265
2288.000000	99.698677
2287.000000	99.697066
2286.000000	99.695433
2285.000000	99.693784
2284.000000	99.692135
2283.000000	99.690505
2282.000000	99.688901
2281.000000	99.687318
2280.000000	99.685738
2279.000000	99.684145
2278.000000	99.682521
2277.000000	99.680860
2276.000000	99.679176
2275.000000	99.677509
2274.000000	99.675884
2273.000000	99.674305
2272.000000	99.672766
2271.000000	99.671268
2270.000000	99.669801
2269.000000	99.668343
2268.000000	99.666881
2267.000000	99.665421
2266.000000	99.663977
2265.000000	99.662549
2264.000000	99.661130
2263.000000	99.659708
2262.000000	99.658279
2261.000000	99.656857
2260.000000	99.655465
2259.000000	99.654120
2258.000000	99.652818
2257.000000	99.651545
2256.000000	99.650292
2255.000000	99.649056
2254.000000	99.647853
2253.000000	99.646693
2252.000000	99.645574
2251.000000	99.644476
2250.000000	99.643373
2249.000000	99.642247
2248.000000	99.641121
2247.000000	99.640069
2246.000000	99.639147
2245.000000	99.638350
2244.000000	99.637612
2243.000000	99.636885
2242.000000	99.636162
2241.000000	99.635442
2240.000000	99.634718
2239.000000	99.633988
2238.000000	99.633272
2237.000000	99.632614
2236.000000	99.632054
2235.000000	99.631592
2234.000000	99.631188
2233.000000	99.630797
2232.000000	99.630402
2231.000000	99.630002
2230.000000	99.629591
2229.000000	99.629169
2228.000000	99.628763
2227.000000	99.628419
2226.000000	99.628152
2225.000000	99.627921
2224.000000	99.627668
2223.000000	99.627402
2222.000000	99.627210
2221.000000	99.627160
2220.000000	99.627237
2219.000000	99.627360
2218.000000	99.627446
2217.000000	99.627472
2216.000000	99.627460
2215.000000	99.627455
2214.000000	99.627484
2213.000000	99.627557
2212.000000	99.627688
2211.000000	99.627886
2210.000000	99.628136
2209.000000	99.628413
2208.000000	99.628710
2207.000000	99.629029
2206.000000	99.629346
2205.000000	99.629634
2204.000000	99.629885
2203.000000	99.630116
2202.000000	99.630347
2201.000000	99.630600
2200.000000	99.630910
2199.000000	99.631300
2198.000000	99.631753
2197.000000	99.632225
2196.000000	99.632674
2195.000000	99.633089
2194.000000	99.633475
2193.000000	99.633847
2192.000000	99.634223
2191.000000	99.634616
2190.000000	99.635030
2189.000000	99.635465
2188.000000	99.635923
2187.000000	99.636405
2186.000000	99.636901
2185.000000	99.637388
2184.000000	99.637859
2183.000000	99.638339
2182.000000	99.638858
2181.000000	99.639411
2180.000000	99.639965
2179.000000	99.640508
2178.000000	99.641056
2177.000000	99.641635
2176.000000	99.642284
2175.000000	99.643045
2174.000000	99.643897
2173.000000	99.644733
2172.000000	99.645458
2171.000000	99.646092
2170.000000	99.646712
2169.000000	99.647322
2168.000000	99.647907
2167.000000	99.648558
2166.000000	99.649384
2165.000000	99.650265
2164.000000	99.650872
2163.000000	99.651081
2162.000000	99.651273
2161.000000	99.652034
2160.000000	99.653493
2159.000000	99.655091
2158.000000	99.656074
2157.000000	99.656252
2156.000000	99.656162
2155.000000	99.656451
2154.000000	99.657178
2153.000000	99.657980
2152.000000	99.658698
2151.000000	99.659579
2150.000000	99.660938
2149.000000	99.662912
2148.000000	99.665445
2147.000000	99.668209
2146.000000	99.670584
2145.000000	99.672148
2144.000000	99.673208
2143.000000	99.674530
2142.000000	99.676407
2141.000000	99.678330
2140.000000	99.679677
2139.000000	99.680368
2138.000000	99.680692
2137.000000	99.680865
2136.000000	99.680992
2135.000000	99.681254
2134.000000	99.681945
2133.000000	99.683398
2132.000000	99.685835
2131.000000	99.688960
2130.000000	99.691788
2129.000000	99.693407
2128.000000	99.694032
2127.000000	99.694882
2126.000000	99.696781
2125.000000	99.699341
2124.000000	99.701675
2123.000000	99.703478
2122.000000	99.705043
2121.000000	99.706748
2120.000000	99.709002
2119.000000	99.712265
2118.000000	99.716448
2117.000000	99.720474
2116.000000	99.723110
2115.000000	99.724157
2114.000000	99.724533
2113.000000	99.725307
2112.000000	99.726948
2111.000000	99.729403
2110.000000	99.732280
2109.000000	99.734985
2108.000000	99.737191
2107.000000	99.739167
2106.000000	99.741248
2105.000000	99.743065
2104.000000	99.743918
2103.000000	99.743941
2102.000000	99.744238
2101.000000	99.745555
2100.000000	99.747434
2099.000000	99.749072
2098.000000	99.750444
2097.000000	99.751945
2096.000000	99.753372
2095.000000	99.754177
2094.000000	99.754733
2093.000000	99.756363
2092.000000	99.759697
2091.000000	99.763706
2090.000000	99.766794
2089.000000	99.768538
2088.000000	99.769804
2087.000000	99.771323
2086.000000	99.772881
2085.000000	99.774050
2084.000000	99.775159
2083.000000	99.777064
2082.000000	99.780179
2081.000000	99.784222
2080.000000	99.788773
2079.000000	99.793562
2078.000000	99.797990
2077.000000	99.800888
2076.000000	99.801404
2075.000000	99.800195
2074.000000	99.799320
2073.000000	99.800463
2072.000000	99.803393
2071.000000	99.806558
2070.000000	99.809071
2069.000000	99.811343
2068.000000	99.813617
2067.000000	99.814937
2066.000000	99.814645
2065.000000	99.814199
2064.000000	99.815892
2063.000000	99.819660
2062.000000	99.822828
2061.000000	99.823572
2060.000000	99.823056
2059.000000	99.823381
2058.000000	99.824709
2057.000000	99.825760
2056.000000	99.826025
2055.000000	99.825727
2054.000000	99.824423
2053.000000	99.821606
2052.000000	99.818501
2051.000000	99.817435
2050.000000	99.819138
2049.000000	99.821862
2048.000000	99.823373
2047.000000	99.822737
2046.000000	99.820156
2045.000000	99.816427
2044.000000	99.813023
2043.000000	99.811430
2042.000000	99.811609
2041.000000	99.811911
2040.000000	99.811028
2039.000000	99.809313
2038.000000	99.807744
2037.000000	99.806504
2036.000000	99.805219
2035.000000	99.803865
2034.000000	99.802660
2033.000000	99.801550
2032.000000	99.800472
2031.000000	99.799846
2030.000000	99.800167
2029.000000	99.801253
2028.000000	99.802302
2027.000000	99.802566
2026.000000	99.801708
2025.000000	99.799707
2024.000000	99.796887
2023.000000	99.793953
2022.000000	99.791622
2021.000000	99.790111
2020.000000	99.789110
2019.000000	99.788152
2018.000000	99.786944
2017.000000	99.785475
2016.000000	99.783943
2015.000000	99.782572
2014.000000	99.781407
2013.000000	99.780331
2012.000000	99.779206
2011.000000	99.777992
2010.000000	99.776737
2009.000000	99.775506
2008.000000	99.774327
2007.000000	99.773180
2006.000000	99.772034
2005.000000	99.770875
2004.000000	99.769711
2003.000000	99.768553
2002.000000	99.767413
2001.000000	99.766291
2000.000000	99.765182
1999.000000	99.764086
1998.000000	99.763011
1997.000000	99.761969
1996.000000	99.760961
1995.000000	99.759979
1994.000000	99.759011
1993.000000	99.758055
1992.000000	99.757113
1991.000000	99.756186
1990.000000	99.755275
1989.000000	99.754373
1988.000000	99.753479
1987.000000	99.752593
1986.000000	99.751725
1985.000000	99.750884
1984.000000	99.750072
1983.000000	99.749287
1982.000000	99.748527
1981.000000	99.747789
1980.000000	99.747069
1979.000000	99.746370
1978.000000	99.745705
1977.000000	99.745086
1976.000000	99.744518
1975.000000	99.743984
1974.000000	99.743461
1973.000000	99.742925
1972.000000	99.742361
1971.000000	99.741793
1970.000000	99.741269
1969.000000	99.740793
1968.000000	99.740295
1967.000000	99.739749
1966.000000	99.739291
1965.000000	99.739094
1964.000000	99.739119
1963.000000	99.739052
1962.000000	99.738597
1961.000000	99.737751
1960.000000	99.736842
1959.000000	99.736171
1958.000000	99.735764
1957.000000	99.735441
1956.000000	99.734985
1955.000000	99.734252
1954.000000	99.733313
1953.000000	99.732540
1952.000000	99.732385
1951.000000	99.732937
1950.000000	99.733757
1949.000000	99.734191
1948.000000	99.733800
1947.000000	99.732519
1946.000000	99.730634
1945.000000	99.728653
1944.000000	99.726976
1943.000000	99.725595
1942.000000	99.724273
1941.000000	99.722982
1940.000000	99.721860
1939.000000	99.720839
1938.000000	99.719790
1937.000000	99.719020
1936.000000	99.719118
1935.000000	99.720017
1934.000000	99.720636
1933.000000	99.719927
1932.000000	99.718059
1931.000000	99.716026
1930.000000	99.714333
1929.000000	99.712427
1928.000000	99.709496
1927.000000	99.705420
1926.000000	99.700750
1925.000000	99.696395
1924.000000	99.693376
1923.000000	99.692441
1922.000000	99.693213
1921.000000	99.693973
1920.000000	99.692756
1919.000000	99.688866
1918.000000	99.683776
1917.000000	99.680244
1916.000000	99.679545
1915.000000	99.680098
1914.000000	99.679159
1913.000000	99.675242
1912.000000	99.668918
1911.000000	99.661758
1910.000000	99.654875
1909.000000	99.648624
1908.000000	99.643009
1907.000000	99.637912
1906.000000	99.633244
1905.000000	99.629204
1904.000000	99.625909
1903.000000	99.622800
1902.000000	99.619021
1901.000000	99.614792
1900.000000	99.611592
1899.000000	99.610272
1898.000000	99.609557
1897.000000	99.607332
1896.000000	99.603359
1895.000000	99.599926
1894.000000	99.599158
1893.000000	99.600220
1892.000000	99.599879
1891.000000	99.595754
1890.000000	99.588967
1889.000000	99.583456
1888.000000	99.581770
1887.000000	99.582560
1886.000000	99.582882
1885.000000	99.581325
1884.000000	99.578011
1883.000000	99.572982
1882.000000	99.566647
1881.000000	99.561600
1880.000000	99.561238
1879.000000	99.565858
1878.000000	99.571909
1877.000000	99.576099
1876.000000	99.578649
1875.000000	99.580891
1874.000000	99.581686
1873.000000	99.578568
1872.000000	99.571638
1871.000000	99.564387
1870.000000	99.560724
1869.000000	99.561972
1868.000000	99.566618
1867.000000	99.572104
1866.000000	99.576542
1865.000000	99.579566
1864.000000	99.581966
1863.000000	99.584320
1862.000000	99.586325
1861.000000	99.587950
1860.000000	99.590373
1859.000000	99.594527
1858.000000	99.599318
1857.000000	99.602835
1856.000000	99.605006
1855.000000	99.607587
1854.000000	99.611828
1853.000000	99.617353
1852.000000	99.622860
1851.000000	99.627100
1850.000000	99.629458
1849.000000	99.630959
1848.000000	99.634018
1847.000000	99.639948
1846.000000	99.646971
1845.000000	99.651592
1844.000000	99.652677
1843.000000	99.653016
1842.000000	99.655252
1841.000000	99.659016
1840.000000	99.662514
1839.000000	99.664306
1838.000000	99.664212
1837.000000	99.663906
1836.000000	99.665848
1835.000000	99.670470
1834.000000	99.675094
1833.000000	99.676823
1832.000000	99.675761
1831.000000	99.674647
1830.000000	99.675554
1829.000000	99.677752
1828.000000	99.679511
1827.000000	99.680237
1826.000000	99.680029
1825.000000	99.679089
1824.000000	99.678421
1823.000000	99.679489
1822.000000	99.682416
1821.000000	99.685556
1820.000000	99.687225
1819.000000	99.687506
1818.000000	99.687810
1817.000000	99.689124
1816.000000	99.691435
1815.000000	99.694392
1814.000000	99.697507
1813.000000	99.699949
1812.000000	99.701179
1811.000000	99.701690
1810.000000	99.702174
1809.000000	99.702207
1808.000000	99.701088
1807.000000	99.699321
1806.000000	99.698223
1805.000000	99.698556
1804.000000	99.700219
1803.000000	99.702886
1802.000000	99.706177
1801.000000	99.709262
1800.000000	99.711349
1799.000000	99.712480
1798.000000	99.713241
1797.000000	99.714067
1796.000000	99.715191
1795.000000	99.716635
1794.000000	99.717960
1793.000000	99.718436
1792.000000	99.718298
1791.000000	99.719055
1790.000000	99.721244
1789.000000	99.723590
1788.000000	99.724961
1787.000000	99.725740
1786.000000	99.727120
1785.000000	99.729611
1784.000000	99.732708
1783.000000	99.735824
1782.000000	99.738943
1781.000000	99.742344
1780.000000	99.746450
1779.000000	99.751485
1778.000000	99.756858
1777.000000	99.761048
1776.000000	99.762827
1775.000000	99.762692
1774.000000	99.762772
1773.000000	99.764966
1772.000000	99.768548
1771.000000	99.770842
1770.000000	99.770214
1769.000000	99.767061
1768.000000	99.763700
1767.000000	99.763351
1766.000000	99.767329
1765.000000	99.773786
1764.000000	99.779580
1763.000000	99.782398
1762.000000	99.782413
1761.000000	99.782455
1760.000000	99.785036
1759.000000	99.789418
1758.000000	99.792664
1757.000000	99.793086
1756.000000	99.793145
1755.000000	99.796912
1754.000000	99.804613
1753.000000	99.812264
1752.000000	99.815629
1751.000000	99.814511
1750.000000	99.812791
1749.000000	99.812952
1748.000000	99.813964
1747.000000	99.815101
1746.000000	99.817090
1745.000000	99.819912
1744.000000	99.822674
1743.000000	99.825453
1742.000000	99.828740
1741.000000	99.830347
1740.000000	99.826403
1739.000000	99.817656
1738.000000	99.810532
1737.000000	99.808875
1736.000000	99.811083
1735.000000	99.812060
1734.000000	99.805613
1733.000000	99.791881
1732.000000	99.776884
1731.000000	99.765033
1730.000000	99.759090
1729.000000	99.759253
1728.000000	99.761286
1727.000000	99.760036
1726.000000	99.754608
1725.000000	99.748033
1724.000000	99.743051
1723.000000	99.738985
1722.000000	99.733208
1721.000000	99.724319
1720.000000	99.713489
1719.000000	99.703697
1718.000000	99.697350
1717.000000	99.693290
1716.000000	99.688753
1715.000000	99.682833
1714.000000	99.675458
1713.000000	99.667036
1712.000000	99.659075
1711.000000	99.653058
1710.000000	99.648791
1709.000000	99.644114
1708.000000	99.636663
1707.000000	99.625578
1706.000000	99.611207
1705.000000	99.595311
1704.000000	99.580745
1703.000000	99.568712
1702.000000	99.557502
1701.000000	99.543867
1700.000000	99.527867
1699.000000	99.515386
1698.000000	99.507005
1697.000000	99.496972
1696.000000	99.481658
1695.000000	99.464757
1694.000000	99.451911
1693.000000	99.442809
1692.000000	99.434221
1691.000000	99.423804
1690.000000	99.411365
1689.000000	99.398721
1688.000000	99.387838
1687.000000	99.379044
1686.000000	99.370313
1685.000000	99.357142
1684.000000	99.336607
1683.000000	99.314752
1682.000000	99.297543
1681.000000	99.283977
1680.000000	99.271913
1679.000000	99.260650
1678.000000	99.249681
1677.000000	99.237498
1676.000000	99.222657
1675.000000	99.206731
1674.000000	99.194195
1673.000000	99.186153
1672.000000	99.178860
1671.000000	99.167445
1670.000000	99.149730
1669.000000	99.129686
1668.000000	99.113846
1667.000000	99.103413
1666.000000	99.095136
1665.000000	99.085788
1664.000000	99.074124
1663.000000	99.060948
1662.000000	99.048166
1661.000000	99.036625
1660.000000	99.025315
1659.000000	99.012857
1658.000000	98.999281
1657.000000	98.986175
1656.000000	98.975209
1655.000000	98.965681
1654.000000	98.951774
1653.000000	98.929764
1652.000000	98.915210
1651.000000	98.915528
1650.000000	98.921710
1649.000000	98.925094
1648.000000	98.919532
1647.000000	98.903821
1646.000000	98.887516
1645.000000	98.881017
1644.000000	98.883229
1643.000000	98.887410
1642.000000	98.888120
1641.000000	98.883661
1640.000000	98.877415
1639.000000	98.874749
1638.000000	98.876734
1637.000000	98.877621
1636.000000	98.870795
1635.000000	98.862155
1634.000000	98.864078
1633.000000	98.875580
1632.000000	98.887193
1631.000000	98.892657
1630.000000	98.892219
1629.000000	98.890543
1628.000000	98.891800
1627.000000	98.896009
1626.000000	98.900540
1625.000000	98.903578
1624.000000	98.905430
1623.000000	98.908193
1622.000000	98.914636
1621.000000	98.925581
1620.000000	98.938946
1619.000000	98.951059
1618.000000	98.957581
1617.000000	98.956659
1616.000000	98.954579
1615.000000	98.960190
1614.000000	98.974168
1613.000000	98.990890
1612.000000	99.003835
1611.000000	99.009653
1610.000000	99.010987
1609.000000	99.014276
1608.000000	99.022796
1607.000000	99.033562
1606.000000	99.042159
1605.000000	99.048012
1604.000000	99.053535
1603.000000	99.060169
1602.000000	99.067389
1601.000000	99.074470
1600.000000	99.081179
1599.000000	99.087197
1598.000000	99.092453
1597.000000	99.097843
1596.000000	99.104511
1595.000000	99.112423
1594.000000	99.120348
1593.000000	99.127463
1592.000000	99.134220
1591.000000	99.141389
1590.000000	99.148941
1589.000000	99.155940
1588.000000	99.161333
1587.000000	99.165003
1586.000000	99.168174
1585.000000	99.172543
1584.000000	99.178547
1583.000000	99.184897
1582.000000	99.190064
1581.000000	99.193962
1580.000000	99.197563
1579.000000	99.201642
1578.000000	99.206491
1577.000000	99.212320
1576.000000	99.218807
1575.000000	99.224691
1574.000000	99.229201
1573.000000	99.232822
1572.000000	99.236397
1571.000000	99.240385
1570.000000	99.244594
1569.000000	99.249044
1568.000000	99.254313
1567.000000	99.260499
1566.000000	99.267157
1565.000000	99.273692
1564.000000	99.279461
1563.000000	99.284076
1562.000000	99.287661
1561.000000	99.291161
1560.000000	99.295940
1559.000000	99.300749
1558.000000	99.303799
1557.000000	99.307019
1556.000000	99.310051
1555.000000	99.311833
1554.000000	99.313378
1553.000000	99.316944
1552.000000	99.323230
1551.000000	99.330592
1550.000000	99.336609
1549.000000	99.340446
1548.000000	99.343342
1547.000000	99.346946
1546.000000	99.352049
1545.000000	99.358287
1544.000000	99.364142
1543.000000	99.367973
1542.000000	99.369796
1541.000000	99.372339
1540.000000	99.379023
1539.000000	99.388878
1538.000000	99.396759
1537.000000	99.400060
1536.000000	99.399717
1535.000000	99.397634
1534.000000	99.395455
1533.000000	99.394937
1532.000000	99.397613
1531.000000	99.402564
1530.000000	99.406743
1529.000000	99.407969
1528.000000	99.407355
1527.000000	99.408446
1526.000000	99.412987
1525.000000	99.418587
1524.000000	99.422394
1523.000000	99.424901
1522.000000	99.428631
1521.000000	99.434722
1520.000000	99.442158
1519.000000	99.449502
1518.000000	99.456449
1517.000000	99.463702
1516.000000	99.472384
1515.000000	99.483021
1514.000000	99.494656
1513.000000	99.505431
1512.000000	99.513699
1511.000000	99.519121
1510.000000	99.522693
1509.000000	99.526012
1508.000000	99.531679
1507.000000	99.541751
1506.000000	99.553388
1505.000000	99.561326
1504.000000	99.565097
1503.000000	99.568505
1502.000000	99.574800
1501.000000	99.583337
1500.000000	99.590094
1499.000000	99.592894
1498.000000	99.594814
1497.000000	99.599483
1496.000000	99.605590
1495.000000	99.610273
1494.000000	99.613407
1493.000000	99.616000
1492.000000	99.618579
1491.000000	99.621467
1490.000000	99.625381
1489.000000	99.630998
1488.000000	99.638735
1487.000000	99.648414
1486.000000	99.657647
1485.000000	99.663329
1484.000000	99.664880
1483.000000	99.664606
1482.000000	99.665097
1481.000000	99.666666
1480.000000	99.668019
1479.000000	99.669191
1478.000000	99.671906
1477.000000	99.677356
1476.000000	99.684740
1475.000000	99.692484
1474.000000	99.699173
1473.000000	99.703378
1472.000000	99.705195
1471.000000	99.707138
1470.000000	99.709861
1469.000000	99.711516
1468.000000	99.711249
1467.000000	99.710562
1466.000000	99.711381
1465.000000	99.713008
1464.000000	99.713284
1463.000000	99.711871
1462.000000	99.709801
1461.000000	99.708016
1460.000000	99.707612
1459.000000	99.709155
1458.000000	99.710008
1457.000000	99.704882
1456.000000	99.695508
1455.000000	99.689544
1454.000000	99.688267
1453.000000	99.687908
1452.000000	99.685352
1451.000000	99.680494
1450.000000	99.674919
1449.000000	99.669305
1448.000000	99.664283
1447.000000	99.662320
1446.000000	99.664775
1445.000000	99.668381
1444.000000	99.668225
1443.000000	99.662674
1442.000000	99.654552
1441.000000	99.647557
1440.000000	99.642719
1439.000000	99.639386
1438.000000	99.637967
1437.000000	99.639666
1436.000000	99.643999
1435.000000	99.648888
1434.000000	99.652194
1433.000000	99.651872
1432.000000	99.646638
1431.000000	99.637406
1430.000000	99.627768
1429.000000	99.621048
1428.000000	99.617314
1427.000000	99.614637
1426.000000	99.611970
1425.000000	99.610074
1424.000000	99.609971
1423.000000	99.611233
1422.000000	99.612741
1421.000000	99.614051
1420.000000	99.615374
1419.000000	99.616765
1418.000000	99.618597
1417.000000	99.620707
1416.000000	99.622010
1415.000000	99.622380
1414.000000	99.622813
1413.000000	99.624514
1412.000000	99.628454
1411.000000	99.635043
1410.000000	99.643309
1409.000000	99.650458
1408.000000	99.653549
1407.000000	99.651995
1406.000000	99.647907
1405.000000	99.644523
1404.000000	99.644400
1403.000000	99.648308
1402.000000	99.654985
1401.000000	99.661816
1400.000000	99.666712
1399.000000	99.670099
1398.000000	99.674243
1397.000000	99.679543
1396.000000	99.683960
1395.000000	99.686601
1394.000000	99.689632
1393.000000	99.694971
1392.000000	99.701182
1391.000000	99.706115
1390.000000	99.709695
1389.000000	99.712918
1388.000000	99.715708
1387.000000	99.717325
1386.000000	99.718629
1385.000000	99.721632
1384.000000	99.726946
1383.000000	99.733155
1382.000000	99.738128
1381.000000	99.740739
1380.000000	99.741493
1379.000000	99.741988
1378.000000	99.743691
1377.000000	99.746901
1376.000000	99.750765
1375.000000	99.754104
1374.000000	99.756446
1373.000000	99.758444
1372.000000	99.761048
1371.000000	99.764508
1370.000000	99.768237
1369.000000	99.771328
1368.000000	99.773322
1367.000000	99.774734
1366.000000	99.776557
1365.000000	99.779200
1364.000000	99.782398
1363.000000	99.786115
1362.000000	99.790801
1361.000000	99.796214
1360.000000	99.800887
1359.000000	99.803642
1358.000000	99.804935
1357.000000	99.806243
1356.000000	99.808233
1355.000000	99.810182
1354.000000	99.811391
1353.000000	99.812387
1352.000000	99.814314
1351.000000	99.817394
1350.000000	99.820172
1349.000000	99.820741
1348.000000	99.818497
1347.000000	99.814754
1346.000000	99.811790
1345.000000	99.811241
1344.000000	99.813446
1343.000000	99.817833
1342.000000	99.823210
1341.000000	99.827632
1340.000000	99.829041
1339.000000	99.827072
1338.000000	99.823752
1337.000000	99.821265
1336.000000	99.819808
1335.000000	99.818621
1334.000000	99.817987
1333.000000	99.819084
1332.000000	99.822257
1331.000000	99.826397
1330.000000	99.829991
1329.000000	99.831866
1328.000000	99.830962
1327.000000	99.826935
1326.000000	99.821686
1325.000000	99.818999
1324.000000	99.820991
1323.000000	99.825341
1322.000000	99.827285
1321.000000	99.824539
1320.000000	99.819606
1319.000000	99.817086
1318.000000	99.818942
1317.000000	99.822795
1316.000000	99.824842
1315.000000	99.823723
1314.000000	99.821354
1313.000000	99.820508
1312.000000	99.821972
1311.000000	99.824205
1310.000000	99.825473
1309.000000	99.825872
1308.000000	99.827142
1307.000000	99.830375
1306.000000	99.833818
1305.000000	99.833710
1304.000000	99.827877
1303.000000	99.818574
1302.000000	99.811310
1301.000000	99.810248
1300.000000	99.815010
1299.000000	99.821764
1298.000000	99.826659
1297.000000	99.828349
1296.000000	99.828189
1295.000000	99.828544
1294.000000	99.830281
1293.000000	99.831413
1292.000000	99.828702
1291.000000	99.821042
1290.000000	99.811081
1289.000000	99.803319
1288.000000	99.800669
1287.000000	99.802468
1286.000000	99.804819
1285.000000	99.803280
1284.000000	99.796812
1283.000000	99.789721
1282.000000	99.788201
1281.000000	99.793649
1280.000000	99.800344
1279.000000	99.800819
1278.000000	99.793033
1277.000000	99.781571
1276.000000	99.772788
1275.000000	99.769737
1274.000000	99.771044
1273.000000	99.772977
1272.000000	99.772290
1271.000000	99.768115
1270.000000	99.761924
1269.000000	99.755890
1268.000000	99.751324
1267.000000	99.748179
1266.000000	99.745136
1265.000000	99.740233
1264.000000	99.732750
1263.000000	99.724852
1262.000000	99.719897
1261.000000	99.718333
1260.000000	99.716554
1259.000000	99.710608
1258.000000	99.699907
1257.000000	99.686385
1256.000000	99.671445
1255.000000	99.655143
1254.000000	99.637320
1253.000000	99.618276
1252.000000	99.599041
1251.000000	99.581631
1250.000000	99.567611
1249.000000	99.555485
1248.000000	99.541279
1247.000000	99.523515
1246.000000	99.506475
1245.000000	99.496278
1244.000000	99.493842
1243.000000	99.493177
1242.000000	99.486576
1241.000000	99.470571
1240.000000	99.447581
1239.000000	99.423639
1238.000000	99.404173
1237.000000	99.389891
1236.000000	99.376015
1235.000000	99.356308
1234.000000	99.328343
1233.000000	99.295097
1232.000000	99.262518
1231.000000	99.236202
1230.000000	99.218746
1229.000000	99.207823
1228.000000	99.196575
1227.000000	99.177929
1226.000000	99.149911
1225.000000	99.116228
1224.000000	99.080992
1223.000000	99.043718
1222.000000	99.000909
1221.000000	98.952314
1220.000000	98.903811
1219.000000	98.862591
1218.000000	98.829717
1217.000000	98.798980
1216.000000	98.763376
1215.000000	98.721112
1214.000000	98.674768
1213.000000	98.626478
1212.000000	98.575940
1211.000000	98.522436
1210.000000	98.466382
1209.000000	98.408273
1208.000000	98.347702
1207.000000	98.284561
1206.000000	98.220640
1205.000000	98.159315
1204.000000	98.103410
1203.000000	98.052964
1202.000000	98.004742
1201.000000	97.954024
1200.000000	97.896916
1199.000000	97.831492
1198.000000	97.758584
1197.000000	97.682911
1196.000000	97.611894
1195.000000	97.549919
1194.000000	97.493139
1193.000000	97.433011
1192.000000	97.365784
1191.000000	97.295465
1190.000000	97.226254
1189.000000	97.155849
1188.000000	97.079552
1187.000000	96.998469
1186.000000	96.919394
1185.000000	96.846793
1184.000000	96.778141
1183.000000	96.707681
1182.000000	96.632459
1181.000000	96.553705
1180.000000	96.473309
1179.000000	96.390119
1178.000000	96.300352
1177.000000	96.201717
1176.000000	96.096010
1175.000000	95.986660
1174.000000	95.875049
1173.000000	95.761553
1172.000000	95.649037
1171.000000	95.541391
1170.000000	95.438116
1169.000000	95.334366
1168.000000	95.228272
1167.000000	95.125657
1166.000000	95.035957
1165.000000	94.965710
1164.000000	94.916931
1163.000000	94.888932
1162.000000	94.880126
1161.000000	94.889196
1160.000000	94.913365
1159.000000	94.943040
1158.000000	94.960553
1157.000000	94.949537
1156.000000	94.906024
1155.000000	94.838433
1154.000000	94.758365
1153.000000	94.673973
1152.000000	94.589928
1151.000000	94.507651
1150.000000	94.424332
1149.000000	94.336163
1148.000000	94.243552
1147.000000	94.150125
1146.000000	94.057589
1145.000000	93.966195
1144.000000	93.879022
1143.000000	93.799355
1142.000000	93.723678
1141.000000	93.643891
1140.000000	93.557171
1139.000000	93.467273
1138.000000	93.375630
1137.000000	93.278730
1136.000000	93.176441
1135.000000	93.075686
1134.000000	92.982209
1133.000000	92.894133
1132.000000	92.806619
1131.000000	92.717667
1130.000000	92.626712
1129.000000	92.532430
1128.000000	92.434350
1127.000000	92.332541
1126.000000	92.225162
1125.000000	92.111716
1124.000000	91.998673
1123.000000	91.894403
1122.000000	91.797063
1121.000000	91.695050
1120.000000	91.581722
1119.000000	91.462416
1118.000000	91.344953
1117.000000	91.231742
1116.000000	91.124651
1115.000000	91.028894
1114.000000	90.946358
1113.000000	90.871185
1112.000000	90.796850
1111.000000	90.722676
1110.000000	90.650245
1109.000000	90.578857
1108.000000	90.507169
1107.000000	90.434567
1106.000000	90.359735
1105.000000	90.282821
1104.000000	90.208277
1103.000000	90.139090
1102.000000	90.069829
1101.000000	89.993970
1100.000000	89.916739
1099.000000	89.851038
1098.000000	89.799501
1097.000000	89.750462
1096.000000	89.692358
1095.000000	89.623476
1094.000000	89.548331
1093.000000	89.474893
1092.000000	89.414666
1091.000000	89.372946
1090.000000	89.337062
1089.000000	89.286177
1088.000000	89.215496
1087.000000	89.140673
1086.000000	89.077112
1085.000000	89.025485
1084.000000	88.978683
1083.000000	88.930757
1082.000000	88.876656
1081.000000	88.814793
1080.000000	88.752821
1079.000000	88.700279
1078.000000	88.653229
1077.000000	88.597290
1076.000000	88.527813
1075.000000	88.455282
1074.000000	88.387661
1073.000000	88.317825
1072.000000	88.231175
1071.000000	88.116041
1070.000000	87.966806
1069.000000	87.788676
1068.000000	87.600950
1067.000000	87.423433
1066.000000	87.255764
1065.000000	87.080563
1064.000000	86.888178
1063.000000	86.686712
1062.000000	86.487215
1061.000000	86.292063
1060.000000	86.099827
1059.000000	85.908144
1058.000000	85.709837
1057.000000	85.500383
1056.000000	85.291840
1055.000000	85.104796
1054.000000	84.941881
1053.000000	84.781810
1052.000000	84.603536
1051.000000	84.403971
1050.000000	84.189997
1049.000000	83.969519
1048.000000	83.754026
1047.000000	83.552205
1046.000000	83.356580
1045.000000	83.151424
1044.000000	82.935210
1043.000000	82.720837
1042.000000	82.514118
1041.000000	82.308444
1040.000000	82.101715
1039.000000	81.901789
1038.000000	81.713520
1037.000000	81.536682
1036.000000	81.376708
1035.000000	81.239322
1034.000000	81.115172
1033.000000	80.990494
1032.000000	80.873778
1031.000000	80.789426
1030.000000	80.742213
1029.000000	80.709754
1028.000000	80.674040
1027.000000	80.639682
1026.000000	80.616315
1025.000000	80.604595
1024.000000	80.605554
1023.000000	80.622774
1022.000000	80.647487
1021.000000	80.659376
1020.000000	80.649424
1019.000000	80.626702
1018.000000	80.598488
1017.000000	80.560573
1016.000000	80.511571
1015.000000	80.459945
1014.000000	80.411707
1013.000000	80.365749
1012.000000	80.323859
1011.000000	80.289767
1010.000000	80.257450
1009.000000	80.218165
1008.000000	80.180528
1007.000000	80.165056
1006.000000	80.177064
1005.000000	80.204175
1004.000000	80.242496
1003.000000	80.304111
1002.000000	80.393943
1001.000000	80.499521
1000.000000	80.610217
999.000000	80.728939
998.000000	80.858455
997.000000	80.992736
996.000000	81.128056
995.000000	81.267584
994.000000	81.409695
993.000000	81.546206
992.000000	81.677075
991.000000	81.813331
990.000000	81.961329
989.000000	82.116057
988.000000	82.272016
987.000000	82.428541
986.000000	82.584222
985.000000	82.739718
984.000000	82.905657
983.000000	83.092819
982.000000	83.294463
981.000000	83.493660
980.000000	83.687940
979.000000	83.889870
978.000000	84.103433
977.000000	84.318779
976.000000	84.532749
975.000000	84.755896
974.000000	84.993980
973.000000	85.238907
972.000000	85.483618
971.000000	85.731001
970.000000	85.982050
969.000000	86.228677
968.000000	86.464776
967.000000	86.693905
966.000000	86.921654
965.000000	87.149964
964.000000	87.380917
963.000000	87.614701
962.000000	87.841654
961.000000	88.049038
960.000000	88.239355
959.000000	88.430318
958.000000	88.632254
957.000000	88.835871
956.000000	89.026624
955.000000	89.201108
954.000000	89.365508
953.000000	89.527037
952.000000	89.690147
951.000000	89.852136
950.000000	89.999875
949.000000	90.120514
948.000000	90.218378
947.000000	90.312250
946.000000	90.412554
945.000000	90.510107
944.000000	90.590680
943.000000	90.651532
942.000000	90.701140
941.000000	90.752286
940.000000	90.818680
939.000000	90.907566
938.000000	91.009329
937.000000	91.102637
936.000000	91.175423
935.000000	91.234951
934.000000	91.294871
933.000000	91.359992
932.000000	91.426630
931.000000	91.489491
930.000000	91.545012
929.000000	91.595771
928.000000	91.653111
927.000000	91.725056
926.000000	91.798891
925.000000	91.848157
924.000000	91.863316
923.000000	91.864965
922.000000	91.878908
921.000000	91.907049
920.000000	91.931281
919.000000	91.937804
918.000000	91.928417
917.000000	91.913908
916.000000	91.906893
915.000000	91.918997
914.000000	91.956675
913.000000	92.019819
912.000000	92.107950
911.000000	92.224841
910.000000	92.373171
909.000000	92.547446
908.000000	92.735084
907.000000	92.922655
906.000000	93.102192
905.000000	93.277033
904.000000	93.461423
903.000000	93.667198
902.000000	93.888454
901.000000	94.105167
900.000000	94.304100
899.000000	94.490013
898.000000	94.674013
897.000000	94.858363
896.000000	95.037472
895.000000	95.208046
894.000000	95.371719
893.000000	95.529990
892.000000	95.681653
891.000000	95.824527
890.000000	95.956740
889.000000	96.077485
888.000000	96.189477
887.000000	96.299996
886.000000	96.416717
885.000000	96.541673
884.000000	96.669636
883.000000	96.791641
882.000000	96.900181
881.000000	96.993036
880.000000	97.073937
879.000000	97.150176
878.000000	97.229120
877.000000	97.315875
876.000000	97.412726
875.000000	97.519303
874.000000	97.633113
873.000000	97.750130
872.000000	97.864377
871.000000	97.968849
870.000000	98.061015
869.000000	98.147640
868.000000	98.239484
867.000000	98.339195
866.000000	98.438162
865.000000	98.527669
864.000000	98.609228
863.000000	98.691044
862.000000	98.778235
861.000000	98.870440
860.000000	98.965422
859.000000	99.059529
858.000000	99.147028
857.000000	99.225034
856.000000	99.298361
855.000000	99.373915
854.000000	99.449498
853.000000	99.512943
852.000000	99.554746
851.000000	99.579623
850.000000	99.603800
849.000000	99.640271
848.000000	99.685628
847.000000	99.721264
846.000000	99.730878
845.000000	99.719411
844.000000	99.711827
843.000000	99.728918
842.000000	99.765064
841.000000	99.793701
840.000000	99.794044
839.000000	99.769487
838.000000	99.741284
837.000000	99.727406
836.000000	99.727161
835.000000	99.723739
834.000000	99.702491
833.000000	99.668849
832.000000	99.646366
831.000000	99.654093
830.000000	99.687245
829.000000	99.723151
828.000000	99.743119
827.000000	99.743571
826.000000	99.730010
825.000000	99.709314
824.000000	99.688322
823.000000	99.671134
822.000000	99.654099
821.000000	99.628292
820.000000	99.588685
819.000000	99.538264
818.000000	99.484339
817.000000	99.432908
816.000000	99.383132
815.000000	99.323349
814.000000	99.235628
813.000000	99.108745
812.000000	98.943502
811.000000	98.741155
810.000000	98.492577
809.000000	98.187881
808.000000	97.833427
807.000000	97.448527
806.000000	97.045895
805.000000	96.627254
804.000000	96.200592
803.000000	95.789478
802.000000	95.420068
801.000000	95.108876
800.000000	94.866531
799.000000	94.699840
798.000000	94.603058
797.000000	94.558223
796.000000	94.551222
795.000000	94.579393
794.000000	94.639789
793.000000	94.720322
792.000000	94.806508
791.000000	94.887037
790.000000	94.949104
789.000000	94.978806
788.000000	94.971564
787.000000	94.933778
786.000000	94.869448
785.000000	94.773556
784.000000	94.644321
783.000000	94.494648
782.000000	94.345880
781.000000	94.217027
780.000000	94.124473
779.000000	94.082530
778.000000	94.094952
777.000000	94.149978
776.000000	94.229908
775.000000	94.323626
774.000000	94.429107
773.000000	94.549682
772.000000	94.689606
771.000000	94.847141
770.000000	95.009663
769.000000	95.160599
768.000000	95.292269
767.000000	95.407536
766.000000	95.511022
765.000000	95.606316
764.000000	95.700178
763.000000	95.798796
762.000000	95.897972
761.000000	95.986667
760.000000	96.063202
759.000000	96.138676
758.000000	96.220555
757.000000	96.302362
756.000000	96.375222
755.000000	96.441915
754.000000	96.513531
753.000000	96.597667
752.000000	96.693876
751.000000	96.793876
750.000000	96.881766
