4000.000000	100.071737
3999.000000	100.070952
3998.000000	100.070402
3997.000000	100.070421
3996.000000	100.070817
3995.000000	100.070968
3994.000000	100.070410
3993.000000	100.069247
3992.000000	100.067964
3991.000000	100.066795
3990.000000	100.065576
3989.000000	100.064276
3988.000000	100.063416
3987.000000	100.063706
3986.000000	100.065200
3985.000000	100.066917
3984.000000	100.067688
3983.000000	100.067264
3982.000000	100.066412
3981.000000	100.065936
3980.000000	100.065750
3979.000000	100.065095
3978.000000	100.063363
3977.000000	100.060489
3976.000000	100.056751
3975.000000	100.052529
3974.000000	100.048453
3973.000000	100.045589
3972.000000	100.044932
3971.000000	100.046593
3970.000000	100.049310
3969.000000	100.051041
3968.000000	100.050542
3967.000000	100.048114
3966.000000	100.045273
3965.000000	100.043465
3964.000000	100.043031
3963.000000	100.043218
3962.000000	100.042866
3961.000000	100.041256
3960.000000	100.038561
3959.000000	100.035686
3958.000000	100.033555
3957.000000	100.032474
3956.000000	100.032016
3955.000000	100.031474
3954.000000	100.030474
3953.000000	100.029243
3952.000000	100.028427
3951.000000	100.028593
3950.000000	100.029761
3949.000000	100.031319
3948.000000	100.032426
3947.000000	100.032611
3946.000000	100.031975
3945.000000	100.030908
3944.000000	100.029697
3943.000000	100.028385
3942.000000	100.026869
3941.000000	100.025113
3940.000000	100.023306
3939.000000	100.021752
3938.000000	100.020640
3937.000000	100.020008
3936.000000	100.019793
3935.000000	100.019806
3934.000000	100.019788
3933.000000	100.019670
3932.000000	100.019774
3931.000000	100.020495
3930.000000	100.021733
3929.000000	100.022769
3928.000000	100.022927
3927.000000	100.022263
3926.000000	100.021539
3925.000000	100.021522
3924.000000	100.022230
3923.000000	100.022962
3922.000000	100.022986
3921.000000	100.022230
3920.000000	100.021146
3919.000000	100.020287
3918.000000	100.019825
3917.000000	100.019564
3916.000000	100.019271
3915.000000	100.018862
3914.000000	100.018389
3913.000000	100.017928
3912.000000	100.017504
3911.000000	100.017113
3910.000000	100.016744
3909.000000	100.016391
3908.000000	100.016045
3907.000000	100.015695
3906.000000	100.015337
3905.000000	100.014975
3904.000000	100.014618
3903.000000	100.014271
3902.000000	100.013936
3901.000000	100.013615
3900.000000	100.013317
3899.000000	100.013061
3898.000000	100.012863
3897.000000	100.012728
3896.000000	100.012635
3895.000000	100.012556
3894.000000	100.012465
3893.000000	100.012359
3892.000000	100.012254
3891.000000	100.012179
3890.000000	100.012152
3889.000000	100.012166
3888.000000	100.012203
3887.000000	100.012251
3886.000000	100.012303
3885.000000	100.012377
3884.000000	100.012520
3883.000000	100.012766
3882.000000	100.013069
3881.000000	100.013297
3880.000000	100.013363
3879.000000	100.013296
3878.000000	100.013270
3877.000000	100.013429
3876.000000	100.013792
3875.000000	100.014310
3874.000000	100.015027
3873.000000	100.016017
3872.000000	100.017212
3871.000000	100.018446
3870.000000	100.019652
3869.000000	100.020813
3868.000000	100.021735
3867.000000	100.022117
3866.000000	100.021737
3865.000000	100.020727
3864.000000	100.019862
3863.000000	100.020022
3862.000000	100.021356
3861.000000	100.023255
3860.000000	100.025084
3859.000000	100.026866
3858.000000	100.029125
3857.000000	100.032212
3856.000000	100.035591
3855.000000	100.037831
3854.000000	100.038130
3853.000000	100.037591
3852.000000	100.037311
3851.000000	100.037212
3850.000000	100.037513
3849.000000	100.038224
3848.000000	100.038920
3847.000000	100.039509
3846.000000	100.040356
3845.000000	100.041756
3844.000000	100.043359
3843.000000	100.044401
3842.000000	100.044625
3841.000000	100.044899
3840.000000	100.046708
3839.000000	100.050842
3838.000000	100.056184
3837.000000	100.060158
3836.000000	100.061157
3835.000000	100.059722
3834.000000	100.057658
3833.000000	100.056401
3832.000000	100.056302
3831.000000	100.056929
3830.000000	100.057604
3829.000000	100.057837
3828.000000	100.057599
3827.000000	100.057548
3826.000000	100.058772
3825.000000	100.061806
3824.000000	100.065810
3823.000000	100.068756
3822.000000	100.069349
3821.000000	100.069282
3820.000000	100.071088
3819.000000	100.074896
3818.000000	100.079002
3817.000000	100.080274
3816.000000	100.076258
3815.000000	100.068028
3814.000000	100.059222
3813.000000	100.053010
3812.000000	100.050403
3811.000000	100.050456
3810.000000	100.051488
3809.000000	100.052022
3808.000000	100.051539
3807.000000	100.051281
3806.000000	100.053244
3805.000000	100.058098
3804.000000	100.064516
3803.000000	100.069329
3802.000000	100.069981
3801.000000	100.067728
3800.000000	100.065305
3799.000000	100.063693
3798.000000	100.062065
3797.000000	100.058334
3796.000000	100.051737
3795.000000	100.044233
3794.000000	100.038515
3793.000000	100.035567
3792.000000	100.034289
3791.000000	100.033201
3790.000000	100.032125
3789.000000	100.031926
3788.000000	100.032906
3787.000000	100.034003
3786.000000	100.033710
3785.000000	100.031635
3784.000000	100.028961
3783.000000	100.027442
3782.000000	100.027891
3781.000000	100.029339
3780.000000	100.029619
3779.000000	100.027141
3778.000000	100.022223
3777.000000	100.017186
3776.000000	100.015087
3775.000000	100.017571
3774.000000	100.023563
3773.000000	100.029579
3772.000000	100.031701
3771.000000	100.028352
3770.000000	100.021607
3769.000000	100.014992
3768.000000	100.010126
3767.000000	100.006988
3766.000000	100.005805
3765.000000	100.007423
3764.000000	100.012250
3763.000000	100.019241
3762.000000	100.025911
3761.000000	100.029199
3760.000000	100.027610
3759.000000	100.022959
3758.000000	100.018967
3757.000000	100.018654
3756.000000	100.023277
3755.000000	100.032239
3754.000000	100.043347
3753.000000	100.053734
3752.000000	100.061118
3751.000000	100.063974
3750.000000	100.059622
3749.000000	100.045441
3748.000000	100.024305
3747.000000	100.003327
3746.000000	99.988003
3745.000000	99.981328
3744.000000	99.983247
3743.000000	99.988345
3742.000000	99.993089
3741.000000	100.000374
3740.000000	100.012183
3739.000000	100.025819
3738.000000	100.035741
3737.000000	100.037867
3736.000000	100.033479
3735.000000	100.027017
3734.000000	100.019370
3733.000000	100.008119
3732.000000	99.993402
3731.000000	99.978235
3730.000000	99.964604
3729.000000	99.951457
3728.000000	99.936184
3727.000000	99.918201
3726.000000	99.900465
3725.000000	99.885889
3724.000000	99.874008
3723.000000	99.863093
3722.000000	99.853803
3721.000000	99.848456
3720.000000	99.846912
3719.000000	99.845173
3718.000000	99.839141
3717.000000	99.829141
3716.000000	99.819133
3715.000000	99.810759
3714.000000	99.799180
3713.000000	99.777523
3712.000000	99.747114
3711.000000	99.718732
3710.000000	99.698807
3709.000000	99.683258
3708.000000	99.666029
3707.000000	99.645646
3706.000000	99.624895
3705.000000	99.607142
3704.000000	99.593476
3703.000000	99.582138
3702.000000	99.570294
3701.000000	99.555963
3700.000000	99.538941
3699.000000	99.521216
3698.000000	99.505389
3697.000000	99.492478
3696.000000	99.482412
3695.000000	99.475820
3694.000000	99.474435
3693.000000	99.479476
3692.000000	99.489196
3691.000000	99.498442
3690.000000	99.501131
3689.000000	99.494013
3688.000000	99.477922
3687.000000	99.457267
3686.000000	99.437988
3685.000000	99.422819
3684.000000	99.409867
3683.000000	99.395978
3682.000000	99.380658
3681.000000	99.366762
3680.000000	99.357039
3679.000000	99.350008
3678.000000	99.340730
3677.000000	99.326455
3676.000000	99.311773
3675.000000	99.302306
3674.000000	99.293768
3673.000000	99.280602
3672.000000	99.263466
3671.000000	99.242923
3670.000000	99.219938
3669.000000	99.196982
3668.000000	99.174323
3667.000000	99.151741
3666.000000	99.128689
3665.000000	99.102980
3664.000000	99.074423
3663.000000	99.047257
3662.000000	99.027480
3661.000000	99.018522
3660.000000	99.019108
3659.000000	99.023870
3658.000000	99.025823
3657.000000	99.020598
3656.000000	99.009988
3655.000000	98.999339
3654.000000	98.991904
3653.000000	98.986076
3652.000000	98.976602
3651.000000	98.960984
3650.000000	98.945845
3649.000000	98.940401
3648.000000	98.941460
3647.000000	98.937037
3646.000000	98.922425
3645.000000	98.902290
3644.000000	98.883536
3643.000000	98.870413
3642.000000	98.863200
3641.000000	98.858858
3640.000000	98.852977
3639.000000	98.842537
3638.000000	98.827250
3637.000000	98.808862
3636.000000	98.790056
3635.000000	98.773791
3634.000000	98.762011
3633.000000	98.753483
3632.000000	98.743192
3631.000000	98.725303
3630.000000	98.700006
3629.000000	98.678001
3628.000000	98.668346
3627.000000	98.665865
3626.000000	98.662630
3625.000000	98.656877
3624.000000	98.649874
3623.000000	98.644893
3622.000000	98.645725
3621.000000	98.654091
3620.000000	98.667939
3619.000000	98.681543
3618.000000	98.688265
3617.000000	98.685730
3616.000000	98.677842
3615.000000	98.670520
3614.000000	98.667480
3613.000000	98.669142
3612.000000	98.673277
3611.000000	98.677049
3610.000000	98.678636
3609.000000	98.677496
3608.000000	98.674115
3607.000000	98.669283
3606.000000	98.664168
3605.000000	98.660828
3604.000000	98.660896
3603.000000	98.663434
3602.000000	98.665487
3601.000000	98.664951
3600.000000	98.662719
3599.000000	98.661553
3598.000000	98.662762
3597.000000	98.664547
3596.000000	98.664000
3595.000000	98.660714
3594.000000	98.657545
3593.000000	98.657572
3592.000000	98.661345
3591.000000	98.667072
3590.000000	98.671844
3589.000000	98.673085
3588.000000	98.669824
3587.000000	98.662567
3586.000000	98.652556
3585.000000	98.642775
3584.000000	98.636828
3583.000000	98.634979
3582.000000	98.634162
3581.000000	98.631653
3580.000000	98.627506
3579.000000	98.623395
3578.000000	98.619919
3577.000000	98.615792
3576.000000	98.609546
3575.000000	98.601340
3574.000000	98.592738
3573.000000	98.585325
3572.000000	98.579968
3571.000000	98.576957
3570.000000	98.575876
3569.000000	98.575535
3568.000000	98.574636
3567.000000	98.572397
3566.000000	98.567986
3565.000000	98.560657
3564.000000	98.551107
3563.000000	98.541127
3562.000000	98.532217
3561.000000	98.524822
3560.000000	98.518205
3559.000000	98.511197
3558.000000	98.503297
3557.000000	98.494971
3556.000000	98.487054
3555.000000	98.480269
3554.000000	98.475131
3553.000000	98.471639
3552.000000	98.468705
3551.000000	98.464430
3550.000000	98.457551
3549.000000	98.448384
3548.000000	98.438535
3547.000000	98.429867
3546.000000	98.423333
3545.000000	98.418568
3544.000000	98.414326
3543.000000	98.409428
3542.000000	98.403564
3541.000000	98.397327
3540.000000	98.391538
3539.000000	98.386448
3538.000000	98.381545
3537.000000	98.376082
3536.000000	98.369785
3535.000000	98.363012
3534.000000	98.356380
3533.000000	98.350256
3532.000000	98.344555
3531.000000	98.338885
3530.000000	98.332874
3529.000000	98.326441
3528.000000	98.319809
3527.000000	98.313262
3526.000000	98.306900
3525.000000	98.300651
3524.000000	98.294445
3523.000000	98.288354
3522.000000	98.282519
3521.000000	98.276984
3520.000000	98.271588
3519.000000	98.266031
3518.000000	98.260111
3517.000000	98.253904
3516.000000	98.247692
3515.000000	98.241706
3514.000000	98.235985
3513.000000	98.230458
3512.000000	98.225056
3511.000000	98.219657
3510.000000	98.214007
3509.000000	98.207871
3508.000000	98.201228
3507.000000	98.194283
3506.000000	98.187274
3505.000000	98.180411
3504.000000	98.173993
3503.000000	98.168284
3502.000000	98.163195
3501.000000	98.158176
3500.000000	98.152622
3499.000000	98.146385
3498.000000	98.139802
3497.000000	98.133414
3496.000000	98.127470
3495.000000	98.121791
3494.000000	98.116075
3493.000000	98.110249
3492.000000	98.104458
3491.000000	98.098819
3490.000000	98.093310
3489.000000	98.087867
3488.000000	98.082503
3487.000000	98.077257
3486.000000	98.072081
3485.000000	98.066835
3484.000000	98.061386
3483.000000	98.055712
3482.000000	98.049908
3481.000000	98.044099
3480.000000	98.038340
3479.000000	98.032626
3478.000000	98.026953
3477.000000	98.021348
3476.000000	98.015834
3475.000000	98.010369
3474.000000	98.004861
3473.000000	97.999253
3472.000000	97.993585
3471.000000	97.987958
3470.000000	97.982429
3469.000000	97.976965
3468.000000	97.971513
3467.000000	97.966076
3466.000000	97.960721
3465.000000	97.955503
3464.000000	97.950382
3463.000000	97.945209
3462.000000	97.939867
3461.000000	97.934364
3460.000000	97.928881
3459.000000	97.923606
3458.000000	97.918559
3457.000000	97.913542
3456.000000	97.908348
3455.000000	97.902987
3454.000000	97.897601
3453.000000	97.892245
3452.000000	97.886842
3451.000000	97.881326
3450.000000	97.875760
3449.000000	97.870304
3448.000000	97.865125
3447.000000	97.860320
3446.000000	97.855850
3445.000000	97.851468
3444.000000	97.846741
3443.000000	97.841241
3442.000000	97.834875
3441.000000	97.828126
3440.000000	97.821677
3439.000000	97.815740
3438.000000	97.809944
3437.000000	97.804049
3436.000000	97.798434
3435.000000	97.793552
3434.000000	97.789268
3433.000000	97.785202
3432.000000	97.781486
3431.000000	97.778498
3430.000000	97.775928
3429.000000	97.772874
3428.000000	97.769080
3427.000000	97.765285
3426.000000	97.761860
3425.000000	97.757827
3424.000000	97.752140
3423.000000	97.745662
3422.000000	97.740803
3421.000000	97.738784
3420.000000	97.738025
3419.000000	97.735729
3418.000000	97.730736
3417.000000	97.724123
3416.000000	97.717622
3415.000000	97.712281
3414.000000	97.708602
3413.000000	97.706878
3412.000000	97.706521
3411.000000	97.705548
3410.000000	97.701841
3409.000000	97.695212
3408.000000	97.687774
3407.000000	97.681861
3406.000000	97.677853
3405.000000	97.674424
3404.000000	97.670415
3403.000000	97.665937
3402.000000	97.661928
3401.000000	97.659480
3400.000000	97.659554
3399.000000	97.662317
3398.000000	97.666206
3397.000000	97.668265
3396.000000	97.666353
3395.000000	97.661083
3394.000000	97.655441
3393.000000	97.652436
3392.000000	97.653052
3391.000000	97.656151
3390.000000	97.659883
3389.000000	97.663193
3388.000000	97.665967
3387.000000	97.667960
3386.000000	97.668167
3385.000000	97.665818
3384.000000	97.661839
3383.000000	97.658533
3382.000000	97.657394
3381.000000	97.657753
3380.000000	97.657947
3379.000000	97.657290
3378.000000	97.656316
3377.000000	97.655548
3376.000000	97.654916
3375.000000	97.654353
3374.000000	97.654210
3373.000000	97.654868
3372.000000	97.656261
3371.000000	97.657893
3370.000000	97.659069
3369.000000	97.659203
3368.000000	97.658292
3367.000000	97.657095
3366.000000	97.656550
3365.000000	97.656956
3364.000000	97.658011
3363.000000	97.659514
3362.000000	97.661652
3361.000000	97.664551
3360.000000	97.667872
3359.000000	97.670963
3358.000000	97.673195
3357.000000	97.674124
3356.000000	97.673672
3355.000000	97.672446
3354.000000	97.671715
3353.000000	97.672605
3352.000000	97.675235
3351.000000	97.678733
3350.000000	97.682033
3349.000000	97.684652
3348.000000	97.686848
3347.000000	97.689204
3346.000000	97.692039
3345.000000	97.695051
3344.000000	97.697479
3343.000000	97.698710
3342.000000	97.698884
3341.000000	97.699052
3340.000000	97.700616
3339.000000	97.704389
3338.000000	97.710100
3337.000000	97.716523
3336.000000	97.722174
3335.000000	97.726167
3334.000000	97.728485
3333.000000	97.729786
3332.000000	97.730997
3331.000000	97.732750
3330.000000	97.735074
3329.000000	97.737581
3328.000000	97.740010
3327.000000	97.742615
3326.000000	97.745941
3325.000000	97.750197
3324.000000	97.754941
3323.000000	97.759421
3322.000000	97.763209
3321.000000	97.766459
3320.000000	97.769615
3319.000000	97.772845
3318.000000	97.775772
3317.000000	97.777877
3316.000000	97.779218
3315.000000	97.780597
3314.000000	97.782869
3313.000000	97.786248
3312.000000	97.790449
3311.000000	97.795275
3310.000000	97.800708
3309.000000	97.806546
3308.000000	97.812314
3307.000000	97.817444
3306.000000	97.821264
3305.000000	97.823139
3304.000000	97.823182
3303.000000	97.822703
3302.000000	97.823187
3301.000000	97.824856
3300.000000	97.827088
3299.000000	97.830081
3298.000000	97.834893
3297.000000	97.841512
3296.000000	97.848089
3295.000000	97.852980
3294.000000	97.856493
3293.000000	97.859622
3292.000000	97.862025
3291.000000	97.862415
3290.000000	97.860474
3289.000000	97.857328
3288.000000	97.854575
3287.000000	97.853728
3286.000000	97.856062
3285.000000	97.861696
3284.000000	97.868776
3283.000000	97.874734
3282.000000	97.878744
3281.000000	97.882065
3280.000000	97.886161
3279.000000	97.891596
3278.000000	97.898708
3277.000000	97.907859
3276.000000	97.918293
3275.000000	97.927705
3274.000000	97.934096
3273.000000	97.937719
3272.000000	97.940619
3271.000000	97.944500
3270.000000	97.949490
3269.000000	97.954816
3268.000000	97.959936
3267.000000	97.964756
3266.000000	97.969226
3265.000000	97.973287
3264.000000	97.977209
3263.000000	97.981453
3262.000000	97.985783
3261.000000	97.988876
3260.000000	97.989622
3259.000000	97.989005
3258.000000	97.989924
3257.000000	97.994383
3256.000000	98.001389
3255.000000	98.008105
3254.000000	98.012959
3253.000000	98.016906
3252.000000	98.021714
3251.000000	98.028051
3250.000000	98.035463
3249.000000	98.043230
3248.000000	98.050624
3247.000000	98.057094
3246.000000	98.062844
3245.000000	98.068795
3244.000000	98.075429
3243.000000	98.081904
3242.000000	98.086899
3241.000000	98.090171
3240.000000	98.092844
3239.000000	98.096119
3238.000000	98.100001
3237.000000	98.103549
3236.000000	98.106215
3235.000000	98.108762
3234.000000	98.112777
3233.000000	98.119286
3232.000000	98.127916
3231.000000	98.137219
3230.000000	98.145760
3229.000000	98.152834
3228.000000	98.158306
3227.000000	98.162323
3226.000000	98.165376
3225.000000	98.168340
3224.000000	98.172162
3223.000000	98.177456
3222.000000	98.184396
3221.000000	98.192736
3220.000000	98.201675
3219.000000	98.210144
3218.000000	98.217684
3217.000000	98.224857
3216.000000	98.232510
3215.000000	98.240770
3214.000000	98.249090
3213.000000	98.257153
3212.000000	98.265176
3211.000000	98.273072
3210.000000	98.279827
3209.000000	98.284313
3208.000000	98.286762
3207.000000	98.289189
3206.000000	98.293921
3205.000000	98.301616
3204.000000	98.310853
3203.000000	98.319450
3202.000000	98.326414
3201.000000	98.332349
3200.000000	98.338172
3199.000000	98.343984
3198.000000	98.349452
3197.000000	98.354852
3196.000000	98.361063
3195.000000	98.368519
3194.000000	98.376744
3193.000000	98.385058
3192.000000	98.393300
3191.000000	98.401529
3190.000000	98.409462
3189.000000	98.416750
3188.000000	98.423496
3187.000000	98.429947
3186.000000	98.435816
3185.000000	98.440430
3184.000000	98.443712
3183.000000	98.446677
3182.000000	98.450769
3181.000000	98.456711
3180.000000	98.464011
3179.000000	98.471275
3178.000000	98.477171
3177.000000	98.481397
3176.000000	98.484938
3175.000000	98.489238
3174.000000	98.494808
3173.000000	98.500890
3172.000000	98.506552
3171.000000	98.512013
3170.000000	98.518436
3169.000000	98.526464
3168.000000	98.535420
3167.000000	98.543986
3166.000000	98.551382
3165.000000	98.557688
3164.000000	98.563280
3163.000000	98.568368
3162.000000	98.573164
3161.000000	98.578065
3160.000000	98.583390
3159.000000	98.589023
3158.000000	98.594569
3157.000000	98.599980
3156.000000	98.605876
3155.000000	98.613099
3154.000000	98.621884
3153.000000	98.631394
3152.000000	98.639992
3151.000000	98.646217
3150.000000	98.649815
3149.000000	98.652120
3148.000000	98.655299
3147.000000	98.660669
3146.000000	98.667828
3145.000000	98.675338
3144.000000	98.682213
3143.000000	98.688639
3142.000000	98.695318
3141.000000	98.702604
3140.000000	98.710414
3139.000000	98.718660
3138.000000	98.727470
3137.000000	98.737006
3136.000000	98.747037
3135.000000	98.756505
3134.000000	98.763760
3133.000000	98.767798
3132.000000	98.769547
3131.000000	98.771746
3130.000000	98.776658
3129.000000	98.784099
3128.000000	98.791931
3127.000000	98.798296
3126.000000	98.803109
3125.000000	98.807362
3124.000000	98.811614
3123.000000	98.815686
3122.000000	98.819584
3121.000000	98.823972
3120.000000	98.829490
3119.000000	98.835915
3118.000000	98.842216
3117.000000	98.847426
3116.000000	98.851311
3115.000000	98.854321
3114.000000	98.857234
3113.000000	98.860837
3112.000000	98.865612
3111.000000	98.871411
3110.000000	98.877374
3109.000000	98.882524
3108.000000	98.886649
3107.000000	98.890442
3106.000000	98.894670
3105.000000	98.899314
3104.000000	98.903775
3103.000000	98.907712
3102.000000	98.911386
3101.000000	98.915237
3100.000000	98.919356
3099.000000	98.923501
3098.000000	98.927489
3097.000000	98.931403
3096.000000	98.935420
3095.000000	98.939545
3094.000000	98.943574
3093.000000	98.947297
3092.000000	98.950672
3091.000000	98.953925
3090.000000	98.957506
3089.000000	98.961741
3088.000000	98.966429
3087.000000	98.970969
3086.000000	98.975017
3085.000000	98.978643
3084.000000	98.981991
3083.000000	98.985112
3082.000000	98.988185
3081.000000	98.991662
3080.000000	98.995993
3079.000000	99.001266
3078.000000	99.007110
3077.000000	99.012806
3076.000000	99.017588
3075.000000	99.021135
3074.000000	99.023992
3073.000000	99.027290
3072.000000	99.031684
3071.000000	99.036724
3070.000000	99.041492
3069.000000	99.045628
3068.000000	99.049356
3067.000000	99.052703
3066.000000	99.055407
3065.000000	99.057751
3064.000000	99.060747
3063.000000	99.064891
3062.000000	99.068984
3061.000000	99.070965
3060.000000	99.070236
3059.000000	99.068829
3058.000000	99.069726
3057.000000	99.073988
3056.000000	99.079960
3055.000000	99.085600
3054.000000	99.091173
3053.000000	99.098743
3052.000000	99.108711
3051.000000	99.117571
3050.000000	99.120154
3049.000000	99.114357
3048.000000	99.103729
3047.000000	99.095368
3046.000000	99.094425
3045.000000	99.100396
3044.000000	99.108089
3043.000000	99.112148
3042.000000	99.111021
3041.000000	99.107130
3040.000000	99.104124
3039.000000	99.104188
3038.000000	99.107218
3037.000000	99.111370
3036.000000	99.114274
3035.000000	99.114627
3034.000000	99.113142
3033.000000	99.111650
3032.000000	99.111145
3031.000000	99.111060
3030.000000	99.110292
3029.000000	99.108218
3028.000000	99.104672
3027.000000	99.099994
3026.000000	99.095633
3025.000000	99.093454
3024.000000	99.093143
3023.000000	99.090914
3022.000000	99.082431
3021.000000	99.067411
3020.000000	99.050684
3019.000000	99.038332
3018.000000	99.033191
3017.000000	99.033899
3016.000000	99.036686
3015.000000	99.037282
3014.000000	99.032545
3013.000000	99.022294
3012.000000	99.009670
3011.000000	98.998095
3010.000000	98.987195
3009.000000	98.973197
3008.000000	98.954418
3007.000000	98.935104
3006.000000	98.921733
3005.000000	98.915432
3004.000000	98.910329
3003.000000	98.900625
3002.000000	98.887388
3001.000000	98.876304
3000.000000	98.869665
2999.000000	98.863440
2998.000000	98.852845
2997.000000	98.838292
2996.000000	98.823810
2995.000000	98.810413
2994.000000	98.793231
2993.000000	98.766096
2992.000000	98.728312
2991.000000	98.686515
2990.000000	98.649798
2989.000000	98.622526
2988.000000	98.601455
2987.000000	98.579803
2986.000000	98.554316
2985.000000	98.528041
2984.000000	98.505701
2983.000000	98.487087
2982.000000	98.466449
2981.000000	98.439019
2980.000000	98.407494
2979.000000	98.380634
2978.000000	98.365143
2977.000000	98.359790
2976.000000	98.357867
2975.000000	98.354961
2974.000000	98.353488
2973.000000	98.359669
2972.000000	98.377541
2971.000000	98.406413
2970.000000	98.442444
2969.000000	98.480899
2968.000000	98.517581
2967.000000	98.550558
2966.000000	98.581560
2965.000000	98.614286
2964.000000	98.650069
2963.000000	98.685765
2962.000000	98.716801
2961.000000	98.741681
2960.000000	98.762371
2959.000000	98.781041
2958.000000	98.798089
2957.000000	98.813341
2956.000000	98.827360
2955.000000	98.840453
2954.000000	98.851252
2953.000000	98.857483
2952.000000	98.858057
2951.000000	98.853892
2950.000000	98.847201
2949.000000	98.840870
2948.000000	98.837999
2947.000000	98.840264
2946.000000	98.845825
2945.000000	98.849947
2944.000000	98.849115
2943.000000	98.844472
2942.000000	98.840276
2941.000000	98.839090
2940.000000	98.839675
2939.000000	98.839583
2938.000000	98.838177
2937.000000	98.836164
2936.000000	98.833453
2935.000000	98.829192
2934.000000	98.823783
2933.000000	98.819564
2932.000000	98.819166
2931.000000	98.823559
2930.000000	98.831357
2929.000000	98.839343
2928.000000	98.844179
2927.000000	98.844781
2926.000000	98.843055
2925.000000	98.841467
2924.000000	98.840055
2923.000000	98.837288
2922.000000	98.834254
2921.000000	98.836182
2920.000000	98.847936
2919.000000	98.868153
2918.000000	98.888812
2917.000000	98.901314
2916.000000	98.902620
2915.000000	98.895643
2914.000000	98.885290
2913.000000	98.874954
2912.000000	98.866130
2911.000000	98.859603
2910.000000	98.855550
2909.000000	98.852872
2908.000000	98.849790
2907.000000	98.845415
2906.000000	98.839894
2905.000000	98.832933
2904.000000	98.823620
2903.000000	98.812665
2902.000000	98.803629
2901.000000	98.800368
2900.000000	98.803677
2899.000000	98.811502
2898.000000	98.821862
2897.000000	98.833670
2896.000000	98.845054
2895.000000	98.853205
2894.000000	98.856945
2893.000000	98.858152
2892.000000	98.859750
2891.000000	98.863318
2890.000000	98.869168
2889.000000	98.877118
2888.000000	98.885886
2887.000000	98.892834
2886.000000	98.896074
2885.000000	98.896916
2884.000000	98.899371
2883.000000	98.907120
2882.000000	98.921004
2881.000000	98.938444
2880.000000	98.954745
2879.000000	98.966248
2878.000000	98.973304
2877.000000	98.979718
2876.000000	98.988479
2875.000000	98.998781
2874.000000	99.007923
2873.000000	99.014952
2872.000000	99.021197
2871.000000	99.028374
2870.000000	99.038151
2869.000000	99.052777
2868.000000	99.073477
2867.000000	99.097563
2866.000000	99.119227
2865.000000	99.134644
2864.000000	99.145168
2863.000000	99.154729
2862.000000	99.165374
2861.000000	99.176409
2860.000000	99.186667
2859.000000	99.195815
2858.000000	99.203910
2857.000000	99.211386
2856.000000	99.219843
2855.000000	99.231776
2854.000000	99.248843
2853.000000	99.270398
2852.000000	99.293450
2851.000000	99.313855
2850.000000	99.328358
2849.000000	99.336661
2848.000000	99.341957
2847.000000	99.348589
2846.000000	99.358156
2845.000000	99.368309
2844.000000	99.375704
2843.000000	99.379448
2842.000000	99.381253
2841.000000	99.383126
2840.000000	99.385988
2839.000000	99.390244
2838.000000	99.396194
2837.000000	99.403395
2836.000000	99.410633
2835.000000	99.417226
2834.000000	99.423761
2833.000000	99.431089
2832.000000	99.439303
2831.000000	99.448185
2830.000000	99.457699
2829.000000	99.467161
2828.000000	99.474914
2827.000000	99.480162
2826.000000	99.484324
2825.000000	99.489013
2824.000000	99.493232
2823.000000	99.494614
2822.000000	99.493484
2821.000000	99.493572
2820.000000	99.497949
2819.000000	99.505961
2818.000000	99.514899
2817.000000	99.523016
2816.000000	99.529855
2815.000000	99.535035
2814.000000	99.538631
2813.000000	99.542206
2812.000000	99.547697
2811.000000	99.555027
2810.000000	99.561874
2809.000000	99.566139
2808.000000	99.567867
2807.000000	99.568759
2806.000000	99.570597
2805.000000	99.574137
2804.000000	99.579036
2803.000000	99.584360
2802.000000	99.589318
2801.000000	99.593812
2800.000000	99.598244
2799.000000	99.602858
2798.000000	99.607395
2797.000000	99.611424
2796.000000	99.614866
2795.000000	99.618098
2794.000000	99.621615
2793.000000	99.625666
2792.000000	99.630180
2791.000000	99.634962
2790.000000	99.639954
2789.000000	99.645203
2788.000000	99.650449
2787.000000	99.654851
2786.000000	99.657513
2785.000000	99.658293
2784.000000	99.658062
2783.000000	99.658294
2782.000000	99.660156
2781.000000	99.663964
2780.000000	99.669124
2779.000000	99.674389
2778.000000	99.678743
2777.000000	99.682059
2776.000000	99.684821
2775.000000	99.687334
2774.000000	99.689496
2773.000000	99.691328
2772.000000	99.693222
2771.000000	99.695475
2770.000000	99.698016
2769.000000	99.700822
2768.000000	99.704148
2767.000000	99.707912
2766.000000	99.711220
2765.000000	99.713180
2764.000000	99.714069
2763.000000	99.715120
2762.000000	99.717135
2761.000000	99.719742
2760.000000	99.722107
2759.000000	99.723810
2758.000000	99.724857
2757.000000	99.725349
2756.000000	99.725630
2755.000000	99.726525
2754.000000	99.728945
2753.000000	99.733096
2752.000000	99.738140
2751.000000	99.742733
2750.000000	99.746128
2749.000000	99.748793
2748.000000	99.751858
2747.000000	99.755871
2746.000000	99.760181
2745.000000	99.763662
2744.000000	99.765730
2743.000000	99.766492
2742.000000	99.766398
2741.000000	99.766159
2740.000000	99.766718
2739.000000	99.768628
2738.000000	99.771258
2737.000000	99.773251
2736.000000	99.773864
2735.000000	99.773484
2734.000000	99.772931
2733.000000	99.772619
2732.000000	99.772737
2731.000000	99.773558
2730.000000	99.775183
2729.000000	99.777291
2728.000000	99.779369
2727.000000	99.781139
2726.000000	99.782640
2725.000000	99.783975
2724.000000	99.785147
2723.000000	99.786137
2722.000000	99.787032
2721.000000	99.788024
2720.000000	99.789243
2719.000000	99.790598
2718.000000	99.791863
2717.000000	99.792905
2716.000000	99.793801
2715.000000	99.794683
2714.000000	99.795597
2713.000000	99.796510
2712.000000	99.797393
2711.000000	99.798242
2710.000000	99.799054
2709.000000	99.799830
2708.000000	99.800569
2707.000000	99.801269
2706.000000	99.801929
2705.000000	99.802554
2704.000000	99.803156
2703.000000	99.803750
2702.000000	99.804344
2701.000000	99.804937
2700.000000	99.805522
2699.000000	99.806092
2698.000000	99.806637
2697.000000	99.807150
2696.000000	99.807630
2695.000000	99.808083
2694.000000	99.808528
2693.000000	99.808981
2692.000000	99.809448
2691.000000	99.809919
2690.000000	99.810373
2689.000000	99.810792
2688.000000	99.811170
2687.000000	99.811510
2686.000000	99.811822
2685.000000	99.812111
2684.000000	99.812383
2683.000000	99.812635
2682.000000	99.812863
2681.000000	99.813065
2680.000000	99.813244
2679.000000	99.813405
2678.000000	99.813555
2677.000000	99.813698
2676.000000	99.813829
2675.000000	99.813941
2674.000000	99.814025
2673.000000	99.814083
2672.000000	99.814120
2671.000000	99.814141
2670.000000	99.814151
2669.000000	99.814151
2668.000000	99.814143
2667.000000	99.814129
2666.000000	99.814112
2665.000000	99.814094
2664.000000	99.814076
2663.000000	99.814060
2662.000000	99.814040
2661.000000	99.814006
2660.000000	99.813953
2659.000000	99.813886
2658.000000	99.813815
2657.000000	99.813750
2656.000000	99.813696
2655.000000	99.813652
2654.000000	99.813617
2653.000000	99.813589
2652.000000	99.813574
2651.000000	99.813573
2650.000000	99.813586
2649.000000	99.813607
2648.000000	99.813627
2647.000000	99.813643
2646.000000	99.813664
2645.000000	99.813699
2644.000000	99.813755
2643.000000	99.813825
2642.000000	99.813896
2641.000000	99.813958
2640.000000	99.814010
2639.000000	99.814060
2638.000000	99.814116
2637.000000	99.814180
2636.000000	99.814244
2635.000000	99.814298
2634.000000	99.814337
2633.000000	99.814364
2632.000000	99.814392
2631.000000	99.814435
2630.000000	99.814499
2629.000000	99.814577
2628.000000	99.814653
2627.000000	99.814719
2626.000000	99.814777
2625.000000	99.814839
2624.000000	99.814919
2623.000000	99.815023
2622.000000	99.815149
2621.000000	99.815289
2620.000000	99.815433
2619.000000	99.815578
2618.000000	99.815732
2617.000000	99.815899
2616.000000	99.816082
2615.000000	99.816285
2614.000000	99.816500
2613.000000	99.816717
2612.000000	99.816930
2611.000000	99.817152
2610.000000	99.817393
2609.000000	99.817644
2608.000000	99.817861
2607.000000	99.817997
2606.000000	99.818053
2605.000000	99.818084
2604.000000	99.818153
2603.000000	99.818253
2602.000000	99.818319
2601.000000	99.818300
2600.000000	99.818223
2599.000000	99.818197
2598.000000	99.818309
2597.000000	99.818543
2596.000000	99.818790
2595.000000	99.818982
2594.000000	99.819152
2593.000000	99.819366
2592.000000	99.819636
2591.000000	99.819923
2590.000000	99.820171
2589.000000	99.820346
2588.000000	99.820439
2587.000000	99.820483
2586.000000	99.820541
2585.000000	99.820672
2584.000000	99.820896
2583.000000	99.821168
2582.000000	99.821398
2581.000000	99.821523
2580.000000	99.821555
2579.000000	99.821586
2578.000000	99.821716
2577.000000	99.821996
2576.000000	99.822364
2575.000000	99.822668
2574.000000	99.822808
2573.000000	99.822817
2572.000000	99.822829
2571.000000	99.822930
2570.000000	99.823082
2569.000000	99.823175
2568.000000	99.823150
2567.000000	99.823103
2566.000000	99.823263
2565.000000	99.823800
2564.000000	99.824663
2563.000000	99.825587
2562.000000	99.826295
2561.000000	99.826700
2560.000000	99.826897
2559.000000	99.827033
2558.000000	99.827257
2557.000000	99.827687
2556.000000	99.828327
2555.000000	99.829021
2554.000000	99.829554
2553.000000	99.829843
2552.000000	99.829968
2551.000000	99.830082
2550.000000	99.830344
2549.000000	99.830890
2548.000000	99.831756
2547.000000	99.832832
2546.000000	99.834003
2545.000000	99.835218
2544.000000	99.836414
2543.000000	99.837452
2542.000000	99.838215
2541.000000	99.838753
2540.000000	99.839249
2539.000000	99.839869
2538.000000	99.840663
2537.000000	99.841591
2536.000000	99.842588
2535.000000	99.843615
2534.000000	99.844669
2533.000000	99.845768
2532.000000	99.846913
2531.000000	99.848086
2530.000000	99.849276
2529.000000	99.850478
2528.000000	99.851689
2527.000000	99.852897
2526.000000	99.854103
2525.000000	99.855314
2524.000000	99.856546
2523.000000	99.857809
2522.000000	99.859106
2521.000000	99.860429
2520.000000	99.861771
2519.000000	99.863138
2518.000000	99.864542
2517.000000	99.865997
2516.000000	99.867511
2515.000000	99.869080
2514.000000	99.870685
2513.000000	99.872303
2512.000000	99.873920
2511.000000	99.875539
2510.000000	99.877178
2509.000000	99.878848
2508.000000	99.880545
2507.000000	99.882250
2506.000000	99.883941
2505.000000	99.885617
2504.000000	99.887298
2503.000000	99.889013
2502.000000	99.890780
2501.000000	99.892605
2500.000000	99.894484
2499.000000	99.896408
2498.000000	99.898366
2497.000000	99.900343
2496.000000	99.902322
2495.000000	99.904295
2494.000000	99.906259
2493.000000	99.908218
2492.000000	99.910178
2491.000000	99.912145
2490.000000	99.914124
2489.000000	99.916117
2488.000000	99.918124
2487.000000	99.920142
2486.000000	99.922169
2485.000000	99.924207
2484.000000	99.926258
2483.000000	99.928319
2482.000000	99.930380
2481.000000	99.932438
2480.000000	99.934495
2479.000000	99.936543
2478.000000	99.938582
2477.000000	99.940640
2476.000000	99.942771
2475.000000	99.944973
2474.000000	99.947110
2473.000000	99.948985
2472.000000	99.950516
2471.000000	99.951865
2470.000000	99.953356
2469.000000	99.955243
2468.000000	99.957474
2467.000000	99.959670
2466.000000	99.961433
2465.000000	99.962824
2464.000000	99.964496
2463.000000	99.967074
2462.000000	99.970433
2461.000000	99.973796
2460.000000	99.976565
2459.000000	99.978747
2458.000000	99.980642
2457.000000	99.982372
2456.000000	99.983899
2455.000000	99.985350
2454.000000	99.987001
2453.000000	99.988944
2452.000000	99.990947
2451.000000	99.992739
2450.000000	99.994339
2449.000000	99.996004
2448.000000	99.997839
2447.000000	99.999624
2446.000000	100.001118
2445.000000	100.002419
2444.000000	100.003802
2443.000000	100.005231
2442.000000	100.006307
2441.000000	100.006844
2440.000000	100.007342
2439.000000	100.008622
2438.000000	100.010992
2437.000000	100.013966
2436.000000	100.016714
2435.000000	100.018855
2434.000000	100.020545
2433.000000	100.022028
2432.000000	100.023350
2431.000000	100.024560
2430.000000	100.025907
2429.000000	100.027616
2428.000000	100.029508
2427.000000	100.030993
2426.000000	100.031553
2425.000000	100.031211
2424.000000	100.030592
2423.000000	100.030556
2422.000000	100.031641
2421.000000	100.033759
2420.000000	100.036216
2419.000000	100.038130
2418.000000	100.039055
2417.000000	100.039121
2416.000000	100.038723
2415.000000	100.038178
2414.000000	100.037772
2413.000000	100.037916
2412.000000	100.038810
2411.000000	100.040008
2410.000000	100.040737
2409.000000	100.040885
2408.000000	100.041197
2407.000000	100.042290
2406.000000	100.043864
2405.000000	100.045142
2404.000000	100.045811
2403.000000	100.046246
2402.000000	100.046915
2401.000000	100.047844
2400.000000	100.048679
2399.000000	100.049107
2398.000000	100.049142
2397.000000	100.048842
2396.000000	100.047942
2395.000000	100.046090
2394.000000	100.043533
2393.000000	100.041356
2392.000000	100.040563
2391.000000	100.041012
2390.000000	100.041539
2389.000000	100.041132
2388.000000	100.039781
2387.000000	100.037985
2386.000000	100.036089
2385.000000	100.034276
2384.000000	100.032754
2383.000000	100.031625
2382.000000	100.030668
2381.000000	100.029489
2380.000000	100.027889
2379.000000	100.026039
2378.000000	100.024375
2377.000000	100.023297
2376.000000	100.022787
2375.000000	100.022273
2374.000000	100.021137
2373.000000	100.019347
2372.000000	100.017308
2371.000000	100.015196
2370.000000	100.012890
2369.000000	100.010637
2368.000000	100.009139
2367.000000	100.008712
2366.000000	100.008751
2365.000000	100.008216
2364.000000	100.006598
2363.000000	100.004094
2362.000000	100.001065
2361.000000	99.997715
2360.000000	99.994103
2359.000000	99.990402
2358.000000	99.987197
2357.000000	99.985159
2356.000000	99.984357
2355.000000	99.984166
2354.000000	99.984005
2353.000000	99.983522
2352.000000	99.982407
2351.000000	99.980551
2350.000000	99.978108
2349.000000	99.975417
2348.000000	99.972903
2347.000000	99.971046
2346.000000	99.969986
2345.000000	99.969248
2344.000000	99.968154
2343.000000	99.966526
2342.000000	99.964708
2341.000000	99.963069
2340.000000	99.961764
2339.000000	99.960758
2338.000000	99.959943
2337.000000	99.959127
2336.000000	99.958027
2335.000000	99.956569
2334.000000	99.955150
2333.000000	99.954288
2332.000000	99.954014
2331.000000	99.953899
2330.000000	99.953399
2329.000000	99.952234
2328.000000	99.950328
2327.000000	99.947998
2326.000000	99.945762
2325.000000	99.943954
2324.000000	99.942730
2323.000000	99.942190
2322.000000	99.942404
2321.000000	99.942873
2320.000000	99.942874
2319.000000	99.942181
2318.000000	99.941067
2317.000000	99.939621
2316.000000	99.937514
2315.000000	99.934917
2314.000000	99.932887
2313.000000	99.932641
2312.000000	99.934368
2311.000000	99.937281
2310.000000	99.940144
2309.000000	99.941898
2308.000000	99.942223
2307.000000	99.941923
2306.000000	99.942143
2305.000000	99.942783
2304.000000	99.942469
2303.000000	99.940305
2302.000000	99.936923
2301.000000	99.933534
2300.000000	99.930779
2299.000000	99.928563
2298.000000	99.926342
2297.000000	99.923820
2296.000000	99.921370
2295.000000	99.920060
2294.000000	99.920370
2293.000000	99.921280
2292.000000	99.921259
2291.000000	99.920384
2290.000000	99.920468
2289.000000	99.922593
2288.000000	99.925348
2287.000000	99.925962
2286.000000	99.922917
2285.000000	99.916832
2284.000000	99.909727
2283.000000	99.903727
2282.000000	99.900057
2281.000000	99.898530
2280.000000	99.897894
2279.000000	99.896707
2278.000000	99.894141
2277.000000	99.890221
2276.000000	99.885750
2275.000000	99.881920
2274.000000	99.879354
2273.000000	99.877414
2272.000000	99.874949
2271.000000	99.872061
2270.000000	99.870397
2269.000000	99.871242
2268.000000	99.873904
2267.000000	99.876231
2266.000000	99.876485
2265.000000	99.874505
2264.000000	99.871345
2263.000000	99.868368
2262.000000	99.866398
2261.000000	99.865359
2260.000000	99.864717
2259.000000	99.864138
2258.000000	99.863466
2257.000000	99.862094
2256.000000	99.859225
2255.000000	99.855130
2254.000000	99.851533
2253.000000	99.849984
2252.000000	99.850158
2251.000000	99.850399
2250.000000	99.849706
2249.000000	99.848491
2248.000000	99.847343
2247.000000	99.845937
2246.000000	99.843483
2245.000000	99.839685
2244.000000	99.835041
2243.000000	99.830623
2242.000000	99.827669
2241.000000	99.826947
2240.000000	99.828141
2239.000000	99.829910
2238.000000	99.830919
2237.000000	99.830742
2236.000000	99.829754
2235.000000	99.828586
2234.000000	99.827771
2233.000000	99.827438
2232.000000	99.827116
2231.000000	99.826121
2230.000000	99.824388
2229.000000	99.822712
2228.000000	99.821989
2227.000000	99.822402
2226.000000	99.823356
2225.000000	99.823897
2224.000000	99.823231
2223.000000	99.821331
2222.000000	99.819355
2221.000000	99.818977
2220.000000	99.820891
2219.000000	99.824058
2218.000000	99.826624
2217.000000	99.827632
2216.000000	99.827541
2215.000000	99.827438
2214.000000	99.828185
2213.000000	99.830099
2212.000000	99.832866
2211.000000	99.835548
2210.000000	99.837084
2209.000000	99.837180
2208.000000	99.836612
2207.000000	99.836468
2206.000000	99.837034
2205.000000	99.837567
2204.000000	99.837261
2203.000000	99.836300
2202.000000	99.835759
2201.000000	99.836413
2200.000000	99.837889
2199.000000	99.839165
2198.000000	99.839755
2197.000000	99.840145
2196.000000	99.841034
2195.000000	99.842387
2194.000000	99.843368
2193.000000	99.843162
2192.000000	99.841730
2191.000000	99.839894
2190.000000	99.838778
2189.000000	99.839024
2188.000000	99.840469
2187.000000	99.842427
2186.000000	99.844242
2185.000000	99.845659
2184.000000	99.846785
2183.000000	99.847822
2182.000000	99.848931
2181.000000	99.850294
2180.000000	99.852108
2179.000000	99.854271
2178.000000	99.856051
2177.000000	99.856461
2176.000000	99.855318
2175.000000	99.853777
2174.000000	99.853248
2173.000000	99.853820
2172.000000	99.854329
2171.000000	99.854038
2170.000000	99.853527
2169.000000	99.853680
2168.000000	99.854451
2167.000000	99.855216
2166.000000	99.855723
2165.000000	99.856110
2164.000000	99.856491
2163.000000	99.857175
2162.000000	99.858895
2161.000000	99.862032
2160.000000	99.865778
2159.000000	99.868689
2158.000000	99.870213
2157.000000	99.871066
2156.000000	99.872176
2155.000000	99.873699
2154.000000	99.875226
2153.000000	99.876463
2152.000000	99.877438
2151.000000	99.878380
2150.000000	99.879596
2149.000000	99.881185
2148.000000	99.882780
2147.000000	99.883857
2146.000000	99.884456
2145.000000	99.885320
2144.000000	99.887085
2143.000000	99.889623
2142.000000	99.892343
2141.000000	99.894883
2140.000000	99.897273
2139.000000	99.899606
2138.000000	99.901933
2137.000000	99.904345
2136.000000	99.906876
2135.000000	99.909364
2134.000000	99.911592
2133.000000	99.913559
2132.000000	99.915490
2131.000000	99.917638
2130.000000	99.920055
2129.000000	99.922626
2128.000000	99.925182
2127.000000	99.927614
2126.000000	99.929941
2125.000000	99.932235
2124.000000	99.934571
2123.000000	99.936967
2122.000000	99.939402
2121.000000	99.941857
2120.000000	99.944325
2119.000000	99.946807
2118.000000	99.949296
2117.000000	99.951796
2116.000000	99.954332
2115.000000	99.956934
2114.000000	99.959603
2113.000000	99.962302
2112.000000	99.964969
2111.000000	99.967562
2110.000000	99.970096
2109.000000	99.972638
2108.000000	99.975241
2107.000000	99.977899
2106.000000	99.980567
2105.000000	99.983236
2104.000000	99.985940
2103.000000	99.988692
2102.000000	99.991415
2101.000000	99.993998
2100.000000	99.996384
2099.000000	99.998568
2098.000000	100.000621
2097.000000	100.002824
2096.000000	100.005450
2095.000000	100.008091
2094.000000	100.009756
2093.000000	100.010328
2092.000000	100.011353
2091.000000	100.014340
2090.000000	100.018550
2089.000000	100.021691
2088.000000	100.022902
2087.000000	100.023715
2086.000000	100.025686
2085.000000	100.028301
2084.000000	100.030135
2083.000000	100.031208
2082.000000	100.033118
2081.000000	100.037008
2080.000000	100.042213
2079.000000	100.047089
2078.000000	100.050677
2077.000000	100.053181
2076.000000	100.055116
2075.000000	100.056534
2074.000000	100.057237
2073.000000	100.057192
2072.000000	100.056434
2071.000000	100.055009
2070.000000	100.053485
2069.000000	100.053163
2068.000000	100.054955
2067.000000	100.058132
2066.000000	100.060978
2065.000000	100.062769
2064.000000	100.064413
2063.000000	100.067029
2062.000000	100.070730
2061.000000	100.074893
2060.000000	100.078636
2059.000000	100.080686
2058.000000	100.079686
2057.000000	100.075257
2056.000000	100.068443
2055.000000	100.060904
2054.000000	100.054106
2053.000000	100.049333
2052.000000	100.047504
2051.000000	100.048410
2050.000000	100.050722
2049.000000	100.053386
2048.000000	100.056408
2047.000000	100.059605
2046.000000	100.061351
2045.000000	100.059848
2044.000000	100.055413
2043.000000	100.050526
2042.000000	100.047357
2041.000000	100.045675
2040.000000	100.043530
2039.000000	100.039558
2038.000000	100.034255
2037.000000	100.029230
2036.000000	100.025510
2035.000000	100.022700
2034.000000	100.019737
2033.000000	100.016200
2032.000000	100.012678
2031.000000	100.009972
2030.000000	100.008263
2029.000000	100.007001
2028.000000	100.005337
2027.000000	100.002645
2026.000000	99.999007
2025.000000	99.995301
2024.000000	99.992575
2023.000000	99.991110
2022.000000	99.990063
2021.000000	99.988128
2020.000000	99.984585
2019.000000	99.979873
2018.000000	99.975341
2017.000000	99.972232
2016.000000	99.970678
2015.000000	99.969772
2014.000000	99.968590
2013.000000	99.966866
2012.000000	99.964561
2011.000000	99.961309
2010.000000	99.956918
2009.000000	99.952239
2008.000000	99.948707
2007.000000	99.946835
2006.000000	99.945872
2005.000000	99.945003
2004.000000	99.944358
2003.000000	99.944384
2002.000000	99.944680
2001.000000	99.944059
2000.000000	99.941685
1999.000000	99.937841
1998.000000	99.933733
1997.000000	99.930524
1996.000000	99.928644
1995.000000	99.927750
1994.000000	99.927080
1993.000000	99.926004
1992.000000	99.924437
1991.000000	99.922778
1990.000000	99.921445
1989.000000	99.920510
1988.000000	99.919660
1987.000000	99.918429
1986.000000	99.916560
1985.000000	99.914292
1984.000000	99.912264
1983.000000	99.911076
1982.000000	99.910885
1981.000000	99.911461
1980.000000	99.912489
1979.000000	99.913728
1978.000000	99.914799
1977.000000	99.914991
1976.000000	99.913675
1975.000000	99.910999
1974.000000	99.908028
1973.000000	99.905852
1972.000000	99.904582
1971.000000	99.903484
1970.000000	99.902094
1969.000000	99.900859
1968.000000	99.900550
1967.000000	99.901289
1966.000000	99.902436
1965.000000	99.903297
1964.000000	99.903597
1963.000000	99.903340
1962.000000	99.902667
1961.000000	99.901736
1960.000000	99.900285
1959.000000	99.897558
1958.000000	99.893318
1957.000000	99.888784
1956.000000	99.885726
1955.000000	99.884405
1954.000000	99.883154
1953.000000	99.880281
1952.000000	99.876004
1951.000000	99.872067
1950.000000	99.869936
1949.000000	99.869875
1948.000000	99.871222
1947.000000	99.873029
1946.000000	99.874545
1945.000000	99.875309
1944.000000	99.874858
1943.000000	99.872611
1942.000000	99.868589
1941.000000	99.864077
1940.000000	99.860777
1939.000000	99.859166
1938.000000	99.858193
1937.000000	99.856773
1936.000000	99.855043
1935.000000	99.853658
1934.000000	99.852370
1933.000000	99.850127
1932.000000	99.846506
1931.000000	99.842163
1930.000000	99.838070
1929.000000	99.834965
1928.000000	99.833135
1927.000000	99.832452
1926.000000	99.832323
1925.000000	99.832140
1924.000000	99.831828
1923.000000	99.831565
1922.000000	99.831195
1921.000000	99.829939
1920.000000	99.826712
1919.000000	99.820878
1918.000000	99.813445
1917.000000	99.807160
1916.000000	99.804004
1915.000000	99.803042
1914.000000	99.801312
1913.000000	99.796715
1912.000000	99.790202
1911.000000	99.784745
1910.000000	99.782128
1909.000000	99.781086
1908.000000	99.778504
1907.000000	99.772571
1906.000000	99.764134
1905.000000	99.755752
1904.000000	99.749630
1903.000000	99.745990
1902.000000	99.743480
1901.000000	99.740190
1900.000000	99.734496
1899.000000	99.726339
1898.000000	99.717760
1897.000000	99.711605
1896.000000	99.709072
1895.000000	99.708740
1894.000000	99.708664
1893.000000	99.708306
1892.000000	99.707601
1891.000000	99.705382
1890.000000	99.700431
1889.000000	99.693535
1888.000000	99.686739
1887.000000	99.681221
1886.000000	99.677361
1885.000000	99.675916
1884.000000	99.677496
1883.000000	99.681159
1882.000000	99.685144
1881.000000	99.688725
1880.000000	99.691799
1879.000000	99.693169
1878.000000	99.690559
1877.000000	99.683085
1876.000000	99.672973
1875.000000	99.663771
1874.000000	99.657889
1873.000000	99.656352
1872.000000	99.659139
1871.000000	99.664919
1870.000000	99.671432
1869.000000	99.677299
1868.000000	99.682791
1867.000000	99.688391
1866.000000	99.693829
1865.000000	99.698453
1864.000000	99.701904
1863.000000	99.704614
1862.000000	99.708003
1861.000000	99.714084
1860.000000	99.723797
1859.000000	99.735284
1858.000000	99.744592
1857.000000	99.749044
1856.000000	99.749854
1855.000000	99.750922
1854.000000	99.755071
1853.000000	99.761843
1852.000000	99.768296
1851.000000	99.772399
1850.000000	99.774940
1849.000000	99.778464
1848.000000	99.785131
1847.000000	99.794560
1846.000000	99.803587
1845.000000	99.808564
1844.000000	99.809571
1843.000000	99.810966
1842.000000	99.816708
1841.000000	99.826898
1840.000000	99.838348
1839.000000	99.847614
1838.000000	99.853661
1837.000000	99.858278
1836.000000	99.863508
1835.000000	99.868960
1834.000000	99.872622
1833.000000	99.873338
1832.000000	99.871602
1831.000000	99.868821
1830.000000	99.866301
1829.000000	99.864903
1828.000000	99.865583
1827.000000	99.868851
1826.000000	99.873421
1825.000000	99.876974
1824.000000	99.878313
1823.000000	99.877541
1822.000000	99.874894
1821.000000	99.871005
1820.000000	99.868339
1819.000000	99.869972
1818.000000	99.875762
1817.000000	99.881732
1816.000000	99.884146
1815.000000	99.883179
1814.000000	99.881976
1813.000000	99.882498
1812.000000	99.883758
1811.000000	99.883528
1810.000000	99.881084
1809.000000	99.878335
1808.000000	99.877677
1807.000000	99.879896
1806.000000	99.884549
1805.000000	99.890885
1804.000000	99.897597
1803.000000	99.902730
1802.000000	99.905247
1801.000000	99.905926
1800.000000	99.906357
1799.000000	99.907100
1798.000000	99.907912
1797.000000	99.909362
1796.000000	99.912404
1795.000000	99.916889
1794.000000	99.921284
1793.000000	99.923984
1792.000000	99.925108
1791.000000	99.925943
1790.000000	99.927472
1789.000000	99.930422
1788.000000	99.934936
1787.000000	99.939971
1786.000000	99.944011
1785.000000	99.946991
1784.000000	99.950639
1783.000000	99.956167
1782.000000	99.962757
1781.000000	99.968293
1780.000000	99.972315
1779.000000	99.976788
1778.000000	99.983097
1777.000000	99.990210
1776.000000	99.995830
1775.000000	99.998980
1774.000000	100.000312
1773.000000	100.001147
1772.000000	100.003540
1771.000000	100.009019
1770.000000	100.016760
1769.000000	100.023937
1768.000000	100.027649
1767.000000	100.027531
1766.000000	100.026854
1765.000000	100.029608
1764.000000	100.036677
1763.000000	100.044650
1762.000000	100.048683
1761.000000	100.047709
1760.000000	100.046071
1759.000000	100.048269
1758.000000	100.054427
1757.000000	100.061614
1756.000000	100.067587
1755.000000	100.072964
1754.000000	100.078564
1753.000000	100.082284
1752.000000	100.080635
1751.000000	100.073494
1750.000000	100.064992
1749.000000	100.059655
1748.000000	100.059208
1747.000000	100.062360
1746.000000	100.066217
1745.000000	100.068299
1744.000000	100.069150
1743.000000	100.071457
1742.000000	100.075584
1741.000000	100.077981
1740.000000	100.075368
1739.000000	100.069109
1738.000000	100.063485
1737.000000	100.060465
1736.000000	100.057806
1735.000000	100.052226
1734.000000	100.045165
1733.000000	100.039774
1732.000000	100.036280
1731.000000	100.034829
1730.000000	100.035348
1729.000000	100.036455
1728.000000	100.036244
1727.000000	100.033649
1726.000000	100.028831
1725.000000	100.022381
1724.000000	100.015940
1723.000000	100.011304
1722.000000	100.008828
1721.000000	100.007234
1720.000000	100.003983
1719.000000	99.996397
1718.000000	99.984888
1717.000000	99.974140
1716.000000	99.966964
1715.000000	99.961556
1714.000000	99.956111
1713.000000	99.951002
1712.000000	99.946903
1711.000000	99.942864
1710.000000	99.937053
1709.000000	99.928816
1708.000000	99.919242
1707.000000	99.909863
1706.000000	99.901352
1705.000000	99.894269
1704.000000	99.889177
1703.000000	99.885297
1702.000000	99.878888
1701.000000	99.864790
1700.000000	99.844540
1699.000000	99.826587
1698.000000	99.815029
1697.000000	99.807694
1696.000000	99.801085
1695.000000	99.793175
1694.000000	99.784313
1693.000000	99.776055
1692.000000	99.768909
1691.000000	99.761800
1690.000000	99.753493
1689.000000	99.743683
1688.000000	99.733142
1687.000000	99.722972
1686.000000	99.712212
1685.000000	99.697923
1684.000000	99.680720
1683.000000	99.664863
1682.000000	99.652437
1681.000000	99.642145
1680.000000	99.631404
1679.000000	99.619369
1678.000000	99.607582
1677.000000	99.596942
1676.000000	99.586474
1675.000000	99.575242
1674.000000	99.563493
1673.000000	99.551485
1672.000000	99.538839
1671.000000	99.524133
1670.000000	99.507636
1669.000000	99.493345
1668.000000	99.485016
1667.000000	99.482907
1666.000000	99.483555
1665.000000	99.481219
1664.000000	99.471283
1663.000000	99.454555
1662.000000	99.437565
1661.000000	99.424514
1660.000000	99.414076
1659.000000	99.404500
1658.000000	99.396200
1657.000000	99.390772
1656.000000	99.388992
1655.000000	99.387825
1654.000000	99.378631
1653.000000	99.358910
1652.000000	99.336089
1651.000000	99.318088
1650.000000	99.308166
1649.000000	99.302388
1648.000000	99.295773
1647.000000	99.291127
1646.000000	99.292983
1645.000000	99.297171
1644.000000	99.297853
1643.000000	99.295026
1642.000000	99.291377
1641.000000	99.288215
1640.000000	99.285006
1639.000000	99.282343
1638.000000	99.281902
1637.000000	99.284478
1636.000000	99.289132
1635.000000	99.293209
1634.000000	99.294385
1633.000000	99.295037
1632.000000	99.298265
1631.000000	99.303259
1630.000000	99.307352
1629.000000	99.308141
1628.000000	99.305466
1627.000000	99.301842
1626.000000	99.300826
1625.000000	99.304349
1624.000000	99.312571
1623.000000	99.323917
1622.000000	99.334033
1621.000000	99.338757
1620.000000	99.338288
1619.000000	99.336168
1618.000000	99.336295
1617.000000	99.341357
1616.000000	99.349949
1615.000000	99.359129
1614.000000	99.369173
1613.000000	99.380098
1612.000000	99.389120
1611.000000	99.394683
1610.000000	99.399537
1609.000000	99.406771
1608.000000	99.415108
1607.000000	99.420991
1606.000000	99.423474
1605.000000	99.424386
1604.000000	99.426206
1603.000000	99.431171
1602.000000	99.439919
1601.000000	99.450693
1600.000000	99.460672
1599.000000	99.468601
1598.000000	99.475474
1597.000000	99.482642
1596.000000	99.490406
1595.000000	99.498717
1594.000000	99.508148
1593.000000	99.518663
1592.000000	99.528116
1591.000000	99.533832
1590.000000	99.535714
1589.000000	99.536512
1588.000000	99.538771
1587.000000	99.542719
1586.000000	99.547641
1585.000000	99.553862
1584.000000	99.561872
1583.000000	99.571025
1582.000000	99.579121
1581.000000	99.584044
1580.000000	99.586087
1579.000000	99.587608
1578.000000	99.590019
1577.000000	99.592802
1576.000000	99.595611
1575.000000	99.598267
1574.000000	99.600995
1573.000000	99.604540
1572.000000	99.608633
1571.000000	99.612075
1570.000000	99.614483
1569.000000	99.616488
1568.000000	99.618730
1567.000000	99.622373
1566.000000	99.627404
1565.000000	99.631415
1564.000000	99.632176
1563.000000	99.631027
1562.000000	99.631136
1561.000000	99.633161
1560.000000	99.634212
1559.000000	99.635104
1558.000000	99.637010
1557.000000	99.637912
1556.000000	99.638698
1555.000000	99.639641
1554.000000	99.640563
1553.000000	99.642935
1552.000000	99.648053
1551.000000	99.654994
1550.000000	99.660206
1549.000000	99.661705
1548.000000	99.661144
1547.000000	99.661596
1546.000000	99.664276
1545.000000	99.668312
1544.000000	99.672259
1543.000000	99.675172
1542.000000	99.676763
1541.000000	99.678314
1540.000000	99.682337
1539.000000	99.687443
1538.000000	99.689930
1537.000000	99.690228
1536.000000	99.690050
1535.000000	99.688639
1534.000000	99.685277
1533.000000	99.682287
1532.000000	99.682948
1531.000000	99.687369
1530.000000	99.693001
1529.000000	99.697245
1528.000000	99.699045
1527.000000	99.698927
1526.000000	99.698058
1525.000000	99.697242
1524.000000	99.696866
1523.000000	99.696380
1522.000000	99.694794
1521.000000	99.693058
1520.000000	99.692362
1519.000000	99.692441
1518.000000	99.692352
1517.000000	99.691877
1516.000000	99.693130
1515.000000	99.697928
1514.000000	99.705546
1513.000000	99.713232
1512.000000	99.718444
1511.000000	99.721036
1510.000000	99.723100
1509.000000	99.726617
1508.000000	99.731614
1507.000000	99.737045
1506.000000	99.739716
1505.000000	99.738397
1504.000000	99.738277
1503.000000	99.743251
1502.000000	99.752017
1501.000000	99.761481
1500.000000	99.769565
1499.000000	99.776036
1498.000000	99.780246
1497.000000	99.780956
1496.000000	99.778840
1495.000000	99.775889
1494.000000	99.774016
1493.000000	99.774610
1492.000000	99.777962
1491.000000	99.782821
1490.000000	99.786723
1489.000000	99.787972
1488.000000	99.787786
1487.000000	99.788006
1486.000000	99.788374
1485.000000	99.787779
1484.000000	99.786004
1483.000000	99.784866
1482.000000	99.785678
1481.000000	99.787330
1480.000000	99.788003
1479.000000	99.787637
1478.000000	99.787795
1477.000000	99.790053
1476.000000	99.795406
1475.000000	99.803192
1474.000000	99.810689
1473.000000	99.813326
1472.000000	99.808661
1471.000000	99.800078
1470.000000	99.793724
1469.000000	99.792459
1468.000000	99.793995
1467.000000	99.793220
1466.000000	99.786475
1465.000000	99.775027
1464.000000	99.763584
1463.000000	99.754597
1462.000000	99.746528
1461.000000	99.737983
1460.000000	99.729572
1459.000000	99.722780
1458.000000	99.718122
1457.000000	99.715943
1456.000000	99.715285
1455.000000	99.715148
1454.000000	99.716555
1453.000000	99.718044
1452.000000	99.716434
1451.000000	99.711406
1450.000000	99.706214
1449.000000	99.704826
1448.000000	99.708815
1447.000000	99.716010
1446.000000	99.723252
1445.000000	99.728931
1444.000000	99.733216
1443.000000	99.736304
1442.000000	99.736869
1441.000000	99.734038
1440.000000	99.729458
1439.000000	99.726405
1438.000000	99.726155
1437.000000	99.727637
1436.000000	99.727999
1435.000000	99.724655
1434.000000	99.718628
1433.000000	99.712520
1432.000000	99.707310
1431.000000	99.702653
1430.000000	99.697551
1429.000000	99.691622
1428.000000	99.686207
1427.000000	99.682793
1426.000000	99.681398
1425.000000	99.679714
1424.000000	99.675735
1423.000000	99.670105
1422.000000	99.664248
1421.000000	99.658454
1420.000000	99.653216
1419.000000	99.651589
1418.000000	99.654611
1417.000000	99.659351
1416.000000	99.663692
1415.000000	99.666563
1414.000000	99.666794
1413.000000	99.664340
1412.000000	99.661053
1411.000000	99.659258
1410.000000	99.659386
1409.000000	99.660330
1408.000000	99.661234
1407.000000	99.661808
1406.000000	99.662976
1405.000000	99.666935
1404.000000	99.675231
1403.000000	99.686382
1402.000000	99.697021
1401.000000	99.705614
1400.000000	99.713312
1399.000000	99.721249
1398.000000	99.727223
1397.000000	99.727619
1396.000000	99.722147
1395.000000	99.715923
1394.000000	99.716567
1393.000000	99.727062
1392.000000	99.743834
1391.000000	99.759889
1390.000000	99.768349
1389.000000	99.766198
1388.000000	99.756546
1387.000000	99.746314
1386.000000	99.740104
1385.000000	99.738365
1384.000000	99.740700
1383.000000	99.746736
1382.000000	99.754430
1381.000000	99.761230
1380.000000	99.766848
1379.000000	99.773402
1378.000000	99.782846
1377.000000	99.795530
1376.000000	99.811156
1375.000000	99.829383
1374.000000	99.848761
1373.000000	99.866233
1372.000000	99.879907
1371.000000	99.891016
1370.000000	99.902845
1369.000000	99.918315
1368.000000	99.938030
1367.000000	99.959327
1366.000000	99.977490
1365.000000	99.988984
1364.000000	99.993936
1363.000000	99.996428
1362.000000	100.001211
1361.000000	100.009208
1360.000000	100.017558
1359.000000	100.023257
1358.000000	100.025962
1357.000000	100.028230
1356.000000	100.033025
1355.000000	100.040396
1354.000000	100.047378
1353.000000	100.051750
1352.000000	100.054375
1351.000000	100.056646
1350.000000	100.058319
1349.000000	100.058621
1348.000000	100.058956
1347.000000	100.062200
1346.000000	100.068716
1345.000000	100.075069
1344.000000	100.077385
1343.000000	100.074920
1342.000000	100.070056
1341.000000	100.066179
1340.000000	100.065825
1339.000000	100.069175
1338.000000	100.073672
1337.000000	100.076391
1336.000000	100.076685
1335.000000	100.075790
1334.000000	100.074855
1333.000000	100.074328
1332.000000	100.074539
1331.000000	100.075278
1330.000000	100.074843
1329.000000	100.071279
1328.000000	100.065406
1327.000000	100.061118
1326.000000	100.061566
1325.000000	100.065666
1324.000000	100.069677
1323.000000	100.071419
1322.000000	100.071789
1321.000000	100.072937
1320.000000	100.075802
1319.000000	100.078819
1318.000000	100.078579
1317.000000	100.073072
1316.000000	100.064894
1315.000000	100.060029
1314.000000	100.062090
1313.000000	100.068348
1312.000000	100.072794
1311.000000	100.072812
1310.000000	100.071170
1309.000000	100.071622
1308.000000	100.074412
1307.000000	100.076733
1306.000000	100.076695
1305.000000	100.075319
1304.000000	100.074581
1303.000000	100.074512
1302.000000	100.073432
1301.000000	100.071141
1300.000000	100.070222
1299.000000	100.072643
1298.000000	100.076010
1297.000000	100.075782
1296.000000	100.071256
1295.000000	100.067082
1294.000000	100.067772
1293.000000	100.072516
1292.000000	100.076925
1291.000000	100.078053
1290.000000	100.075744
1289.000000	100.070276
1288.000000	100.061222
1287.000000	100.049007
1286.000000	100.035986
1285.000000	100.025003
1284.000000	100.017261
1283.000000	100.011718
1282.000000	100.006191
1281.000000	99.999188
1280.000000	99.990764
1279.000000	99.981554
1278.000000	99.971422
1277.000000	99.960000
1276.000000	99.948258
1275.000000	99.938173
1274.000000	99.930514
1273.000000	99.924134
1272.000000	99.917806
1271.000000	99.911531
1270.000000	99.905715
1269.000000	99.900507
1268.000000	99.896307
1267.000000	99.893313
1266.000000	99.890078
1265.000000	99.884556
1264.000000	99.877223
1263.000000	99.870882
1262.000000	99.866324
1261.000000	99.860744
1260.000000	99.852117
1259.000000	99.842680
1258.000000	99.835523
1257.000000	99.829579
1256.000000	99.820645
1255.000000	99.806277
1254.000000	99.787727
1253.000000	99.768311
1252.000000	99.751947
1251.000000	99.742074
1250.000000	99.739194
1249.000000	99.739591
1248.000000	99.738238
1247.000000	99.732741
1246.000000	99.723405
1245.000000	99.710915
1244.000000	99.696259
1243.000000	99.682349
1242.000000	99.672908
1241.000000	99.668756
1240.000000	99.666271
1239.000000	99.660036
1238.000000	99.646994
1237.000000	99.628676
1236.000000	99.609825
1235.000000	99.594148
1234.000000	99.580882
1233.000000	99.566235
1232.000000	99.548222
1231.000000	99.528672
1230.000000	99.510255
1229.000000	99.493470
1228.000000	99.477254
1227.000000	99.460339
1226.000000	99.440726
1225.000000	99.415896
1224.000000	99.385347
1223.000000	99.351570
1222.000000	99.317034
1221.000000	99.281447
1220.000000	99.243153
1219.000000	99.201670
1218.000000	99.157667
1217.000000	99.112171
1216.000000	99.066814
1215.000000	99.022409
1214.000000	98.975793
1213.000000	98.921025
1212.000000	98.856277
1211.000000	98.787477
1210.000000	98.722636
1209.000000	98.664700
1208.000000	98.612412
1207.000000	98.564546
1206.000000	98.518562
1205.000000	98.467464
1204.000000	98.403834
1203.000000	98.328150
1202.000000	98.249993
1201.000000	98.179291
1200.000000	98.117795
1199.000000	98.059890
1198.000000	98.000197
1197.000000	97.939480
1196.000000	97.883305
1195.000000	97.835028
1194.000000	97.790640
1193.000000	97.741697
1192.000000	97.683086
1191.000000	97.616449
1190.000000	97.546508
1189.000000	97.476463
1188.000000	97.407417
1187.000000	97.339529
1186.000000	97.271998
1185.000000	97.203383
1184.000000	97.132846
1183.000000	97.059930
1182.000000	96.983312
1181.000000	96.901983
1180.000000	96.817748
1179.000000	96.733975
1178.000000	96.651084
1177.000000	96.565313
1176.000000	96.472301
1175.000000	96.370301
1174.000000	96.260947
1173.000000	96.149492
1172.000000	96.042979
1171.000000	95.944153
1170.000000	95.847523
1169.000000	95.745388
1168.000000	95.637425
1167.000000	95.530895
1166.000000	95.433977
1165.000000	95.355139
1164.000000	95.306457
1163.000000	95.297321
1162.000000	95.322262
1161.000000	95.361802
1160.000000	95.398124
1159.000000	95.424336
1158.000000	95.437956
1157.000000	95.434705
1156.000000	95.412543
1155.000000	95.374897
1154.000000	95.325467
1153.000000	95.264637
1152.000000	95.194332
1151.000000	95.121167
1150.000000	95.050585
1149.000000	94.981872
1148.000000	94.912310
1147.000000	94.841895
1146.000000	94.770491
1145.000000	94.694542
1144.000000	94.610765
1143.000000	94.520981
1142.000000	94.431247
1141.000000	94.348333
1140.000000	94.276761
1139.000000	94.214376
1138.000000	94.150080
1137.000000	94.071833
1136.000000	93.979006
1135.000000	93.882602
1134.000000	93.792367
1133.000000	93.708703
1132.000000	93.627712
1131.000000	93.546946
1130.000000	93.464020
1129.000000	93.376622
1128.000000	93.287350
1127.000000	93.203236
1126.000000	93.127707
1125.000000	93.057547
1124.000000	92.988734
1123.000000	92.919175
1122.000000	92.844884
1121.000000	92.761372
1120.000000	92.671746
1119.000000	92.586344
1118.000000	92.510384
1117.000000	92.437522
1116.000000	92.358525
1115.000000	92.271273
1114.000000	92.180225
1113.000000	92.091775
1112.000000	92.012381
1111.000000	91.944958
1110.000000	91.883832
1109.000000	91.818333
1108.000000	91.743528
1107.000000	91.662509
1106.000000	91.578111
1105.000000	91.489314
1104.000000	91.396074
1103.000000	91.299882
1102.000000	91.199501
1101.000000	91.094900
1100.000000	90.995177
1099.000000	90.911350
1098.000000	90.839855
1097.000000	90.763973
1096.000000	90.673919
1095.000000	90.575308
1094.000000	90.476553
1093.000000	90.380229
1092.000000	90.289469
1091.000000	90.209743
1090.000000	90.139753
1089.000000	90.072726
1088.000000	90.010952
1087.000000	89.965988
1086.000000	89.938667
1085.000000	89.911454
1084.000000	89.868476
1083.000000	89.813550
1082.000000	89.761924
1081.000000	89.722935
1080.000000	89.696399
1079.000000	89.677137
1078.000000	89.656840
1077.000000	89.628631
1076.000000	89.594329
1075.000000	89.561173
1074.000000	89.529465
1073.000000	89.490734
1072.000000	89.438151
1071.000000	89.369000
1070.000000	89.277073
1069.000000	89.154824
1068.000000	89.005969
1067.000000	88.845361
1066.000000	88.682747
1065.000000	88.516441
1064.000000	88.345311
1063.000000	88.174215
1062.000000	88.003060
1061.000000	87.822927
1060.000000	87.629457
1059.000000	87.430380
1058.000000	87.234755
1057.000000	87.044051
1056.000000	86.857869
1055.000000	86.678451
1054.000000	86.505734
1053.000000	86.338293
1052.000000	86.182885
1051.000000	86.051776
1050.000000	85.946385
1049.000000	85.855171
1048.000000	85.769674
1047.000000	85.688985
1046.000000	85.608266
1045.000000	85.518814
1044.000000	85.421049
1043.000000	85.323273
1042.000000	85.226049
1041.000000	85.121706
1040.000000	85.011782
1039.000000	84.911201
1038.000000	84.831126
1037.000000	84.768804
1036.000000	84.715480
1035.000000	84.662176
1034.000000	84.598351
1033.000000	84.520233
1032.000000	84.442064
1031.000000	84.384319
1030.000000	84.348958
1029.000000	84.319720
1028.000000	84.287496
1027.000000	84.260085
1026.000000	84.245141
1025.000000	84.240060
1024.000000	84.242020
1023.000000	84.252193
1022.000000	84.265168
1021.000000	84.267635
1020.000000	84.252090
1019.000000	84.221490
1018.000000	84.180068
1017.000000	84.132000
1016.000000	84.088514
1015.000000	84.060930
1014.000000	84.044444
1013.000000	84.022547
1012.000000	83.989376
1011.000000	83.954762
1010.000000	83.927316
1009.000000	83.907350
1008.000000	83.896706
1007.000000	83.899390
1006.000000	83.909952
1005.000000	83.916009
1004.000000	83.915353
1003.000000	83.918169
1002.000000	83.931425
1001.000000	83.953778
1000.000000	83.985139
999.000000	84.026712
998.000000	84.071464
997.000000	84.109215
996.000000	84.142048
995.000000	84.181339
994.000000	84.230543
993.000000	84.284797
992.000000	84.344770
991.000000	84.414185
990.000000	84.485561
989.000000	84.547393
988.000000	84.606148
987.000000	84.681926
986.000000	84.780263
985.000000	84.886429
984.000000	84.990945
983.000000	85.102922
982.000000	85.232047
981.000000	85.373592
980.000000	85.518063
979.000000	85.662878
978.000000	85.808923
977.000000	85.956764
976.000000	86.110776
975.000000	86.276822
974.000000	86.452772
973.000000	86.630707
972.000000	86.809300
971.000000	86.994134
970.000000	87.186341
969.000000	87.381978
968.000000	87.581524
967.000000	87.787169
966.000000	87.990752
965.000000	88.178139
964.000000	88.347928
963.000000	88.514403
962.000000	88.689763
961.000000	88.873222
960.000000	89.058245
959.000000	89.239341
958.000000	89.410064
957.000000	89.564891
956.000000	89.705793
955.000000	89.839569
954.000000	89.968964
953.000000	90.094494
952.000000	90.222599
951.000000	90.360320
950.000000	90.501528
949.000000	90.629321
948.000000	90.733345
947.000000	90.816422
946.000000	90.886189
945.000000	90.950818
944.000000	91.021704
943.000000	91.107443
942.000000	91.202159
941.000000	91.289441
940.000000	91.359591
939.000000	91.415578
938.000000	91.464681
937.000000	91.515192
936.000000	91.579376
935.000000	91.665105
934.000000	91.761780
933.000000	91.847006
932.000000	91.910999
931.000000	91.964946
930.000000	92.024023
929.000000	92.092677
928.000000	92.168215
927.000000	92.246675
926.000000	92.320867
925.000000	92.382952
924.000000	92.433858
923.000000	92.482664
922.000000	92.533932
921.000000	92.583079
920.000000	92.625534
919.000000	92.662019
918.000000	92.693772
917.000000	92.722003
916.000000	92.753588
915.000000	92.797656
914.000000	92.854612
913.000000	92.917628
912.000000	92.986122
911.000000	93.067520
910.000000	93.164222
909.000000	93.270159
908.000000	93.382962
907.000000	93.508370
906.000000	93.648383
905.000000	93.794803
904.000000	93.939398
903.000000	94.082697
902.000000	94.228564
901.000000	94.377248
900.000000	94.526986
899.000000	94.676105
898.000000	94.821119
897.000000	94.958583
896.000000	95.090522
895.000000	95.222767
894.000000	95.356768
893.000000	95.487519
892.000000	95.609193
891.000000	95.718221
890.000000	95.813197
889.000000	95.898716
888.000000	95.987125
887.000000	96.087665
886.000000	96.193536
885.000000	96.287363
884.000000	96.359995
883.000000	96.418017
882.000000	96.475511
881.000000	96.547436
880.000000	96.648529
879.000000	96.784728
878.000000	96.941495
877.000000	97.091086
876.000000	97.216681
875.000000	97.323381
874.000000	97.426220
873.000000	97.536900
872.000000	97.661889
871.000000	97.801011
870.000000	97.943305
869.000000	98.072492
868.000000	98.179740
867.000000	98.266229
866.000000	98.336193
865.000000	98.397018
864.000000	98.464963
863.000000	98.557529
862.000000	98.674447
861.000000	98.794910
860.000000	98.898607
859.000000	98.983114
858.000000	99.058959
857.000000	99.136447
856.000000	99.221092
855.000000	99.312585
854.000000	99.401268
853.000000	99.472051
852.000000	99.518581
851.000000	99.550299
850.000000	99.582019
849.000000	99.620688
848.000000	99.664688
847.000000	99.709045
846.000000	99.746307
845.000000	99.768379
844.000000	99.773965
843.000000	99.771766
842.000000	99.772836
841.000000	99.781557
840.000000	99.794124
839.000000	99.799946
838.000000	99.783201
837.000000	99.732184
836.000000	99.654811
835.000000	99.581867
834.000000	99.547604
833.000000	99.563847
832.000000	99.610864
831.000000	99.650164
830.000000	99.650701
829.000000	99.613624
828.000000	99.574182
827.000000	99.570976
826.000000	99.607978
825.000000	99.651882
824.000000	99.667543
823.000000	99.646532
822.000000	99.602251
821.000000	99.553415
820.000000	99.516497
819.000000	99.497234
818.000000	99.478948
817.000000	99.429926
816.000000	99.332311
815.000000	99.197767
814.000000	99.048444
813.000000	98.889786
812.000000	98.709376
811.000000	98.493251
810.000000	98.231309
809.000000	97.912567
808.000000	97.529655
807.000000	97.090454
806.000000	96.618590
805.000000	96.142253
804.000000	95.686257
803.000000	95.268961
802.000000	94.897831
801.000000	94.570957
800.000000	94.289321
799.000000	94.063988
798.000000	93.908126
797.000000	93.828562
796.000000	93.826049
795.000000	93.891109
794.000000	93.994620
793.000000	94.096171
792.000000	94.171879
791.000000	94.227019
790.000000	94.276224
789.000000	94.319948
788.000000	94.344699
787.000000	94.334518
786.000000	94.273825
785.000000	94.150431
784.000000	93.970183
783.000000	93.765193
782.000000	93.576441
781.000000	93.428702
780.000000	93.326555
779.000000	93.266451
778.000000	93.242918
777.000000	93.249392
776.000000	93.285267
775.000000	93.361123
774.000000	93.488227
773.000000	93.662042
772.000000	93.860563
771.000000	94.058103
770.000000	94.238161
769.000000	94.396198
768.000000	94.535853
767.000000	94.664017
766.000000	94.786465
765.000000	94.904559
764.000000	95.013890
763.000000	95.106255
762.000000	95.177242
761.000000	95.236140
760.000000	95.305787
759.000000	95.405357
758.000000	95.530878
757.000000	95.656592
756.000000	95.757344
755.000000	95.827684
754.000000	95.881022
753.000000	95.936484
752.000000	96.008432
751.000000	96.102349
750.000000	96.213680
