4000.000000	101.535052
3999.000000	101.535384
3998.000000	101.535470
3997.000000	101.535280
3996.000000	101.534986
3995.000000	101.534653
3994.000000	101.534029
3993.000000	101.532637
3992.000000	101.530050
3991.000000	101.526230
3990.000000	101.521821
3989.000000	101.518078
3988.000000	101.516164
3987.000000	101.516510
3986.000000	101.518718
3985.000000	101.521663
3984.000000	101.523967
3983.000000	101.524716
3982.000000	101.523775
3981.000000	101.521740
3980.000000	101.519629
3979.000000	101.518306
3978.000000	101.518061
3977.000000	101.518468
3976.000000	101.518587
3975.000000	101.517644
3974.000000	101.515729
3973.000000	101.513763
3972.000000	101.512577
3971.000000	101.512050
3970.000000	101.511219
3969.000000	101.509290
3968.000000	101.506415
3967.000000	101.503514
3966.000000	101.501442
3965.000000	101.500472
3964.000000	101.500508
3963.000000	101.501390
3962.000000	101.502883
3961.000000	101.504423
3960.000000	101.505292
3959.000000	101.505244
3958.000000	101.504657
3957.000000	101.504038
3956.000000	101.503385
3955.000000	101.502253
3954.000000	101.500487
3953.000000	101.498595
3952.000000	101.497320
3951.000000	101.496942
3950.000000	101.497123
3949.000000	101.497335
3948.000000	101.497284
3947.000000	101.496945
3946.000000	101.496468
3945.000000	101.496114
3944.000000	101.496109
3943.000000	101.496418
3942.000000	101.496711
3941.000000	101.496697
3940.000000	101.496497
3939.000000	101.496493
3938.000000	101.496842
3937.000000	101.497307
3936.000000	101.497522
3935.000000	101.497387
3934.000000	101.497183
3933.000000	101.497314
3932.000000	101.497937
3931.000000	101.498879
3930.000000	101.499810
3929.000000	101.500492
3928.000000	101.500912
3927.000000	101.501212
3926.000000	101.501591
3925.000000	101.502146
3924.000000	101.502798
3923.000000	101.503386
3922.000000	101.503808
3921.000000	101.504097
3920.000000	101.504350
3919.000000	101.504641
3918.000000	101.504967
3917.000000	101.505279
3916.000000	101.505529
3915.000000	101.505726
3914.000000	101.505909
3913.000000	101.506098
3912.000000	101.506296
3911.000000	101.506505
3910.000000	101.506723
3909.000000	101.506939
3908.000000	101.507148
3907.000000	101.507353
3906.000000	101.507564
3905.000000	101.507785
3904.000000	101.508014
3903.000000	101.508238
3902.000000	101.508452
3901.000000	101.508661
3900.000000	101.508879
3899.000000	101.509115
3898.000000	101.509367
3897.000000	101.509621
3896.000000	101.509860
3895.000000	101.510070
3894.000000	101.510250
3893.000000	101.510409
3892.000000	101.510568
3891.000000	101.510743
3890.000000	101.510929
3889.000000	101.511101
3888.000000	101.511239
3887.000000	101.511333
3886.000000	101.511390
3885.000000	101.511423
3884.000000	101.511442
3883.000000	101.511449
3882.000000	101.511443
3881.000000	101.511426
3880.000000	101.511408
3879.000000	101.511411
3878.000000	101.511461
3877.000000	101.511575
3876.000000	101.511757
3875.000000	101.511998
3874.000000	101.512279
3873.000000	101.512583
3872.000000	101.512898
3871.000000	101.513218
3870.000000	101.513534
3869.000000	101.513833
3868.000000	101.514099
3867.000000	101.514329
3866.000000	101.514533
3865.000000	101.514728
3864.000000	101.514933
3863.000000	101.515160
3862.000000	101.515414
3861.000000	101.515693
3860.000000	101.515996
3859.000000	101.516326
3858.000000	101.516698
3857.000000	101.517123
3856.000000	101.517570
3855.000000	101.517960
3854.000000	101.518244
3853.000000	101.518460
3852.000000	101.518581
3851.000000	101.518661
3850.000000	101.518989
3849.000000	101.519670
3848.000000	101.520422
3847.000000	101.520885
3846.000000	101.520948
3845.000000	101.520735
3844.000000	101.520418
3843.000000	101.520067
3842.000000	101.519745
3841.000000	101.519787
3840.000000	101.520776
3839.000000	101.523028
3838.000000	101.526084
3837.000000	101.528795
3836.000000	101.530293
3835.000000	101.530632
3834.000000	101.530514
3833.000000	101.530620
3832.000000	101.531018
3831.000000	101.531128
3830.000000	101.530404
3829.000000	101.529064
3828.000000	101.527993
3827.000000	101.527948
3826.000000	101.528772
3825.000000	101.529545
3824.000000	101.529652
3823.000000	101.529506
3822.000000	101.530113
3821.000000	101.531905
3820.000000	101.533807
3819.000000	101.534658
3818.000000	101.534853
3817.000000	101.535149
3816.000000	101.535398
3815.000000	101.534849
3814.000000	101.533377
3813.000000	101.532066
3812.000000	101.531837
3811.000000	101.532250
3810.000000	101.532202
3809.000000	101.531188
3808.000000	101.529846
3807.000000	101.529296
3806.000000	101.529827
3805.000000	101.531005
3804.000000	101.532792
3803.000000	101.535205
3802.000000	101.537508
3801.000000	101.538469
3800.000000	101.537332
3799.000000	101.535163
3798.000000	101.534040
3797.000000	101.534382
3796.000000	101.534775
3795.000000	101.533802
3794.000000	101.531571
3793.000000	101.529477
3792.000000	101.528728
3791.000000	101.529594
3790.000000	101.531701
3789.000000	101.534265
3788.000000	101.536150
3787.000000	101.536297
3786.000000	101.534478
3785.000000	101.531456
3784.000000	101.528237
3783.000000	101.525266
3782.000000	101.522564
3781.000000	101.520188
3780.000000	101.518223
3779.000000	101.516540
3778.000000	101.514923
3777.000000	101.513841
3776.000000	101.514419
3775.000000	101.517158
3774.000000	101.520991
3773.000000	101.523789
3772.000000	101.523907
3771.000000	101.521321
3770.000000	101.517425
3769.000000	101.513518
3768.000000	101.510015
3767.000000	101.507509
3766.000000	101.507090
3765.000000	101.509306
3764.000000	101.513321
3763.000000	101.517470
3762.000000	101.520312
3761.000000	101.520738
3760.000000	101.518453
3759.000000	101.514990
3758.000000	101.512753
3757.000000	101.512772
3756.000000	101.513770
3755.000000	101.513541
3754.000000	101.510625
3753.000000	101.505316
3752.000000	101.500506
3751.000000	101.500236
3750.000000	101.503993
3749.000000	101.505208
3748.000000	101.499150
3747.000000	101.487780
3746.000000	101.477479
3745.000000	101.474634
3744.000000	101.478328
3743.000000	101.478539
3742.000000	101.472194
3741.000000	101.466861
3740.000000	101.466106
3739.000000	101.468230
3738.000000	101.472779
3737.000000	101.480933
3736.000000	101.490415
3735.000000	101.494694
3734.000000	101.490252
3733.000000	101.481339
3732.000000	101.473897
3731.000000	101.467792
3730.000000	101.459645
3729.000000	101.448830
3728.000000	101.437605
3727.000000	101.428001
3726.000000	101.420059
3725.000000	101.412556
3724.000000	101.405207
3723.000000	101.398589
3722.000000	101.392672
3721.000000	101.386924
3720.000000	101.380694
3719.000000	101.372486
3718.000000	101.360141
3717.000000	101.343271
3716.000000	101.324423
3715.000000	101.307156
3714.000000	101.291480
3713.000000	101.272506
3712.000000	101.246449
3711.000000	101.216706
3710.000000	101.190303
3709.000000	101.171237
3708.000000	101.158196
3707.000000	101.146071
3706.000000	101.129824
3705.000000	101.107952
3704.000000	101.083566
3703.000000	101.062230
3702.000000	101.047351
3701.000000	101.036237
3700.000000	101.022376
3699.000000	101.002752
3698.000000	100.980678
3697.000000	100.961795
3696.000000	100.949599
3695.000000	100.944451
3694.000000	100.944919
3693.000000	100.948309
3692.000000	100.950849
3691.000000	100.949999
3690.000000	100.945983
3689.000000	100.939190
3688.000000	100.926852
3687.000000	100.907149
3686.000000	100.883799
3685.000000	100.861332
3684.000000	100.839655
3683.000000	100.815993
3682.000000	100.790463
3681.000000	100.766765
3680.000000	100.745723
3679.000000	100.720202
3678.000000	100.681968
3677.000000	100.635024
3676.000000	100.598720
3675.000000	100.584402
3674.000000	100.576929
3673.000000	100.559421
3672.000000	100.531157
3671.000000	100.498230
3670.000000	100.467244
3669.000000	100.438963
3668.000000	100.407143
3667.000000	100.368320
3666.000000	100.322795
3665.000000	100.271713
3664.000000	100.219407
3663.000000	100.173070
3662.000000	100.137540
3661.000000	100.111128
3660.000000	100.087119
3659.000000	100.059532
3658.000000	100.027733
3657.000000	99.995820
3656.000000	99.967258
3655.000000	99.939998
3654.000000	99.910544
3653.000000	99.878589
3652.000000	99.845286
3651.000000	99.812982
3650.000000	99.786399
3649.000000	99.767031
3648.000000	99.747570
3647.000000	99.719630
3646.000000	99.682698
3645.000000	99.642354
3644.000000	99.605353
3643.000000	99.576137
3642.000000	99.554306
3641.000000	99.534659
3640.000000	99.510998
3639.000000	99.481221
3638.000000	99.448026
3637.000000	99.415744
3636.000000	99.387921
3635.000000	99.366153
3634.000000	99.348691
3633.000000	99.329897
3632.000000	99.303343
3631.000000	99.266563
3630.000000	99.225398
3629.000000	99.192924
3628.000000	99.175081
3627.000000	99.165563
3626.000000	99.161760
3625.000000	99.164845
3624.000000	99.172117
3623.000000	99.180999
3622.000000	99.193281
3621.000000	99.213508
3620.000000	99.242599
3619.000000	99.272894
3618.000000	99.292832
3617.000000	99.299192
3616.000000	99.300838
3615.000000	99.308919
3614.000000	99.327087
3613.000000	99.350232
3612.000000	99.371415
3611.000000	99.389824
3610.000000	99.410306
3609.000000	99.436162
3608.000000	99.465017
3607.000000	99.492073
3606.000000	99.516024
3605.000000	99.539375
3604.000000	99.563259
3603.000000	99.584618
3602.000000	99.599280
3601.000000	99.606159
3600.000000	99.607816
3599.000000	99.607829
3598.000000	99.608779
3597.000000	99.611991
3596.000000	99.618406
3595.000000	99.628308
3594.000000	99.639801
3593.000000	99.648942
3592.000000	99.653234
3591.000000	99.653519
3590.000000	99.652278
3589.000000	99.651190
3588.000000	99.649936
3587.000000	99.646368
3586.000000	99.639171
3585.000000	99.631445
3584.000000	99.628184
3583.000000	99.629854
3582.000000	99.632030
3581.000000	99.630174
3580.000000	99.623242
3579.000000	99.613050
3578.000000	99.601412
3577.000000	99.588659
3576.000000	99.574808
3575.000000	99.561031
3574.000000	99.548962
3573.000000	99.539200
3572.000000	99.531407
3571.000000	99.525753
3570.000000	99.522938
3569.000000	99.522811
3568.000000	99.523347
3567.000000	99.521746
3566.000000	99.516503
3565.000000	99.508777
3564.000000	99.500967
3563.000000	99.492922
3562.000000	99.481691
3561.000000	99.465242
3560.000000	99.445244
3559.000000	99.426333
3558.000000	99.412627
3557.000000	99.404197
3556.000000	99.396626
3555.000000	99.385068
3554.000000	99.369725
3553.000000	99.356565
3552.000000	99.351143
3551.000000	99.352561
3550.000000	99.354879
3549.000000	99.353346
3548.000000	99.348104
3547.000000	99.342420
3546.000000	99.338719
3545.000000	99.336569
3544.000000	99.334050
3543.000000	99.329915
3542.000000	99.324151
3541.000000	99.317440
3540.000000	99.310646
3539.000000	99.304434
3538.000000	99.298841
3537.000000	99.293280
3536.000000	99.287215
3535.000000	99.280953
3534.000000	99.275640
3533.000000	99.272237
3532.000000	99.270490
3531.000000	99.268809
3530.000000	99.265303
3529.000000	99.259177
3528.000000	99.251426
3527.000000	99.244176
3526.000000	99.239022
3525.000000	99.235718
3524.000000	99.232448
3523.000000	99.227648
3522.000000	99.221594
3521.000000	99.216002
3520.000000	99.212067
3519.000000	99.209202
3518.000000	99.205703
3517.000000	99.200551
3516.000000	99.194316
3515.000000	99.188403
3514.000000	99.183658
3513.000000	99.179736
3512.000000	99.175581
3511.000000	99.170350
3510.000000	99.163998
3509.000000	99.157101
3508.000000	99.150350
3507.000000	99.144066
3506.000000	99.138175
3505.000000	99.132507
3504.000000	99.126993
3503.000000	99.121616
3502.000000	99.116248
3501.000000	99.110658
3500.000000	99.104729
3499.000000	99.098570
3498.000000	99.092420
3497.000000	99.086456
3496.000000	99.080677
3495.000000	99.074975
3494.000000	99.069249
3493.000000	99.063441
3492.000000	99.057494
3491.000000	99.051338
3490.000000	99.044964
3489.000000	99.038480
3488.000000	99.032066
3487.000000	99.025819
3486.000000	99.019684
3485.000000	99.013500
3484.000000	99.007123
3483.000000	99.000538
3482.000000	98.993837
3481.000000	98.987128
3480.000000	98.980445
3479.000000	98.973757
3478.000000	98.967004
3477.000000	98.960142
3476.000000	98.953178
3475.000000	98.946184
3474.000000	98.939249
3473.000000	98.932382
3472.000000	98.925458
3471.000000	98.918333
3470.000000	98.910983
3469.000000	98.903493
3468.000000	98.895986
3467.000000	98.888603
3466.000000	98.881510
3465.000000	98.874821
3464.000000	98.868449
3463.000000	98.862040
3462.000000	98.855230
3461.000000	98.847964
3460.000000	98.840561
3459.000000	98.833404
3458.000000	98.826541
3457.000000	98.819729
3456.000000	98.812852
3455.000000	98.806135
3454.000000	98.799748
3453.000000	98.793318
3452.000000	98.786148
3451.000000	98.778023
3450.000000	98.769698
3449.000000	98.762336
3448.000000	98.756451
3447.000000	98.751412
3446.000000	98.745970
3445.000000	98.739348
3444.000000	98.731720
3443.000000	98.723794
3442.000000	98.716049
3441.000000	98.708357
3440.000000	98.700238
3439.000000	98.691582
3438.000000	98.683003
3437.000000	98.675275
3436.000000	98.668492
3435.000000	98.662126
3434.000000	98.656094
3433.000000	98.651486
3432.000000	98.649636
3431.000000	98.650296
3430.000000	98.651026
3429.000000	98.648901
3428.000000	98.642902
3427.000000	98.634558
3426.000000	98.626394
3425.000000	98.619812
3424.000000	98.614568
3423.000000	98.609864
3422.000000	98.605300
3421.000000	98.600580
3420.000000	98.594832
3419.000000	98.587045
3418.000000	98.577441
3417.000000	98.568103
3416.000000	98.561730
3415.000000	98.559555
3414.000000	98.560460
3413.000000	98.562051
3412.000000	98.562657
3411.000000	98.562101
3410.000000	98.560621
3409.000000	98.557649
3408.000000	98.552247
3407.000000	98.544719
3406.000000	98.537043
3405.000000	98.531064
3404.000000	98.526399
3403.000000	98.520802
3402.000000	98.512917
3401.000000	98.504615
3400.000000	98.500084
3399.000000	98.502229
3398.000000	98.509886
3397.000000	98.518069
3396.000000	98.521820
3395.000000	98.520316
3394.000000	98.516757
3393.000000	98.514698
3392.000000	98.514822
3391.000000	98.515574
3390.000000	98.516049
3389.000000	98.516889
3388.000000	98.518373
3387.000000	98.519194
3386.000000	98.518069
3385.000000	98.515728
3384.000000	98.514137
3383.000000	98.513935
3382.000000	98.513821
3381.000000	98.512473
3380.000000	98.510161
3379.000000	98.508214
3378.000000	98.507697
3377.000000	98.509064
3376.000000	98.512439
3375.000000	98.517461
3374.000000	98.522897
3373.000000	98.527060
3372.000000	98.528997
3371.000000	98.529146
3370.000000	98.528818
3369.000000	98.529144
3368.000000	98.530346
3367.000000	98.531795
3366.000000	98.532729
3365.000000	98.533078
3364.000000	98.533615
3363.000000	98.535154
3362.000000	98.537663
3361.000000	98.540351
3360.000000	98.542594
3359.000000	98.544498
3358.000000	98.546480
3357.000000	98.548626
3356.000000	98.550684
3355.000000	98.552540
3354.000000	98.554452
3353.000000	98.556730
3352.000000	98.559262
3351.000000	98.561621
3350.000000	98.563581
3349.000000	98.565346
3348.000000	98.567314
3347.000000	98.569765
3346.000000	98.572793
3345.000000	98.576320
3344.000000	98.580027
3343.000000	98.583392
3342.000000	98.586051
3341.000000	98.588126
3340.000000	98.590271
3339.000000	98.593199
3338.000000	98.597087
3337.000000	98.601541
3336.000000	98.605898
3335.000000	98.609739
3334.000000	98.613034
3333.000000	98.615975
3332.000000	98.618840
3331.000000	98.621855
3330.000000	98.625155
3329.000000	98.628790
3328.000000	98.632666
3327.000000	98.636518
3326.000000	98.640079
3325.000000	98.643337
3324.000000	98.646542
3323.000000	98.649898
3322.000000	98.653336
3321.000000	98.656702
3320.000000	98.660068
3319.000000	98.663690
3318.000000	98.667674
3317.000000	98.671886
3316.000000	98.676210
3315.000000	98.680740
3314.000000	98.685566
3313.000000	98.690522
3312.000000	98.695261
3311.000000	98.699524
3310.000000	98.703244
3309.000000	98.706462
3308.000000	98.709267
3307.000000	98.711791
3306.000000	98.714235
3305.000000	98.716985
3304.000000	98.720655
3303.000000	98.725671
3302.000000	98.731562
3301.000000	98.736932
3300.000000	98.740770
3299.000000	98.743650
3298.000000	98.747082
3297.000000	98.751522
3296.000000	98.755800
3295.000000	98.758700
3294.000000	98.760620
3293.000000	98.763147
3292.000000	98.767380
3291.000000	98.773108
3290.000000	98.779429
3289.000000	98.785495
3288.000000	98.790775
3287.000000	98.795294
3286.000000	98.799722
3285.000000	98.804793
3284.000000	98.810550
3283.000000	98.816435
3282.000000	98.822076
3281.000000	98.827575
3280.000000	98.832935
3279.000000	98.837660
3278.000000	98.841298
3277.000000	98.844218
3276.000000	98.847631
3275.000000	98.852623
3274.000000	98.859311
3273.000000	98.866910
3272.000000	98.874394
3271.000000	98.881231
3270.000000	98.887358
3269.000000	98.892741
3268.000000	98.897322
3267.000000	98.901347
3266.000000	98.905434
3265.000000	98.910104
3264.000000	98.915382
3263.000000	98.921060
3262.000000	98.927046
3261.000000	98.933174
3260.000000	98.938905
3259.000000	98.943696
3258.000000	98.947709
3257.000000	98.951892
3256.000000	98.957054
3255.000000	98.963071
3254.000000	98.969092
3253.000000	98.974408
3252.000000	98.979085
3251.000000	98.983833
3250.000000	98.989381
3249.000000	98.995893
3248.000000	99.002896
3247.000000	99.009732
3246.000000	99.016173
3245.000000	99.022475
3244.000000	99.028871
3243.000000	99.035192
3242.000000	99.041135
3241.000000	99.046754
3240.000000	99.052449
3239.000000	99.058498
3238.000000	99.064751
3237.000000	99.070846
3236.000000	99.076633
3235.000000	99.082372
3234.000000	99.088523
3233.000000	99.095296
3232.000000	99.102469
3231.000000	99.109562
3230.000000	99.116289
3229.000000	99.122760
3228.000000	99.129327
3227.000000	99.136265
3226.000000	99.143584
3225.000000	99.151066
3224.000000	99.158433
3223.000000	99.165535
3222.000000	99.172388
3221.000000	99.179144
3220.000000	99.186000
3219.000000	99.193089
3218.000000	99.200419
3217.000000	99.207907
3216.000000	99.215490
3215.000000	99.223192
3214.000000	99.231056
3213.000000	99.238980
3212.000000	99.246675
3211.000000	99.253865
3210.000000	99.260549
3209.000000	99.267084
3208.000000	99.273961
3207.000000	99.281469
3206.000000	99.289583
3205.000000	99.297974
3204.000000	99.306147
3203.000000	99.313715
3202.000000	99.320732
3201.000000	99.327844
3200.000000	99.335853
3199.000000	99.345025
3198.000000	99.354715
3197.000000	99.363816
3196.000000	99.371718
3195.000000	99.378700
3194.000000	99.385505
3193.000000	99.392620
3192.000000	99.400083
3191.000000	99.407868
3190.000000	99.416185
3189.000000	99.425256
3188.000000	99.434838
3187.000000	99.444060
3186.000000	99.451955
3185.000000	99.458125
3184.000000	99.462918
3183.000000	99.467204
3182.000000	99.471900
3181.000000	99.477566
3180.000000	99.484230
3179.000000	99.491555
3178.000000	99.499269
3177.000000	99.507341
3176.000000	99.515646
3175.000000	99.523611
3174.000000	99.530587
3173.000000	99.536661
3172.000000	99.542890
3171.000000	99.550460
3170.000000	99.559605
3169.000000	99.569474
3168.000000	99.579025
3167.000000	99.587946
3166.000000	99.596536
3165.000000	99.604816
3164.000000	99.612163
3163.000000	99.617969
3162.000000	99.622407
3161.000000	99.626289
3160.000000	99.630321
3159.000000	99.634903
3158.000000	99.640582
3157.000000	99.648067
3156.000000	99.657425
3155.000000	99.667774
3154.000000	99.678043
3153.000000	99.687648
3152.000000	99.696237
3151.000000	99.703295
3150.000000	99.708687
3149.000000	99.713473
3148.000000	99.719482
3147.000000	99.727738
3146.000000	99.737691
3145.000000	99.747821
3144.000000	99.756849
3143.000000	99.764373
3142.000000	99.770818
3141.000000	99.777106
3140.000000	99.783978
3139.000000	99.791387
3138.000000	99.798821
3137.000000	99.806381
3136.000000	99.815045
3135.000000	99.825392
3134.000000	99.836327
3133.000000	99.845776
3132.000000	99.852810
3131.000000	99.858481
3130.000000	99.864526
3129.000000	99.871565
3128.000000	99.878923
3127.000000	99.885872
3126.000000	99.892414
3125.000000	99.898844
3124.000000	99.904970
3123.000000	99.910209
3122.000000	99.914564
3121.000000	99.919189
3120.000000	99.925510
3119.000000	99.933677
3118.000000	99.942175
3117.000000	99.949302
3116.000000	99.954933
3115.000000	99.960441
3114.000000	99.967008
3113.000000	99.974443
3112.000000	99.981776
3111.000000	99.988468
3110.000000	99.994604
3109.000000	100.000179
3108.000000	100.004835
3107.000000	100.008474
3106.000000	100.011745
3105.000000	100.015636
3104.000000	100.020650
3103.000000	100.026537
3102.000000	100.032774
3101.000000	100.039024
3100.000000	100.045169
3099.000000	100.051200
3098.000000	100.057240
3097.000000	100.063481
3096.000000	100.069822
3095.000000	100.075603
3094.000000	100.079973
3093.000000	100.082792
3092.000000	100.085162
3091.000000	100.088736
3090.000000	100.094357
3089.000000	100.101352
3088.000000	100.108109
3087.000000	100.113594
3086.000000	100.118065
3085.000000	100.122382
3084.000000	100.126873
3083.000000	100.131082
3082.000000	100.134654
3081.000000	100.138161
3080.000000	100.142738
3079.000000	100.148896
3078.000000	100.155905
3077.000000	100.162374
3076.000000	100.167485
3075.000000	100.171672
3074.000000	100.176201
3073.000000	100.182117
3072.000000	100.189452
3071.000000	100.197235
3070.000000	100.204340
3069.000000	100.210387
3068.000000	100.215734
3067.000000	100.220650
3066.000000	100.224747
3065.000000	100.227593
3064.000000	100.229793
3063.000000	100.232921
3062.000000	100.238006
3061.000000	100.244277
3060.000000	100.249753
3059.000000	100.253129
3058.000000	100.254788
3057.000000	100.256121
3056.000000	100.258295
3055.000000	100.261891
3054.000000	100.267186
3053.000000	100.273916
3052.000000	100.280614
3051.000000	100.284986
3050.000000	100.285594
3049.000000	100.283203
3048.000000	100.280578
3047.000000	100.280843
3046.000000	100.285720
3045.000000	100.294505
3044.000000	100.303980
3043.000000	100.310133
3042.000000	100.310977
3041.000000	100.307948
3040.000000	100.304487
3039.000000	100.302946
3038.000000	100.303048
3037.000000	100.303150
3036.000000	100.302488
3035.000000	100.302164
3034.000000	100.304280
3033.000000	100.310196
3032.000000	100.319250
3031.000000	100.328859
3030.000000	100.335862
3029.000000	100.337965
3028.000000	100.334562
3027.000000	100.327202
3026.000000	100.319447
3025.000000	100.314951
3024.000000	100.314509
3023.000000	100.315368
3022.000000	100.314450
3021.000000	100.311941
3020.000000	100.310670
3019.000000	100.312301
3018.000000	100.315696
3017.000000	100.319264
3016.000000	100.322911
3015.000000	100.326181
3014.000000	100.325890
3013.000000	100.318152
3012.000000	100.303216
3011.000000	100.286853
3010.000000	100.275625
3009.000000	100.270980
3008.000000	100.268836
3007.000000	100.264627
3006.000000	100.257858
3005.000000	100.251308
3004.000000	100.246687
3003.000000	100.242635
3002.000000	100.237334
3001.000000	100.231520
3000.000000	100.227433
2999.000000	100.225377
2998.000000	100.222948
2997.000000	100.217719
2996.000000	100.209084
2995.000000	100.196901
2994.000000	100.179888
2993.000000	100.157130
2992.000000	100.130947
2991.000000	100.106977
2990.000000	100.090711
2989.000000	100.083681
2988.000000	100.082553
2987.000000	100.081496
2986.000000	100.076031
2985.000000	100.065505
2984.000000	100.052259
2983.000000	100.038571
2982.000000	100.024669
2981.000000	100.009621
2980.000000	99.993472
2979.000000	99.977735
2978.000000	99.963869
2977.000000	99.951950
2976.000000	99.941361
2975.000000	99.932807
2974.000000	99.929307
2973.000000	99.934626
2972.000000	99.950346
2971.000000	99.974282
2970.000000	100.001466
2969.000000	100.026617
2968.000000	100.046284
2967.000000	100.060146
2966.000000	100.071377
2965.000000	100.084942
2964.000000	100.103671
2963.000000	100.125312
2962.000000	100.144309
2961.000000	100.157044
2960.000000	100.164784
2959.000000	100.171644
2958.000000	100.180713
2957.000000	100.192472
2956.000000	100.205753
2955.000000	100.219033
2954.000000	100.231175
2953.000000	100.241697
2952.000000	100.250268
2951.000000	100.255753
2950.000000	100.256550
2949.000000	100.252614
2948.000000	100.246570
2947.000000	100.241760
2946.000000	100.238928
2945.000000	100.235592
2944.000000	100.229096
2943.000000	100.220036
2942.000000	100.212325
2941.000000	100.209674
2940.000000	100.212106
2939.000000	100.216062
2938.000000	100.217971
2937.000000	100.217245
2936.000000	100.215475
2935.000000	100.213481
2934.000000	100.210455
2933.000000	100.206101
2932.000000	100.202222
2931.000000	100.201223
2930.000000	100.203540
2929.000000	100.207382
2928.000000	100.210885
2927.000000	100.213910
2926.000000	100.217497
2925.000000	100.221927
2924.000000	100.225863
2923.000000	100.227940
2922.000000	100.229346
2921.000000	100.234085
2920.000000	100.245647
2919.000000	100.263316
2918.000000	100.282026
2917.000000	100.296153
2916.000000	100.303206
2915.000000	100.304044
2914.000000	100.301212
2913.000000	100.297939
2912.000000	100.297460
2911.000000	100.301551
2910.000000	100.309173
2909.000000	100.317050
2908.000000	100.322050
2907.000000	100.323069
2906.000000	100.321023
2905.000000	100.317924
2904.000000	100.316186
2903.000000	100.317942
2902.000000	100.323987
2901.000000	100.332936
2900.000000	100.341738
2899.000000	100.347908
2898.000000	100.351614
2897.000000	100.355216
2896.000000	100.360547
2895.000000	100.366872
2894.000000	100.371947
2893.000000	100.374881
2892.000000	100.377207
2891.000000	100.381000
2890.000000	100.386752
2889.000000	100.393608
2888.000000	100.400946
2887.000000	100.408881
2886.000000	100.417449
2885.000000	100.426250
2884.000000	100.435156
2883.000000	100.444786
2882.000000	100.455802
2881.000000	100.467865
2880.000000	100.479439
2879.000000	100.488641
2878.000000	100.494467
2877.000000	100.497682
2876.000000	100.500666
2875.000000	100.505753
2874.000000	100.513313
2873.000000	100.521512
2872.000000	100.528278
2871.000000	100.533614
2870.000000	100.539801
2869.000000	100.549211
2868.000000	100.561810
2867.000000	100.574697
2866.000000	100.584397
2865.000000	100.589917
2864.000000	100.593580
2863.000000	100.598764
2862.000000	100.607068
2861.000000	100.617917
2860.000000	100.630034
2859.000000	100.642031
2858.000000	100.651857
2857.000000	100.657537
2856.000000	100.659555
2855.000000	100.661621
2854.000000	100.667715
2853.000000	100.678677
2852.000000	100.692573
2851.000000	100.707864
2850.000000	100.724911
2849.000000	100.744167
2848.000000	100.764209
2847.000000	100.782412
2846.000000	100.796890
2845.000000	100.807061
2844.000000	100.813063
2843.000000	100.815601
2842.000000	100.816165
2841.000000	100.816527
2840.000000	100.817880
2839.000000	100.820840
2838.000000	100.826052
2837.000000	100.833986
2836.000000	100.844035
2835.000000	100.854500
2834.000000	100.863921
2833.000000	100.872306
2832.000000	100.881009
2831.000000	100.891519
2830.000000	100.903949
2829.000000	100.916158
2828.000000	100.924734
2827.000000	100.927809
2826.000000	100.927052
2825.000000	100.926082
2824.000000	100.926665
2823.000000	100.927666
2822.000000	100.928164
2821.000000	100.929993
2820.000000	100.935905
2819.000000	100.945959
2818.000000	100.957087
2817.000000	100.966088
2816.000000	100.972014
2815.000000	100.975786
2814.000000	100.978927
2813.000000	100.982950
2812.000000	100.988768
2811.000000	100.995921
2810.000000	101.002825
2809.000000	101.008224
2808.000000	101.011982
2807.000000	101.014444
2806.000000	101.015824
2805.000000	101.016668
2804.000000	101.018181
2803.000000	101.021299
2802.000000	101.025704
2801.000000	101.030222
2800.000000	101.034020
2799.000000	101.037089
2798.000000	101.039823
2797.000000	101.042647
2796.000000	101.046053
2795.000000	101.050560
2794.000000	101.056396
2793.000000	101.063234
2792.000000	101.070268
2791.000000	101.076554
2790.000000	101.081573
2789.000000	101.085718
2788.000000	101.090040
2787.000000	101.095085
2786.000000	101.099939
2785.000000	101.102913
2784.000000	101.103318
2783.000000	101.102347
2782.000000	101.102334
2781.000000	101.104703
2780.000000	101.108993
2779.000000	101.113621
2778.000000	101.117432
2777.000000	101.120618
2776.000000	101.124136
2775.000000	101.128456
2774.000000	101.133007
2773.000000	101.136744
2772.000000	101.139115
2771.000000	101.140466
2770.000000	101.141758
2769.000000	101.143887
2768.000000	101.147065
2767.000000	101.150694
2766.000000	101.153831
2765.000000	101.155985
2764.000000	101.157523
2763.000000	101.159278
2762.000000	101.161749
2761.000000	101.164704
2760.000000	101.167503
2759.000000	101.169646
2758.000000	101.171044
2757.000000	101.171998
2756.000000	101.173079
2755.000000	101.174868
2754.000000	101.177580
2753.000000	101.180886
2752.000000	101.184146
2751.000000	101.186940
2750.000000	101.189335
2749.000000	101.191652
2748.000000	101.194117
2747.000000	101.196754
2746.000000	101.199438
2745.000000	101.201855
2744.000000	101.203556
2743.000000	101.204318
2742.000000	101.204539
2741.000000	101.205202
2740.000000	101.207043
2739.000000	101.209929
2738.000000	101.212960
2737.000000	101.215344
2736.000000	101.217001
2735.000000	101.218281
2734.000000	101.219500
2733.000000	101.220728
2732.000000	101.221887
2731.000000	101.222891
2730.000000	101.223771
2729.000000	101.224747
2728.000000	101.226058
2727.000000	101.227646
2726.000000	101.229133
2725.000000	101.230172
2724.000000	101.230713
2723.000000	101.230929
2722.000000	101.231077
2721.000000	101.231468
2720.000000	101.232292
2719.000000	101.233445
2718.000000	101.234634
2717.000000	101.235634
2716.000000	101.236455
2715.000000	101.237217
2714.000000	101.237979
2713.000000	101.238728
2712.000000	101.239447
2711.000000	101.240131
2710.000000	101.240780
2709.000000	101.241390
2708.000000	101.241966
2707.000000	101.242510
2706.000000	101.243024
2705.000000	101.243512
2704.000000	101.243983
2703.000000	101.244447
2702.000000	101.244913
2701.000000	101.245388
2700.000000	101.245870
2699.000000	101.246353
2698.000000	101.246824
2697.000000	101.247276
2696.000000	101.247704
2695.000000	101.248116
2694.000000	101.248528
2693.000000	101.248952
2692.000000	101.249390
2691.000000	101.249832
2690.000000	101.250268
2689.000000	101.250691
2688.000000	101.251107
2687.000000	101.251524
2686.000000	101.251951
2685.000000	101.252392
2684.000000	101.252848
2683.000000	101.253310
2682.000000	101.253772
2681.000000	101.254228
2680.000000	101.254676
2679.000000	101.255116
2678.000000	101.255543
2677.000000	101.255958
2676.000000	101.256350
2675.000000	101.256686
2674.000000	101.256935
2673.000000	101.257102
2672.000000	101.257249
2671.000000	101.257439
2670.000000	101.257689
2669.000000	101.257927
2668.000000	101.258081
2667.000000	101.258192
2666.000000	101.258351
2665.000000	101.258581
2664.000000	101.258864
2663.000000	101.259242
2662.000000	101.259762
2661.000000	101.260338
2660.000000	101.260780
2659.000000	101.261004
2658.000000	101.261135
2657.000000	101.261367
2656.000000	101.261728
2655.000000	101.262058
2654.000000	101.262171
2653.000000	101.262024
2652.000000	101.261759
2651.000000	101.261598
2650.000000	101.261690
2649.000000	101.261969
2648.000000	101.262205
2647.000000	101.262239
2646.000000	101.262185
2645.000000	101.262322
2644.000000	101.262756
2643.000000	101.263245
2642.000000	101.263405
2641.000000	101.263064
2640.000000	101.262340
2639.000000	101.261472
2638.000000	101.260699
2637.000000	101.260345
2636.000000	101.260775
2635.000000	101.261992
2634.000000	101.263351
2633.000000	101.264007
2632.000000	101.263656
2631.000000	101.262769
2630.000000	101.262008
2629.000000	101.261625
2628.000000	101.261567
2627.000000	101.261703
2626.000000	101.261738
2625.000000	101.261185
2624.000000	101.259895
2623.000000	101.258578
2622.000000	101.258309
2621.000000	101.259380
2620.000000	101.260830
2619.000000	101.261315
2618.000000	101.260554
2617.000000	101.259639
2616.000000	101.259822
2615.000000	101.261199
2614.000000	101.262774
2613.000000	101.263721
2612.000000	101.264391
2611.000000	101.265802
2610.000000	101.268306
2609.000000	101.271049
2608.000000	101.272777
2607.000000	101.273032
2606.000000	101.272402
2605.000000	101.271844
2604.000000	101.271882
2603.000000	101.272279
2602.000000	101.272265
2601.000000	101.271189
2600.000000	101.269166
2599.000000	101.267155
2598.000000	101.266214
2597.000000	101.266581
2596.000000	101.267611
2595.000000	101.268513
2594.000000	101.269131
2593.000000	101.269871
2592.000000	101.271044
2591.000000	101.272483
2590.000000	101.273725
2589.000000	101.274423
2588.000000	101.274532
2587.000000	101.274224
2586.000000	101.273780
2585.000000	101.273543
2584.000000	101.273781
2583.000000	101.274470
2582.000000	101.275269
2581.000000	101.275780
2580.000000	101.275925
2579.000000	101.275975
2578.000000	101.276260
2577.000000	101.276858
2576.000000	101.277574
2575.000000	101.278138
2574.000000	101.278450
2573.000000	101.278601
2572.000000	101.278759
2571.000000	101.279023
2570.000000	101.279369
2569.000000	101.279692
2568.000000	101.279925
2567.000000	101.280131
2566.000000	101.280456
2565.000000	101.280983
2564.000000	101.281680
2563.000000	101.282421
2562.000000	101.283085
2561.000000	101.283648
2560.000000	101.284172
2559.000000	101.284738
2558.000000	101.285370
2557.000000	101.286029
2556.000000	101.286656
2555.000000	101.287248
2554.000000	101.287860
2553.000000	101.288526
2552.000000	101.289202
2551.000000	101.289825
2550.000000	101.290403
2549.000000	101.291043
2548.000000	101.291862
2547.000000	101.292883
2546.000000	101.294045
2545.000000	101.295262
2544.000000	101.296429
2543.000000	101.297451
2542.000000	101.298297
2541.000000	101.299044
2540.000000	101.299851
2539.000000	101.300840
2538.000000	101.302026
2537.000000	101.303339
2536.000000	101.304700
2535.000000	101.306072
2534.000000	101.307455
2533.000000	101.308871
2532.000000	101.310339
2531.000000	101.311854
2530.000000	101.313373
2529.000000	101.314834
2528.000000	101.316198
2527.000000	101.317478
2526.000000	101.318751
2525.000000	101.320131
2524.000000	101.321694
2523.000000	101.323423
2522.000000	101.325229
2521.000000	101.327022
2520.000000	101.328776
2519.000000	101.330507
2518.000000	101.332244
2517.000000	101.334023
2516.000000	101.335882
2515.000000	101.337832
2514.000000	101.339847
2513.000000	101.341870
2512.000000	101.343862
2511.000000	101.345817
2510.000000	101.347769
2509.000000	101.349782
2508.000000	101.351895
2507.000000	101.354092
2506.000000	101.356310
2505.000000	101.358508
2504.000000	101.360695
2503.000000	101.362906
2502.000000	101.365158
2501.000000	101.367441
2500.000000	101.369724
2499.000000	101.371989
2498.000000	101.374242
2497.000000	101.376493
2496.000000	101.378744
2495.000000	101.380988
2494.000000	101.383216
2493.000000	101.385418
2492.000000	101.387591
2491.000000	101.389747
2490.000000	101.391910
2489.000000	101.394105
2488.000000	101.396340
2487.000000	101.398606
2486.000000	101.400889
2485.000000	101.403174
2484.000000	101.405454
2483.000000	101.407725
2482.000000	101.409976
2481.000000	101.412199
2480.000000	101.414396
2479.000000	101.416573
2478.000000	101.418744
2477.000000	101.420916
2476.000000	101.423081
2475.000000	101.425221
2474.000000	101.427315
2473.000000	101.429360
2472.000000	101.431371
2471.000000	101.433372
2470.000000	101.435383
2469.000000	101.437412
2468.000000	101.439451
2467.000000	101.441483
2466.000000	101.443489
2465.000000	101.445461
2464.000000	101.447401
2463.000000	101.449318
2462.000000	101.451223
2461.000000	101.453121
2460.000000	101.455010
2459.000000	101.456878
2458.000000	101.458718
2457.000000	101.460530
2456.000000	101.462323
2455.000000	101.464115
2454.000000	101.465914
2453.000000	101.467690
2452.000000	101.469395
2451.000000	101.471010
2450.000000	101.472604
2449.000000	101.474300
2448.000000	101.476164
2447.000000	101.478069
2446.000000	101.479763
2445.000000	101.481110
2444.000000	101.482227
2443.000000	101.483366
2442.000000	101.484602
2441.000000	101.485805
2440.000000	101.486917
2439.000000	101.488136
2438.000000	101.489687
2437.000000	101.491497
2436.000000	101.493231
2435.000000	101.494654
2434.000000	101.495848
2433.000000	101.497047
2432.000000	101.498388
2431.000000	101.499892
2430.000000	101.501538
2429.000000	101.503216
2428.000000	101.504674
2427.000000	101.505703
2426.000000	101.506379
2425.000000	101.506972
2424.000000	101.507659
2423.000000	101.508426
2422.000000	101.509190
2421.000000	101.509899
2420.000000	101.510514
2419.000000	101.511020
2418.000000	101.511486
2417.000000	101.512017
2416.000000	101.512637
2415.000000	101.513276
2414.000000	101.513872
2413.000000	101.514429
2412.000000	101.514960
2411.000000	101.515451
2410.000000	101.515904
2409.000000	101.516358
2408.000000	101.516846
2407.000000	101.517348
2406.000000	101.517822
2405.000000	101.518238
2404.000000	101.518600
2403.000000	101.518928
2402.000000	101.519239
2401.000000	101.519528
2400.000000	101.519792
2399.000000	101.520026
2398.000000	101.520221
2397.000000	101.520368
2396.000000	101.520466
2395.000000	101.520526
2394.000000	101.520567
2393.000000	101.520605
2392.000000	101.520644
2391.000000	101.520673
2390.000000	101.520669
2389.000000	101.520614
2388.000000	101.520507
2387.000000	101.520360
2386.000000	101.520191
2385.000000	101.520015
2384.000000	101.519838
2383.000000	101.519658
2382.000000	101.519472
2381.000000	101.519275
2380.000000	101.519068
2379.000000	101.518845
2378.000000	101.518596
2377.000000	101.518307
2376.000000	101.517971
2375.000000	101.517589
2374.000000	101.517170
2373.000000	101.516721
2372.000000	101.516242
2371.000000	101.515730
2370.000000	101.515184
2369.000000	101.514610
2368.000000	101.514011
2367.000000	101.513383
2366.000000	101.512711
2365.000000	101.511976
2364.000000	101.511172
2363.000000	101.510310
2362.000000	101.509407
2361.000000	101.508473
2360.000000	101.507506
2359.000000	101.506495
2358.000000	101.505435
2357.000000	101.504328
2356.000000	101.503180
2355.000000	101.501995
2354.000000	101.500776
2353.000000	101.499518
2352.000000	101.498211
2351.000000	101.496845
2350.000000	101.495422
2349.000000	101.493957
2348.000000	101.492470
2347.000000	101.490984
2346.000000	101.489505
2345.000000	101.488023
2344.000000	101.486514
2343.000000	101.484964
2342.000000	101.483367
2341.000000	101.481725
2340.000000	101.480044
2339.000000	101.478319
2338.000000	101.476534
2337.000000	101.474678
2336.000000	101.472758
2335.000000	101.470820
2334.000000	101.468961
2333.000000	101.467270
2332.000000	101.465668
2331.000000	101.463929
2330.000000	101.461924
2329.000000	101.459867
2328.000000	101.458028
2327.000000	101.456323
2326.000000	101.454335
2325.000000	101.451798
2324.000000	101.449021
2323.000000	101.446588
2322.000000	101.444764
2321.000000	101.443082
2320.000000	101.440913
2319.000000	101.438198
2318.000000	101.435388
2317.000000	101.432739
2316.000000	101.429935
2315.000000	101.426805
2314.000000	101.423804
2313.000000	101.421818
2312.000000	101.421282
2311.000000	101.422066
2310.000000	101.423631
2309.000000	101.425190
2308.000000	101.425818
2307.000000	101.424921
2306.000000	101.422546
2305.000000	101.418932
2304.000000	101.414163
2303.000000	101.408470
2302.000000	101.402787
2301.000000	101.398408
2300.000000	101.395838
2299.000000	101.394297
2298.000000	101.392509
2297.000000	101.390210
2296.000000	101.388119
2295.000000	101.386805
2294.000000	101.385951
2293.000000	101.385205
2292.000000	101.384926
2291.000000	101.385603
2290.000000	101.386847
2289.000000	101.387511
2288.000000	101.386842
2287.000000	101.384928
2286.000000	101.382043
2285.000000	101.378034
2284.000000	101.372876
2283.000000	101.367115
2282.000000	101.361731
2281.000000	101.357533
2280.000000	101.354917
2279.000000	101.353737
2278.000000	101.353307
2277.000000	101.352701
2276.000000	101.351140
2275.000000	101.348323
2274.000000	101.344467
2273.000000	101.340249
2272.000000	101.336512
2271.000000	101.333804
2270.000000	101.332104
2269.000000	101.331064
2268.000000	101.330527
2267.000000	101.330664
2266.000000	101.331510
2265.000000	101.332565
2264.000000	101.333033
2263.000000	101.332443
2262.000000	101.330939
2261.000000	101.329005
2260.000000	101.327026
2259.000000	101.325065
2258.000000	101.322999
2257.000000	101.320703
2256.000000	101.318221
2255.000000	101.315863
2254.000000	101.314174
2253.000000	101.313603
2252.000000	101.314080
2251.000000	101.314995
2250.000000	101.315618
2249.000000	101.315544
2248.000000	101.314583
2247.000000	101.312520
2246.000000	101.309269
2245.000000	101.305273
2244.000000	101.301528
2243.000000	101.299019
2242.000000	101.298257
2241.000000	101.299252
2240.000000	101.301540
2239.000000	101.304056
2238.000000	101.305371
2237.000000	101.304548
2236.000000	101.301898
2235.000000	101.298900
2234.000000	101.297142
2233.000000	101.297209
2232.000000	101.298462
2231.000000	101.299669
2230.000000	101.299957
2229.000000	101.299294
2228.000000	101.298198
2227.000000	101.297130
2226.000000	101.296169
2225.000000	101.295129
2224.000000	101.293790
2223.000000	101.292114
2222.000000	101.290496
2221.000000	101.289762
2220.000000	101.290554
2219.000000	101.292674
2218.000000	101.295299
2217.000000	101.297884
2216.000000	101.300417
2215.000000	101.302731
2214.000000	101.304294
2213.000000	101.305136
2212.000000	101.306395
2211.000000	101.309158
2210.000000	101.312851
2209.000000	101.315531
2208.000000	101.315950
2207.000000	101.314694
2206.000000	101.313228
2205.000000	101.312290
2204.000000	101.311670
2203.000000	101.311225
2202.000000	101.311407
2201.000000	101.312612
2200.000000	101.314450
2199.000000	101.316030
2198.000000	101.317004
2197.000000	101.317992
2196.000000	101.319756
2195.000000	101.322041
2194.000000	101.323508
2193.000000	101.323035
2192.000000	101.320858
2191.000000	101.318439
2190.000000	101.317254
2189.000000	101.317664
2188.000000	101.318925
2187.000000	101.320032
2186.000000	101.320596
2185.000000	101.321047
2184.000000	101.322092
2183.000000	101.324018
2182.000000	101.326480
2181.000000	101.328867
2180.000000	101.330804
2179.000000	101.332305
2178.000000	101.333631
2177.000000	101.335082
2176.000000	101.336801
2175.000000	101.338597
2174.000000	101.339963
2173.000000	101.340454
2172.000000	101.340229
2171.000000	101.340045
2170.000000	101.340627
2169.000000	101.341993
2168.000000	101.343538
2167.000000	101.344778
2166.000000	101.345834
2165.000000	101.347090
2164.000000	101.348589
2163.000000	101.350052
2162.000000	101.351437
2161.000000	101.353122
2160.000000	101.355376
2159.000000	101.357943
2158.000000	101.360270
2157.000000	101.362090
2156.000000	101.363581
2155.000000	101.365058
2154.000000	101.366679
2153.000000	101.368422
2152.000000	101.370243
2151.000000	101.372154
2150.000000	101.374186
2149.000000	101.376317
2148.000000	101.378463
2147.000000	101.380554
2146.000000	101.382603
2145.000000	101.384687
2144.000000	101.386875
2143.000000	101.389170
2142.000000	101.391522
2141.000000	101.393885
2140.000000	101.396246
2139.000000	101.398614
2138.000000	101.401016
2137.000000	101.403476
2136.000000	101.405992
2135.000000	101.408518
2134.000000	101.410997
2133.000000	101.413422
2132.000000	101.415828
2131.000000	101.418288
2130.000000	101.420830
2129.000000	101.423432
2128.000000	101.426005
2127.000000	101.428486
2126.000000	101.430878
2125.000000	101.433250
2124.000000	101.435660
2123.000000	101.438100
2122.000000	101.440531
2121.000000	101.442956
2120.000000	101.445424
2119.000000	101.447953
2118.000000	101.450491
2117.000000	101.452991
2116.000000	101.455507
2115.000000	101.458164
2114.000000	101.461054
2113.000000	101.464184
2112.000000	101.467447
2111.000000	101.470524
2110.000000	101.472978
2109.000000	101.474629
2108.000000	101.475865
2107.000000	101.477454
2106.000000	101.479900
2105.000000	101.483082
2104.000000	101.486403
2103.000000	101.489311
2102.000000	101.491654
2101.000000	101.493658
2100.000000	101.495561
2099.000000	101.497229
2098.000000	101.498295
2097.000000	101.498832
2096.000000	101.499475
2095.000000	101.500598
2094.000000	101.501828
2093.000000	101.502917
2092.000000	101.504517
2091.000000	101.507113
2090.000000	101.509546
2089.000000	101.510003
2088.000000	101.508598
2087.000000	101.507728
2086.000000	101.509319
2085.000000	101.512990
2084.000000	101.517263
2083.000000	101.521458
2082.000000	101.525483
2081.000000	101.528624
2080.000000	101.529985
2079.000000	101.529867
2078.000000	101.529641
2077.000000	101.530140
2076.000000	101.530972
2075.000000	101.531517
2074.000000	101.531829
2073.000000	101.532160
2072.000000	101.532254
2071.000000	101.531766
2070.000000	101.531236
2069.000000	101.531996
2068.000000	101.534704
2067.000000	101.538122
2066.000000	101.539843
2065.000000	101.538527
2064.000000	101.535305
2063.000000	101.532919
2062.000000	101.533363
2061.000000	101.536350
2060.000000	101.539720
2059.000000	101.541091
2058.000000	101.539414
2057.000000	101.535400
2056.000000	101.530747
2055.000000	101.526848
2054.000000	101.524240
2053.000000	101.523068
2052.000000	101.523435
2051.000000	101.524961
2050.000000	101.526454
2049.000000	101.526676
2048.000000	101.525426
2047.000000	101.523526
2046.000000	101.521896
2045.000000	101.521035
2044.000000	101.521120
2043.000000	101.521845
2042.000000	101.521994
2041.000000	101.519931
2040.000000	101.515120
2039.000000	101.508902
2038.000000	101.503363
2037.000000	101.499387
2036.000000	101.496185
2035.000000	101.492873
2034.000000	101.489975
2033.000000	101.488834
2032.000000	101.489687
2031.000000	101.491057
2030.000000	101.491348
2029.000000	101.490429
2028.000000	101.489058
2027.000000	101.487258
2026.000000	101.484247
2025.000000	101.479984
2024.000000	101.475819
2023.000000	101.473126
2022.000000	101.471800
2021.000000	101.470559
2020.000000	101.468329
2019.000000	101.464951
2018.000000	101.460854
2017.000000	101.456513
2016.000000	101.452241
2015.000000	101.448273
2014.000000	101.444881
2013.000000	101.442154
2012.000000	101.439531
2011.000000	101.435949
2010.000000	101.431053
2009.000000	101.426119
2008.000000	101.422949
2007.000000	101.421809
2006.000000	101.421153
2005.000000	101.419551
2004.000000	101.417333
2003.000000	101.415845
2002.000000	101.415713
2001.000000	101.416262
2000.000000	101.416106
1999.000000	101.414017
1998.000000	101.409697
1997.000000	101.404319
1996.000000	101.399999
1995.000000	101.398077
1994.000000	101.398151
1993.000000	101.398886
1992.000000	101.399443
1991.000000	101.399624
1990.000000	101.399044
1989.000000	101.397201
1988.000000	101.394368
1987.000000	101.391642
1986.000000	101.389864
1985.000000	101.388932
1984.000000	101.388367
1983.000000	101.388024
1982.000000	101.387980
1981.000000	101.388083
1980.000000	101.387984
1979.000000	101.387562
1978.000000	101.386989
1977.000000	101.386327
1976.000000	101.385280
1975.000000	101.383529
1974.000000	101.381290
1973.000000	101.379318
1972.000000	101.378132
1971.000000	101.377378
1970.000000	101.376281
1969.000000	101.374717
1968.000000	101.373408
1967.000000	101.372890
1966.000000	101.372764
1965.000000	101.372369
1964.000000	101.371753
1963.000000	101.371398
1962.000000	101.371226
1961.000000	101.370432
1960.000000	101.368413
1959.000000	101.365503
1958.000000	101.362633
1957.000000	101.360564
1956.000000	101.359579
1955.000000	101.359423
1954.000000	101.359314
1953.000000	101.358431
1952.000000	101.356627
1951.000000	101.354432
1950.000000	101.352402
1949.000000	101.350938
1948.000000	101.350566
1947.000000	101.351625
1946.000000	101.353330
1945.000000	101.353722
1944.000000	101.351047
1943.000000	101.345282
1942.000000	101.338506
1941.000000	101.333346
1940.000000	101.330894
1939.000000	101.330088
1938.000000	101.328734
1937.000000	101.325546
1936.000000	101.321322
1935.000000	101.317681
1934.000000	101.314962
1933.000000	101.312289
1932.000000	101.309479
1931.000000	101.307522
1930.000000	101.306889
1929.000000	101.306383
1928.000000	101.304347
1927.000000	101.300608
1926.000000	101.296671
1925.000000	101.294352
1924.000000	101.294357
1923.000000	101.295643
1922.000000	101.295951
1921.000000	101.293337
1920.000000	101.287400
1919.000000	101.279331
1918.000000	101.271461
1917.000000	101.266032
1916.000000	101.263604
1915.000000	101.262908
1914.000000	101.261706
1913.000000	101.257965
1912.000000	101.251172
1911.000000	101.242519
1910.000000	101.233759
1909.000000	101.225790
1908.000000	101.218109
1907.000000	101.209476
1906.000000	101.199137
1905.000000	101.188000
1904.000000	101.178495
1903.000000	101.172479
1902.000000	101.168901
1901.000000	101.163780
1900.000000	101.153749
1899.000000	101.139985
1898.000000	101.127491
1897.000000	101.120022
1896.000000	101.116503
1895.000000	101.113217
1894.000000	101.108857
1893.000000	101.105347
1892.000000	101.103715
1891.000000	101.101479
1890.000000	101.095258
1889.000000	101.085145
1888.000000	101.074801
1887.000000	101.067657
1886.000000	101.064620
1885.000000	101.064453
1884.000000	101.064888
1883.000000	101.064235
1882.000000	101.062977
1881.000000	101.063223
1880.000000	101.065858
1879.000000	101.068818
1878.000000	101.068884
1877.000000	101.064967
1876.000000	101.058551
1875.000000	101.051012
1874.000000	101.042544
1873.000000	101.034202
1872.000000	101.028900
1871.000000	101.029420
1870.000000	101.036408
1869.000000	101.048166
1868.000000	101.061524
1867.000000	101.073643
1866.000000	101.083517
1865.000000	101.091688
1864.000000	101.099201
1863.000000	101.106695
1862.000000	101.113947
1861.000000	101.120559
1860.000000	101.127100
1859.000000	101.134944
1858.000000	101.144612
1857.000000	101.154846
1856.000000	101.163979
1855.000000	101.171935
1854.000000	101.180101
1853.000000	101.189206
1852.000000	101.198207
1851.000000	101.205826
1850.000000	101.212310
1849.000000	101.219480
1848.000000	101.229242
1847.000000	101.241452
1846.000000	101.253087
1845.000000	101.260195
1844.000000	101.262072
1843.000000	101.262166
1842.000000	101.263764
1841.000000	101.267138
1840.000000	101.270771
1839.000000	101.273650
1838.000000	101.276566
1837.000000	101.281339
1836.000000	101.288346
1835.000000	101.295124
1834.000000	101.298062
1833.000000	101.295641
1832.000000	101.290168
1831.000000	101.286828
1830.000000	101.289963
1829.000000	101.298913
1828.000000	101.309096
1827.000000	101.316710
1826.000000	101.320085
1825.000000	101.319234
1824.000000	101.316113
1823.000000	101.313397
1822.000000	101.312496
1821.000000	101.313208
1820.000000	101.314827
1819.000000	101.316769
1818.000000	101.318180
1817.000000	101.318090
1816.000000	101.316484
1815.000000	101.314920
1814.000000	101.315443
1813.000000	101.318514
1812.000000	101.322196
1811.000000	101.323644
1810.000000	101.322093
1809.000000	101.320118
1808.000000	101.321003
1807.000000	101.325416
1806.000000	101.331054
1805.000000	101.334844
1804.000000	101.335325
1803.000000	101.333450
1802.000000	101.331715
1801.000000	101.332024
1800.000000	101.333834
1799.000000	101.335041
1798.000000	101.335190
1797.000000	101.336530
1796.000000	101.341160
1795.000000	101.348188
1794.000000	101.354047
1793.000000	101.356004
1792.000000	101.355687
1791.000000	101.356922
1790.000000	101.361138
1789.000000	101.367778
1788.000000	101.376157
1787.000000	101.384982
1786.000000	101.392216
1785.000000	101.396872
1784.000000	101.400257
1783.000000	101.404602
1782.000000	101.410903
1781.000000	101.418405
1780.000000	101.425988
1779.000000	101.432712
1778.000000	101.437368
1777.000000	101.439209
1776.000000	101.439071
1775.000000	101.438894
1774.000000	101.439468
1773.000000	101.440600
1772.000000	101.444163
1771.000000	101.452569
1770.000000	101.464570
1769.000000	101.476135
1768.000000	101.483777
1767.000000	101.486809
1766.000000	101.487997
1765.000000	101.491670
1764.000000	101.500241
1763.000000	101.511712
1762.000000	101.520619
1761.000000	101.523396
1760.000000	101.522665
1759.000000	101.523648
1758.000000	101.528202
1757.000000	101.534132
1756.000000	101.538777
1755.000000	101.541820
1754.000000	101.543928
1753.000000	101.544172
1752.000000	101.540800
1751.000000	101.533934
1750.000000	101.525480
1749.000000	101.518372
1748.000000	101.516285
1747.000000	101.520239
1746.000000	101.525927
1745.000000	101.527854
1744.000000	101.526191
1743.000000	101.526289
1742.000000	101.530781
1741.000000	101.535812
1740.000000	101.536441
1739.000000	101.532914
1738.000000	101.529182
1737.000000	101.527670
1736.000000	101.527030
1735.000000	101.523688
1734.000000	101.515611
1733.000000	101.503022
1732.000000	101.489033
1731.000000	101.479791
1730.000000	101.478585
1729.000000	101.482129
1728.000000	101.484087
1727.000000	101.481315
1726.000000	101.474675
1725.000000	101.465944
1724.000000	101.457412
1723.000000	101.451641
1722.000000	101.449675
1721.000000	101.449905
1720.000000	101.448742
1719.000000	101.442259
1718.000000	101.429860
1717.000000	101.416313
1716.000000	101.405928
1715.000000	101.398648
1714.000000	101.392629
1713.000000	101.385698
1712.000000	101.376105
1711.000000	101.363339
1710.000000	101.347948
1709.000000	101.331098
1708.000000	101.314401
1707.000000	101.299639
1706.000000	101.288305
1705.000000	101.281168
1704.000000	101.277936
1703.000000	101.276961
1702.000000	101.272697
1701.000000	101.254822
1700.000000	101.221504
1699.000000	101.186673
1698.000000	101.161580
1697.000000	101.145093
1696.000000	101.132154
1695.000000	101.119097
1694.000000	101.104869
1693.000000	101.090447
1692.000000	101.076634
1691.000000	101.062801
1690.000000	101.048194
1689.000000	101.032842
1688.000000	101.017468
1687.000000	101.002342
1686.000000	100.984773
1685.000000	100.959940
1684.000000	100.930020
1683.000000	100.903882
1682.000000	100.884162
1681.000000	100.867836
1680.000000	100.852487
1679.000000	100.837689
1678.000000	100.824380
1677.000000	100.811811
1676.000000	100.796459
1675.000000	100.775890
1674.000000	100.752701
1673.000000	100.731492
1672.000000	100.713767
1671.000000	100.696310
1670.000000	100.675054
1669.000000	100.652044
1668.000000	100.634014
1667.000000	100.623295
1666.000000	100.615082
1665.000000	100.602251
1664.000000	100.581210
1663.000000	100.556493
1662.000000	100.537117
1661.000000	100.525455
1660.000000	100.516759
1659.000000	100.507012
1658.000000	100.495680
1657.000000	100.485642
1656.000000	100.480891
1655.000000	100.480190
1654.000000	100.471433
1653.000000	100.446098
1652.000000	100.415398
1651.000000	100.392291
1650.000000	100.379736
1649.000000	100.375221
1648.000000	100.373253
1647.000000	100.370436
1646.000000	100.365456
1645.000000	100.356787
1644.000000	100.346145
1643.000000	100.338562
1642.000000	100.336337
1641.000000	100.336584
1640.000000	100.335676
1639.000000	100.333538
1638.000000	100.330855
1637.000000	100.325465
1636.000000	100.317580
1635.000000	100.313059
1634.000000	100.312785
1633.000000	100.313009
1632.000000	100.314182
1631.000000	100.318917
1630.000000	100.326857
1629.000000	100.333542
1628.000000	100.336073
1627.000000	100.338105
1626.000000	100.344628
1625.000000	100.354510
1624.000000	100.362491
1623.000000	100.366843
1622.000000	100.370400
1621.000000	100.374784
1620.000000	100.379845
1619.000000	100.385948
1618.000000	100.393252
1617.000000	100.401789
1616.000000	100.412465
1615.000000	100.426431
1614.000000	100.443284
1613.000000	100.459655
1612.000000	100.470843
1611.000000	100.475928
1610.000000	100.479343
1609.000000	100.484775
1608.000000	100.491006
1607.000000	100.495739
1606.000000	100.499321
1605.000000	100.503268
1604.000000	100.509162
1603.000000	100.519343
1602.000000	100.534994
1601.000000	100.553341
1600.000000	100.569540
1599.000000	100.581748
1598.000000	100.592705
1597.000000	100.606174
1596.000000	100.623185
1595.000000	100.641718
1594.000000	100.658639
1593.000000	100.671669
1592.000000	100.680694
1591.000000	100.687978
1590.000000	100.696347
1589.000000	100.706291
1588.000000	100.715773
1587.000000	100.723484
1586.000000	100.731182
1585.000000	100.741771
1584.000000	100.755705
1583.000000	100.770431
1582.000000	100.782511
1581.000000	100.790512
1580.000000	100.796480
1579.000000	100.804075
1578.000000	100.814805
1577.000000	100.826955
1576.000000	100.838231
1575.000000	100.847945
1574.000000	100.856771
1573.000000	100.865624
1572.000000	100.874164
1571.000000	100.880899
1570.000000	100.886045
1569.000000	100.891789
1568.000000	100.898736
1567.000000	100.905894
1566.000000	100.912599
1565.000000	100.917992
1564.000000	100.921418
1563.000000	100.923455
1562.000000	100.926020
1561.000000	100.929833
1560.000000	100.935616
1559.000000	100.947165
1558.000000	100.960856
1557.000000	100.968323
1556.000000	100.971752
1555.000000	100.975589
1554.000000	100.980135
1553.000000	100.985010
1552.000000	100.991258
1551.000000	100.999587
1550.000000	101.007168
1549.000000	101.011012
1548.000000	101.012330
1547.000000	101.015476
1546.000000	101.022754
1545.000000	101.032359
1544.000000	101.040980
1543.000000	101.047226
1542.000000	101.051406
1541.000000	101.054063
1540.000000	101.056833
1539.000000	101.060841
1538.000000	101.064055
1537.000000	101.065349
1536.000000	101.065728
1535.000000	101.065350
1534.000000	101.064559
1533.000000	101.065734
1532.000000	101.070563
1531.000000	101.077935
1530.000000	101.086086
1529.000000	101.093771
1528.000000	101.100094
1527.000000	101.104380
1526.000000	101.105970
1525.000000	101.104819
1524.000000	101.102965
1523.000000	101.103712
1522.000000	101.109374
1521.000000	101.118563
1520.000000	101.125589
1519.000000	101.128221
1518.000000	101.130312
1517.000000	101.135562
1516.000000	101.143878
1515.000000	101.152394
1514.000000	101.159821
1513.000000	101.166975
1512.000000	101.174725
1511.000000	101.183912
1510.000000	101.195724
1509.000000	101.210236
1508.000000	101.224728
1507.000000	101.236104
1506.000000	101.242145
1505.000000	101.241194
1504.000000	101.237145
1503.000000	101.236512
1502.000000	101.241616
1501.000000	101.250120
1500.000000	101.257801
1499.000000	101.262688
1498.000000	101.266205
1497.000000	101.271113
1496.000000	101.277262
1495.000000	101.280878
1494.000000	101.280729
1493.000000	101.280049
1492.000000	101.281827
1491.000000	101.285818
1490.000000	101.289311
1489.000000	101.289870
1488.000000	101.287666
1487.000000	101.284697
1486.000000	101.282108
1485.000000	101.278803
1484.000000	101.273247
1483.000000	101.266496
1482.000000	101.261557
1481.000000	101.260232
1480.000000	101.261177
1479.000000	101.261987
1478.000000	101.262230
1477.000000	101.263777
1476.000000	101.268599
1475.000000	101.275558
1474.000000	101.279730
1473.000000	101.275471
1472.000000	101.262024
1471.000000	101.244450
1470.000000	101.228914
1469.000000	101.219424
1468.000000	101.216730
1467.000000	101.217711
1466.000000	101.216414
1465.000000	101.207781
1464.000000	101.192210
1463.000000	101.174207
1462.000000	101.157121
1461.000000	101.142259
1460.000000	101.130383
1459.000000	101.121763
1458.000000	101.116054
1457.000000	101.114344
1456.000000	101.115914
1455.000000	101.116788
1454.000000	101.116264
1453.000000	101.115434
1452.000000	101.114194
1451.000000	101.112668
1450.000000	101.111196
1449.000000	101.109399
1448.000000	101.106529
1447.000000	101.102889
1446.000000	101.099553
1445.000000	101.096650
1444.000000	101.093661
1443.000000	101.090300
1442.000000	101.086709
1441.000000	101.084089
1440.000000	101.084437
1439.000000	101.087998
1438.000000	101.090099
1437.000000	101.083986
1436.000000	101.069511
1435.000000	101.054298
1434.000000	101.045015
1433.000000	101.042841
1432.000000	101.044917
1431.000000	101.047179
1430.000000	101.046467
1429.000000	101.041270
1428.000000	101.032306
1427.000000	101.022679
1426.000000	101.015995
1425.000000	101.012951
1424.000000	101.011636
1423.000000	101.010747
1422.000000	101.010970
1421.000000	101.012792
1420.000000	101.014500
1419.000000	101.014636
1418.000000	101.014014
1417.000000	101.014825
1416.000000	101.018905
1415.000000	101.025627
1414.000000	101.032678
1413.000000	101.039062
1412.000000	101.045740
1411.000000	101.053424
1410.000000	101.061293
1409.000000	101.068348
1408.000000	101.074048
1407.000000	101.077996
1406.000000	101.081433
1405.000000	101.087994
1404.000000	101.100371
1403.000000	101.116572
1402.000000	101.132603
1401.000000	101.147199
1400.000000	101.161141
1399.000000	101.173788
1398.000000	101.182372
1397.000000	101.185448
1396.000000	101.184915
1395.000000	101.185193
1394.000000	101.191321
1393.000000	101.205678
1392.000000	101.226642
1391.000000	101.249197
1390.000000	101.266971
1389.000000	101.276041
1388.000000	101.277285
1387.000000	101.274916
1386.000000	101.272752
1385.000000	101.272943
1384.000000	101.276764
1383.000000	101.283606
1382.000000	101.290587
1381.000000	101.295667
1380.000000	101.300208
1379.000000	101.307186
1378.000000	101.317760
1377.000000	101.330748
1376.000000	101.344536
1375.000000	101.358078
1374.000000	101.370546
1373.000000	101.381387
1372.000000	101.391271
1371.000000	101.401916
1370.000000	101.414436
1369.000000	101.428122
1368.000000	101.441255
1367.000000	101.452666
1366.000000	101.462274
1365.000000	101.470520
1364.000000	101.477498
1363.000000	101.483184
1362.000000	101.488577
1361.000000	101.495758
1360.000000	101.506053
1359.000000	101.518113
1358.000000	101.528613
1357.000000	101.535254
1356.000000	101.538342
1355.000000	101.539175
1354.000000	101.538422
1353.000000	101.536949
1352.000000	101.536357
1351.000000	101.536846
1350.000000	101.536030
1349.000000	101.531480
1348.000000	101.524752
1347.000000	101.521239
1346.000000	101.525169
1345.000000	101.535361
1344.000000	101.545913
1343.000000	101.550672
1342.000000	101.547435
1341.000000	101.539361
1340.000000	101.532725
1339.000000	101.531339
1338.000000	101.533068
1337.000000	101.533873
1336.000000	101.533571
1335.000000	101.535181
1334.000000	101.540116
1333.000000	101.546236
1332.000000	101.550265
1331.000000	101.550242
1330.000000	101.545679
1329.000000	101.537594
1328.000000	101.529444
1327.000000	101.525834
1326.000000	101.528245
1325.000000	101.532870
1324.000000	101.534676
1323.000000	101.533129
1322.000000	101.532310
1321.000000	101.535587
1320.000000	101.541362
1319.000000	101.544400
1318.000000	101.541151
1317.000000	101.533816
1316.000000	101.528853
1315.000000	101.530815
1314.000000	101.537491
1313.000000	101.542028
1312.000000	101.540564
1311.000000	101.536317
1310.000000	101.534902
1309.000000	101.537010
1308.000000	101.538119
1307.000000	101.535219
1306.000000	101.531427
1305.000000	101.532163
1304.000000	101.537914
1303.000000	101.543115
1302.000000	101.542866
1301.000000	101.538983
1300.000000	101.537621
1299.000000	101.541322
1298.000000	101.545761
1297.000000	101.545510
1296.000000	101.540644
1295.000000	101.535493
1294.000000	101.532080
1293.000000	101.527836
1292.000000	101.520162
1291.000000	101.510610
1290.000000	101.503386
1289.000000	101.500904
1288.000000	101.501451
1287.000000	101.500387
1286.000000	101.493773
1285.000000	101.482041
1284.000000	101.470003
1283.000000	101.461881
1282.000000	101.456859
1281.000000	101.451452
1280.000000	101.445280
1279.000000	101.441263
1278.000000	101.440083
1277.000000	101.438224
1276.000000	101.432624
1275.000000	101.424199
1274.000000	101.415640
1273.000000	101.408767
1272.000000	101.405155
1271.000000	101.405641
1270.000000	101.407395
1269.000000	101.405342
1268.000000	101.398785
1267.000000	101.392728
1266.000000	101.389860
1265.000000	101.385512
1264.000000	101.374818
1263.000000	101.361346
1262.000000	101.353376
1261.000000	101.353333
1260.000000	101.355721
1259.000000	101.354821
1258.000000	101.350104
1257.000000	101.344078
1256.000000	101.338305
1255.000000	101.331936
1254.000000	101.322021
1253.000000	101.305652
1252.000000	101.283573
1251.000000	101.260840
1250.000000	101.242193
1249.000000	101.227906
1248.000000	101.215482
1247.000000	101.202839
1246.000000	101.187683
1245.000000	101.167154
1244.000000	101.142068
1243.000000	101.119286
1242.000000	101.105026
1241.000000	101.096654
1240.000000	101.085463
1239.000000	101.067143
1238.000000	101.045466
1237.000000	101.025783
1236.000000	101.008848
1235.000000	100.991819
1234.000000	100.971635
1233.000000	100.945863
1232.000000	100.913033
1231.000000	100.874317
1230.000000	100.833775
1229.000000	100.795440
1228.000000	100.759882
1227.000000	100.722951
1226.000000	100.677363
1225.000000	100.617172
1224.000000	100.542897
1223.000000	100.461953
1222.000000	100.382272
1221.000000	100.305689
1220.000000	100.228762
1219.000000	100.148399
1218.000000	100.064409
1217.000000	99.977637
1216.000000	99.887837
1215.000000	99.792629
1214.000000	99.687192
1213.000000	99.567340
1212.000000	99.435912
1211.000000	99.304562
1210.000000	99.185285
1209.000000	99.080216
1208.000000	98.982225
1207.000000	98.883814
1206.000000	98.782181
1205.000000	98.676813
1204.000000	98.566404
1203.000000	98.450191
1202.000000	98.330787
1201.000000	98.213492
1200.000000	98.101782
1199.000000	97.993608
1198.000000	97.883596
1197.000000	97.770213
1196.000000	97.659092
1195.000000	97.556655
1194.000000	97.461585
1193.000000	97.365753
1192.000000	97.262634
1191.000000	97.151232
1190.000000	97.032992
1189.000000	96.909924
1188.000000	96.786138
1187.000000	96.666084
1186.000000	96.549200
1185.000000	96.429753
1184.000000	96.303340
1183.000000	96.170466
1182.000000	96.033186
1181.000000	95.891854
1180.000000	95.746357
1179.000000	95.597646
1178.000000	95.446854
1177.000000	95.294448
1176.000000	95.139464
1175.000000	94.977752
1174.000000	94.803849
1173.000000	94.618470
1172.000000	94.431028
1171.000000	94.249587
1170.000000	94.071117
1169.000000	93.887426
1168.000000	93.697760
1167.000000	93.509436
1166.000000	93.331166
1165.000000	93.175643
1164.000000	93.064629
1163.000000	93.018148
1162.000000	93.036846
1161.000000	93.102429
1160.000000	93.192966
1159.000000	93.288459
1158.000000	93.366533
1157.000000	93.408266
1156.000000	93.409639
1155.000000	93.377396
1154.000000	93.314756
1153.000000	93.221192
1152.000000	93.104355
1151.000000	92.979505
1150.000000	92.855811
1149.000000	92.733621
1148.000000	92.614664
1147.000000	92.501984
1146.000000	92.388968
1145.000000	92.262208
1144.000000	92.118543
1143.000000	91.968581
1142.000000	91.822227
1141.000000	91.682211
1140.000000	91.551937
1139.000000	91.434540
1138.000000	91.320807
1137.000000	91.192619
1136.000000	91.043862
1135.000000	90.886817
1134.000000	90.734368
1133.000000	90.587136
1132.000000	90.441048
1131.000000	90.294792
1130.000000	90.145837
1129.000000	89.991201
1128.000000	89.835940
1127.000000	89.689440
1126.000000	89.550408
1125.000000	89.407546
1124.000000	89.257359
1123.000000	89.108270
1122.000000	88.964553
1121.000000	88.819863
1120.000000	88.670122
1119.000000	88.519306
1118.000000	88.368714
1117.000000	88.213857
1116.000000	88.055090
1115.000000	87.898010
1114.000000	87.741397
1113.000000	87.579450
1112.000000	87.418032
1111.000000	87.272334
1110.000000	87.144584
1109.000000	87.019026
1108.000000	86.881878
1107.000000	86.731585
1106.000000	86.568912
1105.000000	86.394396
1104.000000	86.217562
1103.000000	86.050451
1102.000000	85.889139
1101.000000	85.719301
1100.000000	85.541581
1099.000000	85.371656
1098.000000	85.213561
1097.000000	85.054183
1096.000000	84.886913
1095.000000	84.718672
1094.000000	84.550110
1093.000000	84.372389
1092.000000	84.189040
1091.000000	84.018097
1090.000000	83.866379
1089.000000	83.723568
1088.000000	83.586203
1087.000000	83.463290
1086.000000	83.352252
1085.000000	83.234855
1084.000000	83.105770
1083.000000	82.981945
1082.000000	82.874834
1081.000000	82.775095
1080.000000	82.672589
1079.000000	82.569333
1078.000000	82.464876
1077.000000	82.351020
1076.000000	82.229132
1075.000000	82.111389
1074.000000	81.997162
1073.000000	81.868847
1072.000000	81.716828
1071.000000	81.546929
1070.000000	81.358605
1069.000000	81.138782
1068.000000	80.884318
1067.000000	80.609505
1066.000000	80.325118
1065.000000	80.030843
1064.000000	79.733156
1063.000000	79.446455
1062.000000	79.170219
1061.000000	78.889161
1060.000000	78.602050
1059.000000	78.325939
1058.000000	78.066415
1057.000000	77.809789
1056.000000	77.550864
1055.000000	77.301148
1054.000000	77.061815
1053.000000	76.815963
1052.000000	76.558195
1051.000000	76.304882
1050.000000	76.063850
1049.000000	75.822654
1048.000000	75.576779
1047.000000	75.337409
1046.000000	75.102279
1045.000000	74.850390
1044.000000	74.573803
1043.000000	74.286727
1042.000000	73.996474
1041.000000	73.693183
1040.000000	73.376572
1039.000000	73.065534
1038.000000	72.771392
1037.000000	72.486786
1036.000000	72.208196
1035.000000	71.943631
1034.000000	71.692367
1033.000000	71.444899
1032.000000	71.208429
1031.000000	71.003250
1030.000000	70.828528
1029.000000	70.660810
1028.000000	70.491460
1027.000000	70.335227
1026.000000	70.196787
1025.000000	70.062233
1024.000000	69.930491
1023.000000	69.819090
1022.000000	69.728704
1021.000000	69.632777
1020.000000	69.512234
1019.000000	69.373011
1018.000000	69.223543
1017.000000	69.065467
1016.000000	68.912000
1015.000000	68.782507
1014.000000	68.670034
1013.000000	68.544458
1012.000000	68.395706
1011.000000	68.244692
1010.000000	68.106426
1009.000000	67.974105
1008.000000	67.845226
1007.000000	67.730323
1006.000000	67.627727
1005.000000	67.521141
1004.000000	67.410190
1003.000000	67.313271
1002.000000	67.233896
1001.000000	67.155180
1000.000000	67.073540
999.000000	67.005822
998.000000	66.955804
997.000000	66.905078
996.000000	66.844806
995.000000	66.786989
994.000000	66.738025
993.000000	66.690740
992.000000	66.647358
991.000000	66.619599
990.000000	66.601350
989.000000	66.572867
988.000000	66.537231
987.000000	66.520978
986.000000	66.534221
985.000000	66.562121
984.000000	66.599264
983.000000	66.658690
982.000000	66.741536
981.000000	66.832424
980.000000	66.931968
979.000000	67.060382
978.000000	67.221507
977.000000	67.395751
976.000000	67.575828
975.000000	67.777772
974.000000	68.009192
973.000000	68.258361
972.000000	68.521937
971.000000	68.812355
970.000000	69.129811
969.000000	69.456596
968.000000	69.786535
967.000000	70.131281
966.000000	70.491012
965.000000	70.847908
964.000000	71.195209
963.000000	71.545034
962.000000	71.901661
961.000000	72.254262
960.000000	72.600810
959.000000	72.951254
958.000000	73.301651
957.000000	73.632417
956.000000	73.937853
955.000000	74.231755
954.000000	74.520280
953.000000	74.795913
952.000000	75.061643
951.000000	75.332431
950.000000	75.606454
949.000000	75.861375
948.000000	76.084868
947.000000	76.284216
946.000000	76.463597
945.000000	76.619285
944.000000	76.761161
943.000000	76.910415
942.000000	77.068846
941.000000	77.216665
940.000000	77.346605
939.000000	77.473892
938.000000	77.607760
937.000000	77.740844
936.000000	77.872777
935.000000	78.015589
934.000000	78.168155
933.000000	78.313683
932.000000	78.451101
931.000000	78.601033
930.000000	78.771275
929.000000	78.943661
928.000000	79.105179
927.000000	79.264961
926.000000	79.429140
925.000000	79.585183
924.000000	79.724853
923.000000	79.860017
922.000000	80.002632
921.000000	80.148496
920.000000	80.290507
919.000000	80.427867
918.000000	80.553770
917.000000	80.655795
916.000000	80.738782
915.000000	80.828305
914.000000	80.943011
913.000000	81.081366
912.000000	81.239826
911.000000	81.422164
910.000000	81.625911
909.000000	81.843762
908.000000	82.085154
907.000000	82.371802
906.000000	82.704335
905.000000	83.056638
904.000000	83.410854
903.000000	83.775019
902.000000	84.158137
901.000000	84.552348
900.000000	84.949036
899.000000	85.350153
898.000000	85.753614
897.000000	86.147188
896.000000	86.525632
895.000000	86.896003
894.000000	87.259794
893.000000	87.607961
892.000000	87.938848
891.000000	88.261971
890.000000	88.578766
889.000000	88.879540
888.000000	89.165793
887.000000	89.455024
886.000000	89.754347
885.000000	90.047057
884.000000	90.314620
883.000000	90.557389
882.000000	90.788742
881.000000	91.025495
880.000000	91.288160
879.000000	91.589760
878.000000	91.915621
877.000000	92.232565
876.000000	92.525993
875.000000	92.811556
874.000000	93.107219
873.000000	93.413904
872.000000	93.727481
871.000000	94.047880
870.000000	94.369874
869.000000	94.683829
868.000000	94.990392
867.000000	95.296911
866.000000	95.598151
865.000000	95.881432
864.000000	96.152847
863.000000	96.434560
862.000000	96.729217
861.000000	97.010523
860.000000	97.260088
859.000000	97.492938
858.000000	97.734710
857.000000	97.991142
856.000000	98.251295
855.000000	98.501487
854.000000	98.722276
853.000000	98.891280
852.000000	99.008865
851.000000	99.109638
850.000000	99.230256
849.000000	99.372317
848.000000	99.509779
847.000000	99.621458
846.000000	99.701196
845.000000	99.747363
844.000000	99.761660
843.000000	99.754810
842.000000	99.738563
841.000000	99.712545
840.000000	99.667042
839.000000	99.593021
838.000000	99.481806
837.000000	99.326018
836.000000	99.136120
835.000000	98.950508
834.000000	98.813224
833.000000	98.740404
832.000000	98.715454
831.000000	98.710951
830.000000	98.707386
829.000000	98.700519
828.000000	98.704848
827.000000	98.745354
826.000000	98.830574
825.000000	98.933614
824.000000	99.011340
823.000000	99.043011
822.000000	99.042946
821.000000	99.038354
820.000000	99.042048
819.000000	99.041823
818.000000	99.007257
817.000000	98.909159
816.000000	98.738761
815.000000	98.507839
814.000000	98.229773
813.000000	97.905030
812.000000	97.524788
811.000000	97.078485
810.000000	96.552955
809.000000	95.933292
808.000000	95.212090
807.000000	94.394531
806.000000	93.495526
805.000000	92.543683
804.000000	91.588974
803.000000	90.687065
802.000000	89.866108
801.000000	89.124737
800.000000	88.469923
799.000000	87.936019
798.000000	87.556675
797.000000	87.338536
796.000000	87.269399
795.000000	87.325766
794.000000	87.461180
793.000000	87.614965
792.000000	87.751704
791.000000	87.875740
790.000000	87.995792
789.000000	88.093790
788.000000	88.139020
787.000000	88.112708
786.000000	88.004764
785.000000	87.805426
784.000000	87.519881
783.000000	87.181037
782.000000	86.832489
781.000000	86.506560
780.000000	86.227561
779.000000	86.021218
778.000000	85.906319
777.000000	85.887707
776.000000	85.967343
775.000000	86.148982
774.000000	86.422081
773.000000	86.754025
772.000000	87.108076
771.000000	87.459719
770.000000	87.791891
769.000000	88.089665
768.000000	88.349201
767.000000	88.581087
766.000000	88.795303
765.000000	88.989140
764.000000	89.154819
763.000000	89.291610
762.000000	89.406860
761.000000	89.513214
760.000000	89.627697
759.000000	89.764303
758.000000	89.922900
757.000000	90.091018
756.000000	90.256462
755.000000	90.411882
754.000000	90.552590
753.000000	90.683301
752.000000	90.824557
751.000000	90.997347
750.000000	91.199356
