4000.000000	101.088252
3999.000000	101.089824
3998.000000	101.091737
3997.000000	101.092792
3996.000000	101.092006
3995.000000	101.089043
3994.000000	101.084471
3993.000000	101.079704
3992.000000	101.076057
3991.000000	101.073667
3990.000000	101.071689
3989.000000	101.069511
3988.000000	101.067708
3987.000000	101.067499
3986.000000	101.069410
3985.000000	101.072752
3984.000000	101.076056
3983.000000	101.078021
3982.000000	101.078172
3981.000000	101.076919
3980.000000	101.075273
3979.000000	101.074233
3978.000000	101.074058
3977.000000	101.074031
3976.000000	101.072962
3975.000000	101.070156
3974.000000	101.065989
3973.000000	101.061803
3972.000000	101.059103
3971.000000	101.058534
3970.000000	101.059593
3969.000000	101.061041
3968.000000	101.061708
3967.000000	101.061106
3966.000000	101.059375
3965.000000	101.056968
3964.000000	101.054484
3963.000000	101.052513
3962.000000	101.051406
3961.000000	101.051123
3960.000000	101.051371
3959.000000	101.051898
3958.000000	101.052631
3957.000000	101.053530
3956.000000	101.054420
3955.000000	101.054956
3954.000000	101.054808
3953.000000	101.054002
3952.000000	101.053060
3951.000000	101.052737
3950.000000	101.053471
3949.000000	101.055074
3948.000000	101.056831
3947.000000	101.057945
3946.000000	101.057983
3945.000000	101.057012
3944.000000	101.055563
3943.000000	101.054390
3942.000000	101.054047
3941.000000	101.054579
3940.000000	101.055542
3939.000000	101.056212
3938.000000	101.055955
3937.000000	101.054642
3936.000000	101.052957
3935.000000	101.052141
3934.000000	101.053105
3933.000000	101.055862
3932.000000	101.059570
3931.000000	101.063039
3930.000000	101.065306
3929.000000	101.065885
3928.000000	101.065041
3927.000000	101.063889
3926.000000	101.063741
3925.000000	101.065089
3924.000000	101.067204
3923.000000	101.068795
3922.000000	101.068995
3921.000000	101.067899
3920.000000	101.066363
3919.000000	101.065537
3918.000000	101.065959
3917.000000	101.067026
3916.000000	101.067591
3915.000000	101.067115
3914.000000	101.065974
3913.000000	101.064863
3912.000000	101.064177
3911.000000	101.063865
3910.000000	101.063660
3909.000000	101.063297
3908.000000	101.062705
3907.000000	101.062070
3906.000000	101.061689
3905.000000	101.061684
3904.000000	101.061808
3903.000000	101.061692
3902.000000	101.061236
3901.000000	101.060657
3900.000000	101.060238
3899.000000	101.060083
3898.000000	101.060114
3897.000000	101.060209
3896.000000	101.060298
3895.000000	101.060359
3894.000000	101.060384
3893.000000	101.060357
3892.000000	101.060271
3891.000000	101.060140
3890.000000	101.059993
3889.000000	101.059863
3888.000000	101.059774
3887.000000	101.059741
3886.000000	101.059763
3885.000000	101.059841
3884.000000	101.059975
3883.000000	101.060155
3882.000000	101.060352
3881.000000	101.060522
3880.000000	101.060640
3879.000000	101.060712
3878.000000	101.060778
3877.000000	101.060877
3876.000000	101.061032
3875.000000	101.061249
3874.000000	101.061530
3873.000000	101.061884
3872.000000	101.062320
3871.000000	101.062836
3870.000000	101.063408
3869.000000	101.064007
3868.000000	101.064607
3867.000000	101.065200
3866.000000	101.065776
3865.000000	101.066339
3864.000000	101.066904
3863.000000	101.067510
3862.000000	101.068185
3861.000000	101.068929
3860.000000	101.069684
3859.000000	101.070383
3858.000000	101.070976
3857.000000	101.071444
3856.000000	101.071832
3855.000000	101.072289
3854.000000	101.072878
3853.000000	101.073327
3852.000000	101.073503
3851.000000	101.073905
3850.000000	101.074926
3849.000000	101.076376
3848.000000	101.077819
3847.000000	101.079069
3846.000000	101.080188
3845.000000	101.081170
3844.000000	101.081767
3843.000000	101.081641
3842.000000	101.080708
3841.000000	101.079400
3840.000000	101.078574
3839.000000	101.078921
3838.000000	101.080507
3837.000000	101.082708
3836.000000	101.084722
3835.000000	101.086243
3834.000000	101.087346
3833.000000	101.088142
3832.000000	101.088505
3831.000000	101.088201
3830.000000	101.087431
3829.000000	101.086896
3828.000000	101.087167
3827.000000	101.088062
3826.000000	101.088812
3825.000000	101.088967
3824.000000	101.088913
3823.000000	101.089251
3822.000000	101.089904
3821.000000	101.089993
3820.000000	101.089044
3819.000000	101.087781
3818.000000	101.087077
3817.000000	101.086879
3816.000000	101.086609
3815.000000	101.086009
3814.000000	101.085418
3813.000000	101.085134
3812.000000	101.085014
3811.000000	101.084825
3810.000000	101.084516
3809.000000	101.084151
3808.000000	101.083771
3807.000000	101.083378
3806.000000	101.082984
3805.000000	101.082619
3804.000000	101.082296
3803.000000	101.082011
3802.000000	101.081755
3801.000000	101.081517
3800.000000	101.081296
3799.000000	101.081102
3798.000000	101.080931
3797.000000	101.080737
3796.000000	101.080440
3795.000000	101.079977
3794.000000	101.079350
3793.000000	101.078653
3792.000000	101.077991
3791.000000	101.077421
3790.000000	101.076967
3789.000000	101.076604
3788.000000	101.076170
3787.000000	101.075371
3786.000000	101.073932
3785.000000	101.071905
3784.000000	101.069790
3783.000000	101.068295
3782.000000	101.067909
3781.000000	101.068384
3780.000000	101.068600
3779.000000	101.067373
3778.000000	101.064589
3777.000000	101.061618
3776.000000	101.060111
3775.000000	101.060269
3774.000000	101.060651
3773.000000	101.059965
3772.000000	101.058590
3771.000000	101.057928
3770.000000	101.058404
3769.000000	101.058886
3768.000000	101.058731
3767.000000	101.058849
3766.000000	101.060205
3765.000000	101.062592
3764.000000	101.065346
3763.000000	101.068528
3762.000000	101.071648
3761.000000	101.071638
3760.000000	101.065568
3759.000000	101.054918
3758.000000	101.044353
3757.000000	101.035594
3756.000000	101.026217
3755.000000	101.014043
3754.000000	101.000123
3753.000000	100.988390
3752.000000	100.982919
3751.000000	100.983848
3750.000000	100.984301
3749.000000	100.975558
3748.000000	100.957242
3747.000000	100.937911
3746.000000	100.928291
3745.000000	100.933015
3744.000000	100.940971
3743.000000	100.941839
3742.000000	100.945688
3741.000000	100.959566
3740.000000	100.975087
3739.000000	100.985389
3738.000000	100.992942
3737.000000	101.000519
3736.000000	101.003139
3735.000000	100.995853
3734.000000	100.982745
3733.000000	100.971889
3732.000000	100.965933
3731.000000	100.962752
3730.000000	100.960205
3729.000000	100.955521
3728.000000	100.944583
3727.000000	100.925941
3726.000000	100.903812
3725.000000	100.885234
3724.000000	100.873038
3723.000000	100.863507
3722.000000	100.852227
3721.000000	100.839154
3720.000000	100.826660
3719.000000	100.814425
3718.000000	100.799334
3717.000000	100.779663
3716.000000	100.758145
3715.000000	100.738814
3714.000000	100.720535
3713.000000	100.696771
3712.000000	100.663774
3711.000000	100.627802
3710.000000	100.598984
3709.000000	100.579315
3708.000000	100.562180
3707.000000	100.540682
3706.000000	100.513526
3705.000000	100.484378
3704.000000	100.457454
3703.000000	100.433616
3702.000000	100.409997
3701.000000	100.383499
3700.000000	100.355288
3699.000000	100.330816
3698.000000	100.313763
3697.000000	100.300891
3696.000000	100.285255
3695.000000	100.264381
3694.000000	100.243306
3693.000000	100.229386
3692.000000	100.226269
3691.000000	100.231993
3690.000000	100.239331
3689.000000	100.238175
3688.000000	100.222628
3687.000000	100.197979
3686.000000	100.175237
3685.000000	100.158364
3684.000000	100.142911
3683.000000	100.125071
3682.000000	100.106801
3681.000000	100.091331
3680.000000	100.075558
3679.000000	100.051862
3678.000000	100.017840
3677.000000	99.981118
3676.000000	99.951305
3675.000000	99.926714
3674.000000	99.899492
3673.000000	99.870271
3672.000000	99.843715
3671.000000	99.820771
3670.000000	99.798925
3669.000000	99.774685
3668.000000	99.747477
3667.000000	99.718744
3666.000000	99.688345
3665.000000	99.655042
3664.000000	99.617937
3663.000000	99.576884
3662.000000	99.533416
3661.000000	99.491820
3660.000000	99.457706
3659.000000	99.434330
3658.000000	99.418516
3657.000000	99.401261
3656.000000	99.374862
3655.000000	99.342085
3654.000000	99.313844
3653.000000	99.295053
3652.000000	99.277862
3651.000000	99.250945
3650.000000	99.213807
3649.000000	99.179254
3648.000000	99.156563
3647.000000	99.139708
3646.000000	99.119195
3645.000000	99.094447
3644.000000	99.071804
3643.000000	99.055695
3642.000000	99.044043
3641.000000	99.030500
3640.000000	99.009948
3639.000000	98.981639
3638.000000	98.948025
3637.000000	98.913037
3636.000000	98.880026
3635.000000	98.849229
3634.000000	98.817491
3633.000000	98.782653
3632.000000	98.747513
3631.000000	98.717282
3630.000000	98.693997
3629.000000	98.673260
3628.000000	98.650357
3627.000000	98.630396
3626.000000	98.621927
3625.000000	98.622562
3624.000000	98.623178
3623.000000	98.621573
3622.000000	98.626010
3621.000000	98.646557
3620.000000	98.682403
3619.000000	98.718352
3618.000000	98.738101
3617.000000	98.740654
3616.000000	98.738479
3615.000000	98.743035
3614.000000	98.755436
3613.000000	98.768801
3612.000000	98.777806
3611.000000	98.784793
3610.000000	98.796054
3609.000000	98.814555
3608.000000	98.837349
3607.000000	98.859177
3606.000000	98.877060
3605.000000	98.890857
3604.000000	98.901419
3603.000000	98.909035
3602.000000	98.912664
3601.000000	98.911057
3600.000000	98.905117
3599.000000	98.899441
3598.000000	98.899240
3597.000000	98.906027
3596.000000	98.916317
3595.000000	98.924593
3594.000000	98.927314
3593.000000	98.925668
3592.000000	98.924815
3591.000000	98.930432
3590.000000	98.944461
3589.000000	98.962176
3588.000000	98.973690
3587.000000	98.971992
3586.000000	98.959682
3585.000000	98.945805
3584.000000	98.937369
3583.000000	98.934887
3582.000000	98.934644
3581.000000	98.933012
3580.000000	98.927957
3579.000000	98.918308
3578.000000	98.903812
3577.000000	98.886842
3576.000000	98.872168
3575.000000	98.863180
3574.000000	98.858389
3573.000000	98.853247
3572.000000	98.845748
3571.000000	98.839091
3570.000000	98.838383
3569.000000	98.845061
3568.000000	98.854434
3567.000000	98.859363
3566.000000	98.856091
3565.000000	98.845621
3564.000000	98.831099
3563.000000	98.815297
3562.000000	98.799552
3561.000000	98.783943
3560.000000	98.768366
3559.000000	98.753732
3558.000000	98.741985
3557.000000	98.734357
3556.000000	98.730074
3555.000000	98.727205
3554.000000	98.724455
3553.000000	98.721519
3552.000000	98.717949
3551.000000	98.712715
3550.000000	98.705246
3549.000000	98.696056
3548.000000	98.686105
3547.000000	98.676130
3546.000000	98.666715
3545.000000	98.658322
3544.000000	98.650937
3543.000000	98.643938
3542.000000	98.636725
3541.000000	98.629470
3540.000000	98.623201
3539.000000	98.618884
3538.000000	98.616209
3537.000000	98.613224
3536.000000	98.607608
3535.000000	98.598650
3534.000000	98.587811
3533.000000	98.577647
3532.000000	98.569619
3531.000000	98.563215
3530.000000	98.556983
3529.000000	98.550040
3528.000000	98.542545
3527.000000	98.535062
3526.000000	98.527900
3525.000000	98.521050
3524.000000	98.514399
3523.000000	98.507871
3522.000000	98.501522
3521.000000	98.495595
3520.000000	98.490339
3519.000000	98.485657
3518.000000	98.480977
3517.000000	98.475639
3516.000000	98.469379
3515.000000	98.462366
3514.000000	98.454852
3513.000000	98.446943
3512.000000	98.438714
3511.000000	98.430448
3510.000000	98.422709
3509.000000	98.416053
3508.000000	98.410517
3507.000000	98.405376
3506.000000	98.399539
3505.000000	98.392311
3504.000000	98.383959
3503.000000	98.375524
3502.000000	98.367947
3501.000000	98.361403
3500.000000	98.355345
3499.000000	98.349125
3498.000000	98.342568
3497.000000	98.336097
3496.000000	98.330312
3495.000000	98.325273
3494.000000	98.320219
3493.000000	98.314176
3492.000000	98.306820
3491.000000	98.298713
3490.000000	98.290775
3489.000000	98.283616
3488.000000	98.277303
3487.000000	98.271518
3486.000000	98.265810
3485.000000	98.259761
3484.000000	98.253084
3483.000000	98.245732
3482.000000	98.237966
3481.000000	98.230186
3480.000000	98.222591
3479.000000	98.215062
3478.000000	98.207402
3477.000000	98.199583
3476.000000	98.191715
3475.000000	98.183873
3474.000000	98.176065
3473.000000	98.168297
3472.000000	98.160513
3471.000000	98.152507
3470.000000	98.144053
3469.000000	98.135201
3468.000000	98.126383
3467.000000	98.118152
3466.000000	98.110823
3465.000000	98.104321
3464.000000	98.098128
3463.000000	98.091408
3462.000000	98.083522
3461.000000	98.074579
3460.000000	98.065527
3459.000000	98.057402
3458.000000	98.050457
3457.000000	98.044239
3456.000000	98.038231
3455.000000	98.032231
3454.000000	98.025972
3453.000000	98.018787
3452.000000	98.010111
3451.000000	98.000174
3450.000000	97.990111
3449.000000	97.981090
3448.000000	97.973491
3447.000000	97.966936
3446.000000	97.960746
3445.000000	97.954363
3444.000000	97.947521
3443.000000	97.940322
3442.000000	97.933177
3441.000000	97.926382
3440.000000	97.919702
3439.000000	97.912644
3438.000000	97.905220
3437.000000	97.898100
3436.000000	97.891695
3435.000000	97.885525
3434.000000	97.878971
3433.000000	97.872507
3432.000000	97.867378
3431.000000	97.863829
3430.000000	97.860236
3429.000000	97.854556
3428.000000	97.846561
3427.000000	97.838233
3426.000000	97.831796
3425.000000	97.827705
3424.000000	97.824829
3423.000000	97.822162
3422.000000	97.819741
3421.000000	97.817611
3420.000000	97.814504
3419.000000	97.808469
3418.000000	97.799017
3417.000000	97.788130
3416.000000	97.778875
3415.000000	97.773005
3414.000000	97.770068
3413.000000	97.768531
3412.000000	97.767283
3411.000000	97.766012
3410.000000	97.764436
3409.000000	97.761652
3408.000000	97.756613
3407.000000	97.749339
3406.000000	97.741411
3405.000000	97.734856
3404.000000	97.730355
3403.000000	97.726813
3402.000000	97.722674
3401.000000	97.717658
3400.000000	97.713204
3399.000000	97.711324
3398.000000	97.712893
3397.000000	97.716494
3396.000000	97.718893
3395.000000	97.717643
3394.000000	97.713719
3393.000000	97.710960
3392.000000	97.712153
3391.000000	97.716084
3390.000000	97.719139
3389.000000	97.719470
3388.000000	97.718435
3387.000000	97.718123
3386.000000	97.718888
3385.000000	97.719654
3384.000000	97.719602
3383.000000	97.718707
3382.000000	97.717368
3381.000000	97.716338
3380.000000	97.716456
3379.000000	97.717619
3378.000000	97.718430
3377.000000	97.717730
3376.000000	97.716253
3375.000000	97.715855
3374.000000	97.717286
3373.000000	97.719707
3372.000000	97.722257
3371.000000	97.725075
3370.000000	97.728438
3369.000000	97.731685
3368.000000	97.733724
3367.000000	97.734250
3366.000000	97.733859
3365.000000	97.733077
3364.000000	97.731931
3363.000000	97.730685
3362.000000	97.730439
3361.000000	97.732358
3360.000000	97.736373
3359.000000	97.741020
3358.000000	97.744668
3357.000000	97.746748
3356.000000	97.747704
3355.000000	97.748313
3354.000000	97.749389
3353.000000	97.751699
3352.000000	97.755366
3351.000000	97.759232
3350.000000	97.761506
3349.000000	97.761543
3348.000000	97.760733
3347.000000	97.761265
3346.000000	97.764015
3345.000000	97.767939
3344.000000	97.771226
3343.000000	97.772834
3342.000000	97.773130
3341.000000	97.773464
3340.000000	97.775069
3339.000000	97.778228
3338.000000	97.782659
3337.000000	97.788513
3336.000000	97.796317
3335.000000	97.805518
3334.000000	97.813794
3333.000000	97.818738
3332.000000	97.819989
3331.000000	97.819265
3330.000000	97.818582
3329.000000	97.818888
3328.000000	97.820407
3327.000000	97.823380
3326.000000	97.827854
3325.000000	97.833333
3324.000000	97.839147
3323.000000	97.844959
3322.000000	97.850714
3321.000000	97.856459
3320.000000	97.862419
3319.000000	97.868740
3318.000000	97.874859
3317.000000	97.879650
3316.000000	97.882697
3315.000000	97.885189
3314.000000	97.889111
3313.000000	97.895596
3312.000000	97.904125
3311.000000	97.912963
3310.000000	97.920241
3309.000000	97.925016
3308.000000	97.927590
3307.000000	97.928940
3306.000000	97.930065
3305.000000	97.932001
3304.000000	97.935904
3303.000000	97.941898
3302.000000	97.947797
3301.000000	97.950584
3300.000000	97.949959
3299.000000	97.949180
3298.000000	97.951257
3297.000000	97.955392
3296.000000	97.958558
3295.000000	97.959886
3294.000000	97.961524
3293.000000	97.965193
3292.000000	97.969808
3291.000000	97.973266
3290.000000	97.975358
3289.000000	97.977841
3288.000000	97.982362
3287.000000	97.989174
3286.000000	97.997259
3285.000000	98.005036
3284.000000	98.011453
3283.000000	98.016942
3282.000000	98.023000
3281.000000	98.030372
3280.000000	98.037996
3279.000000	98.044287
3278.000000	98.049174
3277.000000	98.054165
3276.000000	98.060523
3275.000000	98.068073
3274.000000	98.075974
3273.000000	98.083955
3272.000000	98.092268
3271.000000	98.100719
3270.000000	98.108277
3269.000000	98.113812
3268.000000	98.117030
3267.000000	98.118724
3266.000000	98.120436
3265.000000	98.123750
3264.000000	98.129453
3263.000000	98.137061
3262.000000	98.145002
3261.000000	98.151732
3260.000000	98.157067
3259.000000	98.162231
3258.000000	98.168567
3257.000000	98.176161
3256.000000	98.183833
3255.000000	98.190368
3254.000000	98.195614
3253.000000	98.200356
3252.000000	98.205538
3251.000000	98.211566
3250.000000	98.218311
3249.000000	98.225374
3248.000000	98.232301
3247.000000	98.238804
3246.000000	98.244960
3245.000000	98.251199
3244.000000	98.257967
3243.000000	98.265326
3242.000000	98.272912
3241.000000	98.280277
3240.000000	98.287316
3239.000000	98.294274
3238.000000	98.301362
3237.000000	98.308427
3236.000000	98.315111
3235.000000	98.321338
3234.000000	98.327547
3233.000000	98.334310
3232.000000	98.341736
3231.000000	98.349435
3230.000000	98.357035
3229.000000	98.364593
3228.000000	98.372354
3227.000000	98.380334
3226.000000	98.388296
3225.000000	98.396032
3224.000000	98.403576
3223.000000	98.411131
3222.000000	98.418852
3221.000000	98.426757
3220.000000	98.434777
3219.000000	98.442851
3218.000000	98.450917
3217.000000	98.458905
3216.000000	98.466790
3215.000000	98.474644
3214.000000	98.482610
3213.000000	98.490733
3212.000000	98.498798
3211.000000	98.506471
3210.000000	98.513634
3209.000000	98.520564
3208.000000	98.527815
3207.000000	98.535791
3206.000000	98.544506
3205.000000	98.553608
3204.000000	98.562567
3203.000000	98.571045
3202.000000	98.579071
3201.000000	98.586916
3200.000000	98.594853
3199.000000	98.602982
3198.000000	98.611299
3197.000000	98.619800
3196.000000	98.628434
3195.000000	98.636981
3194.000000	98.645171
3193.000000	98.653000
3192.000000	98.660835
3191.000000	98.669085
3190.000000	98.677845
3189.000000	98.686911
3188.000000	98.696011
3187.000000	98.704924
3186.000000	98.713399
3185.000000	98.721188
3184.000000	98.728220
3183.000000	98.734744
3182.000000	98.741342
3181.000000	98.748648
3180.000000	98.756949
3179.000000	98.765992
3178.000000	98.775205
3177.000000	98.784180
3176.000000	98.792833
3175.000000	98.801101
3174.000000	98.808792
3173.000000	98.815951
3172.000000	98.823246
3171.000000	98.831569
3170.000000	98.841207
3169.000000	98.851621
3168.000000	98.862040
3167.000000	98.872161
3166.000000	98.882070
3165.000000	98.891629
3164.000000	98.900262
3163.000000	98.907522
3162.000000	98.913724
3161.000000	98.919899
3160.000000	98.926993
3159.000000	98.935170
3158.000000	98.943948
3157.000000	98.952921
3156.000000	98.962205
3155.000000	98.972154
3154.000000	98.982815
3153.000000	98.993751
3152.000000	99.004256
3151.000000	99.013588
3150.000000	99.021183
3149.000000	99.027063
3148.000000	99.032259
3147.000000	99.038465
3146.000000	99.046691
3145.000000	99.056307
3144.000000	99.065557
3143.000000	99.073294
3142.000000	99.080085
3141.000000	99.087460
3140.000000	99.096285
3139.000000	99.106119
3138.000000	99.116014
3137.000000	99.125677
3136.000000	99.135625
3135.000000	99.146167
3134.000000	99.156448
3133.000000	99.164932
3132.000000	99.171046
3131.000000	99.176073
3130.000000	99.182115
3129.000000	99.190023
3128.000000	99.198881
3127.000000	99.207416
3126.000000	99.215388
3125.000000	99.223222
3124.000000	99.230775
3123.000000	99.237299
3122.000000	99.242564
3121.000000	99.247321
3120.000000	99.252537
3119.000000	99.258596
3118.000000	99.265388
3117.000000	99.272690
3116.000000	99.280187
3115.000000	99.287507
3114.000000	99.294559
3113.000000	99.301627
3112.000000	99.308910
3111.000000	99.316172
3110.000000	99.323068
3109.000000	99.329677
3108.000000	99.336477
3107.000000	99.343796
3106.000000	99.351351
3105.000000	99.358368
3104.000000	99.364216
3103.000000	99.368980
3102.000000	99.373595
3101.000000	99.379194
3100.000000	99.386142
3099.000000	99.393716
3098.000000	99.400764
3097.000000	99.406928
3096.000000	99.412876
3095.000000	99.419278
3094.000000	99.425817
3093.000000	99.431588
3092.000000	99.436333
3091.000000	99.440942
3090.000000	99.446545
3089.000000	99.453284
3088.000000	99.460232
3087.000000	99.466609
3086.000000	99.472669
3085.000000	99.479082
3084.000000	99.485845
3083.000000	99.492246
3082.000000	99.497863
3081.000000	99.503233
3080.000000	99.509358
3079.000000	99.516646
3078.000000	99.524419
3077.000000	99.531383
3076.000000	99.536670
3075.000000	99.540688
3074.000000	99.545038
3073.000000	99.551274
3072.000000	99.559685
3071.000000	99.569400
3070.000000	99.579486
3069.000000	99.589435
3068.000000	99.598488
3067.000000	99.605326
3066.000000	99.609069
3065.000000	99.610287
3064.000000	99.610592
3063.000000	99.611212
3062.000000	99.612340
3061.000000	99.613675
3060.000000	99.615146
3059.000000	99.617298
3058.000000	99.621151
3057.000000	99.627363
3056.000000	99.635303
3055.000000	99.643498
3054.000000	99.651437
3053.000000	99.660249
3052.000000	99.670655
3051.000000	99.680662
3050.000000	99.686598
3049.000000	99.686717
3048.000000	99.683142
3047.000000	99.680165
3046.000000	99.681106
3045.000000	99.686654
3044.000000	99.694976
3043.000000	99.702687
3042.000000	99.706662
3041.000000	99.706092
3040.000000	99.703120
3039.000000	99.701049
3038.000000	99.701553
3037.000000	99.703299
3036.000000	99.703224
3035.000000	99.699599
3034.000000	99.694471
3033.000000	99.692918
3032.000000	99.698839
3031.000000	99.710935
3030.000000	99.723085
3029.000000	99.729237
3028.000000	99.728015
3027.000000	99.723082
3026.000000	99.719695
3025.000000	99.720257
3024.000000	99.722294
3023.000000	99.720839
3022.000000	99.713705
3021.000000	99.704443
3020.000000	99.699265
3019.000000	99.700766
3018.000000	99.705896
3017.000000	99.710323
3016.000000	99.712796
3015.000000	99.713650
3014.000000	99.710916
3013.000000	99.701247
3012.000000	99.685130
3011.000000	99.668521
3010.000000	99.657345
3009.000000	99.651454
3008.000000	99.645851
3007.000000	99.637075
3006.000000	99.626315
3005.000000	99.616094
3004.000000	99.606253
3003.000000	99.595098
3002.000000	99.583249
3001.000000	99.573777
3000.000000	99.568076
2999.000000	99.563688
2998.000000	99.557354
2997.000000	99.548568
2996.000000	99.538139
2995.000000	99.524136
2994.000000	99.502157
2993.000000	99.470799
2992.000000	99.435292
2991.000000	99.403963
2990.000000	99.381303
2989.000000	99.365385
2988.000000	99.351601
2987.000000	99.337498
2986.000000	99.323587
2985.000000	99.310450
2984.000000	99.296319
2983.000000	99.277791
2982.000000	99.252697
2981.000000	99.222452
2980.000000	99.191992
2979.000000	99.167165
2978.000000	99.151254
2977.000000	99.143160
2976.000000	99.139004
2975.000000	99.136254
2974.000000	99.136816
2973.000000	99.146019
2972.000000	99.168397
2971.000000	99.203885
2970.000000	99.246935
2969.000000	99.289021
2968.000000	99.323384
2967.000000	99.349222
2966.000000	99.371489
2965.000000	99.395581
2964.000000	99.421738
2963.000000	99.445324
2962.000000	99.462792
2961.000000	99.476087
2960.000000	99.490273
2959.000000	99.507822
2958.000000	99.526586
2957.000000	99.543035
2956.000000	99.555871
2955.000000	99.565865
2954.000000	99.573213
2953.000000	99.576393
2952.000000	99.574194
2951.000000	99.568483
2950.000000	99.563999
2949.000000	99.564560
2948.000000	99.569674
2947.000000	99.575308
2946.000000	99.577569
2945.000000	99.574888
2944.000000	99.567706
2943.000000	99.558103
2942.000000	99.549807
2941.000000	99.546074
2940.000000	99.546151
2939.000000	99.545335
2938.000000	99.540259
2937.000000	99.533047
2936.000000	99.528621
2935.000000	99.528627
2934.000000	99.529808
2933.000000	99.528015
2932.000000	99.522258
2931.000000	99.514910
2930.000000	99.509392
2929.000000	99.507731
2928.000000	99.509142
2927.000000	99.510712
2926.000000	99.510171
2925.000000	99.507971
2924.000000	99.505963
2923.000000	99.504889
2922.000000	99.504870
2921.000000	99.508110
2920.000000	99.518677
2919.000000	99.538171
2918.000000	99.562248
2917.000000	99.582680
2916.000000	99.593282
2915.000000	99.593551
2914.000000	99.587631
2913.000000	99.581129
2912.000000	99.578315
2911.000000	99.580813
2910.000000	99.587514
2909.000000	99.595407
2908.000000	99.601186
2907.000000	99.602834
2906.000000	99.600192
2905.000000	99.594645
2904.000000	99.588762
2903.000000	99.585860
2902.000000	99.588507
2901.000000	99.596412
2900.000000	99.606212
2899.000000	99.614755
2898.000000	99.622463
2897.000000	99.632102
2896.000000	99.644249
2895.000000	99.655795
2894.000000	99.663603
2893.000000	99.668170
2892.000000	99.672337
2891.000000	99.677649
2890.000000	99.683543
2889.000000	99.689343
2888.000000	99.695266
2887.000000	99.701555
2886.000000	99.708187
2885.000000	99.715745
2884.000000	99.725539
2883.000000	99.738379
2882.000000	99.753648
2881.000000	99.769489
2880.000000	99.783503
2879.000000	99.793900
2878.000000	99.801033
2877.000000	99.807760
2876.000000	99.817200
2875.000000	99.829897
2874.000000	99.843731
2873.000000	99.856241
2872.000000	99.866364
2871.000000	99.874565
2870.000000	99.882670
2869.000000	99.893384
2868.000000	99.908166
2867.000000	99.925086
2866.000000	99.940164
2865.000000	99.951525
2864.000000	99.961164
2863.000000	99.972125
2862.000000	99.985129
2861.000000	99.998667
2860.000000	100.011037
2859.000000	100.021004
2858.000000	100.027530
2857.000000	100.030486
2856.000000	100.031805
2855.000000	100.034888
2854.000000	100.042475
2853.000000	100.055339
2852.000000	100.072468
2851.000000	100.091600
2850.000000	100.109985
2849.000000	100.125807
2848.000000	100.139305
2847.000000	100.152330
2846.000000	100.166436
2845.000000	100.181231
2844.000000	100.194604
2843.000000	100.204711
2842.000000	100.211782
2841.000000	100.217977
2840.000000	100.225397
2839.000000	100.234423
2838.000000	100.244259
2837.000000	100.254505
2836.000000	100.265332
2835.000000	100.276295
2834.000000	100.286180
2833.000000	100.294528
2832.000000	100.302554
2831.000000	100.311783
2830.000000	100.322066
2829.000000	100.331600
2828.000000	100.338869
2827.000000	100.344219
2826.000000	100.349442
2825.000000	100.355863
2824.000000	100.362970
2823.000000	100.369206
2822.000000	100.374287
2821.000000	100.380135
2820.000000	100.388778
2819.000000	100.399566
2818.000000	100.409282
2817.000000	100.415279
2816.000000	100.417810
2815.000000	100.419424
2814.000000	100.422684
2813.000000	100.428651
2812.000000	100.436925
2811.000000	100.446247
2810.000000	100.455022
2809.000000	100.461878
2808.000000	100.466215
2807.000000	100.468628
2806.000000	100.470906
2805.000000	100.475031
2804.000000	100.481585
2803.000000	100.489299
2802.000000	100.496354
2801.000000	100.502164
2800.000000	100.507458
2799.000000	100.512877
2798.000000	100.518143
2797.000000	100.522720
2796.000000	100.526684
2795.000000	100.530556
2794.000000	100.534655
2793.000000	100.538978
2792.000000	100.543492
2791.000000	100.548273
2790.000000	100.553423
2789.000000	100.559015
2788.000000	100.564928
2787.000000	100.570612
2786.000000	100.575253
2785.000000	100.578436
2784.000000	100.580613
2783.000000	100.582907
2782.000000	100.586254
2781.000000	100.590801
2780.000000	100.596012
2779.000000	100.601115
2778.000000	100.605669
2777.000000	100.609767
2776.000000	100.613756
2775.000000	100.617706
2774.000000	100.621277
2773.000000	100.624189
2772.000000	100.626620
2771.000000	100.629076
2770.000000	100.632012
2769.000000	100.635599
2768.000000	100.639690
2767.000000	100.643840
2766.000000	100.647534
2765.000000	100.650575
2764.000000	100.653121
2763.000000	100.655286
2762.000000	100.657031
2761.000000	100.658609
2760.000000	100.660651
2759.000000	100.663449
2758.000000	100.666450
2757.000000	100.668828
2756.000000	100.670524
2755.000000	100.672377
2754.000000	100.675115
2753.000000	100.678555
2752.000000	100.681879
2751.000000	100.684542
2750.000000	100.686719
2749.000000	100.688896
2748.000000	100.691318
2747.000000	100.693909
2746.000000	100.696539
2745.000000	100.699133
2744.000000	100.701567
2743.000000	100.703715
2742.000000	100.705663
2741.000000	100.707710
2740.000000	100.710014
2739.000000	100.712355
2738.000000	100.714415
2737.000000	100.716209
2736.000000	100.717973
2735.000000	100.719848
2734.000000	100.721787
2733.000000	100.723723
2732.000000	100.725643
2731.000000	100.727543
2730.000000	100.729418
2729.000000	100.731271
2728.000000	100.733105
2727.000000	100.734922
2726.000000	100.736722
2725.000000	100.738508
2724.000000	100.740278
2723.000000	100.742026
2722.000000	100.743751
2721.000000	100.745453
2720.000000	100.747141
2719.000000	100.748820
2718.000000	100.750494
2717.000000	100.752157
2716.000000	100.753799
2715.000000	100.755413
2714.000000	100.756993
2713.000000	100.758537
2712.000000	100.760045
2711.000000	100.761519
2710.000000	100.762958
2709.000000	100.764365
2708.000000	100.765736
2707.000000	100.767069
2706.000000	100.768361
2705.000000	100.769616
2704.000000	100.770844
2703.000000	100.772059
2702.000000	100.773266
2701.000000	100.774463
2700.000000	100.775647
2699.000000	100.776812
2698.000000	100.777954
2697.000000	100.779071
2696.000000	100.780164
2695.000000	100.781239
2694.000000	100.782301
2693.000000	100.783350
2692.000000	100.784381
2691.000000	100.785384
2690.000000	100.786349
2689.000000	100.787275
2688.000000	100.788166
2687.000000	100.789029
2686.000000	100.789866
2685.000000	100.790677
2684.000000	100.791456
2683.000000	100.792202
2682.000000	100.792914
2681.000000	100.793598
2680.000000	100.794262
2679.000000	100.794913
2678.000000	100.795551
2677.000000	100.796175
2676.000000	100.796774
2675.000000	100.797315
2674.000000	100.797770
2673.000000	100.798136
2672.000000	100.798461
2671.000000	100.798793
2670.000000	100.799145
2669.000000	100.799484
2668.000000	100.799770
2667.000000	100.799998
2666.000000	100.800193
2665.000000	100.800388
2664.000000	100.800634
2663.000000	100.800993
2662.000000	100.801466
2661.000000	100.801927
2660.000000	100.802214
2659.000000	100.802301
2658.000000	100.802344
2657.000000	100.802536
2656.000000	100.802904
2655.000000	100.803246
2654.000000	100.803271
2653.000000	100.802829
2652.000000	100.802061
2651.000000	100.801330
2650.000000	100.800931
2649.000000	100.800854
2648.000000	100.800887
2647.000000	100.800955
2646.000000	100.801218
2645.000000	100.801801
2644.000000	100.802570
2643.000000	100.803284
2642.000000	100.803861
2641.000000	100.804323
2640.000000	100.804531
2639.000000	100.804180
2638.000000	100.803213
2637.000000	100.802102
2636.000000	100.801516
2635.000000	100.801643
2634.000000	100.802020
2633.000000	100.802189
2632.000000	100.802272
2631.000000	100.802735
2630.000000	100.803741
2629.000000	100.804943
2628.000000	100.805731
2627.000000	100.805554
2626.000000	100.804147
2625.000000	100.801796
2624.000000	100.799499
2623.000000	100.798489
2622.000000	100.799356
2621.000000	100.801617
2620.000000	100.803997
2619.000000	100.805334
2618.000000	100.805322
2617.000000	100.804641
2616.000000	100.804458
2615.000000	100.805594
2614.000000	100.808024
2613.000000	100.811070
2612.000000	100.814044
2611.000000	100.816581
2610.000000	100.818454
2609.000000	100.819436
2608.000000	100.819471
2607.000000	100.818893
2606.000000	100.818327
2605.000000	100.818270
2604.000000	100.818764
2603.000000	100.819415
2602.000000	100.819736
2601.000000	100.819593
2600.000000	100.819354
2599.000000	100.819528
2598.000000	100.820200
2597.000000	100.820921
2596.000000	100.821223
2595.000000	100.821232
2594.000000	100.821616
2593.000000	100.822874
2592.000000	100.824846
2591.000000	100.826867
2590.000000	100.828311
2589.000000	100.828984
2588.000000	100.829045
2587.000000	100.828816
2586.000000	100.828670
2585.000000	100.828927
2584.000000	100.829698
2583.000000	100.830791
2582.000000	100.831841
2581.000000	100.832627
2580.000000	100.833225
2579.000000	100.833880
2578.000000	100.834749
2577.000000	100.835749
2576.000000	100.836583
2575.000000	100.836991
2574.000000	100.836974
2573.000000	100.836783
2572.000000	100.836749
2571.000000	100.837064
2570.000000	100.837723
2569.000000	100.838543
2568.000000	100.839273
2567.000000	100.839756
2566.000000	100.840032
2565.000000	100.840308
2564.000000	100.840802
2563.000000	100.841606
2562.000000	100.842636
2561.000000	100.843700
2560.000000	100.844623
2559.000000	100.845361
2558.000000	100.846069
2557.000000	100.846989
2556.000000	100.848191
2555.000000	100.849477
2554.000000	100.850607
2553.000000	100.851580
2552.000000	100.852553
2551.000000	100.853570
2550.000000	100.854524
2549.000000	100.855389
2548.000000	100.856331
2547.000000	100.857530
2546.000000	100.859024
2545.000000	100.860753
2544.000000	100.862561
2543.000000	100.864171
2542.000000	100.865338
2541.000000	100.866087
2540.000000	100.866702
2539.000000	100.867429
2538.000000	100.868304
2537.000000	100.869309
2536.000000	100.870540
2535.000000	100.872105
2534.000000	100.873949
2533.000000	100.875893
2532.000000	100.877791
2531.000000	100.879605
2530.000000	100.881336
2529.000000	100.882956
2528.000000	100.884427
2527.000000	100.885777
2526.000000	100.887116
2525.000000	100.888578
2524.000000	100.890221
2523.000000	100.891993
2522.000000	100.893800
2521.000000	100.895556
2520.000000	100.897234
2519.000000	100.898863
2518.000000	100.900486
2517.000000	100.902151
2516.000000	100.903885
2515.000000	100.905693
2514.000000	100.907556
2513.000000	100.909443
2512.000000	100.911334
2511.000000	100.913228
2510.000000	100.915134
2509.000000	100.917064
2508.000000	100.919019
2507.000000	100.920988
2506.000000	100.922951
2505.000000	100.924898
2504.000000	100.926833
2503.000000	100.928781
2502.000000	100.930774
2501.000000	100.932831
2500.000000	100.934951
2499.000000	100.937115
2498.000000	100.939300
2497.000000	100.941491
2496.000000	100.943683
2495.000000	100.945878
2494.000000	100.948071
2493.000000	100.950246
2492.000000	100.952386
2491.000000	100.954484
2490.000000	100.956556
2489.000000	100.958637
2488.000000	100.960776
2487.000000	100.963015
2486.000000	100.965367
2485.000000	100.967792
2484.000000	100.970206
2483.000000	100.972489
2482.000000	100.974522
2481.000000	100.976275
2480.000000	100.977910
2479.000000	100.979724
2478.000000	100.981995
2477.000000	100.984825
2476.000000	100.987973
2475.000000	100.990860
2474.000000	100.992946
2473.000000	100.994172
2472.000000	100.995022
2471.000000	100.995965
2470.000000	100.997044
2469.000000	100.998213
2468.000000	100.999721
2467.000000	101.001710
2466.000000	101.003683
2465.000000	101.005045
2464.000000	101.006169
2463.000000	101.008185
2462.000000	101.011500
2461.000000	101.015221
2460.000000	101.018414
2459.000000	101.021261
2458.000000	101.024485
2457.000000	101.028082
2456.000000	101.031179
2455.000000	101.033073
2454.000000	101.034002
2453.000000	101.034832
2452.000000	101.036152
2451.000000	101.037834
2450.000000	101.039488
2449.000000	101.041130
2448.000000	101.043080
2447.000000	101.045207
2446.000000	101.046771
2445.000000	101.047201
2444.000000	101.046610
2443.000000	101.045307
2442.000000	101.043418
2441.000000	101.041528
2440.000000	101.041127
2439.000000	101.043475
2438.000000	101.048131
2437.000000	101.053089
2436.000000	101.056522
2435.000000	101.058203
2434.000000	101.059271
2433.000000	101.061064
2432.000000	101.064158
2431.000000	101.068085
2430.000000	101.071819
2429.000000	101.074598
2428.000000	101.076259
2427.000000	101.076995
2426.000000	101.077101
2425.000000	101.077020
2424.000000	101.077261
2423.000000	101.078086
2422.000000	101.079478
2421.000000	101.081303
2420.000000	101.083111
2419.000000	101.083945
2418.000000	101.083107
2417.000000	101.081169
2416.000000	101.079686
2415.000000	101.079510
2414.000000	101.080048
2413.000000	101.080424
2412.000000	101.080749
2411.000000	101.081722
2410.000000	101.083458
2409.000000	101.085357
2408.000000	101.086834
2407.000000	101.087727
2406.000000	101.088116
2405.000000	101.088129
2404.000000	101.087977
2403.000000	101.087908
2402.000000	101.088099
2401.000000	101.088676
2400.000000	101.089722
2399.000000	101.091044
2398.000000	101.092042
2397.000000	101.092110
2396.000000	101.091178
2395.000000	101.089725
2394.000000	101.088392
2393.000000	101.087748
2392.000000	101.088151
2391.000000	101.089420
2390.000000	101.090591
2389.000000	101.090570
2388.000000	101.089179
2387.000000	101.087194
2386.000000	101.085567
2385.000000	101.084751
2384.000000	101.084683
2383.000000	101.084942
2382.000000	101.084899
2381.000000	101.084158
2380.000000	101.082903
2379.000000	101.081576
2378.000000	101.080361
2377.000000	101.079278
2376.000000	101.078564
2375.000000	101.078355
2374.000000	101.078186
2373.000000	101.077357
2372.000000	101.075768
2371.000000	101.074028
2370.000000	101.072927
2369.000000	101.073159
2368.000000	101.074938
2367.000000	101.077265
2366.000000	101.078098
2365.000000	101.075974
2364.000000	101.071251
2363.000000	101.065553
2362.000000	101.060124
2361.000000	101.055359
2360.000000	101.051134
2359.000000	101.047273
2358.000000	101.044345
2357.000000	101.043162
2356.000000	101.043888
2355.000000	101.045908
2354.000000	101.049409
2353.000000	101.053618
2352.000000	101.056014
2351.000000	101.054740
2350.000000	101.049979
2349.000000	101.043401
2348.000000	101.037090
2347.000000	101.033149
2346.000000	101.031765
2345.000000	101.030356
2344.000000	101.026956
2343.000000	101.022092
2342.000000	101.017671
2341.000000	101.014618
2340.000000	101.013381
2339.000000	101.013981
2338.000000	101.015608
2337.000000	101.016589
2336.000000	101.015216
2335.000000	101.011880
2334.000000	101.008693
2333.000000	101.007412
2332.000000	101.007057
2331.000000	101.006410
2330.000000	101.004944
2329.000000	101.003246
2328.000000	101.000806
2327.000000	100.997947
2326.000000	100.995624
2325.000000	100.994784
2324.000000	100.994856
2323.000000	100.994537
2322.000000	100.992960
2321.000000	100.990232
2320.000000	100.987108
2319.000000	100.985001
2318.000000	100.984496
2317.000000	100.985311
2316.000000	100.985925
2315.000000	100.985858
2314.000000	100.985211
2313.000000	100.985062
2312.000000	100.985642
2311.000000	100.987200
2310.000000	100.989014
2309.000000	100.990331
2308.000000	100.990312
2307.000000	100.989569
2306.000000	100.988840
2305.000000	100.988072
2304.000000	100.985876
2303.000000	100.981913
2302.000000	100.977353
2301.000000	100.974418
2300.000000	100.973869
2299.000000	100.974849
2298.000000	100.975203
2297.000000	100.974054
2296.000000	100.972181
2295.000000	100.971470
2294.000000	100.972222
2293.000000	100.972896
2292.000000	100.971695
2291.000000	100.968902
2290.000000	100.966508
2289.000000	100.966143
2288.000000	100.967512
2287.000000	100.968786
2286.000000	100.968189
2285.000000	100.964978
2284.000000	100.959731
2283.000000	100.953773
2282.000000	100.948517
2281.000000	100.944797
2280.000000	100.942713
2279.000000	100.941460
2278.000000	100.939681
2277.000000	100.936594
2276.000000	100.932892
2275.000000	100.930097
2274.000000	100.928705
2273.000000	100.927512
2272.000000	100.924898
2271.000000	100.920687
2270.000000	100.916301
2269.000000	100.913413
2268.000000	100.912700
2267.000000	100.913745
2266.000000	100.915466
2265.000000	100.916734
2264.000000	100.916949
2263.000000	100.916131
2262.000000	100.914437
2261.000000	100.911744
2260.000000	100.908014
2259.000000	100.903816
2258.000000	100.900142
2257.000000	100.897548
2256.000000	100.895880
2255.000000	100.894794
2254.000000	100.894126
2253.000000	100.893733
2252.000000	100.893321
2251.000000	100.892751
2250.000000	100.892139
2249.000000	100.891534
2248.000000	100.890553
2247.000000	100.888693
2246.000000	100.885808
2245.000000	100.882191
2244.000000	100.878305
2243.000000	100.874789
2242.000000	100.872613
2241.000000	100.872739
2240.000000	100.875312
2239.000000	100.879116
2238.000000	100.882167
2237.000000	100.883142
2236.000000	100.882086
2235.000000	100.879930
2234.000000	100.877574
2233.000000	100.875386
2232.000000	100.873332
2231.000000	100.871396
2230.000000	100.869875
2229.000000	100.869294
2228.000000	100.869833
2227.000000	100.870875
2226.000000	100.871383
2225.000000	100.870837
2224.000000	100.869533
2223.000000	100.867956
2222.000000	100.866392
2221.000000	100.865391
2220.000000	100.865852
2219.000000	100.867971
2218.000000	100.870540
2217.000000	100.872075
2216.000000	100.872493
2215.000000	100.872871
2214.000000	100.873778
2213.000000	100.874788
2212.000000	100.875600
2211.000000	100.876661
2210.000000	100.878394
2209.000000	100.880506
2208.000000	100.882395
2207.000000	100.883781
2206.000000	100.884610
2205.000000	100.884765
2204.000000	100.884290
2203.000000	100.883692
2202.000000	100.883642
2201.000000	100.884425
2200.000000	100.885800
2199.000000	100.887239
2198.000000	100.888251
2197.000000	100.888699
2196.000000	100.888863
2195.000000	100.889170
2194.000000	100.889773
2193.000000	100.890487
2192.000000	100.891128
2191.000000	100.891728
2190.000000	100.892398
2189.000000	100.893132
2188.000000	100.893838
2187.000000	100.894489
2186.000000	100.895130
2185.000000	100.895801
2184.000000	100.896496
2183.000000	100.897196
2182.000000	100.897894
2181.000000	100.898583
2180.000000	100.899252
2179.000000	100.899898
2178.000000	100.900526
2177.000000	100.901146
2176.000000	100.901769
2175.000000	100.902400
2174.000000	100.903038
2173.000000	100.903676
2172.000000	100.904317
2171.000000	100.904969
2170.000000	100.905653
2169.000000	100.906392
2168.000000	100.907198
2167.000000	100.908062
2166.000000	100.908964
2165.000000	100.909883
2164.000000	100.910807
2163.000000	100.911741
2162.000000	100.912716
2161.000000	100.913770
2160.000000	100.914903
2159.000000	100.916059
2158.000000	100.917178
2157.000000	100.918251
2156.000000	100.919324
2155.000000	100.920455
2154.000000	100.921679
2153.000000	100.922989
2152.000000	100.924365
2151.000000	100.925814
2150.000000	100.927372
2149.000000	100.929017
2148.000000	100.930601
2147.000000	100.931963
2146.000000	100.933127
2145.000000	100.934348
2144.000000	100.935853
2143.000000	100.937597
2142.000000	100.939360
2141.000000	100.941048
2140.000000	100.942722
2139.000000	100.944443
2138.000000	100.946296
2137.000000	100.948512
2136.000000	100.951245
2135.000000	100.954205
2134.000000	100.956756
2133.000000	100.958594
2132.000000	100.960166
2131.000000	100.962296
2130.000000	100.965330
2129.000000	100.968835
2128.000000	100.971992
2127.000000	100.974417
2126.000000	100.976342
2125.000000	100.978252
2124.000000	100.980345
2123.000000	100.982425
2122.000000	100.984267
2121.000000	100.985914
2120.000000	100.987602
2119.000000	100.989475
2118.000000	100.991518
2117.000000	100.993794
2116.000000	100.996546
2115.000000	100.999871
2114.000000	101.003377
2113.000000	101.006429
2112.000000	101.008768
2111.000000	101.010706
2110.000000	101.012761
2109.000000	101.015221
2108.000000	101.018101
2107.000000	101.021305
2106.000000	101.024636
2105.000000	101.027765
2104.000000	101.030386
2103.000000	101.032401
2102.000000	101.033879
2101.000000	101.035019
2100.000000	101.036243
2099.000000	101.038084
2098.000000	101.040721
2097.000000	101.043665
2096.000000	101.046097
2095.000000	101.047512
2094.000000	101.048029
2093.000000	101.048340
2092.000000	101.049384
2091.000000	101.051599
2090.000000	101.054232
2089.000000	101.055975
2088.000000	101.056689
2087.000000	101.057750
2086.000000	101.060080
2085.000000	101.062702
2084.000000	101.064251
2083.000000	101.065300
2082.000000	101.067770
2081.000000	101.072124
2080.000000	101.076426
2079.000000	101.078636
2078.000000	101.078920
2077.000000	101.079080
2076.000000	101.080229
2075.000000	101.081707
2074.000000	101.082213
2073.000000	101.081520
2072.000000	101.081008
2071.000000	101.082519
2070.000000	101.086569
2069.000000	101.091556
2068.000000	101.094904
2067.000000	101.095104
2066.000000	101.092678
2065.000000	101.089422
2064.000000	101.086806
2063.000000	101.085300
2062.000000	101.085051
2061.000000	101.086404
2060.000000	101.089319
2059.000000	101.092649
2058.000000	101.094663
2057.000000	101.094421
2056.000000	101.092325
2055.000000	101.089428
2054.000000	101.086602
2053.000000	101.084337
2052.000000	101.082659
2051.000000	101.080969
2050.000000	101.078643
2049.000000	101.076190
2048.000000	101.075055
2047.000000	101.075572
2046.000000	101.075825
2045.000000	101.073675
2044.000000	101.069612
2043.000000	101.066472
2042.000000	101.066083
2041.000000	101.067097
2040.000000	101.066686
2039.000000	101.063542
2038.000000	101.058548
2037.000000	101.053265
2036.000000	101.048631
2035.000000	101.044934
2034.000000	101.042250
2033.000000	101.040527
2032.000000	101.039551
2031.000000	101.039059
2030.000000	101.038744
2029.000000	101.038046
2028.000000	101.036139
2027.000000	101.032408
2026.000000	101.027105
2025.000000	101.021517
2024.000000	101.017288
2023.000000	101.015253
2022.000000	101.014829
2021.000000	101.014452
2020.000000	101.012759
2019.000000	101.009487
2018.000000	101.005451
2017.000000	101.001842
2016.000000	100.999409
2015.000000	100.998134
2014.000000	100.997414
2013.000000	100.996347
2012.000000	100.993970
2011.000000	100.989645
2010.000000	100.983604
2009.000000	100.977132
2008.000000	100.971736
2007.000000	100.967890
2006.000000	100.964953
2005.000000	100.962501
2004.000000	100.961326
2003.000000	100.962482
2002.000000	100.965498
2001.000000	100.968054
2000.000000	100.967868
1999.000000	100.964675
1998.000000	100.960160
1997.000000	100.956369
1996.000000	100.954308
1995.000000	100.953834
1994.000000	100.954271
1993.000000	100.954875
1992.000000	100.954951
1991.000000	100.953908
1990.000000	100.951577
1989.000000	100.948534
1988.000000	100.945908
1987.000000	100.944583
1986.000000	100.944581
1985.000000	100.945319
1984.000000	100.946382
1983.000000	100.947711
1982.000000	100.949176
1981.000000	100.950482
1980.000000	100.951639
1979.000000	100.953089
1978.000000	100.954891
1977.000000	100.956094
1976.000000	100.955430
1975.000000	100.952528
1974.000000	100.948226
1973.000000	100.943898
1972.000000	100.940658
1971.000000	100.938962
1970.000000	100.938534
1969.000000	100.938598
1968.000000	100.938549
1967.000000	100.938635
1966.000000	100.939660
1965.000000	100.941859
1964.000000	100.944255
1963.000000	100.945319
1962.000000	100.944285
1961.000000	100.941720
1960.000000	100.938848
1959.000000	100.936398
1958.000000	100.934339
1957.000000	100.932536
1956.000000	100.931069
1955.000000	100.929853
1954.000000	100.928517
1953.000000	100.926943
1952.000000	100.925538
1951.000000	100.924703
1950.000000	100.924429
1949.000000	100.924539
1948.000000	100.924938
1947.000000	100.925397
1946.000000	100.925231
1945.000000	100.923421
1944.000000	100.919109
1943.000000	100.912380
1942.000000	100.905024
1941.000000	100.899877
1940.000000	100.898645
1939.000000	100.900310
1938.000000	100.901718
1937.000000	100.900434
1936.000000	100.896953
1935.000000	100.893511
1934.000000	100.891157
1933.000000	100.888994
1932.000000	100.886019
1931.000000	100.882533
1930.000000	100.879741
1929.000000	100.878602
1928.000000	100.879225
1927.000000	100.880837
1926.000000	100.881978
1925.000000	100.881531
1924.000000	100.879645
1923.000000	100.877553
1922.000000	100.875830
1921.000000	100.873152
1920.000000	100.867590
1919.000000	100.858906
1918.000000	100.849724
1917.000000	100.843707
1916.000000	100.841699
1915.000000	100.841009
1914.000000	100.838066
1913.000000	100.831335
1912.000000	100.822209
1911.000000	100.813219
1910.000000	100.805645
1909.000000	100.799032
1908.000000	100.792493
1907.000000	100.785556
1906.000000	100.777741
1905.000000	100.768871
1904.000000	100.759952
1903.000000	100.753011
1902.000000	100.748808
1901.000000	100.744946
1900.000000	100.738119
1899.000000	100.728424
1898.000000	100.719620
1897.000000	100.714827
1896.000000	100.713226
1895.000000	100.712121
1894.000000	100.710887
1893.000000	100.710803
1892.000000	100.711680
1891.000000	100.710725
1890.000000	100.705276
1889.000000	100.695755
1888.000000	100.685070
1887.000000	100.676347
1886.000000	100.671748
1885.000000	100.671729
1884.000000	100.674584
1883.000000	100.677678
1882.000000	100.679776
1881.000000	100.681296
1880.000000	100.682485
1879.000000	100.682537
1878.000000	100.680780
1877.000000	100.678045
1876.000000	100.675688
1875.000000	100.673491
1874.000000	100.669946
1873.000000	100.664492
1872.000000	100.658557
1871.000000	100.654734
1870.000000	100.655919
1869.000000	100.664096
1868.000000	100.677623
1867.000000	100.691436
1866.000000	100.702043
1865.000000	100.709816
1864.000000	100.716775
1863.000000	100.724291
1862.000000	100.732667
1861.000000	100.741654
1860.000000	100.750614
1859.000000	100.758556
1858.000000	100.764709
1857.000000	100.769403
1856.000000	100.774291
1855.000000	100.781481
1854.000000	100.792067
1853.000000	100.805035
1852.000000	100.817720
1851.000000	100.827880
1850.000000	100.834885
1849.000000	100.840064
1848.000000	100.845890
1847.000000	100.854026
1846.000000	100.863789
1845.000000	100.872393
1844.000000	100.877129
1843.000000	100.877935
1842.000000	100.877512
1841.000000	100.878698
1840.000000	100.882778
1839.000000	100.889464
1838.000000	100.897305
1837.000000	100.904931
1836.000000	100.911630
1835.000000	100.916556
1834.000000	100.918031
1833.000000	100.914709
1832.000000	100.907731
1831.000000	100.901482
1830.000000	100.901276
1829.000000	100.908382
1828.000000	100.918442
1827.000000	100.926332
1826.000000	100.929552
1825.000000	100.928651
1824.000000	100.926275
1823.000000	100.924294
1822.000000	100.922684
1821.000000	100.921320
1820.000000	100.921391
1819.000000	100.923969
1818.000000	100.927810
1817.000000	100.930086
1816.000000	100.929397
1815.000000	100.927441
1814.000000	100.926962
1813.000000	100.928428
1812.000000	100.929533
1811.000000	100.927922
1810.000000	100.924572
1809.000000	100.923139
1808.000000	100.925784
1807.000000	100.931357
1806.000000	100.937417
1805.000000	100.942422
1804.000000	100.945557
1803.000000	100.946008
1802.000000	100.943801
1801.000000	100.940828
1800.000000	100.939316
1799.000000	100.938883
1798.000000	100.937835
1797.000000	100.936560
1796.000000	100.937457
1795.000000	100.941720
1794.000000	100.947382
1793.000000	100.951196
1792.000000	100.952926
1791.000000	100.955484
1790.000000	100.960712
1789.000000	100.968076
1788.000000	100.976077
1787.000000	100.982993
1786.000000	100.987232
1785.000000	100.988392
1784.000000	100.988095
1783.000000	100.988909
1782.000000	100.992030
1781.000000	100.996534
1780.000000	101.001298
1779.000000	101.006142
1778.000000	101.011622
1777.000000	101.017682
1776.000000	101.023082
1775.000000	101.026423
1774.000000	101.027361
1773.000000	101.027983
1772.000000	101.032932
1771.000000	101.043839
1770.000000	101.056134
1769.000000	101.064499
1768.000000	101.066817
1767.000000	101.064750
1766.000000	101.062691
1765.000000	101.064844
1764.000000	101.072608
1763.000000	101.083126
1762.000000	101.090635
1761.000000	101.092309
1760.000000	101.091472
1759.000000	101.091911
1758.000000	101.093033
1757.000000	101.092340
1756.000000	101.090608
1755.000000	101.090547
1754.000000	101.091344
1753.000000	101.088928
1752.000000	101.081273
1751.000000	101.072030
1750.000000	101.067144
1749.000000	101.068998
1748.000000	101.075908
1747.000000	101.083902
1746.000000	101.087624
1745.000000	101.084141
1744.000000	101.077290
1743.000000	101.074877
1742.000000	101.079437
1741.000000	101.085158
1740.000000	101.085722
1739.000000	101.081864
1738.000000	101.077991
1737.000000	101.074162
1736.000000	101.066384
1735.000000	101.052151
1734.000000	101.035581
1733.000000	101.023295
1732.000000	101.015909
1731.000000	101.011282
1730.000000	101.008179
1729.000000	101.006298
1728.000000	101.004943
1727.000000	101.002837
1726.000000	100.998247
1725.000000	100.989894
1724.000000	100.979054
1723.000000	100.969484
1722.000000	100.964054
1721.000000	100.961277
1720.000000	100.956105
1719.000000	100.944175
1718.000000	100.926946
1717.000000	100.911905
1716.000000	100.902370
1715.000000	100.895374
1714.000000	100.888614
1713.000000	100.881844
1712.000000	100.874377
1711.000000	100.864367
1710.000000	100.850527
1709.000000	100.833793
1708.000000	100.816452
1707.000000	100.799663
1706.000000	100.784106
1705.000000	100.772111
1704.000000	100.764891
1703.000000	100.759554
1702.000000	100.749755
1701.000000	100.728084
1700.000000	100.695846
1699.000000	100.666310
1698.000000	100.646040
1697.000000	100.631647
1696.000000	100.619448
1695.000000	100.607431
1694.000000	100.594536
1693.000000	100.580582
1692.000000	100.565110
1691.000000	100.548684
1690.000000	100.532559
1689.000000	100.516722
1688.000000	100.500366
1687.000000	100.483353
1686.000000	100.465166
1685.000000	100.443595
1684.000000	100.420375
1683.000000	100.402051
1682.000000	100.388536
1681.000000	100.375303
1680.000000	100.359430
1679.000000	100.341612
1678.000000	100.323640
1677.000000	100.304965
1676.000000	100.284055
1675.000000	100.262939
1674.000000	100.245665
1673.000000	100.232170
1672.000000	100.218291
1671.000000	100.199509
1670.000000	100.176390
1669.000000	100.155468
1668.000000	100.141766
1667.000000	100.134028
1666.000000	100.126721
1665.000000	100.113492
1664.000000	100.091064
1663.000000	100.063380
1662.000000	100.039654
1661.000000	100.023258
1660.000000	100.010641
1659.000000	99.998827
1658.000000	99.987989
1657.000000	99.979535
1656.000000	99.973876
1655.000000	99.968595
1654.000000	99.954386
1653.000000	99.925376
1652.000000	99.893242
1651.000000	99.874928
1650.000000	99.871344
1649.000000	99.868064
1648.000000	99.856124
1647.000000	99.841804
1646.000000	99.835607
1645.000000	99.835349
1644.000000	99.835900
1643.000000	99.836670
1642.000000	99.837941
1641.000000	99.839071
1640.000000	99.839297
1639.000000	99.838655
1638.000000	99.837435
1637.000000	99.835325
1636.000000	99.832664
1635.000000	99.831117
1634.000000	99.829809
1633.000000	99.829657
1632.000000	99.831500
1631.000000	99.834962
1630.000000	99.839690
1629.000000	99.844835
1628.000000	99.850062
1627.000000	99.856677
1626.000000	99.865525
1625.000000	99.875257
1624.000000	99.884111
1623.000000	99.892290
1622.000000	99.900164
1621.000000	99.905796
1620.000000	99.907618
1619.000000	99.906002
1618.000000	99.904059
1617.000000	99.907048
1616.000000	99.918329
1615.000000	99.936482
1614.000000	99.957643
1613.000000	99.977782
1612.000000	99.994789
1611.000000	100.009255
1610.000000	100.022097
1609.000000	100.032211
1608.000000	100.038583
1607.000000	100.043207
1606.000000	100.049280
1605.000000	100.057555
1604.000000	100.067211
1603.000000	100.078549
1602.000000	100.092975
1601.000000	100.110737
1600.000000	100.129846
1599.000000	100.147018
1598.000000	100.159572
1597.000000	100.167508
1596.000000	100.174062
1595.000000	100.183297
1594.000000	100.196364
1593.000000	100.210531
1592.000000	100.222313
1591.000000	100.230506
1590.000000	100.236353
1589.000000	100.242227
1588.000000	100.250454
1587.000000	100.262099
1586.000000	100.275931
1585.000000	100.289107
1584.000000	100.299751
1583.000000	100.308222
1582.000000	100.315569
1581.000000	100.322272
1580.000000	100.328647
1579.000000	100.335243
1578.000000	100.342381
1577.000000	100.350113
1576.000000	100.358777
1575.000000	100.368833
1574.000000	100.379912
1573.000000	100.390779
1572.000000	100.400371
1571.000000	100.408648
1570.000000	100.416435
1569.000000	100.424389
1568.000000	100.432330
1567.000000	100.440438
1566.000000	100.448870
1565.000000	100.456779
1564.000000	100.463030
1563.000000	100.467643
1562.000000	100.471838
1561.000000	100.477077
1560.000000	100.484000
1559.000000	100.494075
1558.000000	100.506542
1557.000000	100.515956
1556.000000	100.522892
1555.000000	100.529238
1554.000000	100.535850
1553.000000	100.543295
1552.000000	100.551909
1551.000000	100.561176
1550.000000	100.569893
1549.000000	100.577281
1548.000000	100.583649
1547.000000	100.590070
1546.000000	100.597203
1545.000000	100.605152
1544.000000	100.614079
1543.000000	100.624094
1542.000000	100.634625
1541.000000	100.644846
1540.000000	100.654308
1539.000000	100.661804
1538.000000	100.666688
1537.000000	100.671194
1536.000000	100.676072
1535.000000	100.680442
1534.000000	100.684175
1533.000000	100.688631
1532.000000	100.694577
1531.000000	100.701085
1530.000000	100.707229
1529.000000	100.712570
1528.000000	100.717440
1527.000000	100.723429
1526.000000	100.731648
1525.000000	100.740723
1524.000000	100.747794
1523.000000	100.750606
1522.000000	100.749771
1521.000000	100.750574
1520.000000	100.757704
1519.000000	100.770872
1518.000000	100.786246
1517.000000	100.799377
1516.000000	100.808696
1515.000000	100.815970
1514.000000	100.823460
1513.000000	100.830813
1512.000000	100.836140
1511.000000	100.839279
1510.000000	100.842671
1509.000000	100.848548
1508.000000	100.858100
1507.000000	100.872804
1506.000000	100.887612
1505.000000	100.891869
1504.000000	100.891342
1503.000000	100.893700
1502.000000	100.899384
1501.000000	100.906718
1500.000000	100.913310
1499.000000	100.916588
1498.000000	100.916064
1497.000000	100.914600
1496.000000	100.914763
1495.000000	100.916037
1494.000000	100.918600
1493.000000	100.923960
1492.000000	100.932236
1491.000000	100.940633
1490.000000	100.945799
1489.000000	100.947571
1488.000000	100.947166
1487.000000	100.944449
1486.000000	100.939494
1485.000000	100.933521
1484.000000	100.928626
1483.000000	100.926777
1482.000000	100.927617
1481.000000	100.929167
1480.000000	100.929754
1479.000000	100.929234
1478.000000	100.927779
1477.000000	100.925131
1476.000000	100.921176
1475.000000	100.915771
1474.000000	100.908372
1473.000000	100.898912
1472.000000	100.889462
1471.000000	100.881048
1470.000000	100.874004
1469.000000	100.869508
1468.000000	100.867919
1467.000000	100.866926
1466.000000	100.861641
1465.000000	100.848559
1464.000000	100.830313
1463.000000	100.812927
1462.000000	100.799824
1461.000000	100.791334
1460.000000	100.786558
1459.000000	100.784170
1458.000000	100.780885
1457.000000	100.773406
1456.000000	100.763003
1455.000000	100.755251
1454.000000	100.751686
1453.000000	100.746646
1452.000000	100.736216
1451.000000	100.723106
1450.000000	100.713219
1449.000000	100.710206
1448.000000	100.713603
1447.000000	100.719301
1446.000000	100.722376
1445.000000	100.720750
1444.000000	100.716417
1443.000000	100.712668
1442.000000	100.710984
1441.000000	100.710342
1440.000000	100.709339
1439.000000	100.707364
1438.000000	100.703264
1437.000000	100.695788
1436.000000	100.686366
1435.000000	100.678154
1434.000000	100.672299
1433.000000	100.667753
1432.000000	100.663450
1431.000000	100.659706
1430.000000	100.656299
1429.000000	100.651135
1428.000000	100.642458
1427.000000	100.631534
1426.000000	100.621133
1425.000000	100.612290
1424.000000	100.605360
1423.000000	100.600474
1422.000000	100.596726
1421.000000	100.593079
1420.000000	100.589148
1419.000000	100.585444
1418.000000	100.582216
1417.000000	100.579319
1416.000000	100.578019
1415.000000	100.579608
1414.000000	100.582920
1413.000000	100.584887
1412.000000	100.584180
1411.000000	100.583014
1410.000000	100.584388
1409.000000	100.588581
1408.000000	100.592731
1407.000000	100.593854
1406.000000	100.593105
1405.000000	100.596292
1404.000000	100.608765
1403.000000	100.628957
1402.000000	100.650161
1401.000000	100.667170
1400.000000	100.679011
1399.000000	100.687874
1398.000000	100.694876
1397.000000	100.697674
1396.000000	100.694000
1395.000000	100.687504
1394.000000	100.687399
1393.000000	100.698933
1392.000000	100.718679
1391.000000	100.738751
1390.000000	100.753012
1389.000000	100.759855
1388.000000	100.760665
1387.000000	100.757667
1386.000000	100.753997
1385.000000	100.753526
1384.000000	100.758489
1383.000000	100.767145
1382.000000	100.775179
1381.000000	100.780367
1380.000000	100.784570
1379.000000	100.791273
1378.000000	100.802338
1377.000000	100.817218
1376.000000	100.833967
1375.000000	100.850470
1374.000000	100.865716
1373.000000	100.880293
1372.000000	100.895730
1371.000000	100.913278
1370.000000	100.933131
1369.000000	100.954477
1368.000000	100.976286
1367.000000	100.996998
1366.000000	101.014506
1365.000000	101.026890
1364.000000	101.033058
1363.000000	101.034065
1362.000000	101.033859
1361.000000	101.036558
1360.000000	101.042860
1359.000000	101.049780
1358.000000	101.053797
1357.000000	101.054744
1356.000000	101.056418
1355.000000	101.062690
1354.000000	101.073458
1353.000000	101.084756
1352.000000	101.091716
1351.000000	101.091271
1350.000000	101.084321
1349.000000	101.075874
1348.000000	101.072490
1347.000000	101.077488
1346.000000	101.088451
1345.000000	101.099262
1344.000000	101.104542
1343.000000	101.102426
1342.000000	101.094678
1341.000000	101.085601
1340.000000	101.080085
1339.000000	101.080200
1338.000000	101.083437
1337.000000	101.086275
1336.000000	101.088343
1335.000000	101.091525
1334.000000	101.096493
1333.000000	101.101446
1332.000000	101.103710
1331.000000	101.101712
1330.000000	101.095802
1329.000000	101.088190
1328.000000	101.082223
1327.000000	101.080595
1326.000000	101.083407
1325.000000	101.087956
1324.000000	101.090999
1323.000000	101.091129
1322.000000	101.089404
1321.000000	101.088273
1320.000000	101.089585
1319.000000	101.092784
1318.000000	101.095180
1317.000000	101.094788
1316.000000	101.092410
1315.000000	101.090206
1314.000000	101.088900
1313.000000	101.087439
1312.000000	101.085176
1311.000000	101.083225
1310.000000	101.083321
1309.000000	101.085948
1308.000000	101.089740
1307.000000	101.092485
1306.000000	101.093077
1305.000000	101.092373
1304.000000	101.091846
1303.000000	101.091475
1302.000000	101.090394
1301.000000	101.089699
1300.000000	101.092097
1299.000000	101.097320
1298.000000	101.100459
1297.000000	101.097574
1296.000000	101.091214
1295.000000	101.087503
1294.000000	101.088290
1293.000000	101.089656
1292.000000	101.087987
1291.000000	101.083698
1290.000000	101.078287
1289.000000	101.071040
1288.000000	101.060541
1287.000000	101.047516
1286.000000	101.034594
1285.000000	101.024319
1284.000000	101.017747
1283.000000	101.013267
1282.000000	101.006617
1281.000000	100.994618
1280.000000	100.979821
1279.000000	100.969196
1278.000000	100.966791
1277.000000	100.969577
1276.000000	100.971517
1275.000000	100.969772
1274.000000	100.965621
1273.000000	100.961369
1272.000000	100.958099
1271.000000	100.955059
1270.000000	100.950168
1269.000000	100.942645
1268.000000	100.935412
1267.000000	100.932088
1266.000000	100.930810
1265.000000	100.925027
1264.000000	100.912608
1263.000000	100.900217
1262.000000	100.895034
1261.000000	100.895055
1260.000000	100.892019
1259.000000	100.882378
1258.000000	100.870970
1257.000000	100.864409
1256.000000	100.864373
1255.000000	100.866937
1254.000000	100.865367
1253.000000	100.853979
1252.000000	100.832351
1251.000000	100.806744
1250.000000	100.785511
1249.000000	100.772315
1248.000000	100.764431
1247.000000	100.756529
1246.000000	100.744655
1245.000000	100.728064
1244.000000	100.709480
1243.000000	100.693040
1242.000000	100.680096
1241.000000	100.667787
1240.000000	100.653294
1239.000000	100.638005
1238.000000	100.625042
1237.000000	100.613599
1236.000000	100.598726
1235.000000	100.576833
1234.000000	100.548972
1233.000000	100.518234
1232.000000	100.486304
1231.000000	100.453631
1230.000000	100.421217
1229.000000	100.390280
1228.000000	100.359799
1227.000000	100.325213
1226.000000	100.280954
1225.000000	100.225567
1224.000000	100.164015
1223.000000	100.103375
1222.000000	100.045891
1221.000000	99.987975
1220.000000	99.925882
1219.000000	99.859422
1218.000000	99.789369
1217.000000	99.714577
1216.000000	99.633900
1215.000000	99.548260
1214.000000	99.458160
1213.000000	99.361646
1212.000000	99.258091
1211.000000	99.152338
1210.000000	99.051402
1209.000000	98.957574
1208.000000	98.867591
1207.000000	98.777397
1206.000000	98.684832
1205.000000	98.588614
1204.000000	98.487976
1203.000000	98.384264
1202.000000	98.281175
1201.000000	98.182052
1200.000000	98.087106
1199.000000	97.993716
1198.000000	97.899863
1197.000000	97.807271
1196.000000	97.719605
1195.000000	97.636388
1194.000000	97.550561
1193.000000	97.454525
1192.000000	97.347469
1191.000000	97.234602
1190.000000	97.120996
1189.000000	97.009378
1188.000000	96.902212
1187.000000	96.801028
1186.000000	96.703385
1185.000000	96.604262
1184.000000	96.500547
1183.000000	96.391282
1182.000000	96.275020
1181.000000	96.151313
1180.000000	96.023782
1179.000000	95.896699
1178.000000	95.768293
1177.000000	95.631646
1176.000000	95.482298
1175.000000	95.321770
1174.000000	95.155288
1173.000000	94.990153
1172.000000	94.833750
1171.000000	94.686551
1170.000000	94.538120
1169.000000	94.376663
1168.000000	94.202388
1167.000000	94.026762
1166.000000	93.862445
1165.000000	93.722276
1164.000000	93.624240
1163.000000	93.584077
1162.000000	93.600018
1161.000000	93.652283
1160.000000	93.718102
1159.000000	93.780201
1158.000000	93.823899
1157.000000	93.838675
1156.000000	93.824455
1155.000000	93.787644
1154.000000	93.730045
1153.000000	93.649240
1152.000000	93.549168
1151.000000	93.440930
1150.000000	93.332224
1149.000000	93.224234
1148.000000	93.118421
1147.000000	93.015911
1146.000000	92.909326
1145.000000	92.786412
1144.000000	92.644948
1143.000000	92.496197
1142.000000	92.352631
1141.000000	92.220382
1140.000000	92.102842
1139.000000	91.999515
1138.000000	91.899008
1137.000000	91.784686
1136.000000	91.651346
1135.000000	91.508707
1134.000000	91.367595
1133.000000	91.231148
1132.000000	91.099155
1131.000000	90.969779
1130.000000	90.835967
1129.000000	90.691551
1128.000000	90.542760
1127.000000	90.403548
1126.000000	90.278332
1125.000000	90.159023
1124.000000	90.038342
1123.000000	89.914351
1122.000000	89.783196
1121.000000	89.641476
1120.000000	89.496672
1119.000000	89.361249
1118.000000	89.234415
1117.000000	89.102757
1116.000000	88.959668
1115.000000	88.810967
1114.000000	88.661598
1113.000000	88.511816
1112.000000	88.367645
1111.000000	88.238792
1110.000000	88.122913
1109.000000	88.006213
1108.000000	87.881384
1107.000000	87.750496
1106.000000	87.610792
1105.000000	87.455507
1104.000000	87.290183
1103.000000	87.129926
1102.000000	86.978230
1101.000000	86.826139
1100.000000	86.673027
1099.000000	86.527779
1098.000000	86.388004
1097.000000	86.239671
1096.000000	86.080986
1095.000000	85.925314
1094.000000	85.776797
1093.000000	85.624985
1092.000000	85.468083
1091.000000	85.319347
1090.000000	85.185356
1089.000000	85.059976
1088.000000	84.944176
1087.000000	84.847843
1086.000000	84.765651
1085.000000	84.675396
1084.000000	84.569102
1083.000000	84.463903
1082.000000	84.373842
1081.000000	84.291683
1080.000000	84.206938
1079.000000	84.121440
1078.000000	84.038638
1077.000000	83.955915
1076.000000	83.874056
1075.000000	83.796229
1074.000000	83.713151
1073.000000	83.608340
1072.000000	83.480453
1071.000000	83.340184
1070.000000	83.183982
1069.000000	82.994061
1068.000000	82.767793
1067.000000	82.523800
1066.000000	82.274147
1065.000000	82.013464
1064.000000	81.741061
1063.000000	81.468785
1062.000000	81.200147
1061.000000	80.925606
1060.000000	80.645533
1059.000000	80.374372
1058.000000	80.115906
1057.000000	79.858561
1056.000000	79.600874
1055.000000	79.356157
1054.000000	79.125680
1053.000000	78.893840
1052.000000	78.658167
1051.000000	78.436120
1050.000000	78.232001
1049.000000	78.027557
1048.000000	77.815315
1047.000000	77.608772
1046.000000	77.411720
1045.000000	77.209789
1044.000000	76.998132
1043.000000	76.786110
1042.000000	76.568741
1041.000000	76.326110
1040.000000	76.061775
1039.000000	75.810966
1038.000000	75.597285
1037.000000	75.408417
1036.000000	75.224437
1035.000000	75.041867
1034.000000	74.859500
1033.000000	74.671042
1032.000000	74.485845
1031.000000	74.328951
1030.000000	74.206566
1029.000000	74.096053
1028.000000	73.980831
1027.000000	73.869479
1026.000000	73.769960
1025.000000	73.673825
1024.000000	73.579052
1023.000000	73.500934
1022.000000	73.444830
1021.000000	73.390927
1020.000000	73.319091
1019.000000	73.228879
1018.000000	73.126707
1017.000000	73.015851
1016.000000	72.906637
1015.000000	72.812104
1014.000000	72.724904
1013.000000	72.621982
1012.000000	72.499913
1011.000000	72.382130
1010.000000	72.285083
1009.000000	72.202128
1008.000000	72.126141
1007.000000	72.060921
1006.000000	72.002865
1005.000000	71.938278
1004.000000	71.867849
1003.000000	71.809275
1002.000000	71.768285
1001.000000	71.731750
1000.000000	71.695537
999.000000	71.673076
998.000000	71.668994
997.000000	71.669937
996.000000	71.669072
995.000000	71.674935
994.000000	71.689351
993.000000	71.701936
992.000000	71.713066
991.000000	71.737270
990.000000	71.776962
989.000000	71.817490
988.000000	71.854638
987.000000	71.902747
986.000000	71.969859
985.000000	72.049291
984.000000	72.140838
983.000000	72.255117
982.000000	72.390894
981.000000	72.532924
980.000000	72.678308
979.000000	72.840850
978.000000	73.024338
977.000000	73.216584
976.000000	73.415520
975.000000	73.636148
974.000000	73.884349
973.000000	74.146883
972.000000	74.413687
971.000000	74.688638
970.000000	74.973439
969.000000	75.262622
968.000000	75.558761
967.000000	75.870616
966.000000	76.191917
965.000000	76.503673
964.000000	76.801698
963.000000	77.101123
962.000000	77.410390
961.000000	77.721358
960.000000	78.027400
959.000000	78.329490
958.000000	78.621279
957.000000	78.889840
956.000000	79.135528
955.000000	79.372004
954.000000	79.604584
953.000000	79.828360
952.000000	80.048048
951.000000	80.275731
950.000000	80.504818
949.000000	80.709609
948.000000	80.877301
947.000000	81.021136
946.000000	81.157982
945.000000	81.292488
944.000000	81.427915
943.000000	81.571154
942.000000	81.718968
941.000000	81.856488
940.000000	81.975513
939.000000	82.080016
938.000000	82.173342
937.000000	82.258620
936.000000	82.351992
935.000000	82.472228
934.000000	82.612417
933.000000	82.743978
932.000000	82.854433
931.000000	82.960559
930.000000	83.079356
929.000000	83.207850
928.000000	83.338275
927.000000	83.470448
926.000000	83.599357
925.000000	83.711122
924.000000	83.803128
923.000000	83.891794
922.000000	83.989767
921.000000	84.089292
920.000000	84.176376
919.000000	84.247682
918.000000	84.306924
917.000000	84.359073
916.000000	84.415321
915.000000	84.490620
914.000000	84.589571
913.000000	84.705281
912.000000	84.834488
911.000000	84.981257
910.000000	85.146006
909.000000	85.327218
908.000000	85.534082
907.000000	85.778691
906.000000	86.054262
905.000000	86.339831
904.000000	86.629051
903.000000	86.934977
902.000000	87.263142
901.000000	87.599555
900.000000	87.929255
899.000000	88.248647
898.000000	88.555796
897.000000	88.846799
896.000000	89.127222
895.000000	89.410756
894.000000	89.700408
893.000000	89.983864
892.000000	90.250467
891.000000	90.499896
890.000000	90.733719
889.000000	90.954228
888.000000	91.173314
887.000000	91.405365
886.000000	91.646235
885.000000	91.873347
884.000000	92.071170
883.000000	92.245793
882.000000	92.415670
881.000000	92.602565
880.000000	92.828534
879.000000	93.099672
878.000000	93.388948
877.000000	93.656293
876.000000	93.891469
875.000000	94.119164
874.000000	94.360578
873.000000	94.612206
872.000000	94.866195
871.000000	95.126401
870.000000	95.394213
869.000000	95.658366
868.000000	95.909335
867.000000	96.148937
866.000000	96.379663
865.000000	96.600643
864.000000	96.819839
863.000000	97.051965
862.000000	97.294350
861.000000	97.521372
860.000000	97.715226
859.000000	97.889235
858.000000	98.069214
857.000000	98.263001
856.000000	98.460612
855.000000	98.652732
854.000000	98.833631
853.000000	98.993578
852.000000	99.124474
851.000000	99.231752
850.000000	99.329727
849.000000	99.426042
848.000000	99.518689
847.000000	99.604531
846.000000	99.680695
845.000000	99.739672
844.000000	99.772748
843.000000	99.779623
842.000000	99.769848
841.000000	99.754662
840.000000	99.739001
839.000000	99.716445
838.000000	99.667912
837.000000	99.573565
836.000000	99.437011
835.000000	99.296049
834.000000	99.198470
833.000000	99.162614
832.000000	99.164537
831.000000	99.162982
830.000000	99.135078
829.000000	99.092275
828.000000	99.068474
827.000000	99.092879
826.000000	99.167059
825.000000	99.262033
824.000000	99.336880
823.000000	99.364287
822.000000	99.345678
821.000000	99.306355
820.000000	99.274354
819.000000	99.259555
818.000000	99.248570
817.000000	99.214700
816.000000	99.128391
815.000000	98.962682
814.000000	98.704164
813.000000	98.367512
812.000000	97.988900
811.000000	97.590426
810.000000	97.152175
809.000000	96.630497
808.000000	96.002244
807.000000	95.281556
806.000000	94.500501
805.000000	93.692771
804.000000	92.896800
803.000000	92.150945
802.000000	91.473771
801.000000	90.864834
800.000000	90.332744
799.000000	89.905564
798.000000	89.606959
797.000000	89.439801
796.000000	89.396239
795.000000	89.459887
794.000000	89.590912
793.000000	89.734145
792.000000	89.855881
791.000000	89.957483
790.000000	90.046440
789.000000	90.111994
788.000000	90.135164
787.000000	90.101852
786.000000	89.995505
785.000000	89.796984
784.000000	89.509838
783.000000	89.175888
782.000000	88.851945
781.000000	88.577265
780.000000	88.369087
779.000000	88.234057
778.000000	88.170956
777.000000	88.173529
776.000000	88.242931
775.000000	88.390323
774.000000	88.620027
773.000000	88.916788
772.000000	89.252016
771.000000	89.593460
770.000000	89.909432
769.000000	90.178929
768.000000	90.404384
767.000000	90.606049
766.000000	90.799146
765.000000	90.981701
764.000000	91.144123
763.000000	91.281326
762.000000	91.395455
761.000000	91.497704
760.000000	91.608650
759.000000	91.744972
758.000000	91.901859
757.000000	92.056915
756.000000	92.193145
755.000000	92.310756
754.000000	92.418932
753.000000	92.528373
752.000000	92.652434
751.000000	92.801984
750.000000	92.973588
