4000.000000	101.516521
3999.000000	101.510777
3998.000000	101.502190
3997.000000	101.493535
3996.000000	101.486884
3995.000000	101.482761
3994.000000	101.480565
3993.000000	101.479376
3992.000000	101.478392
3991.000000	101.476968
3990.000000	101.474961
3989.000000	101.473194
3988.000000	101.473064
3987.000000	101.475353
3986.000000	101.479520
3985.000000	101.484013
3984.000000	101.487170
3983.000000	101.487868
3982.000000	101.485569
3981.000000	101.480341
3980.000000	101.473081
3979.000000	101.465509
3978.000000	101.459579
3977.000000	101.456581
3976.000000	101.456500
3975.000000	101.458038
3974.000000	101.459207
3973.000000	101.458449
3972.000000	101.455779
3971.000000	101.452851
3970.000000	101.451634
3969.000000	101.452619
3968.000000	101.454354
3967.000000	101.454676
3966.000000	101.452541
3965.000000	101.448911
3964.000000	101.446013
3963.000000	101.445667
3962.000000	101.447994
3961.000000	101.451497
3960.000000	101.454256
3959.000000	101.455246
3958.000000	101.454745
3957.000000	101.453862
3956.000000	101.453784
3955.000000	101.455111
3954.000000	101.457607
3953.000000	101.460363
3952.000000	101.462252
3951.000000	101.462563
3950.000000	101.461392
3949.000000	101.459481
3948.000000	101.457497
3947.000000	101.455571
3946.000000	101.453637
3945.000000	101.451916
3944.000000	101.450797
3943.000000	101.450407
3942.000000	101.450527
3941.000000	101.450912
3940.000000	101.451498
3939.000000	101.452226
3938.000000	101.452854
3937.000000	101.453187
3936.000000	101.453472
3935.000000	101.454264
3934.000000	101.455773
3933.000000	101.457356
3932.000000	101.457890
3931.000000	101.456906
3930.000000	101.454943
3929.000000	101.453113
3928.000000	101.452206
3927.000000	101.452282
3926.000000	101.452852
3925.000000	101.453194
3924.000000	101.452957
3923.000000	101.452407
3922.000000	101.452051
3921.000000	101.452081
3920.000000	101.452284
3919.000000	101.452380
3918.000000	101.452319
3917.000000	101.452188
3916.000000	101.451974
3915.000000	101.451613
3914.000000	101.451186
3913.000000	101.450949
3912.000000	101.451142
3911.000000	101.451797
3910.000000	101.452719
3909.000000	101.453648
3908.000000	101.454402
3907.000000	101.454917
3906.000000	101.455242
3905.000000	101.455524
3904.000000	101.455977
3903.000000	101.456789
3902.000000	101.457997
3901.000000	101.459426
3900.000000	101.460707
3899.000000	101.461526
3898.000000	101.461843
3897.000000	101.461955
3896.000000	101.462200
3895.000000	101.462643
3894.000000	101.463127
3893.000000	101.463672
3892.000000	101.464612
3891.000000	101.466114
3890.000000	101.467826
3889.000000	101.469261
3888.000000	101.470481
3887.000000	101.472023
3886.000000	101.473920
3885.000000	101.475409
3884.000000	101.475868
3883.000000	101.475452
3882.000000	101.474970
3881.000000	101.475292
3880.000000	101.476681
3879.000000	101.478643
3878.000000	101.480360
3877.000000	101.481518
3876.000000	101.482534
3875.000000	101.483833
3874.000000	101.485302
3873.000000	101.486757
3872.000000	101.488600
3871.000000	101.491224
3870.000000	101.493559
3869.000000	101.493872
3868.000000	101.491876
3867.000000	101.488966
3866.000000	101.486807
3865.000000	101.485891
3864.000000	101.485980
3863.000000	101.487076
3862.000000	101.489144
3861.000000	101.491629
3860.000000	101.493867
3859.000000	101.495519
3858.000000	101.496403
3857.000000	101.496300
3856.000000	101.495807
3855.000000	101.496014
3854.000000	101.496077
3853.000000	101.494639
3852.000000	101.492625
3851.000000	101.491570
3850.000000	101.491755
3849.000000	101.492480
3848.000000	101.492990
3847.000000	101.493211
3846.000000	101.493525
3845.000000	101.494211
3844.000000	101.495128
3843.000000	101.495869
3842.000000	101.496194
3841.000000	101.496279
3840.000000	101.496475
3839.000000	101.496906
3838.000000	101.497350
3837.000000	101.497469
3836.000000	101.497173
3835.000000	101.496655
3834.000000	101.496240
3833.000000	101.496159
3832.000000	101.496379
3831.000000	101.496683
3830.000000	101.496893
3829.000000	101.497021
3828.000000	101.497172
3827.000000	101.497394
3826.000000	101.497667
3825.000000	101.497951
3824.000000	101.498224
3823.000000	101.498481
3822.000000	101.498722
3821.000000	101.498948
3820.000000	101.499164
3819.000000	101.499372
3818.000000	101.499575
3817.000000	101.499769
3816.000000	101.499938
3815.000000	101.500062
3814.000000	101.500133
3813.000000	101.500156
3812.000000	101.500134
3811.000000	101.500064
3810.000000	101.499943
3809.000000	101.499770
3808.000000	101.499558
3807.000000	101.499318
3806.000000	101.499042
3805.000000	101.498707
3804.000000	101.498293
3803.000000	101.497804
3802.000000	101.497258
3801.000000	101.496676
3800.000000	101.496068
3799.000000	101.495432
3798.000000	101.494762
3797.000000	101.494060
3796.000000	101.493336
3795.000000	101.492606
3794.000000	101.491881
3793.000000	101.491158
3792.000000	101.490429
3791.000000	101.489681
3790.000000	101.488925
3789.000000	101.488190
3788.000000	101.487479
3787.000000	101.486714
3786.000000	101.485781
3785.000000	101.484631
3784.000000	101.483298
3783.000000	101.481894
3782.000000	101.480582
3781.000000	101.479596
3780.000000	101.479087
3779.000000	101.478766
3778.000000	101.477959
3777.000000	101.476242
3776.000000	101.473867
3775.000000	101.471227
3774.000000	101.468221
3773.000000	101.464896
3772.000000	101.462540
3771.000000	101.462740
3770.000000	101.464619
3769.000000	101.464309
3768.000000	101.458546
3767.000000	101.448500
3766.000000	101.439467
3765.000000	101.435703
3764.000000	101.436454
3763.000000	101.438188
3762.000000	101.438901
3761.000000	101.438323
3760.000000	101.436321
3759.000000	101.433883
3758.000000	101.433108
3757.000000	101.434196
3756.000000	101.435437
3755.000000	101.436009
3754.000000	101.436642
3753.000000	101.436568
3752.000000	101.432932
3751.000000	101.427591
3750.000000	101.426094
3749.000000	101.425856
3748.000000	101.416577
3747.000000	101.394561
3746.000000	101.373335
3745.000000	101.367790
3744.000000	101.373754
3743.000000	101.382704
3742.000000	101.394615
3741.000000	101.408781
3740.000000	101.417895
3739.000000	101.414495
3738.000000	101.401186
3737.000000	101.386192
3736.000000	101.370935
3735.000000	101.352277
3734.000000	101.333171
3733.000000	101.321087
3732.000000	101.317555
3731.000000	101.316586
3730.000000	101.312568
3729.000000	101.305515
3728.000000	101.298606
3727.000000	101.291486
3726.000000	101.280016
3725.000000	101.263187
3724.000000	101.244501
3723.000000	101.227573
3722.000000	101.212949
3721.000000	101.198298
3720.000000	101.180061
3719.000000	101.156222
3718.000000	101.128327
3717.000000	101.099835
3716.000000	101.073481
3715.000000	101.050070
3714.000000	101.027590
3713.000000	101.000748
3712.000000	100.965598
3711.000000	100.926473
3710.000000	100.891500
3709.000000	100.863079
3708.000000	100.837940
3707.000000	100.811624
3706.000000	100.781680
3705.000000	100.749494
3704.000000	100.719926
3703.000000	100.697928
3702.000000	100.684253
3701.000000	100.673995
3700.000000	100.660843
3699.000000	100.643706
3698.000000	100.627796
3697.000000	100.618521
3696.000000	100.616946
3695.000000	100.622494
3694.000000	100.635440
3693.000000	100.654425
3692.000000	100.673165
3691.000000	100.682843
3690.000000	100.679707
3689.000000	100.666789
3688.000000	100.648476
3687.000000	100.628868
3686.000000	100.613287
3685.000000	100.604882
3684.000000	100.600803
3683.000000	100.594632
3682.000000	100.584198
3681.000000	100.572524
3680.000000	100.559317
3679.000000	100.537489
3678.000000	100.503448
3677.000000	100.465642
3676.000000	100.435332
3675.000000	100.415986
3674.000000	100.402262
3673.000000	100.385257
3672.000000	100.361792
3671.000000	100.333287
3670.000000	100.300234
3669.000000	100.266124
3668.000000	100.235801
3667.000000	100.209273
3666.000000	100.183881
3665.000000	100.158616
3664.000000	100.135196
3663.000000	100.116062
3662.000000	100.101551
3661.000000	100.087956
3660.000000	100.070056
3659.000000	100.046532
3658.000000	100.022345
3657.000000	100.002798
3656.000000	99.985562
3655.000000	99.963259
3654.000000	99.932507
3653.000000	99.898537
3652.000000	99.870942
3651.000000	99.851778
3650.000000	99.832801
3649.000000	99.810173
3648.000000	99.789328
3647.000000	99.774663
3646.000000	99.764618
3645.000000	99.754868
3644.000000	99.742354
3643.000000	99.726673
3642.000000	99.709577
3641.000000	99.693256
3640.000000	99.677961
3639.000000	99.659933
3638.000000	99.634522
3637.000000	99.603680
3636.000000	99.577835
3635.000000	99.566055
3634.000000	99.563725
3633.000000	99.555112
3632.000000	99.529604
3631.000000	99.493926
3630.000000	99.462070
3629.000000	99.437481
3628.000000	99.416525
3627.000000	99.398178
3626.000000	99.384508
3625.000000	99.377757
3624.000000	99.377341
3623.000000	99.380391
3622.000000	99.385273
3621.000000	99.392041
3620.000000	99.400201
3619.000000	99.409245
3618.000000	99.419517
3617.000000	99.430729
3616.000000	99.443573
3615.000000	99.461648
3614.000000	99.487115
3613.000000	99.515168
3612.000000	99.535985
3611.000000	99.544189
3610.000000	99.545024
3609.000000	99.549265
3608.000000	99.563020
3607.000000	99.583050
3606.000000	99.601846
3605.000000	99.615840
3604.000000	99.627699
3603.000000	99.641374
3602.000000	99.656403
3601.000000	99.667303
3600.000000	99.669528
3599.000000	99.664938
3598.000000	99.660294
3597.000000	99.661713
3596.000000	99.671461
3595.000000	99.688019
3594.000000	99.706750
3593.000000	99.721292
3592.000000	99.726304
3591.000000	99.720994
3590.000000	99.709871
3589.000000	99.698568
3588.000000	99.690798
3587.000000	99.689985
3586.000000	99.698141
3585.000000	99.712049
3584.000000	99.724644
3583.000000	99.730173
3582.000000	99.728054
3581.000000	99.722737
3580.000000	99.719706
3579.000000	99.721240
3578.000000	99.725627
3577.000000	99.729847
3576.000000	99.732184
3575.000000	99.732689
3574.000000	99.731986
3573.000000	99.730212
3572.000000	99.727077
3571.000000	99.722933
3570.000000	99.719454
3569.000000	99.717611
3568.000000	99.715453
3567.000000	99.711387
3566.000000	99.707803
3565.000000	99.707798
3564.000000	99.711133
3563.000000	99.714966
3562.000000	99.716880
3561.000000	99.716878
3560.000000	99.716544
3559.000000	99.716762
3558.000000	99.716787
3557.000000	99.715320
3556.000000	99.711680
3555.000000	99.705834
3554.000000	99.698191
3553.000000	99.689749
3552.000000	99.681790
3551.000000	99.674918
3550.000000	99.669000
3549.000000	99.664105
3548.000000	99.660487
3547.000000	99.657473
3546.000000	99.653359
3545.000000	99.647332
3544.000000	99.641363
3543.000000	99.638984
3542.000000	99.641586
3541.000000	99.646553
3540.000000	99.649475
3539.000000	99.648304
3538.000000	99.644744
3537.000000	99.641563
3536.000000	99.639524
3535.000000	99.637541
3534.000000	99.635082
3533.000000	99.633104
3532.000000	99.632537
3531.000000	99.633007
3530.000000	99.633377
3529.000000	99.632857
3528.000000	99.631172
3527.000000	99.628267
3526.000000	99.624600
3525.000000	99.621396
3524.000000	99.619814
3523.000000	99.619766
3522.000000	99.619933
3521.000000	99.619063
3520.000000	99.617067
3519.000000	99.614664
3518.000000	99.612395
3517.000000	99.610205
3516.000000	99.607815
3515.000000	99.605142
3514.000000	99.602378
3513.000000	99.599912
3512.000000	99.598227
3511.000000	99.597653
3510.000000	99.598015
3509.000000	99.598490
3508.000000	99.598129
3507.000000	99.596645
3506.000000	99.594549
3505.000000	99.592473
3504.000000	99.590357
3503.000000	99.587683
3502.000000	99.584381
3501.000000	99.581125
3500.000000	99.578670
3499.000000	99.577115
3498.000000	99.575960
3497.000000	99.574681
3496.000000	99.573218
3495.000000	99.571697
3494.000000	99.569971
3493.000000	99.567751
3492.000000	99.565121
3491.000000	99.562602
3490.000000	99.560593
3489.000000	99.558897
3488.000000	99.556933
3487.000000	99.554389
3486.000000	99.551510
3485.000000	99.548790
3484.000000	99.546475
3483.000000	99.544439
3482.000000	99.542416
3481.000000	99.540211
3480.000000	99.537713
3479.000000	99.534816
3478.000000	99.531515
3477.000000	99.528035
3476.000000	99.524705
3475.000000	99.521676
3474.000000	99.518866
3473.000000	99.516143
3472.000000	99.513490
3471.000000	99.510947
3470.000000	99.508460
3469.000000	99.505870
3468.000000	99.503037
3467.000000	99.499956
3466.000000	99.496767
3465.000000	99.493694
3464.000000	99.490883
3463.000000	99.488323
3462.000000	99.485876
3461.000000	99.483380
3460.000000	99.480776
3459.000000	99.478103
3458.000000	99.475410
3457.000000	99.472717
3456.000000	99.470039
3455.000000	99.467383
3454.000000	99.464714
3453.000000	99.461996
3452.000000	99.459298
3451.000000	99.456789
3450.000000	99.454543
3449.000000	99.452393
3448.000000	99.450057
3447.000000	99.447395
3446.000000	99.444480
3445.000000	99.441469
3444.000000	99.438496
3443.000000	99.435678
3442.000000	99.433161
3441.000000	99.430994
3440.000000	99.428985
3439.000000	99.426801
3438.000000	99.424270
3437.000000	99.421573
3436.000000	99.419106
3435.000000	99.417105
3434.000000	99.415425
3433.000000	99.413671
3432.000000	99.411643
3431.000000	99.409562
3430.000000	99.407798
3429.000000	99.406369
3428.000000	99.404856
3427.000000	99.402868
3426.000000	99.400369
3425.000000	99.397574
3424.000000	99.394788
3423.000000	99.392373
3422.000000	99.390562
3421.000000	99.389069
3420.000000	99.387128
3419.000000	99.384229
3418.000000	99.380717
3417.000000	99.377521
3416.000000	99.375124
3415.000000	99.373102
3414.000000	99.370740
3413.000000	99.368010
3412.000000	99.365716
3411.000000	99.364575
3410.000000	99.364358
3409.000000	99.363955
3408.000000	99.362357
3407.000000	99.359547
3406.000000	99.356407
3405.000000	99.353852
3404.000000	99.352002
3403.000000	99.350243
3402.000000	99.348094
3401.000000	99.345906
3400.000000	99.344664
3399.000000	99.344997
3398.000000	99.346386
3397.000000	99.347357
3396.000000	99.346778
3395.000000	99.344757
3394.000000	99.342278
3393.000000	99.340187
3392.000000	99.338667
3391.000000	99.337668
3390.000000	99.337368
3389.000000	99.337869
3388.000000	99.338804
3387.000000	99.339603
3386.000000	99.339994
3385.000000	99.340048
3384.000000	99.339887
3383.000000	99.339588
3382.000000	99.339271
3381.000000	99.339031
3380.000000	99.338777
3379.000000	99.338307
3378.000000	99.337618
3377.000000	99.337048
3376.000000	99.337030
3375.000000	99.337700
3374.000000	99.338813
3373.000000	99.339928
3372.000000	99.340723
3371.000000	99.341186
3370.000000	99.341528
3369.000000	99.341967
3368.000000	99.342519
3367.000000	99.343025
3366.000000	99.343361
3365.000000	99.343586
3364.000000	99.343872
3363.000000	99.344345
3362.000000	99.344974
3361.000000	99.345668
3360.000000	99.346327
3359.000000	99.346907
3358.000000	99.347418
3357.000000	99.347891
3356.000000	99.348357
3355.000000	99.348827
3354.000000	99.349304
3353.000000	99.349788
3352.000000	99.350281
3351.000000	99.350786
3350.000000	99.351295
3349.000000	99.351798
3348.000000	99.352293
3347.000000	99.352777
3346.000000	99.353254
3345.000000	99.353727
3344.000000	99.354218
3343.000000	99.354774
3342.000000	99.355440
3341.000000	99.356215
3340.000000	99.357050
3339.000000	99.357885
3338.000000	99.358688
3337.000000	99.359460
3336.000000	99.360218
3335.000000	99.360980
3334.000000	99.361750
3333.000000	99.362544
3332.000000	99.363407
3331.000000	99.364379
3330.000000	99.365446
3329.000000	99.366503
3328.000000	99.367447
3327.000000	99.368300
3326.000000	99.369212
3325.000000	99.370278
3324.000000	99.371445
3323.000000	99.372651
3322.000000	99.373949
3321.000000	99.375354
3320.000000	99.376583
3319.000000	99.377239
3318.000000	99.377324
3317.000000	99.377304
3316.000000	99.377699
3315.000000	99.378659
3314.000000	99.380019
3313.000000	99.381598
3312.000000	99.383242
3311.000000	99.384801
3310.000000	99.386223
3309.000000	99.387622
3308.000000	99.389152
3307.000000	99.390843
3306.000000	99.392643
3305.000000	99.394554
3304.000000	99.396591
3303.000000	99.398589
3302.000000	99.400219
3301.000000	99.401272
3300.000000	99.401912
3299.000000	99.402630
3298.000000	99.403813
3297.000000	99.405295
3296.000000	99.406475
3295.000000	99.407031
3294.000000	99.407464
3293.000000	99.408721
3292.000000	99.411274
3291.000000	99.414700
3290.000000	99.418159
3289.000000	99.421198
3288.000000	99.423799
3287.000000	99.425713
3286.000000	99.426189
3285.000000	99.424765
3284.000000	99.422252
3283.000000	99.420612
3282.000000	99.421343
3281.000000	99.424085
3280.000000	99.426893
3279.000000	99.428189
3278.000000	99.428371
3277.000000	99.429146
3276.000000	99.431494
3275.000000	99.434772
3274.000000	99.437838
3273.000000	99.440424
3272.000000	99.443087
3271.000000	99.446179
3270.000000	99.449298
3269.000000	99.451707
3268.000000	99.453064
3267.000000	99.453679
3266.000000	99.454157
3265.000000	99.454746
3264.000000	99.455038
3263.000000	99.454468
3262.000000	99.453136
3261.000000	99.451986
3260.000000	99.452064
3259.000000	99.453750
3258.000000	99.456762
3257.000000	99.460695
3256.000000	99.465378
3255.000000	99.470750
3254.000000	99.476480
3253.000000	99.481727
3252.000000	99.485493
3251.000000	99.487410
3250.000000	99.488136
3249.000000	99.488795
3248.000000	99.489924
3247.000000	99.491276
3246.000000	99.492609
3245.000000	99.494204
3244.000000	99.496475
3243.000000	99.499425
3242.000000	99.502699
3241.000000	99.505935
3240.000000	99.508920
3239.000000	99.511653
3238.000000	99.514460
3237.000000	99.517822
3236.000000	99.521739
3235.000000	99.525423
3234.000000	99.527982
3233.000000	99.529409
3232.000000	99.530755
3231.000000	99.533210
3230.000000	99.537162
3229.000000	99.542078
3228.000000	99.546864
3227.000000	99.550617
3226.000000	99.553195
3225.000000	99.555193
3224.000000	99.557403
3223.000000	99.560095
3222.000000	99.562984
3221.000000	99.565769
3220.000000	99.568492
3219.000000	99.571374
3218.000000	99.574508
3217.000000	99.577815
3216.000000	99.581162
3215.000000	99.584412
3214.000000	99.587485
3213.000000	99.590505
3212.000000	99.593803
3211.000000	99.597654
3210.000000	99.602010
3209.000000	99.606499
3208.000000	99.610669
3207.000000	99.614264
3206.000000	99.617389
3205.000000	99.620475
3204.000000	99.623864
3203.000000	99.627404
3202.000000	99.630640
3201.000000	99.633497
3200.000000	99.636571
3199.000000	99.640450
3198.000000	99.644960
3197.000000	99.649399
3196.000000	99.653455
3195.000000	99.657629
3194.000000	99.662562
3193.000000	99.668201
3192.000000	99.673811
3191.000000	99.678670
3190.000000	99.682694
3189.000000	99.686402
3188.000000	99.690474
3187.000000	99.695171
3186.000000	99.700254
3185.000000	99.705358
3184.000000	99.710310
3183.000000	99.715128
3182.000000	99.719839
3181.000000	99.724438
3180.000000	99.728961
3179.000000	99.733489
3178.000000	99.738085
3177.000000	99.742769
3176.000000	99.747535
3175.000000	99.752345
3174.000000	99.757136
3173.000000	99.761860
3172.000000	99.766550
3171.000000	99.771287
3170.000000	99.776110
3169.000000	99.780977
3168.000000	99.785803
3167.000000	99.790541
3166.000000	99.795210
3165.000000	99.799874
3164.000000	99.804613
3163.000000	99.809454
3162.000000	99.814363
3161.000000	99.819236
3160.000000	99.823972
3159.000000	99.828553
3158.000000	99.833072
3157.000000	99.837643
3156.000000	99.842252
3155.000000	99.846754
3154.000000	99.851028
3153.000000	99.855086
3152.000000	99.859099
3151.000000	99.863263
3150.000000	99.867657
3149.000000	99.872180
3148.000000	99.876640
3147.000000	99.880935
3146.000000	99.885116
3145.000000	99.889300
3144.000000	99.893553
3143.000000	99.897847
3142.000000	99.902154
3141.000000	99.906544
3140.000000	99.911197
3139.000000	99.916248
3138.000000	99.921607
3137.000000	99.926918
3136.000000	99.931764
3135.000000	99.935909
3134.000000	99.939379
3133.000000	99.942410
3132.000000	99.945417
3131.000000	99.948878
3130.000000	99.953006
3129.000000	99.957501
3128.000000	99.961744
3127.000000	99.965395
3126.000000	99.968769
3125.000000	99.972530
3124.000000	99.976986
3123.000000	99.981786
3122.000000	99.986288
3121.000000	99.990193
3120.000000	99.993764
3119.000000	99.997539
3118.000000	100.001855
3117.000000	100.006650
3116.000000	100.011585
3115.000000	100.016356
3114.000000	100.020862
3113.000000	100.025192
3112.000000	100.029533
3111.000000	100.034040
3110.000000	100.038694
3109.000000	100.043294
3108.000000	100.047638
3107.000000	100.051756
3106.000000	100.055840
3105.000000	100.060012
3104.000000	100.064219
3103.000000	100.068371
3102.000000	100.072491
3101.000000	100.076654
3100.000000	100.080870
3099.000000	100.085094
3098.000000	100.089301
3097.000000	100.093501
3096.000000	100.097702
3095.000000	100.101904
3094.000000	100.106107
3093.000000	100.110307
3092.000000	100.114506
3091.000000	100.118708
3090.000000	100.122917
3089.000000	100.127131
3088.000000	100.131342
3087.000000	100.135537
3086.000000	100.139701
3085.000000	100.143824
3084.000000	100.147901
3083.000000	100.151934
3082.000000	100.155925
3081.000000	100.159880
3080.000000	100.163810
3079.000000	100.167725
3078.000000	100.171632
3077.000000	100.175534
3076.000000	100.179429
3075.000000	100.183315
3074.000000	100.187194
3073.000000	100.191067
3072.000000	100.194921
3071.000000	100.198734
3070.000000	100.202490
3069.000000	100.206177
3068.000000	100.209786
3067.000000	100.213352
3066.000000	100.216964
3065.000000	100.220701
3064.000000	100.224556
3063.000000	100.228433
3062.000000	100.232276
3061.000000	100.236143
3060.000000	100.240108
3059.000000	100.244126
3058.000000	100.248036
3057.000000	100.251734
3056.000000	100.255291
3055.000000	100.258876
3054.000000	100.262598
3053.000000	100.266488
3052.000000	100.270526
3051.000000	100.274585
3050.000000	100.278376
3049.000000	100.281661
3048.000000	100.284512
3047.000000	100.287320
3046.000000	100.290464
3045.000000	100.294003
3044.000000	100.297671
3043.000000	100.301073
3042.000000	100.303962
3041.000000	100.306566
3040.000000	100.309652
3039.000000	100.313981
3038.000000	100.319562
3037.000000	100.325526
3036.000000	100.330941
3035.000000	100.335507
3034.000000	100.339242
3033.000000	100.341932
3032.000000	100.343445
3031.000000	100.344511
3030.000000	100.346482
3029.000000	100.350096
3028.000000	100.354822
3027.000000	100.359582
3026.000000	100.363895
3025.000000	100.368037
3024.000000	100.372294
3023.000000	100.376503
3022.000000	100.380421
3021.000000	100.384146
3020.000000	100.387850
3019.000000	100.391303
3018.000000	100.394063
3017.000000	100.396089
3016.000000	100.397724
3015.000000	100.398816
3014.000000	100.398570
3013.000000	100.396963
3012.000000	100.395834
3011.000000	100.397508
3010.000000	100.402352
3009.000000	100.408510
3008.000000	100.414141
3007.000000	100.419186
3006.000000	100.424626
3005.000000	100.430932
3004.000000	100.437835
3003.000000	100.444786
3002.000000	100.450783
3001.000000	100.454363
3000.000000	100.454843
2999.000000	100.453406
2998.000000	100.451955
2997.000000	100.450893
2996.000000	100.449089
2995.000000	100.446132
2994.000000	100.443548
2993.000000	100.443248
2992.000000	100.445602
2991.000000	100.449755
2990.000000	100.455043
2989.000000	100.461058
2988.000000	100.466521
2987.000000	100.469307
2986.000000	100.468188
2985.000000	100.464026
2984.000000	100.458768
2983.000000	100.453679
2982.000000	100.449268
2981.000000	100.446605
2980.000000	100.447312
2979.000000	100.451527
2978.000000	100.456716
2977.000000	100.459781
2976.000000	100.460564
2975.000000	100.462359
2974.000000	100.468601
2973.000000	100.479595
2972.000000	100.492361
2971.000000	100.503063
2970.000000	100.509566
2969.000000	100.512104
2968.000000	100.512324
2967.000000	100.511885
2966.000000	100.511584
2965.000000	100.511648
2964.000000	100.512533
2963.000000	100.514836
2962.000000	100.518501
2961.000000	100.522726
2960.000000	100.526900
2959.000000	100.531130
2958.000000	100.535436
2957.000000	100.538748
2956.000000	100.539280
2955.000000	100.536059
2954.000000	100.530193
2953.000000	100.524732
2952.000000	100.522950
2951.000000	100.526073
2950.000000	100.532261
2949.000000	100.537883
2948.000000	100.540249
2947.000000	100.539172
2946.000000	100.536137
2945.000000	100.532731
2944.000000	100.530170
2943.000000	100.529645
2942.000000	100.532149
2941.000000	100.537752
2940.000000	100.545435
2939.000000	100.553745
2938.000000	100.561627
2937.000000	100.568841
2936.000000	100.575861
2935.000000	100.583170
2934.000000	100.590320
2933.000000	100.595802
2932.000000	100.598317
2931.000000	100.598383
2930.000000	100.598533
2929.000000	100.601600
2928.000000	100.608443
2927.000000	100.617019
2926.000000	100.623675
2925.000000	100.626102
2924.000000	100.625246
2923.000000	100.624523
2922.000000	100.626862
2921.000000	100.632440
2920.000000	100.639234
2919.000000	100.645198
2918.000000	100.649818
2917.000000	100.653890
2916.000000	100.658351
2915.000000	100.663268
2914.000000	100.667614
2913.000000	100.670081
2912.000000	100.670371
2911.000000	100.669649
2910.000000	100.669510
2909.000000	100.670609
2908.000000	100.672679
2907.000000	100.675621
2906.000000	100.679897
2905.000000	100.685635
2904.000000	100.691868
2903.000000	100.697170
2902.000000	100.700859
2901.000000	100.703258
2900.000000	100.704978
2899.000000	100.706345
2898.000000	100.707604
2897.000000	100.709309
2896.000000	100.712033
2895.000000	100.715464
2894.000000	100.718107
2893.000000	100.718556
2892.000000	100.717272
2891.000000	100.716763
2890.000000	100.719221
2889.000000	100.724236
2888.000000	100.729256
2887.000000	100.732474
2886.000000	100.734513
2885.000000	100.736836
2884.000000	100.739399
2883.000000	100.740905
2882.000000	100.740975
2881.000000	100.740963
2880.000000	100.742379
2879.000000	100.745435
2878.000000	100.749419
2877.000000	100.753802
2876.000000	100.758415
2875.000000	100.762986
2874.000000	100.767262
2873.000000	100.771404
2872.000000	100.775700
2871.000000	100.779975
2870.000000	100.783775
2869.000000	100.787172
2868.000000	100.790924
2867.000000	100.795601
2866.000000	100.800802
2865.000000	100.805490
2864.000000	100.809020
2863.000000	100.811596
2862.000000	100.813951
2861.000000	100.816769
2860.000000	100.820245
2859.000000	100.823984
2858.000000	100.827284
2857.000000	100.829770
2856.000000	100.831826
2855.000000	100.834360
2854.000000	100.837995
2853.000000	100.842610
2852.000000	100.847586
2851.000000	100.852274
2850.000000	100.856295
2849.000000	100.859563
2848.000000	100.862207
2847.000000	100.864557
2846.000000	100.867042
2845.000000	100.869920
2844.000000	100.873222
2843.000000	100.876827
2842.000000	100.880563
2841.000000	100.884259
2840.000000	100.887791
2839.000000	100.891141
2838.000000	100.894388
2837.000000	100.897617
2836.000000	100.900870
2835.000000	100.904144
2834.000000	100.907425
2833.000000	100.910701
2832.000000	100.913966
2831.000000	100.917210
2830.000000	100.920420
2829.000000	100.923596
2828.000000	100.926751
2827.000000	100.929901
2826.000000	100.933044
2825.000000	100.936154
2824.000000	100.939199
2823.000000	100.942165
2822.000000	100.945072
2821.000000	100.947959
2820.000000	100.950878
2819.000000	100.953862
2818.000000	100.956906
2817.000000	100.959954
2816.000000	100.962957
2815.000000	100.965916
2814.000000	100.968878
2813.000000	100.971889
2812.000000	100.974974
2811.000000	100.978135
2810.000000	100.981322
2809.000000	100.984400
2808.000000	100.987216
2807.000000	100.989714
2806.000000	100.992067
2805.000000	100.994629
2804.000000	100.997623
2803.000000	101.000944
2802.000000	101.004231
2801.000000	101.007345
2800.000000	101.010543
2799.000000	101.014162
2798.000000	101.018183
2797.000000	101.022157
2796.000000	101.025606
2795.000000	101.028431
2794.000000	101.030955
2793.000000	101.033588
2792.000000	101.036432
2791.000000	101.039163
2790.000000	101.041330
2789.000000	101.042855
2788.000000	101.044251
2787.000000	101.046217
2786.000000	101.048994
2785.000000	101.052144
2784.000000	101.054933
2783.000000	101.056986
2782.000000	101.058579
2781.000000	101.060365
2780.000000	101.062748
2779.000000	101.065604
2778.000000	101.068765
2777.000000	101.072605
2776.000000	101.077624
2775.000000	101.083339
2774.000000	101.088136
2773.000000	101.090771
2772.000000	101.091690
2771.000000	101.092423
2770.000000	101.093777
2769.000000	101.095349
2768.000000	101.096871
2767.000000	101.099050
2766.000000	101.102617
2765.000000	101.107151
2764.000000	101.111438
2763.000000	101.114741
2762.000000	101.117189
2761.000000	101.119362
2760.000000	101.121788
2759.000000	101.124495
2758.000000	101.126830
2757.000000	101.128018
2756.000000	101.128173
2755.000000	101.128410
2754.000000	101.129513
2753.000000	101.130991
2752.000000	101.131980
2751.000000	101.132628
2750.000000	101.133916
2749.000000	101.136177
2748.000000	101.138484
2747.000000	101.139681
2746.000000	101.139660
2745.000000	101.139394
2744.000000	101.139964
2743.000000	101.141710
2742.000000	101.144262
2741.000000	101.147167
2740.000000	101.150315
2739.000000	101.153637
2738.000000	101.156546
2737.000000	101.158153
2736.000000	101.158367
2735.000000	101.158491
2734.000000	101.160217
2733.000000	101.163967
2732.000000	101.168579
2731.000000	101.172499
2730.000000	101.174939
2729.000000	101.175856
2728.000000	101.175470
2727.000000	101.174274
2726.000000	101.173216
2725.000000	101.173342
2724.000000	101.175093
2723.000000	101.177984
2722.000000	101.180899
2721.000000	101.182813
2720.000000	101.183483
2719.000000	101.183590
2718.000000	101.184093
2717.000000	101.185301
2716.000000	101.186666
2715.000000	101.187462
2714.000000	101.187468
2713.000000	101.186975
2712.000000	101.186402
2711.000000	101.186090
2710.000000	101.186360
2709.000000	101.187446
2708.000000	101.189263
2707.000000	101.191330
2706.000000	101.193044
2705.000000	101.194062
2704.000000	101.194422
2703.000000	101.194302
2702.000000	101.193676
2701.000000	101.192288
2700.000000	101.190010
2699.000000	101.187180
2698.000000	101.184505
2697.000000	101.182680
2696.000000	101.182208
2695.000000	101.183429
2694.000000	101.186252
2693.000000	101.189678
2692.000000	101.192096
2691.000000	101.192694
2690.000000	101.192440
2689.000000	101.193070
2688.000000	101.194937
2687.000000	101.196469
2686.000000	101.196139
2685.000000	101.194472
2684.000000	101.193433
2683.000000	101.194117
2682.000000	101.195951
2681.000000	101.198147
2680.000000	101.200850
2679.000000	101.204251
2678.000000	101.207443
2677.000000	101.209140
2676.000000	101.209111
2675.000000	101.208058
2674.000000	101.206473
2673.000000	101.204448
2672.000000	101.202585
2671.000000	101.202043
2670.000000	101.203272
2669.000000	101.205365
2668.000000	101.207045
2667.000000	101.208074
2666.000000	101.209108
2665.000000	101.210482
2664.000000	101.211689
2663.000000	101.212081
2662.000000	101.211693
2661.000000	101.211197
2660.000000	101.211262
2659.000000	101.211982
2658.000000	101.212838
2657.000000	101.213218
2656.000000	101.212980
2655.000000	101.212453
2654.000000	101.211987
2653.000000	101.211633
2652.000000	101.211305
2651.000000	101.211032
2650.000000	101.210928
2649.000000	101.211023
2648.000000	101.211211
2647.000000	101.211351
2646.000000	101.211401
2645.000000	101.211442
2644.000000	101.211592
2643.000000	101.211863
2642.000000	101.212109
2641.000000	101.212151
2640.000000	101.211949
2639.000000	101.211616
2638.000000	101.211305
2637.000000	101.211115
2636.000000	101.211084
2635.000000	101.211194
2634.000000	101.211359
2633.000000	101.211461
2632.000000	101.211434
2631.000000	101.211293
2630.000000	101.211105
2629.000000	101.210934
2628.000000	101.210837
2627.000000	101.210875
2626.000000	101.211062
2625.000000	101.211291
2624.000000	101.211387
2623.000000	101.211288
2622.000000	101.211142
2621.000000	101.211203
2620.000000	101.211565
2619.000000	101.212116
2618.000000	101.212638
2617.000000	101.212998
2616.000000	101.213178
2615.000000	101.213243
2614.000000	101.213324
2613.000000	101.213582
2612.000000	101.214132
2611.000000	101.214994
2610.000000	101.216068
2609.000000	101.217144
2608.000000	101.218001
2607.000000	101.218530
2606.000000	101.218801
2605.000000	101.218962
2604.000000	101.219102
2603.000000	101.219278
2602.000000	101.219611
2601.000000	101.220202
2600.000000	101.220921
2599.000000	101.221425
2598.000000	101.221520
2597.000000	101.221490
2596.000000	101.221869
2595.000000	101.222842
2594.000000	101.223927
2593.000000	101.224388
2592.000000	101.223974
2591.000000	101.223195
2590.000000	101.222880
2589.000000	101.223470
2588.000000	101.224774
2587.000000	101.226287
2586.000000	101.227619
2585.000000	101.228632
2584.000000	101.229385
2583.000000	101.230113
2582.000000	101.231190
2581.000000	101.232885
2580.000000	101.234973
2579.000000	101.236726
2578.000000	101.237452
2577.000000	101.237146
2576.000000	101.236584
2575.000000	101.236621
2574.000000	101.237456
2573.000000	101.238763
2572.000000	101.240442
2571.000000	101.242805
2570.000000	101.245859
2569.000000	101.248768
2568.000000	101.250533
2567.000000	101.251068
2566.000000	101.251128
2565.000000	101.251337
2564.000000	101.251647
2563.000000	101.251804
2562.000000	101.251903
2561.000000	101.252282
2560.000000	101.253071
2559.000000	101.254066
2558.000000	101.255018
2557.000000	101.255943
2556.000000	101.257128
2555.000000	101.258817
2554.000000	101.260855
2553.000000	101.262671
2552.000000	101.263770
2551.000000	101.264232
2550.000000	101.264677
2549.000000	101.265663
2548.000000	101.267168
2547.000000	101.268744
2546.000000	101.270019
2545.000000	101.270970
2544.000000	101.271817
2543.000000	101.272828
2542.000000	101.274224
2541.000000	101.276106
2540.000000	101.278369
2539.000000	101.280688
2538.000000	101.282701
2537.000000	101.284266
2536.000000	101.285531
2535.000000	101.286778
2534.000000	101.288168
2533.000000	101.289629
2532.000000	101.291037
2531.000000	101.292481
2530.000000	101.294249
2529.000000	101.296529
2528.000000	101.299164
2527.000000	101.301713
2526.000000	101.303798
2525.000000	101.305339
2524.000000	101.306542
2523.000000	101.307809
2522.000000	101.309502
2521.000000	101.311749
2520.000000	101.314374
2519.000000	101.317024
2518.000000	101.319464
2517.000000	101.321708
2516.000000	101.323892
2515.000000	101.326101
2514.000000	101.328360
2513.000000	101.330729
2512.000000	101.333299
2511.000000	101.336068
2510.000000	101.338887
2509.000000	101.341580
2508.000000	101.344076
2507.000000	101.346394
2506.000000	101.348585
2505.000000	101.350736
2504.000000	101.352935
2503.000000	101.355166
2502.000000	101.357291
2501.000000	101.359237
2500.000000	101.361168
2499.000000	101.363350
2498.000000	101.365868
2497.000000	101.368607
2496.000000	101.371543
2495.000000	101.374831
2494.000000	101.378448
2493.000000	101.381871
2492.000000	101.384378
2491.000000	101.385651
2490.000000	101.386006
2489.000000	101.386142
2488.000000	101.386696
2487.000000	101.388039
2486.000000	101.390318
2485.000000	101.393512
2484.000000	101.397319
2483.000000	101.401124
2482.000000	101.404230
2481.000000	101.406292
2480.000000	101.407581
2479.000000	101.408828
2478.000000	101.410717
2477.000000	101.413395
2476.000000	101.416380
2475.000000	101.418903
2474.000000	101.420549
2473.000000	101.421747
2472.000000	101.423497
2471.000000	101.426380
2470.000000	101.429965
2469.000000	101.433347
2468.000000	101.436188
2467.000000	101.438814
2466.000000	101.441333
2465.000000	101.443303
2464.000000	101.444465
2463.000000	101.445202
2462.000000	101.446038
2461.000000	101.447068
2460.000000	101.448163
2459.000000	101.449420
2458.000000	101.451002
2457.000000	101.452750
2456.000000	101.454318
2455.000000	101.455666
2454.000000	101.457076
2453.000000	101.458698
2452.000000	101.460325
2451.000000	101.461680
2450.000000	101.462764
2449.000000	101.463851
2448.000000	101.465168
2447.000000	101.466556
2446.000000	101.467491
2445.000000	101.467601
2444.000000	101.467285
2443.000000	101.467595
2442.000000	101.469151
2441.000000	101.471605
2440.000000	101.474138
2439.000000	101.476410
2438.000000	101.478661
2437.000000	101.480933
2436.000000	101.482719
2435.000000	101.483569
2434.000000	101.483654
2433.000000	101.483592
2432.000000	101.483868
2431.000000	101.484637
2430.000000	101.485915
2429.000000	101.487613
2428.000000	101.489368
2427.000000	101.490632
2426.000000	101.491107
2425.000000	101.491001
2424.000000	101.490913
2423.000000	101.491377
2422.000000	101.492495
2421.000000	101.493922
2420.000000	101.495147
2419.000000	101.495910
2418.000000	101.496318
2417.000000	101.496586
2416.000000	101.496728
2415.000000	101.496590
2414.000000	101.496111
2413.000000	101.495459
2412.000000	101.494960
2411.000000	101.494906
2410.000000	101.495403
2409.000000	101.496330
2408.000000	101.497447
2407.000000	101.498510
2406.000000	101.499212
2405.000000	101.499132
2404.000000	101.498017
2403.000000	101.496295
2402.000000	101.494991
2401.000000	101.494825
2400.000000	101.495558
2399.000000	101.496203
2398.000000	101.495955
2397.000000	101.494737
2396.000000	101.492968
2395.000000	101.491126
2394.000000	101.489480
2393.000000	101.488121
2392.000000	101.487070
2391.000000	101.486324
2390.000000	101.485749
2389.000000	101.484894
2388.000000	101.483187
2387.000000	101.480590
2386.000000	101.477841
2385.000000	101.475747
2384.000000	101.474334
2383.000000	101.473017
2382.000000	101.471512
2381.000000	101.470144
2380.000000	101.469169
2379.000000	101.468210
2378.000000	101.466666
2377.000000	101.464466
2376.000000	101.462087
2375.000000	101.459927
2374.000000	101.457889
2373.000000	101.455681
2372.000000	101.453319
2371.000000	101.451186
2370.000000	101.449645
2369.000000	101.448739
2368.000000	101.448242
2367.000000	101.447835
2366.000000	101.447108
2365.000000	101.445664
2364.000000	101.443408
2363.000000	101.440704
2362.000000	101.438224
2361.000000	101.436286
2360.000000	101.434575
2359.000000	101.432691
2358.000000	101.430785
2357.000000	101.429388
2356.000000	101.428609
2355.000000	101.428004
2354.000000	101.427096
2353.000000	101.425862
2352.000000	101.424555
2351.000000	101.423337
2350.000000	101.422185
2349.000000	101.421019
2348.000000	101.419796
2347.000000	101.418579
2346.000000	101.417502
2345.000000	101.416634
2344.000000	101.415881
2343.000000	101.415045
2342.000000	101.414058
2341.000000	101.412994
2340.000000	101.411966
2339.000000	101.410995
2338.000000	101.410033
2337.000000	101.409067
2336.000000	101.408134
2335.000000	101.407253
2334.000000	101.406402
2333.000000	101.405556
2332.000000	101.404722
2331.000000	101.403928
2330.000000	101.403180
2329.000000	101.402457
2328.000000	101.401703
2327.000000	101.400860
2326.000000	101.399913
2325.000000	101.398913
2324.000000	101.397943
2323.000000	101.397027
2322.000000	101.396137
2321.000000	101.395225
2320.000000	101.394272
2319.000000	101.393273
2318.000000	101.392223
2317.000000	101.391125
2316.000000	101.390007
2315.000000	101.388918
2314.000000	101.387897
2313.000000	101.386955
2312.000000	101.386046
2311.000000	101.385095
2310.000000	101.384034
2309.000000	101.382881
2308.000000	101.381714
2307.000000	101.380596
2306.000000	101.379507
2305.000000	101.378431
2304.000000	101.377370
2303.000000	101.376263
2302.000000	101.374918
2301.000000	101.373203
2300.000000	101.371193
2299.000000	101.369171
2298.000000	101.367421
2297.000000	101.366135
2296.000000	101.365326
2295.000000	101.364764
2294.000000	101.364029
2293.000000	101.362773
2292.000000	101.360874
2291.000000	101.358401
2290.000000	101.355611
2289.000000	101.353040
2288.000000	101.351225
2287.000000	101.350100
2286.000000	101.348852
2285.000000	101.346725
2284.000000	101.343856
2283.000000	101.341156
2282.000000	101.339438
2281.000000	101.338875
2280.000000	101.339022
2279.000000	101.339024
2278.000000	101.337989
2277.000000	101.335575
2276.000000	101.332304
2275.000000	101.329015
2274.000000	101.326021
2273.000000	101.323113
2272.000000	101.320102
2271.000000	101.316928
2270.000000	101.313432
2269.000000	101.309557
2268.000000	101.305768
2267.000000	101.302795
2266.000000	101.300936
2265.000000	101.299832
2264.000000	101.298733
2263.000000	101.296779
2262.000000	101.293315
2261.000000	101.288475
2260.000000	101.283395
2259.000000	101.279469
2258.000000	101.277464
2257.000000	101.277381
2256.000000	101.278552
2255.000000	101.279457
2254.000000	101.278281
2253.000000	101.274602
2252.000000	101.270249
2251.000000	101.267653
2250.000000	101.267427
2249.000000	101.268247
2248.000000	101.268560
2247.000000	101.267576
2246.000000	101.264934
2245.000000	101.260838
2244.000000	101.256516
2243.000000	101.253270
2242.000000	101.250968
2241.000000	101.248485
2240.000000	101.245641
2239.000000	101.243437
2238.000000	101.242399
2237.000000	101.242222
2236.000000	101.243074
2235.000000	101.245572
2234.000000	101.249112
2233.000000	101.251969
2232.000000	101.253671
2231.000000	101.255543
2230.000000	101.258086
2229.000000	101.259526
2228.000000	101.258313
2227.000000	101.255779
2226.000000	101.254719
2225.000000	101.255912
2224.000000	101.257630
2223.000000	101.258344
2222.000000	101.258384
2221.000000	101.258591
2220.000000	101.258630
2219.000000	101.257455
2218.000000	101.254898
2217.000000	101.252116
2216.000000	101.250546
2215.000000	101.250843
2214.000000	101.252850
2213.000000	101.256124
2212.000000	101.260118
2211.000000	101.263903
2210.000000	101.266336
2209.000000	101.267067
2208.000000	101.267184
2207.000000	101.268333
2206.000000	101.271128
2205.000000	101.274784
2204.000000	101.278220
2203.000000	101.281145
2202.000000	101.283908
2201.000000	101.286698
2200.000000	101.289140
2199.000000	101.290572
2198.000000	101.290653
2197.000000	101.289858
2196.000000	101.289425
2195.000000	101.290452
2194.000000	101.293017
2193.000000	101.296175
2192.000000	101.298715
2191.000000	101.300001
2190.000000	101.300167
2189.000000	101.299878
2188.000000	101.299917
2187.000000	101.300654
2186.000000	101.301834
2185.000000	101.302934
2184.000000	101.303767
2183.000000	101.304641
2182.000000	101.305913
2181.000000	101.307568
2180.000000	101.309267
2179.000000	101.310656
2178.000000	101.311597
2177.000000	101.312236
2176.000000	101.312941
2175.000000	101.314046
2174.000000	101.315574
2173.000000	101.317261
2172.000000	101.318802
2171.000000	101.320102
2170.000000	101.321237
2169.000000	101.322290
2168.000000	101.323273
2167.000000	101.324167
2166.000000	101.324984
2165.000000	101.325794
2164.000000	101.326733
2163.000000	101.327963
2162.000000	101.329510
2161.000000	101.331162
2160.000000	101.332648
2159.000000	101.333955
2158.000000	101.335353
2157.000000	101.337066
2156.000000	101.338971
2155.000000	101.340646
2154.000000	101.341745
2153.000000	101.342308
2152.000000	101.342819
2151.000000	101.343875
2150.000000	101.345706
2149.000000	101.348054
2148.000000	101.350421
2147.000000	101.352499
2146.000000	101.354322
2145.000000	101.356076
2144.000000	101.357871
2143.000000	101.359627
2142.000000	101.361062
2141.000000	101.361936
2140.000000	101.362521
2139.000000	101.363644
2138.000000	101.365901
2137.000000	101.368943
2136.000000	101.371930
2135.000000	101.374709
2134.000000	101.377961
2133.000000	101.382051
2132.000000	101.386268
2131.000000	101.389539
2130.000000	101.391621
2129.000000	101.393210
2128.000000	101.395079
2127.000000	101.397385
2126.000000	101.399803
2125.000000	101.402023
2124.000000	101.404091
2123.000000	101.406379
2122.000000	101.409235
2121.000000	101.412535
2120.000000	101.415626
2119.000000	101.417841
2118.000000	101.419107
2117.000000	101.420072
2116.000000	101.421751
2115.000000	101.424991
2114.000000	101.429989
2113.000000	101.435949
2112.000000	101.441354
2111.000000	101.445134
2110.000000	101.447492
2109.000000	101.449455
2108.000000	101.451701
2107.000000	101.454204
2106.000000	101.456923
2105.000000	101.459986
2104.000000	101.462941
2103.000000	101.464636
2102.000000	101.464514
2101.000000	101.463632
2100.000000	101.463844
2099.000000	101.466128
2098.000000	101.470176
2097.000000	101.475042
2096.000000	101.479533
2095.000000	101.482392
2094.000000	101.483148
2093.000000	101.482845
2092.000000	101.483001
2091.000000	101.483767
2090.000000	101.484194
2089.000000	101.484325
2088.000000	101.485528
2087.000000	101.488270
2086.000000	101.491150
2085.000000	101.493043
2084.000000	101.494704
2083.000000	101.496986
2082.000000	101.498658
2081.000000	101.497617
2080.000000	101.493659
2079.000000	101.488937
2078.000000	101.486161
2077.000000	101.487173
2076.000000	101.492270
2075.000000	101.499394
2074.000000	101.504890
2073.000000	101.506849
2072.000000	101.507211
2071.000000	101.509082
2070.000000	101.512447
2069.000000	101.514520
2068.000000	101.513911
2067.000000	101.512092
2066.000000	101.510571
2065.000000	101.508876
2064.000000	101.506157
2063.000000	101.503035
2062.000000	101.500818
2061.000000	101.500018
2060.000000	101.500248
2059.000000	101.500627
2058.000000	101.499960
2057.000000	101.497811
2056.000000	101.495827
2055.000000	101.496529
2054.000000	101.499917
2053.000000	101.502537
2052.000000	101.501009
2051.000000	101.495640
2050.000000	101.489704
2049.000000	101.485672
2048.000000	101.482787
2047.000000	101.478340
2046.000000	101.470799
2045.000000	101.461640
2044.000000	101.454130
2043.000000	101.450031
2042.000000	101.447729
2041.000000	101.444017
2040.000000	101.437412
2039.000000	101.429159
2038.000000	101.421539
2037.000000	101.416207
2036.000000	101.413831
2035.000000	101.413960
2034.000000	101.414861
2033.000000	101.414602
2032.000000	101.412774
2031.000000	101.410349
2030.000000	101.407778
2029.000000	101.404252
2028.000000	101.399161
2027.000000	101.393135
2026.000000	101.387219
2025.000000	101.381807
2024.000000	101.376912
2023.000000	101.372721
2022.000000	101.369187
2021.000000	101.365677
2020.000000	101.361751
2019.000000	101.357963
2018.000000	101.355303
2017.000000	101.353900
2016.000000	101.352681
2015.000000	101.350295
2014.000000	101.346176
2013.000000	101.340769
2012.000000	101.335211
2011.000000	101.330650
2010.000000	101.327442
2009.000000	101.324981
2008.000000	101.322242
2007.000000	101.318723
2006.000000	101.314872
2005.000000	101.311597
2004.000000	101.309357
2003.000000	101.307759
2002.000000	101.305958
2001.000000	101.303483
2000.000000	101.300567
1999.000000	101.297704
1998.000000	101.295050
1997.000000	101.292393
1996.000000	101.289609
1995.000000	101.286874
1994.000000	101.284379
1993.000000	101.282155
1992.000000	101.280329
1991.000000	101.279239
1990.000000	101.279002
1989.000000	101.279116
1988.000000	101.278706
1987.000000	101.277209
1986.000000	101.274733
1985.000000	101.271966
1984.000000	101.269776
1983.000000	101.268589
1982.000000	101.268092
1981.000000	101.267452
1980.000000	101.266080
1979.000000	101.264158
1978.000000	101.262352
1977.000000	101.261058
1976.000000	101.260105
1975.000000	101.259185
1974.000000	101.258308
1973.000000	101.257622
1972.000000	101.257002
1971.000000	101.256168
1970.000000	101.255171
1969.000000	101.254414
1968.000000	101.254058
1967.000000	101.253694
1966.000000	101.252962
1965.000000	101.252267
1964.000000	101.252375
1963.000000	101.253225
1962.000000	101.253559
1961.000000	101.252196
1960.000000	101.249383
1959.000000	101.246442
1958.000000	101.244127
1957.000000	101.242242
1956.000000	101.241035
1955.000000	101.241623
1954.000000	101.244190
1953.000000	101.246730
1952.000000	101.246943
1951.000000	101.244707
1950.000000	101.241530
1949.000000	101.238106
1948.000000	101.233805
1947.000000	101.228643
1946.000000	101.224136
1945.000000	101.221564
1944.000000	101.220606
1943.000000	101.220291
1942.000000	101.220396
1941.000000	101.221122
1940.000000	101.222209
1939.000000	101.223216
1938.000000	101.223996
1937.000000	101.224184
1936.000000	101.222985
1935.000000	101.220328
1934.000000	101.217728
1933.000000	101.216832
1932.000000	101.217308
1931.000000	101.217030
1930.000000	101.214494
1929.000000	101.210138
1928.000000	101.205027
1927.000000	101.199908
1926.000000	101.195901
1925.000000	101.194884
1924.000000	101.197305
1923.000000	101.199895
1922.000000	101.198330
1921.000000	101.192502
1920.000000	101.186479
1919.000000	101.182970
1918.000000	101.179516
1917.000000	101.172008
1916.000000	101.160568
1915.000000	101.148914
1914.000000	101.139544
1913.000000	101.131933
1912.000000	101.124571
1911.000000	101.116719
1910.000000	101.107887
1909.000000	101.097404
1908.000000	101.085683
1907.000000	101.075136
1906.000000	101.067999
1905.000000	101.063700
1904.000000	101.059073
1903.000000	101.051115
1902.000000	101.039553
1901.000000	101.026892
1900.000000	101.016300
1899.000000	101.009479
1898.000000	101.005497
1897.000000	101.001396
1896.000000	100.994761
1895.000000	100.986145
1894.000000	100.978624
1893.000000	100.974628
1892.000000	100.973718
1891.000000	100.973331
1890.000000	100.970320
1889.000000	100.962169
1888.000000	100.948973
1887.000000	100.934634
1886.000000	100.924777
1885.000000	100.922292
1884.000000	100.924585
1883.000000	100.926321
1882.000000	100.925257
1881.000000	100.923684
1880.000000	100.924382
1879.000000	100.927774
1878.000000	100.932913
1877.000000	100.938769
1876.000000	100.943950
1875.000000	100.946921
1874.000000	100.947843
1873.000000	100.949112
1872.000000	100.952608
1871.000000	100.957145
1870.000000	100.959881
1869.000000	100.960304
1868.000000	100.961420
1867.000000	100.965875
1866.000000	100.972817
1865.000000	100.979532
1864.000000	100.984641
1863.000000	100.989614
1862.000000	100.997694
1861.000000	101.010835
1860.000000	101.027004
1859.000000	101.041099
1858.000000	101.049577
1857.000000	101.053942
1856.000000	101.058812
1855.000000	101.066720
1854.000000	101.076100
1853.000000	101.084670
1852.000000	101.092880
1851.000000	101.103446
1850.000000	101.117840
1849.000000	101.134281
1848.000000	101.149593
1847.000000	101.161936
1846.000000	101.170913
1845.000000	101.175972
1844.000000	101.176864
1843.000000	101.175881
1842.000000	101.176194
1841.000000	101.178477
1840.000000	101.182004
1839.000000	101.187442
1838.000000	101.196389
1837.000000	101.208203
1836.000000	101.218522
1835.000000	101.222675
1834.000000	101.220488
1833.000000	101.216561
1832.000000	101.216083
1831.000000	101.221104
1830.000000	101.229088
1829.000000	101.235144
1828.000000	101.237274
1827.000000	101.237248
1826.000000	101.237408
1825.000000	101.238158
1824.000000	101.237860
1823.000000	101.235024
1822.000000	101.230366
1821.000000	101.226693
1820.000000	101.226523
1819.000000	101.229209
1818.000000	101.230955
1817.000000	101.229110
1816.000000	101.225596
1815.000000	101.224495
1814.000000	101.227422
1813.000000	101.232495
1812.000000	101.237254
1811.000000	101.240902
1810.000000	101.243622
1809.000000	101.245533
1808.000000	101.246537
1807.000000	101.246369
1806.000000	101.244831
1805.000000	101.242106
1804.000000	101.238696
1803.000000	101.235216
1802.000000	101.233271
1801.000000	101.235397
1800.000000	101.242676
1799.000000	101.252446
1798.000000	101.260383
1797.000000	101.265240
1796.000000	101.269504
1795.000000	101.275287
1794.000000	101.281298
1793.000000	101.284447
1792.000000	101.284687
1791.000000	101.285468
1790.000000	101.288340
1789.000000	101.291746
1788.000000	101.294649
1787.000000	101.297931
1786.000000	101.302743
1785.000000	101.309307
1784.000000	101.317683
1783.000000	101.328141
1782.000000	101.340261
1781.000000	101.351419
1780.000000	101.358313
1779.000000	101.360402
1778.000000	101.360152
1777.000000	101.360479
1776.000000	101.363198
1775.000000	101.369599
1774.000000	101.380774
1773.000000	101.395833
1772.000000	101.410461
1771.000000	101.421083
1770.000000	101.428182
1769.000000	101.433595
1768.000000	101.438226
1767.000000	101.441791
1766.000000	101.443675
1765.000000	101.444184
1764.000000	101.445699
1763.000000	101.451604
1762.000000	101.462432
1761.000000	101.474002
1760.000000	101.482766
1759.000000	101.489030
1758.000000	101.493865
1757.000000	101.496545
1756.000000	101.496672
1755.000000	101.497252
1754.000000	101.501363
1753.000000	101.508110
1752.000000	101.513375
1751.000000	101.514189
1750.000000	101.511669
1749.000000	101.508754
1748.000000	101.507141
1747.000000	101.507571
1746.000000	101.509870
1745.000000	101.511562
1744.000000	101.509784
1743.000000	101.504668
1742.000000	101.499265
1741.000000	101.496739
1740.000000	101.498978
1739.000000	101.505474
1738.000000	101.512643
1737.000000	101.515567
1736.000000	101.511568
1735.000000	101.502219
1734.000000	101.493162
1733.000000	101.489542
1732.000000	101.490167
1731.000000	101.490399
1730.000000	101.487429
1729.000000	101.480625
1728.000000	101.471268
1727.000000	101.462616
1726.000000	101.457650
1725.000000	101.455973
1724.000000	101.454685
1723.000000	101.451681
1722.000000	101.447051
1721.000000	101.441563
1720.000000	101.435668
1719.000000	101.430700
1718.000000	101.428261
1717.000000	101.427499
1716.000000	101.426370
1715.000000	101.423027
1714.000000	101.415711
1713.000000	101.404303
1712.000000	101.391009
1711.000000	101.378765
1710.000000	101.369675
1709.000000	101.363774
1708.000000	101.358507
1707.000000	101.350659
1706.000000	101.339233
1705.000000	101.326994
1704.000000	101.318005
1703.000000	101.312452
1702.000000	101.306355
1701.000000	101.292828
1700.000000	101.269512
1699.000000	101.245862
1698.000000	101.227893
1697.000000	101.212995
1696.000000	101.198311
1695.000000	101.183587
1694.000000	101.170760
1693.000000	101.159656
1692.000000	101.148740
1691.000000	101.137362
1690.000000	101.125095
1689.000000	101.111679
1688.000000	101.097639
1687.000000	101.084143
1686.000000	101.071211
1685.000000	101.056135
1684.000000	101.036206
1683.000000	101.014980
1682.000000	100.997837
1681.000000	100.985174
1680.000000	100.975733
1679.000000	100.968854
1678.000000	100.963387
1677.000000	100.957071
1676.000000	100.947257
1675.000000	100.933217
1674.000000	100.917789
1673.000000	100.903409
1672.000000	100.889480
1671.000000	100.874379
1670.000000	100.857682
1669.000000	100.841141
1668.000000	100.827246
1667.000000	100.816588
1666.000000	100.807463
1665.000000	100.797389
1664.000000	100.784706
1663.000000	100.769441
1662.000000	100.753439
1661.000000	100.738959
1660.000000	100.727420
1659.000000	100.719875
1658.000000	100.716409
1657.000000	100.715028
1656.000000	100.712482
1655.000000	100.706179
1654.000000	100.693253
1653.000000	100.671647
1652.000000	100.650760
1651.000000	100.640529
1650.000000	100.638096
1649.000000	100.637544
1648.000000	100.635290
1647.000000	100.629361
1646.000000	100.619832
1645.000000	100.609059
1644.000000	100.598624
1643.000000	100.588438
1642.000000	100.579076
1641.000000	100.572013
1640.000000	100.568327
1639.000000	100.568280
1638.000000	100.571022
1637.000000	100.573436
1636.000000	100.568673
1635.000000	100.553372
1634.000000	100.536449
1633.000000	100.527173
1632.000000	100.525985
1631.000000	100.528779
1630.000000	100.531117
1629.000000	100.530650
1628.000000	100.527820
1627.000000	100.523964
1626.000000	100.519670
1625.000000	100.515301
1624.000000	100.512405
1623.000000	100.512462
1622.000000	100.514400
1621.000000	100.515694
1620.000000	100.515212
1619.000000	100.514423
1618.000000	100.515804
1617.000000	100.519439
1616.000000	100.522442
1615.000000	100.523901
1614.000000	100.524887
1613.000000	100.526046
1612.000000	100.529117
1611.000000	100.537305
1610.000000	100.552232
1609.000000	100.571121
1608.000000	100.588826
1607.000000	100.602338
1606.000000	100.612081
1605.000000	100.618779
1604.000000	100.622587
1603.000000	100.625721
1602.000000	100.631945
1601.000000	100.642490
1600.000000	100.654914
1599.000000	100.666327
1598.000000	100.675477
1597.000000	100.681614
1596.000000	100.684375
1595.000000	100.685836
1594.000000	100.690569
1593.000000	100.701663
1592.000000	100.717723
1591.000000	100.734645
1590.000000	100.749193
1589.000000	100.760329
1588.000000	100.768436
1587.000000	100.774566
1586.000000	100.780370
1585.000000	100.787807
1584.000000	100.797969
1583.000000	100.810838
1582.000000	100.825343
1581.000000	100.839379
1580.000000	100.851171
1579.000000	100.861254
1578.000000	100.872248
1577.000000	100.885430
1576.000000	100.897335
1575.000000	100.904795
1574.000000	100.910546
1573.000000	100.917732
1572.000000	100.927404
1571.000000	100.940290
1570.000000	100.955519
1569.000000	100.969173
1568.000000	100.978291
1567.000000	100.985228
1566.000000	100.994192
1565.000000	101.005918
1564.000000	101.016389
1563.000000	101.022373
1562.000000	101.025322
1561.000000	101.030713
1560.000000	101.043352
1559.000000	101.062038
1558.000000	101.073452
1557.000000	101.076502
1556.000000	101.079111
1555.000000	101.084923
1554.000000	101.094884
1553.000000	101.106115
1552.000000	101.114696
1551.000000	101.119517
1550.000000	101.122346
1549.000000	101.125166
1548.000000	101.128289
1547.000000	101.131654
1546.000000	101.136176
1545.000000	101.142260
1544.000000	101.147302
1543.000000	101.147563
1542.000000	101.143170
1541.000000	101.140484
1540.000000	101.144186
1539.000000	101.147874
1538.000000	101.146663
1537.000000	101.142613
1536.000000	101.137710
1535.000000	101.132914
1534.000000	101.128745
1533.000000	101.124584
1532.000000	101.120359
1531.000000	101.117648
1530.000000	101.118139
1529.000000	101.122823
1528.000000	101.131668
1527.000000	101.142724
1526.000000	101.151966
1525.000000	101.155789
1524.000000	101.154856
1523.000000	101.154555
1522.000000	101.160237
1521.000000	101.169112
1520.000000	101.173288
1519.000000	101.171856
1518.000000	101.170662
1517.000000	101.174350
1516.000000	101.181382
1515.000000	101.187470
1514.000000	101.192215
1513.000000	101.197887
1512.000000	101.205004
1511.000000	101.211374
1510.000000	101.214675
1509.000000	101.214844
1508.000000	101.214120
1507.000000	101.215354
1506.000000	101.217076
1505.000000	101.218235
1504.000000	101.219896
1503.000000	101.221935
1502.000000	101.223952
1501.000000	101.225601
1500.000000	101.226117
1499.000000	101.225381
1498.000000	101.225422
1497.000000	101.229188
1496.000000	101.236743
1495.000000	101.244402
1494.000000	101.249235
1493.000000	101.251601
1492.000000	101.253267
1491.000000	101.255257
1490.000000	101.257458
1489.000000	101.259679
1488.000000	101.262656
1487.000000	101.266958
1486.000000	101.271803
1485.000000	101.275910
1484.000000	101.278138
1483.000000	101.278281
1482.000000	101.277702
1481.000000	101.278649
1480.000000	101.282385
1479.000000	101.288288
1478.000000	101.294976
1477.000000	101.301382
1476.000000	101.307009
1475.000000	101.311505
1474.000000	101.314663
1473.000000	101.315721
1472.000000	101.312899
1471.000000	101.306352
1470.000000	101.299306
1469.000000	101.295193
1468.000000	101.295387
1467.000000	101.298479
1466.000000	101.301474
1465.000000	101.302618
1464.000000	101.302601
1463.000000	101.302601
1462.000000	101.301821
1461.000000	101.298598
1460.000000	101.292621
1459.000000	101.285921
1458.000000	101.282128
1457.000000	101.282515
1456.000000	101.284454
1455.000000	101.285868
1454.000000	101.285727
1453.000000	101.283167
1452.000000	101.278857
1451.000000	101.274439
1450.000000	101.270561
1449.000000	101.266455
1448.000000	101.262308
1447.000000	101.260103
1446.000000	101.261288
1445.000000	101.264219
1444.000000	101.265149
1443.000000	101.261499
1442.000000	101.253941
1441.000000	101.245977
1440.000000	101.240816
1439.000000	101.239153
1438.000000	101.239370
1437.000000	101.239963
1436.000000	101.241731
1435.000000	101.245643
1434.000000	101.249378
1433.000000	101.249227
1432.000000	101.243976
1431.000000	101.236570
1430.000000	101.232084
1429.000000	101.233250
1428.000000	101.239309
1427.000000	101.247942
1426.000000	101.256955
1425.000000	101.264105
1424.000000	101.267449
1423.000000	101.267387
1422.000000	101.266214
1421.000000	101.265331
1420.000000	101.263993
1419.000000	101.261649
1418.000000	101.260177
1417.000000	101.262103
1416.000000	101.268044
1415.000000	101.276155
1414.000000	101.282777
1413.000000	101.285055
1412.000000	101.284328
1411.000000	101.285824
1410.000000	101.293270
1409.000000	101.304753
1408.000000	101.315064
1407.000000	101.320770
1406.000000	101.322824
1405.000000	101.325090
1404.000000	101.331127
1403.000000	101.342436
1402.000000	101.358090
1401.000000	101.374847
1400.000000	101.387900
1399.000000	101.394286
1398.000000	101.396317
1397.000000	101.398846
1396.000000	101.403779
1395.000000	101.409487
1394.000000	101.414560
1393.000000	101.419712
1392.000000	101.425679
1391.000000	101.431675
1390.000000	101.436511
1389.000000	101.439664
1388.000000	101.440824
1387.000000	101.439528
1386.000000	101.436678
1385.000000	101.435191
1384.000000	101.437639
1383.000000	101.443866
1382.000000	101.450838
1381.000000	101.455058
1380.000000	101.455319
1379.000000	101.453331
1378.000000	101.452465
1377.000000	101.455297
1376.000000	101.461383
1375.000000	101.467122
1374.000000	101.469034
1373.000000	101.468002
1372.000000	101.468472
1371.000000	101.472645
1370.000000	101.477778
1369.000000	101.479615
1368.000000	101.477677
1367.000000	101.476003
1366.000000	101.478132
1365.000000	101.483557
1364.000000	101.489812
1363.000000	101.496067
1362.000000	101.502975
1361.000000	101.509818
1360.000000	101.514231
1359.000000	101.514692
1358.000000	101.512104
1357.000000	101.509215
1356.000000	101.508676
1355.000000	101.511035
1354.000000	101.514192
1353.000000	101.515324
1352.000000	101.513727
1351.000000	101.510880
1350.000000	101.508043
1349.000000	101.504867
1348.000000	101.501217
1347.000000	101.499165
1346.000000	101.501007
1345.000000	101.505762
1344.000000	101.509818
1343.000000	101.511321
1342.000000	101.511946
1341.000000	101.513846
1340.000000	101.516340
1339.000000	101.516767
1338.000000	101.513952
1337.000000	101.509200
1336.000000	101.504496
1335.000000	101.501372
1334.000000	101.500861
1333.000000	101.502986
1332.000000	101.506372
1331.000000	101.509294
1330.000000	101.511434
1329.000000	101.513987
1328.000000	101.517793
1327.000000	101.521640
1326.000000	101.522930
1325.000000	101.520073
1324.000000	101.513943
1323.000000	101.506987
1322.000000	101.501049
1321.000000	101.496579
1320.000000	101.493976
1319.000000	101.494450
1318.000000	101.498610
1317.000000	101.505147
1316.000000	101.511931
1315.000000	101.517613
1314.000000	101.521223
1313.000000	101.521285
1312.000000	101.516745
1311.000000	101.508550
1310.000000	101.499403
1309.000000	101.491942
1308.000000	101.487641
1307.000000	101.486695
1306.000000	101.488168
1305.000000	101.490580
1304.000000	101.492851
1303.000000	101.494443
1302.000000	101.494843
1301.000000	101.494170
1300.000000	101.494239
1299.000000	101.496951
1298.000000	101.500585
1297.000000	101.499911
1296.000000	101.491664
1295.000000	101.478295
1294.000000	101.464721
1293.000000	101.452777
1292.000000	101.441145
1291.000000	101.429225
1290.000000	101.418235
1289.000000	101.409344
1288.000000	101.403258
1287.000000	101.400890
1286.000000	101.401808
1285.000000	101.402595
1284.000000	101.399476
1283.000000	101.392375
1282.000000	101.384084
1281.000000	101.375904
1280.000000	101.366670
1279.000000	101.355725
1278.000000	101.343857
1277.000000	101.331476
1276.000000	101.319224
1275.000000	101.310446
1274.000000	101.309060
1273.000000	101.313683
1272.000000	101.317136
1271.000000	101.313837
1270.000000	101.305515
1269.000000	101.297918
1268.000000	101.294041
1267.000000	101.292423
1266.000000	101.290285
1265.000000	101.286609
1264.000000	101.283111
1263.000000	101.282854
1262.000000	101.286507
1261.000000	101.289806
1260.000000	101.286776
1259.000000	101.276178
1258.000000	101.262764
1257.000000	101.251366
1256.000000	101.241573
1255.000000	101.228769
1254.000000	101.208661
1253.000000	101.180815
1252.000000	101.150027
1251.000000	101.124411
1250.000000	101.109158
1249.000000	101.101206
1248.000000	101.092575
1247.000000	101.079711
1246.000000	101.066753
1245.000000	101.058299
1244.000000	101.051968
1243.000000	101.040729
1242.000000	101.020733
1241.000000	100.994085
1240.000000	100.964847
1239.000000	100.935137
1238.000000	100.905467
1237.000000	100.876914
1236.000000	100.851521
1235.000000	100.830331
1234.000000	100.811447
1233.000000	100.790853
1232.000000	100.765671
1231.000000	100.736140
1230.000000	100.703881
1229.000000	100.668807
1228.000000	100.628596
1227.000000	100.580685
1226.000000	100.524072
1225.000000	100.460342
1224.000000	100.394159
1223.000000	100.331371
1222.000000	100.274372
1221.000000	100.219680
1220.000000	100.161384
1219.000000	100.095927
1218.000000	100.022238
1217.000000	99.939151
1216.000000	99.845781
1215.000000	99.744000
1214.000000	99.637952
1213.000000	99.531203
1212.000000	99.426145
1211.000000	99.325260
1210.000000	99.230071
1209.000000	99.138730
1208.000000	99.046581
1207.000000	98.949554
1206.000000	98.846993
1205.000000	98.742519
1204.000000	98.642369
1203.000000	98.550645
1202.000000	98.465019
1201.000000	98.378685
1200.000000	98.286927
1199.000000	98.189908
1198.000000	98.089678
1197.000000	97.988414
1196.000000	97.890230
1195.000000	97.799683
1194.000000	97.715447
1193.000000	97.628810
1192.000000	97.531311
1191.000000	97.422042
1190.000000	97.306478
1189.000000	97.191135
1188.000000	97.080590
1187.000000	96.976044
1186.000000	96.874264
1185.000000	96.770236
1184.000000	96.661870
1183.000000	96.549599
1182.000000	96.432102
1181.000000	96.307337
1180.000000	96.177813
1179.000000	96.048536
1178.000000	95.918009
1177.000000	95.777709
1176.000000	95.623544
1175.000000	95.462424
1174.000000	95.304194
1173.000000	95.151813
1172.000000	95.002378
1171.000000	94.852611
1170.000000	94.699973
1169.000000	94.543136
1168.000000	94.384755
1167.000000	94.230574
1166.000000	94.085299
1165.000000	93.954962
1164.000000	93.853550
1163.000000	93.798861
1162.000000	93.798165
1161.000000	93.842495
1160.000000	93.914476
1159.000000	93.994609
1158.000000	94.061397
1157.000000	94.096784
1156.000000	94.095764
1155.000000	94.064965
1154.000000	94.010816
1153.000000	93.935174
1152.000000	93.842295
1151.000000	93.740844
1150.000000	93.636358
1149.000000	93.529643
1148.000000	93.424139
1147.000000	93.324895
1146.000000	93.227202
1145.000000	93.117174
1144.000000	92.989148
1143.000000	92.854012
1142.000000	92.725331
1141.000000	92.605162
1140.000000	92.488470
1139.000000	92.372775
1138.000000	92.257433
1137.000000	92.140723
1136.000000	92.023081
1135.000000	91.906867
1134.000000	91.789395
1133.000000	91.664142
1132.000000	91.532794
1131.000000	91.407550
1130.000000	91.296322
1129.000000	91.192910
1128.000000	91.086102
1127.000000	90.971187
1126.000000	90.849336
1125.000000	90.724012
1124.000000	90.601869
1123.000000	90.489264
1122.000000	90.384030
1121.000000	90.277624
1120.000000	90.166882
1119.000000	90.055028
1118.000000	89.940818
1117.000000	89.818869
1116.000000	89.692891
1115.000000	89.575307
1114.000000	89.469387
1113.000000	89.364616
1112.000000	89.254740
1111.000000	89.146834
1110.000000	89.046423
1109.000000	88.947006
1108.000000	88.840949
1107.000000	88.728135
1106.000000	88.608039
1105.000000	88.477027
1104.000000	88.340022
1103.000000	88.210521
1102.000000	88.091524
1101.000000	87.970669
1100.000000	87.842143
1099.000000	87.718082
1098.000000	87.608212
1097.000000	87.502803
1096.000000	87.387583
1095.000000	87.264050
1094.000000	87.143656
1093.000000	87.031805
1092.000000	86.927982
1091.000000	86.832558
1090.000000	86.743538
1089.000000	86.653966
1088.000000	86.560483
1087.000000	86.468249
1086.000000	86.382590
1085.000000	86.302756
1084.000000	86.226421
1083.000000	86.151653
1082.000000	86.073562
1081.000000	85.989929
1080.000000	85.910793
1079.000000	85.849622
1078.000000	85.803081
1077.000000	85.752537
1076.000000	85.686453
1075.000000	85.607269
1074.000000	85.516650
1073.000000	85.410203
1072.000000	85.288255
1071.000000	85.154980
1070.000000	85.004180
1069.000000	84.822389
1068.000000	84.609081
1067.000000	84.378265
1066.000000	84.137612
1065.000000	83.882812
1064.000000	83.616234
1063.000000	83.352769
1062.000000	83.101903
1061.000000	82.861206
1060.000000	82.631550
1059.000000	82.419882
1058.000000	82.222213
1057.000000	82.023331
1056.000000	81.819078
1055.000000	81.620592
1054.000000	81.431709
1053.000000	81.241435
1052.000000	81.044360
1051.000000	80.847669
1050.000000	80.651145
1049.000000	80.443312
1048.000000	80.224690
1047.000000	80.010734
1046.000000	79.806073
1045.000000	79.599253
1044.000000	79.386282
1043.000000	79.176272
1042.000000	78.970082
1041.000000	78.756007
1040.000000	78.531765
1039.000000	78.309661
1038.000000	78.096376
1037.000000	77.890111
1036.000000	77.699502
1035.000000	77.538615
1034.000000	77.398902
1033.000000	77.253501
1032.000000	77.096468
1031.000000	76.951393
1030.000000	76.834280
1029.000000	76.735632
1028.000000	76.646103
1027.000000	76.571333
1026.000000	76.510565
1025.000000	76.447359
1024.000000	76.373974
1023.000000	76.301944
1022.000000	76.238444
1021.000000	76.174844
1020.000000	76.106914
1019.000000	76.042943
1018.000000	75.983397
1017.000000	75.916281
1016.000000	75.840626
1015.000000	75.770042
1014.000000	75.704721
1013.000000	75.625769
1012.000000	75.527828
1011.000000	75.432275
1010.000000	75.355720
1009.000000	75.288459
1008.000000	75.216334
1007.000000	75.142775
1006.000000	75.076855
1005.000000	75.018985
1004.000000	74.969826
1003.000000	74.935367
1002.000000	74.913481
1001.000000	74.892862
1000.000000	74.873111
999.000000	74.868035
998.000000	74.882282
997.000000	74.903219
996.000000	74.922254
995.000000	74.945348
994.000000	74.975987
993.000000	75.007146
992.000000	75.037170
991.000000	75.075496
990.000000	75.125911
989.000000	75.180927
988.000000	75.237634
987.000000	75.302147
986.000000	75.375023
985.000000	75.450788
984.000000	75.534597
983.000000	75.639783
982.000000	75.765580
981.000000	75.897109
980.000000	76.031031
979.000000	76.180896
978.000000	76.352840
977.000000	76.536655
976.000000	76.726039
975.000000	76.928126
974.000000	77.147034
973.000000	77.376348
972.000000	77.613685
971.000000	77.865887
970.000000	78.134548
969.000000	78.411587
968.000000	78.692269
967.000000	78.977406
966.000000	79.261209
965.000000	79.533740
964.000000	79.797445
963.000000	80.065276
962.000000	80.340772
961.000000	80.615374
960.000000	80.885302
959.000000	81.153564
958.000000	81.414830
957.000000	81.657027
956.000000	81.880432
955.000000	82.097886
954.000000	82.313454
953.000000	82.517732
952.000000	82.706832
951.000000	82.888579
950.000000	83.066680
949.000000	83.235484
948.000000	83.393948
947.000000	83.548140
946.000000	83.696263
945.000000	83.828199
944.000000	83.944643
943.000000	84.060406
942.000000	84.183084
941.000000	84.303456
940.000000	84.412713
939.000000	84.514358
938.000000	84.613335
937.000000	84.707871
936.000000	84.798947
935.000000	84.895014
934.000000	85.000578
933.000000	85.110934
932.000000	85.222594
931.000000	85.337277
930.000000	85.452252
929.000000	85.559922
928.000000	85.661709
927.000000	85.770025
926.000000	85.891008
925.000000	86.015583
924.000000	86.131198
923.000000	86.232010
922.000000	86.315569
921.000000	86.381720
920.000000	86.438206
919.000000	86.495996
918.000000	86.555835
917.000000	86.610254
916.000000	86.660715
915.000000	86.720437
914.000000	86.798132
913.000000	86.892519
912.000000	87.005828
911.000000	87.147828
910.000000	87.320941
909.000000	87.514854
908.000000	87.722488
907.000000	87.949719
906.000000	88.202308
905.000000	88.472985
904.000000	88.747814
903.000000	89.018994
902.000000	89.288181
901.000000	89.562943
900.000000	89.850992
899.000000	90.151510
898.000000	90.451642
897.000000	90.737197
896.000000	91.005294
895.000000	91.261811
894.000000	91.511666
893.000000	91.758622
892.000000	92.008354
891.000000	92.261510
890.000000	92.508230
889.000000	92.739606
888.000000	92.959935
887.000000	93.177573
886.000000	93.389515
885.000000	93.587816
884.000000	93.776911
883.000000	93.970546
882.000000	94.173584
881.000000	94.379916
880.000000	94.586033
879.000000	94.792639
878.000000	94.994884
877.000000	95.186516
876.000000	95.373967
875.000000	95.572069
874.000000	95.784517
873.000000	96.000534
872.000000	96.210478
871.000000	96.413015
870.000000	96.608965
869.000000	96.801149
868.000000	96.999507
867.000000	97.213440
866.000000	97.438079
865.000000	97.658501
864.000000	97.866814
863.000000	98.064813
862.000000	98.251942
861.000000	98.423570
860.000000	98.582498
859.000000	98.740426
858.000000	98.904517
857.000000	99.070835
856.000000	99.232465
855.000000	99.385298
854.000000	99.524924
853.000000	99.647645
852.000000	99.757445
851.000000	99.864446
850.000000	99.973794
849.000000	100.081548
848.000000	100.181116
847.000000	100.266186
846.000000	100.328535
845.000000	100.363414
844.000000	100.379035
843.000000	100.391320
842.000000	100.405509
841.000000	100.410066
840.000000	100.391217
839.000000	100.346607
838.000000	100.283634
837.000000	100.213181
836.000000	100.147934
835.000000	100.097856
834.000000	100.062028
833.000000	100.031602
832.000000	100.004188
831.000000	99.987368
830.000000	99.984264
829.000000	99.985750
828.000000	99.984704
827.000000	99.989345
826.000000	100.011237
825.000000	100.044445
824.000000	100.067943
823.000000	100.067604
822.000000	100.046382
821.000000	100.012245
820.000000	99.963826
819.000000	99.890304
818.000000	99.781435
817.000000	99.635569
816.000000	99.457750
815.000000	99.250029
814.000000	99.005176
813.000000	98.711239
812.000000	98.359569
811.000000	97.944584
810.000000	97.458661
809.000000	96.894474
808.000000	96.253162
807.000000	95.544790
806.000000	94.781509
805.000000	93.979466
804.000000	93.169597
803.000000	92.395317
802.000000	91.692587
801.000000	91.079415
800.000000	90.567026
799.000000	90.168650
798.000000	89.892296
797.000000	89.735604
796.000000	89.689877
795.000000	89.737465
794.000000	89.845717
793.000000	89.978372
792.000000	90.113872
791.000000	90.240745
790.000000	90.339638
789.000000	90.386711
788.000000	90.372560
787.000000	90.300132
786.000000	90.164527
785.000000	89.953997
784.000000	89.675173
783.000000	89.361506
782.000000	89.051051
781.000000	88.768494
780.000000	88.531627
779.000000	88.359231
778.000000	88.265929
777.000000	88.260575
776.000000	88.350930
775.000000	88.536047
774.000000	88.793943
773.000000	89.092675
772.000000	89.414179
771.000000	89.752384
770.000000	90.090531
769.000000	90.400242
768.000000	90.666247
767.000000	90.896070
766.000000	91.102110
765.000000	91.288222
764.000000	91.456701
763.000000	91.615112
762.000000	91.772109
761.000000	91.935479
760.000000	92.113418
759.000000	92.306252
758.000000	92.498651
757.000000	92.673355
756.000000	92.831418
755.000000	92.986571
754.000000	93.143192
753.000000	93.294713
752.000000	93.440355
751.000000	93.585543
750.000000	93.726561
