4000.000000	101.101913
3999.000000	101.100685
3998.000000	101.098409
3997.000000	101.097265
3996.000000	101.098407
3995.000000	101.100606
3994.000000	101.101460
3993.000000	101.099744
3992.000000	101.096297
3991.000000	101.092793
3990.000000	101.090329
3989.000000	101.089413
3988.000000	101.090449
3987.000000	101.093777
3986.000000	101.099033
3985.000000	101.104487
3984.000000	101.107668
3983.000000	101.107098
3982.000000	101.103388
3981.000000	101.098827
3980.000000	101.095570
3979.000000	101.094140
3978.000000	101.093781
3977.000000	101.093666
3976.000000	101.093556
3975.000000	101.093479
3974.000000	101.093159
3973.000000	101.091975
3972.000000	101.089483
3971.000000	101.086019
3970.000000	101.082767
3969.000000	101.080908
3968.000000	101.080664
3967.000000	101.081122
3966.000000	101.081047
3965.000000	101.079968
3964.000000	101.078469
3963.000000	101.077623
3962.000000	101.078127
3961.000000	101.079783
3960.000000	101.081639
3959.000000	101.082743
3958.000000	101.082916
3957.000000	101.082868
3956.000000	101.083628
3955.000000	101.085839
3954.000000	101.089434
3953.000000	101.093640
3952.000000	101.097075
3951.000000	101.098262
3950.000000	101.096585
3949.000000	101.092787
3948.000000	101.088667
3947.000000	101.085922
3946.000000	101.085085
3945.000000	101.085611
3944.000000	101.086522
3943.000000	101.087201
3942.000000	101.087716
3941.000000	101.088352
3940.000000	101.089014
3939.000000	101.089249
3938.000000	101.088781
3937.000000	101.087889
3936.000000	101.087238
3935.000000	101.087325
3934.000000	101.088121
3933.000000	101.089103
3932.000000	101.089598
3931.000000	101.089314
3930.000000	101.088536
3929.000000	101.087889
3928.000000	101.087800
3927.000000	101.088171
3926.000000	101.088455
3925.000000	101.088132
3924.000000	101.087157
3923.000000	101.085923
3922.000000	101.084887
3921.000000	101.084183
3920.000000	101.083604
3919.000000	101.082874
3918.000000	101.082009
3917.000000	101.081373
3916.000000	101.081266
3915.000000	101.081523
3914.000000	101.081610
3913.000000	101.081049
3912.000000	101.079773
3911.000000	101.078248
3910.000000	101.077295
3909.000000	101.077624
3908.000000	101.079378
3907.000000	101.081809
3906.000000	101.083456
3905.000000	101.083213
3904.000000	101.081462
3903.000000	101.080040
3902.000000	101.080424
3901.000000	101.082165
3900.000000	101.083245
3899.000000	101.081952
3898.000000	101.078287
3897.000000	101.073587
3896.000000	101.069507
3895.000000	101.067003
3894.000000	101.066042
3893.000000	101.065850
3892.000000	101.065558
3891.000000	101.064941
3890.000000	101.064379
3889.000000	101.064334
3888.000000	101.064832
3887.000000	101.065401
3886.000000	101.065684
3885.000000	101.065876
3884.000000	101.066412
3883.000000	101.067478
3882.000000	101.068822
3881.000000	101.069921
3880.000000	101.070307
3879.000000	101.069712
3878.000000	101.068122
3877.000000	101.065718
3876.000000	101.062798
3875.000000	101.059838
3874.000000	101.057488
3873.000000	101.056253
3872.000000	101.056142
3871.000000	101.056646
3870.000000	101.057090
3869.000000	101.057069
3868.000000	101.056591
3867.000000	101.055846
3866.000000	101.055019
3865.000000	101.054263
3864.000000	101.053675
3863.000000	101.053231
3862.000000	101.052825
3861.000000	101.052384
3860.000000	101.051916
3859.000000	101.051477
3858.000000	101.051119
3857.000000	101.050872
3856.000000	101.050749
3855.000000	101.050717
3854.000000	101.050724
3853.000000	101.050746
3852.000000	101.050800
3851.000000	101.050905
3850.000000	101.051064
3849.000000	101.051258
3848.000000	101.051465
3847.000000	101.051671
3846.000000	101.051865
3845.000000	101.052042
3844.000000	101.052193
3843.000000	101.052301
3842.000000	101.052352
3841.000000	101.052351
3840.000000	101.052338
3839.000000	101.052398
3838.000000	101.052631
3837.000000	101.053111
3836.000000	101.053825
3835.000000	101.054669
3834.000000	101.055490
3833.000000	101.056130
3832.000000	101.056468
3831.000000	101.056482
3830.000000	101.056304
3829.000000	101.056229
3828.000000	101.056593
3827.000000	101.057515
3826.000000	101.058709
3825.000000	101.059669
3824.000000	101.059951
3823.000000	101.059010
3822.000000	101.056423
3821.000000	101.053093
3820.000000	101.051152
3819.000000	101.052364
3818.000000	101.057190
3817.000000	101.064313
3816.000000	101.071310
3815.000000	101.076552
3814.000000	101.079838
3813.000000	101.081597
3812.000000	101.081970
3811.000000	101.080694
3810.000000	101.077812
3809.000000	101.073743
3808.000000	101.069470
3807.000000	101.066703
3806.000000	101.066282
3805.000000	101.067201
3804.000000	101.067614
3803.000000	101.066031
3802.000000	101.063327
3801.000000	101.063129
3800.000000	101.067338
3799.000000	101.073661
3798.000000	101.078456
3797.000000	101.080321
3796.000000	101.080871
3795.000000	101.082306
3794.000000	101.084594
3793.000000	101.085817
3792.000000	101.084736
3791.000000	101.082327
3790.000000	101.080788
3789.000000	101.081394
3788.000000	101.083629
3787.000000	101.085984
3786.000000	101.087068
3785.000000	101.086189
3784.000000	101.083730
3783.000000	101.081350
3782.000000	101.081163
3781.000000	101.083707
3780.000000	101.086764
3779.000000	101.087038
3778.000000	101.083045
3777.000000	101.075913
3776.000000	101.068041
3775.000000	101.061818
3774.000000	101.059315
3773.000000	101.061849
3772.000000	101.068504
3771.000000	101.075348
3770.000000	101.077798
3769.000000	101.073870
3768.000000	101.064481
3767.000000	101.052083
3766.000000	101.040280
3765.000000	101.033301
3764.000000	101.033388
3763.000000	101.038743
3762.000000	101.044737
3761.000000	101.046731
3760.000000	101.042688
3759.000000	101.033464
3758.000000	101.020465
3757.000000	101.004361
3756.000000	100.986165
3755.000000	100.968323
3754.000000	100.954095
3753.000000	100.945331
3752.000000	100.941220
3751.000000	100.940099
3750.000000	100.940931
3749.000000	100.943294
3748.000000	100.949189
3747.000000	100.961513
3746.000000	100.976141
3745.000000	100.984639
3744.000000	100.988070
3743.000000	100.994755
3742.000000	101.007172
3741.000000	101.020297
3740.000000	101.027741
3739.000000	101.026572
3738.000000	101.018685
3737.000000	101.009362
3736.000000	101.003025
3735.000000	100.998790
3734.000000	100.991797
3733.000000	100.979307
3732.000000	100.964103
3731.000000	100.951753
3730.000000	100.945865
3729.000000	100.946078
3728.000000	100.948590
3727.000000	100.948651
3726.000000	100.943621
3725.000000	100.933701
3724.000000	100.920117
3723.000000	100.903575
3722.000000	100.884717
3721.000000	100.864161
3720.000000	100.841497
3719.000000	100.815723
3718.000000	100.787289
3717.000000	100.758952
3716.000000	100.733473
3715.000000	100.710477
3714.000000	100.685974
3713.000000	100.656275
3712.000000	100.624269
3711.000000	100.598241
3710.000000	100.581506
3709.000000	100.568722
3708.000000	100.553174
3707.000000	100.532730
3706.000000	100.509468
3705.000000	100.486856
3704.000000	100.467752
3703.000000	100.453117
3702.000000	100.441370
3701.000000	100.429094
3700.000000	100.413538
3699.000000	100.395125
3698.000000	100.376871
3697.000000	100.361549
3696.000000	100.349597
3695.000000	100.339093
3694.000000	100.327510
3693.000000	100.314187
3692.000000	100.301828
3691.000000	100.294605
3690.000000	100.293695
3689.000000	100.295366
3688.000000	100.294458
3687.000000	100.289913
3686.000000	100.285642
3685.000000	100.285326
3684.000000	100.287345
3683.000000	100.284980
3682.000000	100.271511
3681.000000	100.246133
3680.000000	100.215285
3679.000000	100.187818
3678.000000	100.167159
3677.000000	100.146946
3676.000000	100.120449
3675.000000	100.091993
3674.000000	100.068822
3673.000000	100.049442
3672.000000	100.025535
3671.000000	99.990580
3670.000000	99.950041
3669.000000	99.918531
3668.000000	99.902704
3667.000000	99.896586
3666.000000	99.891187
3665.000000	99.881664
3664.000000	99.867766
3663.000000	99.850940
3662.000000	99.831978
3661.000000	99.811025
3660.000000	99.788533
3659.000000	99.764957
3658.000000	99.739070
3657.000000	99.708636
3656.000000	99.673893
3655.000000	99.638130
3654.000000	99.605167
3653.000000	99.577242
3652.000000	99.553054
3651.000000	99.527284
3650.000000	99.496321
3649.000000	99.465045
3648.000000	99.441914
3647.000000	99.429145
3646.000000	99.422488
3645.000000	99.416414
3644.000000	99.406926
3643.000000	99.392531
3642.000000	99.375023
3641.000000	99.358451
3640.000000	99.345403
3639.000000	99.334328
3638.000000	99.321222
3637.000000	99.303530
3636.000000	99.281716
3635.000000	99.257907
3634.000000	99.234408
3633.000000	99.213804
3632.000000	99.198486
3631.000000	99.186451
3630.000000	99.168802
3629.000000	99.139430
3628.000000	99.104235
3627.000000	99.073883
3626.000000	99.054656
3625.000000	99.047932
3624.000000	99.051702
3623.000000	99.061363
3622.000000	99.070995
3621.000000	99.075891
3620.000000	99.076311
3619.000000	99.078302
3618.000000	99.087795
3617.000000	99.105488
3616.000000	99.128664
3615.000000	99.154668
3614.000000	99.181576
3613.000000	99.207113
3612.000000	99.227754
3611.000000	99.239855
3610.000000	99.242744
3609.000000	99.240851
3608.000000	99.241348
3607.000000	99.247835
3606.000000	99.257976
3605.000000	99.268086
3604.000000	99.277474
3603.000000	99.287703
3602.000000	99.299049
3601.000000	99.309124
3600.000000	99.315471
3599.000000	99.318655
3598.000000	99.321746
3597.000000	99.327443
3596.000000	99.336288
3595.000000	99.346959
3594.000000	99.357402
3593.000000	99.365462
3592.000000	99.369130
3591.000000	99.366945
3590.000000	99.358786
3589.000000	99.347278
3588.000000	99.338233
3587.000000	99.336440
3586.000000	99.340586
3585.000000	99.345272
3584.000000	99.347145
3583.000000	99.347117
3582.000000	99.347871
3581.000000	99.350477
3580.000000	99.353608
3579.000000	99.355587
3578.000000	99.356089
3577.000000	99.355549
3576.000000	99.353900
3575.000000	99.350921
3574.000000	99.347592
3573.000000	99.346003
3572.000000	99.347226
3571.000000	99.349490
3570.000000	99.348895
3569.000000	99.342509
3568.000000	99.331475
3567.000000	99.321045
3566.000000	99.316092
3565.000000	99.317321
3564.000000	99.322360
3563.000000	99.328003
3562.000000	99.331598
3561.000000	99.331909
3560.000000	99.329470
3559.000000	99.326055
3558.000000	99.323223
3557.000000	99.321183
3556.000000	99.319109
3555.000000	99.316281
3554.000000	99.312712
3553.000000	99.308907
3552.000000	99.305363
3551.000000	99.302339
3550.000000	99.299878
3549.000000	99.297853
3548.000000	99.295991
3547.000000	99.293961
3546.000000	99.291549
3545.000000	99.288831
3544.000000	99.286133
3543.000000	99.283728
3542.000000	99.281566
3541.000000	99.279398
3540.000000	99.277055
3539.000000	99.274611
3538.000000	99.272264
3537.000000	99.270103
3536.000000	99.268056
3535.000000	99.265985
3534.000000	99.263792
3533.000000	99.261465
3532.000000	99.259039
3531.000000	99.256605
3530.000000	99.254267
3529.000000	99.252075
3528.000000	99.249977
3527.000000	99.247854
3526.000000	99.245652
3525.000000	99.243468
3524.000000	99.241441
3523.000000	99.239585
3522.000000	99.237748
3521.000000	99.235772
3520.000000	99.233649
3519.000000	99.231519
3518.000000	99.229517
3517.000000	99.227609
3516.000000	99.225598
3515.000000	99.223305
3514.000000	99.220800
3513.000000	99.218431
3512.000000	99.216542
3511.000000	99.215195
3510.000000	99.214160
3509.000000	99.213217
3508.000000	99.212336
3507.000000	99.211436
3506.000000	99.210129
3505.000000	99.207950
3504.000000	99.204831
3503.000000	99.201214
3502.000000	99.197681
3501.000000	99.194562
3500.000000	99.191989
3499.000000	99.190021
3498.000000	99.188534
3497.000000	99.187113
3496.000000	99.185282
3495.000000	99.182902
3494.000000	99.180179
3493.000000	99.177350
3492.000000	99.174526
3491.000000	99.171945
3490.000000	99.170016
3489.000000	99.168836
3488.000000	99.167827
3487.000000	99.166155
3486.000000	99.163572
3485.000000	99.160584
3484.000000	99.157790
3483.000000	99.155313
3482.000000	99.152942
3481.000000	99.150556
3480.000000	99.148159
3479.000000	99.145663
3478.000000	99.142951
3477.000000	99.140116
3476.000000	99.137387
3475.000000	99.134806
3474.000000	99.132161
3473.000000	99.129332
3472.000000	99.126538
3471.000000	99.124093
3470.000000	99.122015
3469.000000	99.119963
3468.000000	99.117583
3467.000000	99.114859
3466.000000	99.112067
3465.000000	99.109423
3464.000000	99.106813
3463.000000	99.103907
3462.000000	99.100515
3461.000000	99.096864
3460.000000	99.093513
3459.000000	99.090899
3458.000000	99.089064
3457.000000	99.087721
3456.000000	99.086448
3455.000000	99.084817
3454.000000	99.082520
3453.000000	99.079618
3452.000000	99.076647
3451.000000	99.074254
3450.000000	99.072705
3449.000000	99.071717
3448.000000	99.070607
3447.000000	99.068736
3446.000000	99.065918
3445.000000	99.062484
3444.000000	99.058971
3443.000000	99.055714
3442.000000	99.052711
3441.000000	99.049840
3440.000000	99.047156
3439.000000	99.044892
3438.000000	99.043165
3437.000000	99.041719
3436.000000	99.040074
3435.000000	99.038005
3434.000000	99.035707
3433.000000	99.033428
3432.000000	99.031058
3431.000000	99.028314
3430.000000	99.025265
3429.000000	99.022390
3428.000000	99.019994
3427.000000	99.017800
3426.000000	99.015409
3425.000000	99.012997
3424.000000	99.011149
3423.000000	99.009957
3422.000000	99.008683
3421.000000	99.006619
3420.000000	99.004068
3419.000000	99.002097
3418.000000	99.001396
3417.000000	99.001604
3416.000000	99.001596
3415.000000	99.000298
3414.000000	98.997460
3413.000000	98.994113
3412.000000	98.992146
3411.000000	98.992781
3410.000000	98.995276
3409.000000	98.997307
3408.000000	98.997065
3407.000000	98.994719
3406.000000	98.991592
3405.000000	98.988269
3404.000000	98.984074
3403.000000	98.978441
3402.000000	98.972260
3401.000000	98.967503
3400.000000	98.965432
3399.000000	98.965409
3398.000000	98.965554
3397.000000	98.964772
3396.000000	98.963987
3395.000000	98.964831
3394.000000	98.967310
3393.000000	98.969325
3392.000000	98.968945
3391.000000	98.966743
3390.000000	98.965186
3389.000000	98.965874
3388.000000	98.968185
3387.000000	98.970534
3386.000000	98.972102
3385.000000	98.972871
3384.000000	98.972637
3383.000000	98.971062
3382.000000	98.968620
3381.000000	98.966635
3380.000000	98.965940
3379.000000	98.965965
3378.000000	98.965500
3377.000000	98.964177
3376.000000	98.962880
3375.000000	98.962776
3374.000000	98.964209
3373.000000	98.966551
3372.000000	98.968697
3371.000000	98.969782
3370.000000	98.969633
3369.000000	98.968697
3368.000000	98.967709
3367.000000	98.967232
3366.000000	98.967392
3365.000000	98.967979
3364.000000	98.968709
3363.000000	98.969487
3362.000000	98.970451
3361.000000	98.971724
3360.000000	98.973164
3359.000000	98.974433
3358.000000	98.975350
3357.000000	98.976030
3356.000000	98.976689
3355.000000	98.977413
3354.000000	98.978162
3353.000000	98.978928
3352.000000	98.979816
3351.000000	98.980939
3350.000000	98.982275
3349.000000	98.983675
3348.000000	98.985005
3347.000000	98.986252
3346.000000	98.987462
3345.000000	98.988693
3344.000000	98.989977
3343.000000	98.991321
3342.000000	98.992708
3341.000000	98.994130
3340.000000	98.995613
3339.000000	98.997202
3338.000000	98.998896
3337.000000	99.000637
3336.000000	99.002369
3335.000000	99.004088
3334.000000	99.005816
3333.000000	99.007584
3332.000000	99.009397
3331.000000	99.011243
3330.000000	99.013102
3329.000000	99.014974
3328.000000	99.016869
3327.000000	99.018793
3326.000000	99.020734
3325.000000	99.022677
3324.000000	99.024615
3323.000000	99.026551
3322.000000	99.028489
3321.000000	99.030427
3320.000000	99.032357
3319.000000	99.034277
3318.000000	99.036189
3317.000000	99.038108
3316.000000	99.040045
3315.000000	99.042001
3314.000000	99.043971
3313.000000	99.045948
3312.000000	99.047935
3311.000000	99.049935
3310.000000	99.051946
3309.000000	99.053954
3308.000000	99.055940
3307.000000	99.057892
3306.000000	99.059809
3305.000000	99.061694
3304.000000	99.063548
3303.000000	99.065374
3302.000000	99.067176
3301.000000	99.068967
3300.000000	99.070760
3299.000000	99.072558
3298.000000	99.074351
3297.000000	99.076117
3296.000000	99.077836
3295.000000	99.079501
3294.000000	99.081122
3293.000000	99.082719
3292.000000	99.084303
3291.000000	99.085879
3290.000000	99.087448
3289.000000	99.089013
3288.000000	99.090583
3287.000000	99.092155
3286.000000	99.093722
3285.000000	99.095272
3284.000000	99.096794
3283.000000	99.098295
3282.000000	99.099825
3281.000000	99.101413
3280.000000	99.102939
3279.000000	99.104216
3278.000000	99.105288
3277.000000	99.106496
3276.000000	99.108133
3275.000000	99.110114
3274.000000	99.112052
3273.000000	99.113708
3272.000000	99.115256
3271.000000	99.117101
3270.000000	99.119431
3269.000000	99.121941
3268.000000	99.123983
3267.000000	99.125077
3266.000000	99.125325
3265.000000	99.125303
3264.000000	99.125562
3263.000000	99.126299
3262.000000	99.127608
3261.000000	99.129779
3260.000000	99.132960
3259.000000	99.136499
3258.000000	99.139030
3257.000000	99.139583
3256.000000	99.138573
3255.000000	99.137488
3254.000000	99.137600
3253.000000	99.139232
3252.000000	99.142108
3251.000000	99.146035
3250.000000	99.150957
3249.000000	99.156376
3248.000000	99.161189
3247.000000	99.164294
3246.000000	99.165354
3245.000000	99.164899
3244.000000	99.163732
3243.000000	99.162496
3242.000000	99.161924
3241.000000	99.163107
3240.000000	99.166969
3239.000000	99.173325
3238.000000	99.180780
3237.000000	99.187788
3236.000000	99.193718
3235.000000	99.198791
3234.000000	99.203176
3233.000000	99.206677
3232.000000	99.209361
3231.000000	99.212016
3230.000000	99.215679
3229.000000	99.220681
3228.000000	99.226315
3227.000000	99.231432
3226.000000	99.235291
3225.000000	99.237873
3224.000000	99.239665
3223.000000	99.241377
3222.000000	99.243656
3221.000000	99.246662
3220.000000	99.249817
3219.000000	99.252279
3218.000000	99.253937
3217.000000	99.255808
3216.000000	99.259114
3215.000000	99.263979
3214.000000	99.269272
3213.000000	99.273771
3212.000000	99.277388
3211.000000	99.280982
3210.000000	99.285210
3209.000000	99.289778
3208.000000	99.293842
3207.000000	99.297014
3206.000000	99.299844
3205.000000	99.303321
3204.000000	99.307836
3203.000000	99.312887
3202.000000	99.317641
3201.000000	99.321778
3200.000000	99.325566
3199.000000	99.329308
3198.000000	99.332975
3197.000000	99.336433
3196.000000	99.339948
3195.000000	99.344130
3194.000000	99.349239
3193.000000	99.354855
3192.000000	99.360245
3191.000000	99.365072
3190.000000	99.369484
3189.000000	99.373812
3188.000000	99.378308
3187.000000	99.383046
3186.000000	99.387944
3185.000000	99.392815
3184.000000	99.397494
3183.000000	99.401950
3182.000000	99.406298
3181.000000	99.410700
3180.000000	99.415249
3179.000000	99.419897
3178.000000	99.424507
3177.000000	99.429011
3176.000000	99.433549
3175.000000	99.438353
3174.000000	99.443443
3173.000000	99.448531
3172.000000	99.453324
3171.000000	99.457885
3170.000000	99.462533
3169.000000	99.467405
3168.000000	99.472233
3167.000000	99.476647
3166.000000	99.480593
3165.000000	99.484482
3164.000000	99.488924
3163.000000	99.494241
3162.000000	99.500234
3161.000000	99.506200
3160.000000	99.511534
3159.000000	99.516225
3158.000000	99.520708
3157.000000	99.525238
3156.000000	99.529562
3155.000000	99.533395
3154.000000	99.536854
3153.000000	99.540343
3152.000000	99.544214
3151.000000	99.548588
3150.000000	99.553339
3149.000000	99.558183
3148.000000	99.562865
3147.000000	99.567317
3146.000000	99.571614
3145.000000	99.575852
3144.000000	99.580126
3143.000000	99.584538
3142.000000	99.589099
3141.000000	99.593666
3140.000000	99.598096
3139.000000	99.602467
3138.000000	99.606994
3137.000000	99.611742
3136.000000	99.616545
3135.000000	99.621215
3134.000000	99.625723
3133.000000	99.630107
3132.000000	99.634387
3131.000000	99.638621
3130.000000	99.642951
3129.000000	99.647455
3128.000000	99.652043
3127.000000	99.656545
3126.000000	99.660909
3125.000000	99.665233
3124.000000	99.669638
3123.000000	99.674146
3122.000000	99.678703
3121.000000	99.683247
3120.000000	99.687743
3119.000000	99.692198
3118.000000	99.696650
3117.000000	99.701124
3116.000000	99.705618
3115.000000	99.710122
3114.000000	99.714627
3113.000000	99.719124
3112.000000	99.723605
3111.000000	99.728065
3110.000000	99.732499
3109.000000	99.736906
3108.000000	99.741289
3107.000000	99.745655
3106.000000	99.750013
3105.000000	99.754368
3104.000000	99.758723
3103.000000	99.763076
3102.000000	99.767421
3101.000000	99.771752
3100.000000	99.776062
3099.000000	99.780347
3098.000000	99.784606
3097.000000	99.788839
3096.000000	99.793047
3095.000000	99.797226
3094.000000	99.801376
3093.000000	99.805507
3092.000000	99.809632
3091.000000	99.813758
3090.000000	99.817880
3089.000000	99.821984
3088.000000	99.826058
3087.000000	99.830093
3086.000000	99.834090
3085.000000	99.838060
3084.000000	99.842022
3083.000000	99.845987
3082.000000	99.849951
3081.000000	99.853900
3080.000000	99.857823
3079.000000	99.861719
3078.000000	99.865600
3077.000000	99.869478
3076.000000	99.873358
3075.000000	99.877239
3074.000000	99.881113
3073.000000	99.884972
3072.000000	99.888811
3071.000000	99.892626
3070.000000	99.896416
3069.000000	99.900182
3068.000000	99.903929
3067.000000	99.907668
3066.000000	99.911410
3065.000000	99.915162
3064.000000	99.918918
3063.000000	99.922666
3062.000000	99.926399
3061.000000	99.930123
3060.000000	99.933853
3059.000000	99.937601
3058.000000	99.941366
3057.000000	99.945144
3056.000000	99.948932
3055.000000	99.952728
3054.000000	99.956535
3053.000000	99.960369
3052.000000	99.964254
3051.000000	99.968207
3050.000000	99.972202
3049.000000	99.976160
3048.000000	99.979997
3047.000000	99.983692
3046.000000	99.987314
3045.000000	99.991014
3044.000000	99.994949
3043.000000	99.999105
3042.000000	100.003216
3041.000000	100.007040
3040.000000	100.010772
3039.000000	100.014948
3038.000000	100.019856
3037.000000	100.025197
3036.000000	100.030394
3035.000000	100.035114
3034.000000	100.039243
3033.000000	100.042608
3032.000000	100.045116
3031.000000	100.047147
3030.000000	100.049527
3029.000000	100.052906
3028.000000	100.057280
3027.000000	100.062262
3026.000000	100.067594
3025.000000	100.073295
3024.000000	100.079401
3023.000000	100.085761
3022.000000	100.092261
3021.000000	100.099092
3020.000000	100.106351
3019.000000	100.113194
3018.000000	100.118053
3017.000000	100.120099
3016.000000	100.120561
3015.000000	100.122136
3014.000000	100.126504
3013.000000	100.132974
3012.000000	100.139455
3011.000000	100.144461
3010.000000	100.147924
3009.000000	100.150485
3008.000000	100.152766
3007.000000	100.155306
3006.000000	100.158657
3005.000000	100.163243
3004.000000	100.169218
3003.000000	100.176343
3002.000000	100.183891
3001.000000	100.191036
3000.000000	100.197672
2999.000000	100.204435
2998.000000	100.211482
2997.000000	100.217690
2996.000000	100.221780
2995.000000	100.223946
2994.000000	100.225515
2993.000000	100.227306
2992.000000	100.229606
2991.000000	100.233791
2990.000000	100.242114
2989.000000	100.254389
2988.000000	100.265941
2987.000000	100.271174
2986.000000	100.269398
2985.000000	100.265894
2984.000000	100.266416
2983.000000	100.271368
2982.000000	100.276912
2981.000000	100.280602
2980.000000	100.283853
2979.000000	100.288626
2978.000000	100.293881
2977.000000	100.296861
2976.000000	100.296857
2975.000000	100.296152
2974.000000	100.297456
2973.000000	100.301421
2972.000000	100.306467
2971.000000	100.310020
2970.000000	100.309805
2969.000000	100.305032
2968.000000	100.296974
2967.000000	100.287914
2966.000000	100.279348
2965.000000	100.271889
2964.000000	100.266639
2963.000000	100.265311
2962.000000	100.268387
2961.000000	100.273972
2960.000000	100.279130
2959.000000	100.281946
2958.000000	100.282064
2957.000000	100.280051
2956.000000	100.276833
2955.000000	100.272964
2954.000000	100.267783
2953.000000	100.260164
2952.000000	100.250893
2951.000000	100.243313
2950.000000	100.240177
2949.000000	100.240219
2948.000000	100.239162
2947.000000	100.234141
2946.000000	100.226253
2945.000000	100.218854
2944.000000	100.214809
2943.000000	100.215530
2942.000000	100.221226
2941.000000	100.230951
2940.000000	100.242875
2939.000000	100.255196
2938.000000	100.266380
2937.000000	100.274615
2936.000000	100.278250
2935.000000	100.277298
2934.000000	100.273570
2933.000000	100.268775
2932.000000	100.263496
2931.000000	100.258845
2930.000000	100.257645
2929.000000	100.262114
2928.000000	100.270691
2927.000000	100.278688
2926.000000	100.282445
2925.000000	100.281935
2924.000000	100.279371
2923.000000	100.277102
2922.000000	100.277373
2921.000000	100.282199
2920.000000	100.291703
2919.000000	100.303139
2918.000000	100.313024
2917.000000	100.320459
2916.000000	100.327327
2915.000000	100.335247
2914.000000	100.343307
2913.000000	100.349221
2912.000000	100.352019
2911.000000	100.353131
2910.000000	100.355148
2909.000000	100.359788
2908.000000	100.366735
2907.000000	100.374071
2906.000000	100.379973
2905.000000	100.384311
2904.000000	100.388519
2903.000000	100.393787
2902.000000	100.399458
2901.000000	100.403516
2900.000000	100.404535
2899.000000	100.403025
2898.000000	100.401012
2897.000000	100.400654
2896.000000	100.403112
2895.000000	100.408069
2894.000000	100.413913
2893.000000	100.418799
2892.000000	100.422013
2891.000000	100.424362
2890.000000	100.427078
2889.000000	100.430545
2888.000000	100.434326
2887.000000	100.438086
2886.000000	100.441852
2885.000000	100.445282
2884.000000	100.447284
2883.000000	100.446897
2882.000000	100.444452
2881.000000	100.441628
2880.000000	100.440396
2879.000000	100.441761
2878.000000	100.445250
2877.000000	100.449144
2876.000000	100.451484
2875.000000	100.451470
2874.000000	100.450142
2873.000000	100.449620
2872.000000	100.451366
2871.000000	100.455163
2870.000000	100.459634
2869.000000	100.463561
2868.000000	100.466689
2867.000000	100.469389
2866.000000	100.471846
2865.000000	100.473694
2864.000000	100.474398
2863.000000	100.473989
2862.000000	100.473411
2861.000000	100.473954
2860.000000	100.476153
2859.000000	100.479164
2858.000000	100.481257
2857.000000	100.481125
2856.000000	100.478934
2855.000000	100.476375
2854.000000	100.475639
2853.000000	100.477955
2852.000000	100.483060
2851.000000	100.489622
2850.000000	100.496068
2849.000000	100.501357
2848.000000	100.505204
2847.000000	100.507876
2846.000000	100.509894
2845.000000	100.511713
2844.000000	100.513620
2843.000000	100.515890
2842.000000	100.518872
2841.000000	100.522704
2840.000000	100.526953
2839.000000	100.530758
2838.000000	100.533565
2837.000000	100.535636
2836.000000	100.537792
2835.000000	100.540649
2834.000000	100.544192
2833.000000	100.548025
2832.000000	100.551787
2831.000000	100.555323
2830.000000	100.558637
2829.000000	100.561830
2828.000000	100.565056
2827.000000	100.568401
2826.000000	100.571778
2825.000000	100.575016
2824.000000	100.578058
2823.000000	100.581033
2822.000000	100.584130
2821.000000	100.587435
2820.000000	100.590892
2819.000000	100.594394
2818.000000	100.597859
2817.000000	100.601265
2816.000000	100.604630
2815.000000	100.607974
2814.000000	100.611287
2813.000000	100.614568
2812.000000	100.617819
2811.000000	100.621032
2810.000000	100.624193
2809.000000	100.627290
2808.000000	100.630323
2807.000000	100.633310
2806.000000	100.636281
2805.000000	100.639259
2804.000000	100.642252
2803.000000	100.645250
2802.000000	100.648237
2801.000000	100.651199
2800.000000	100.654131
2799.000000	100.657033
2798.000000	100.659904
2797.000000	100.662746
2796.000000	100.665564
2795.000000	100.668360
2794.000000	100.671133
2793.000000	100.673872
2792.000000	100.676566
2791.000000	100.679209
2790.000000	100.681807
2789.000000	100.684371
2788.000000	100.686908
2787.000000	100.689424
2786.000000	100.691926
2785.000000	100.694419
2784.000000	100.696904
2783.000000	100.699374
2782.000000	100.701847
2781.000000	100.704380
2780.000000	100.707017
2779.000000	100.709671
2778.000000	100.712118
2777.000000	100.714219
2776.000000	100.716098
2775.000000	100.718007
2774.000000	100.720038
2773.000000	100.722114
2772.000000	100.724209
2771.000000	100.726410
2770.000000	100.728714
2769.000000	100.730918
2768.000000	100.732875
2767.000000	100.734758
2766.000000	100.736865
2765.000000	100.739249
2764.000000	100.741687
2763.000000	100.743994
2762.000000	100.746180
2761.000000	100.748350
2760.000000	100.750568
2759.000000	100.752808
2758.000000	100.754989
2757.000000	100.757061
2756.000000	100.759036
2755.000000	100.760945
2754.000000	100.762796
2753.000000	100.764619
2752.000000	100.766525
2751.000000	100.768607
2750.000000	100.770777
2749.000000	100.772803
2748.000000	100.774548
2747.000000	100.776097
2746.000000	100.777644
2745.000000	100.779363
2744.000000	100.781420
2743.000000	100.783953
2742.000000	100.786813
2741.000000	100.789437
2740.000000	100.791346
2739.000000	100.792634
2738.000000	100.793859
2737.000000	100.795327
2736.000000	100.796817
2735.000000	100.798098
2734.000000	100.799358
2733.000000	100.800971
2732.000000	100.803076
2731.000000	100.805535
2730.000000	100.808016
2729.000000	100.809975
2728.000000	100.810851
2727.000000	100.810566
2726.000000	100.809800
2725.000000	100.809528
2724.000000	100.810254
2723.000000	100.811959
2722.000000	100.814414
2721.000000	100.817227
2720.000000	100.819781
2719.000000	100.821637
2718.000000	100.823023
2717.000000	100.824523
2716.000000	100.826177
2715.000000	100.827337
2714.000000	100.827557
2713.000000	100.827151
2712.000000	100.826696
2711.000000	100.826453
2710.000000	100.826541
2709.000000	100.827176
2708.000000	100.828394
2707.000000	100.829782
2706.000000	100.830828
2705.000000	100.831381
2704.000000	100.831562
2703.000000	100.831417
2702.000000	100.830963
2701.000000	100.830451
2700.000000	100.830247
2699.000000	100.830437
2698.000000	100.830678
2697.000000	100.830475
2696.000000	100.829638
2695.000000	100.828606
2694.000000	100.828266
2693.000000	100.829108
2692.000000	100.830592
2691.000000	100.831574
2690.000000	100.831625
2689.000000	100.831523
2688.000000	100.832111
2687.000000	100.833204
2686.000000	100.833970
2685.000000	100.834136
2684.000000	100.834226
2683.000000	100.834717
2682.000000	100.835489
2681.000000	100.836147
2680.000000	100.836521
2679.000000	100.836690
2678.000000	100.836772
2677.000000	100.836835
2676.000000	100.836874
2675.000000	100.836829
2674.000000	100.836702
2673.000000	100.836614
2672.000000	100.836691
2671.000000	100.836927
2670.000000	100.837221
2669.000000	100.837473
2668.000000	100.837669
2667.000000	100.837855
2666.000000	100.838059
2665.000000	100.838268
2664.000000	100.838462
2663.000000	100.838639
2662.000000	100.838808
2661.000000	100.838975
2660.000000	100.839139
2659.000000	100.839293
2658.000000	100.839424
2657.000000	100.839520
2656.000000	100.839582
2655.000000	100.839619
2654.000000	100.839647
2653.000000	100.839680
2652.000000	100.839723
2651.000000	100.839771
2650.000000	100.839812
2649.000000	100.839835
2648.000000	100.839838
2647.000000	100.839831
2646.000000	100.839826
2645.000000	100.839836
2644.000000	100.839869
2643.000000	100.839919
2642.000000	100.839974
2641.000000	100.840020
2640.000000	100.840050
2639.000000	100.840065
2638.000000	100.840075
2637.000000	100.840094
2636.000000	100.840140
2635.000000	100.840222
2634.000000	100.840336
2633.000000	100.840465
2632.000000	100.840592
2631.000000	100.840705
2630.000000	100.840801
2629.000000	100.840881
2628.000000	100.840951
2627.000000	100.841024
2626.000000	100.841107
2625.000000	100.841199
2624.000000	100.841292
2623.000000	100.841387
2622.000000	100.841496
2621.000000	100.841633
2620.000000	100.841803
2619.000000	100.842000
2618.000000	100.842214
2617.000000	100.842438
2616.000000	100.842677
2615.000000	100.842940
2614.000000	100.843241
2613.000000	100.843591
2612.000000	100.843989
2611.000000	100.844423
2610.000000	100.844873
2609.000000	100.845323
2608.000000	100.845774
2607.000000	100.846238
2606.000000	100.846723
2605.000000	100.847228
2604.000000	100.847739
2603.000000	100.848244
2602.000000	100.848738
2601.000000	100.849228
2600.000000	100.849748
2599.000000	100.850310
2598.000000	100.850858
2597.000000	100.851359
2596.000000	100.851874
2595.000000	100.852463
2594.000000	100.853060
2593.000000	100.853488
2592.000000	100.853635
2591.000000	100.853558
2590.000000	100.853402
2589.000000	100.853302
2588.000000	100.853366
2587.000000	100.853706
2586.000000	100.854353
2585.000000	100.855154
2584.000000	100.855913
2583.000000	100.856686
2582.000000	100.857785
2581.000000	100.859433
2580.000000	100.861488
2579.000000	100.863531
2578.000000	100.865083
2577.000000	100.865802
2576.000000	100.865701
2575.000000	100.865320
2574.000000	100.865554
2573.000000	100.867161
2572.000000	100.870358
2571.000000	100.874636
2570.000000	100.878712
2569.000000	100.881001
2568.000000	100.880740
2567.000000	100.878601
2566.000000	100.876176
2565.000000	100.874500
2564.000000	100.873301
2563.000000	100.871986
2562.000000	100.870797
2561.000000	100.870679
2560.000000	100.872159
2559.000000	100.874682
2558.000000	100.877088
2557.000000	100.878678
2556.000000	100.879711
2555.000000	100.880828
2554.000000	100.882073
2553.000000	100.882681
2552.000000	100.881996
2551.000000	100.880468
2550.000000	100.879483
2549.000000	100.880027
2548.000000	100.881734
2547.000000	100.883329
2546.000000	100.883914
2545.000000	100.883726
2544.000000	100.883732
2543.000000	100.884711
2542.000000	100.886762
2541.000000	100.889468
2540.000000	100.892308
2539.000000	100.894893
2538.000000	100.896921
2537.000000	100.898195
2536.000000	100.898793
2535.000000	100.899133
2534.000000	100.899632
2533.000000	100.900336
2532.000000	100.901086
2531.000000	100.902034
2530.000000	100.903656
2529.000000	100.906112
2528.000000	100.908787
2527.000000	100.910765
2526.000000	100.911692
2525.000000	100.911916
2524.000000	100.911986
2523.000000	100.912136
2522.000000	100.912394
2521.000000	100.912983
2520.000000	100.914314
2519.000000	100.916580
2518.000000	100.919542
2517.000000	100.922670
2516.000000	100.925429
2515.000000	100.927467
2514.000000	100.928685
2513.000000	100.929328
2512.000000	100.929885
2511.000000	100.930811
2510.000000	100.932327
2509.000000	100.934397
2508.000000	100.936776
2507.000000	100.939102
2506.000000	100.941078
2505.000000	100.942659
2504.000000	100.944029
2503.000000	100.945396
2502.000000	100.946824
2501.000000	100.948302
2500.000000	100.949850
2499.000000	100.951500
2498.000000	100.953245
2497.000000	100.955073
2496.000000	100.956995
2495.000000	100.958950
2494.000000	100.960746
2493.000000	100.962209
2492.000000	100.963383
2491.000000	100.964518
2490.000000	100.965851
2489.000000	100.967444
2488.000000	100.969176
2487.000000	100.970806
2486.000000	100.972125
2485.000000	100.973154
2484.000000	100.974207
2483.000000	100.975634
2482.000000	100.977503
2481.000000	100.979640
2480.000000	100.981886
2479.000000	100.984225
2478.000000	100.986680
2477.000000	100.989149
2476.000000	100.991338
2475.000000	100.992867
2474.000000	100.993568
2473.000000	100.993881
2472.000000	100.994770
2471.000000	100.996885
2470.000000	101.000014
2469.000000	101.003349
2468.000000	101.006324
2467.000000	101.008884
2466.000000	101.010929
2465.000000	101.012143
2464.000000	101.012588
2463.000000	101.013006
2462.000000	101.014119
2461.000000	101.015881
2460.000000	101.017697
2459.000000	101.019114
2458.000000	101.020101
2457.000000	101.020862
2456.000000	101.021738
2455.000000	101.023159
2454.000000	101.025359
2453.000000	101.028060
2452.000000	101.030635
2451.000000	101.032660
2450.000000	101.034144
2449.000000	101.035281
2448.000000	101.036220
2447.000000	101.037062
2446.000000	101.037864
2445.000000	101.038597
2444.000000	101.039287
2443.000000	101.040165
2442.000000	101.041437
2441.000000	101.042955
2440.000000	101.044471
2439.000000	101.046157
2438.000000	101.048471
2437.000000	101.051440
2436.000000	101.054342
2435.000000	101.056302
2434.000000	101.057118
2433.000000	101.057367
2432.000000	101.057902
2431.000000	101.059127
2430.000000	101.060806
2429.000000	101.062404
2428.000000	101.063564
2427.000000	101.064306
2426.000000	101.064893
2425.000000	101.065621
2424.000000	101.066771
2423.000000	101.068586
2422.000000	101.071090
2421.000000	101.073937
2420.000000	101.076579
2419.000000	101.078602
2418.000000	101.079829
2417.000000	101.080212
2416.000000	101.079935
2415.000000	101.079616
2414.000000	101.079960
2413.000000	101.081095
2412.000000	101.082504
2411.000000	101.083710
2410.000000	101.084758
2409.000000	101.085873
2408.000000	101.086977
2407.000000	101.087732
2406.000000	101.087954
2405.000000	101.087930
2404.000000	101.088408
2403.000000	101.090156
2402.000000	101.093169
2401.000000	101.096225
2400.000000	101.097765
2399.000000	101.097419
2398.000000	101.096180
2397.000000	101.094961
2396.000000	101.093514
2395.000000	101.091380
2394.000000	101.089332
2393.000000	101.088890
2392.000000	101.090689
2391.000000	101.094022
2390.000000	101.097687
2389.000000	101.100697
2388.000000	101.102296
2387.000000	101.102274
2386.000000	101.101452
2385.000000	101.101159
2384.000000	101.101967
2383.000000	101.103382
2382.000000	101.104864
2381.000000	101.106535
2380.000000	101.108595
2379.000000	101.110565
2378.000000	101.111653
2377.000000	101.111651
2376.000000	101.110912
2375.000000	101.109568
2374.000000	101.107377
2373.000000	101.104536
2372.000000	101.102238
2371.000000	101.101910
2370.000000	101.103854
2369.000000	101.106900
2368.000000	101.109558
2367.000000	101.111502
2366.000000	101.113317
2365.000000	101.114814
2364.000000	101.114448
2363.000000	101.111105
2362.000000	101.105756
2361.000000	101.100456
2360.000000	101.096333
2359.000000	101.093600
2358.000000	101.092599
2357.000000	101.093601
2356.000000	101.095440
2355.000000	101.096023
2354.000000	101.094579
2353.000000	101.092379
2352.000000	101.091225
2351.000000	101.091475
2350.000000	101.092185
2349.000000	101.092272
2348.000000	101.091176
2347.000000	101.089152
2346.000000	101.087109
2345.000000	101.086366
2344.000000	101.087243
2343.000000	101.088350
2342.000000	101.088144
2341.000000	101.086627
2340.000000	101.084937
2339.000000	101.083257
2338.000000	101.080743
2337.000000	101.077181
2336.000000	101.073753
2335.000000	101.071486
2334.000000	101.070086
2333.000000	101.068342
2332.000000	101.065791
2331.000000	101.063137
2330.000000	101.061659
2329.000000	101.061922
2328.000000	101.063164
2327.000000	101.063866
2326.000000	101.062941
2325.000000	101.060679
2324.000000	101.058163
2323.000000	101.056129
2322.000000	101.054439
2321.000000	101.052503
2320.000000	101.050074
2319.000000	101.047165
2318.000000	101.044101
2317.000000	101.041349
2316.000000	101.039442
2315.000000	101.038368
2314.000000	101.037671
2313.000000	101.037003
2312.000000	101.036605
2311.000000	101.036756
2310.000000	101.037321
2309.000000	101.037986
2308.000000	101.038604
2307.000000	101.038928
2306.000000	101.038307
2305.000000	101.036205
2304.000000	101.033007
2303.000000	101.029686
2302.000000	101.026846
2301.000000	101.024303
2300.000000	101.021730
2299.000000	101.019257
2298.000000	101.017299
2297.000000	101.015986
2296.000000	101.015047
2295.000000	101.014229
2294.000000	101.013554
2293.000000	101.013040
2292.000000	101.012237
2291.000000	101.010499
2290.000000	101.007759
2289.000000	101.004849
2288.000000	101.002788
2287.000000	101.001788
2286.000000	101.001161
2285.000000	101.000111
2284.000000	100.998450
2283.000000	100.996507
2282.000000	100.994656
2281.000000	100.993035
2280.000000	100.991569
2279.000000	100.990068
2278.000000	100.988352
2277.000000	100.986381
2276.000000	100.984287
2275.000000	100.982254
2274.000000	100.980395
2273.000000	100.978680
2272.000000	100.976856
2271.000000	100.974481
2270.000000	100.971252
2269.000000	100.967456
2268.000000	100.964004
2267.000000	100.961739
2266.000000	100.960831
2265.000000	100.960789
2264.000000	100.960827
2263.000000	100.960231
2262.000000	100.958560
2261.000000	100.955889
2260.000000	100.952880
2259.000000	100.950281
2258.000000	100.948273
2257.000000	100.946552
2256.000000	100.944892
2255.000000	100.943244
2254.000000	100.941427
2253.000000	100.939225
2252.000000	100.936938
2251.000000	100.935330
2250.000000	100.934815
2249.000000	100.934998
2248.000000	100.935175
2247.000000	100.934884
2246.000000	100.933726
2245.000000	100.931152
2244.000000	100.927024
2243.000000	100.922172
2242.000000	100.917872
2241.000000	100.914754
2240.000000	100.912620
2239.000000	100.911307
2238.000000	100.911232
2237.000000	100.912775
2236.000000	100.915394
2235.000000	100.917686
2234.000000	100.918461
2233.000000	100.917760
2232.000000	100.916797
2231.000000	100.916861
2230.000000	100.918188
2229.000000	100.919933
2228.000000	100.921120
2227.000000	100.921453
2226.000000	100.921176
2225.000000	100.920359
2224.000000	100.918633
2223.000000	100.915775
2222.000000	100.912492
2221.000000	100.910409
2220.000000	100.910808
2219.000000	100.913264
2218.000000	100.915719
2217.000000	100.916308
2216.000000	100.914978
2215.000000	100.913097
2214.000000	100.911867
2213.000000	100.911477
2212.000000	100.911578
2211.000000	100.911923
2210.000000	100.912441
2209.000000	100.913187
2208.000000	100.914376
2207.000000	100.916124
2206.000000	100.918080
2205.000000	100.919656
2204.000000	100.920741
2203.000000	100.921845
2202.000000	100.923434
2201.000000	100.925404
2200.000000	100.927282
2199.000000	100.928605
2198.000000	100.929072
2197.000000	100.928748
2196.000000	100.928292
2195.000000	100.928642
2194.000000	100.930156
2193.000000	100.932191
2192.000000	100.933729
2191.000000	100.934339
2190.000000	100.934258
2189.000000	100.933766
2188.000000	100.932976
2187.000000	100.932223
2186.000000	100.932113
2185.000000	100.932922
2184.000000	100.934237
2183.000000	100.935442
2182.000000	100.936428
2181.000000	100.937514
2180.000000	100.938737
2179.000000	100.939611
2178.000000	100.939747
2177.000000	100.939498
2176.000000	100.939716
2175.000000	100.940892
2174.000000	100.942821
2173.000000	100.944990
2172.000000	100.947076
2171.000000	100.948896
2170.000000	100.950164
2169.000000	100.950668
2168.000000	100.950599
2167.000000	100.950483
2166.000000	100.950676
2165.000000	100.951110
2164.000000	100.951587
2163.000000	100.952172
2162.000000	100.953137
2161.000000	100.954598
2160.000000	100.956395
2159.000000	100.958294
2158.000000	100.960073
2157.000000	100.961437
2156.000000	100.962087
2155.000000	100.961878
2154.000000	100.961004
2153.000000	100.960092
2152.000000	100.959932
2151.000000	100.960867
2150.000000	100.962427
2149.000000	100.963754
2148.000000	100.964577
2147.000000	100.965489
2146.000000	100.967108
2145.000000	100.969288
2144.000000	100.971347
2143.000000	100.972846
2142.000000	100.973814
2141.000000	100.974418
2140.000000	100.974862
2139.000000	100.975590
2138.000000	100.977100
2137.000000	100.979359
2136.000000	100.981694
2135.000000	100.983479
2134.000000	100.984762
2133.000000	100.985970
2132.000000	100.987234
2131.000000	100.988303
2130.000000	100.989025
2129.000000	100.989636
2128.000000	100.990525
2127.000000	100.991849
2126.000000	100.993397
2125.000000	100.994834
2124.000000	100.996203
2123.000000	100.998138
2122.000000	101.001325
2121.000000	101.005673
2120.000000	101.010070
2119.000000	101.013164
2118.000000	101.014479
2117.000000	101.014697
2116.000000	101.015204
2115.000000	101.017040
2114.000000	101.020228
2113.000000	101.023916
2112.000000	101.027125
2111.000000	101.029591
2110.000000	101.031767
2109.000000	101.034138
2108.000000	101.036712
2107.000000	101.039263
2106.000000	101.041802
2105.000000	101.044498
2104.000000	101.047208
2103.000000	101.049446
2102.000000	101.050960
2101.000000	101.052143
2100.000000	101.053755
2099.000000	101.056305
2098.000000	101.059672
2097.000000	101.063136
2096.000000	101.065840
2095.000000	101.067434
2094.000000	101.068309
2093.000000	101.069008
2092.000000	101.069421
2091.000000	101.068999
2090.000000	101.067970
2089.000000	101.067852
2088.000000	101.070127
2087.000000	101.074570
2086.000000	101.079237
2085.000000	101.082296
2084.000000	101.083473
2083.000000	101.083535
2082.000000	101.082970
2081.000000	101.081622
2080.000000	101.079515
2079.000000	101.077602
2078.000000	101.077501
2077.000000	101.080377
2076.000000	101.085802
2075.000000	101.091625
2074.000000	101.095502
2073.000000	101.096784
2072.000000	101.096797
2071.000000	101.097322
2070.000000	101.099071
2069.000000	101.101650
2068.000000	101.104158
2067.000000	101.105431
2066.000000	101.104533
2065.000000	101.101847
2064.000000	101.099254
2063.000000	101.098369
2062.000000	101.098926
2061.000000	101.099604
2060.000000	101.099897
2059.000000	101.100158
2058.000000	101.100166
2057.000000	101.099125
2056.000000	101.097459
2055.000000	101.097264
2054.000000	101.099965
2053.000000	101.104203
2052.000000	101.106968
2051.000000	101.106578
2050.000000	101.103752
2049.000000	101.100218
2048.000000	101.097051
2047.000000	101.094463
2046.000000	101.092441
2045.000000	101.090946
2044.000000	101.089643
2043.000000	101.087908
2042.000000	101.085360
2041.000000	101.082202
2040.000000	101.078708
2039.000000	101.074573
2038.000000	101.069321
2037.000000	101.063503
2036.000000	101.059011
2035.000000	101.057648
2034.000000	101.059479
2033.000000	101.062673
2032.000000	101.064773
2031.000000	101.064257
2030.000000	101.061073
2029.000000	101.056345
2028.000000	101.051687
2027.000000	101.048197
2026.000000	101.045879
2025.000000	101.044071
2024.000000	101.042335
2023.000000	101.040679
2022.000000	101.039011
2021.000000	101.036890
2020.000000	101.034051
2019.000000	101.030925
2018.000000	101.028363
2017.000000	101.026840
2016.000000	101.026055
2015.000000	101.025196
2014.000000	101.023560
2013.000000	101.021011
2012.000000	101.018006
2011.000000	101.015227
2010.000000	101.012985
2009.000000	101.011036
2008.000000	101.008987
2007.000000	101.006798
2006.000000	101.004855
2005.000000	101.003507
2004.000000	101.002624
2003.000000	101.001632
2002.000000	101.000039
2001.000000	100.997918
2000.000000	100.995894
1999.000000	100.994588
1998.000000	100.994036
1997.000000	100.993710
1996.000000	100.993077
1995.000000	100.992044
1994.000000	100.990771
1993.000000	100.989386
1992.000000	100.988064
1991.000000	100.987175
1990.000000	100.986973
1989.000000	100.987212
1988.000000	100.987266
1987.000000	100.986738
1986.000000	100.985773
1985.000000	100.984780
1984.000000	100.984085
1983.000000	100.983835
1982.000000	100.983999
1981.000000	100.984287
1980.000000	100.984253
1979.000000	100.983717
1978.000000	100.982973
1977.000000	100.982448
1976.000000	100.982173
1975.000000	100.981853
1974.000000	100.981337
1973.000000	100.980756
1972.000000	100.980227
1971.000000	100.979708
1970.000000	100.979273
1969.000000	100.979263
1968.000000	100.979904
1967.000000	100.980859
1966.000000	100.981461
1965.000000	100.981422
1964.000000	100.981104
1963.000000	100.981147
1962.000000	100.981802
1961.000000	100.982628
1960.000000	100.982802
1959.000000	100.981760
1958.000000	100.979696
1957.000000	100.977541
1956.000000	100.976283
1955.000000	100.976106
1954.000000	100.976396
1953.000000	100.976704
1952.000000	100.977359
1951.000000	100.978693
1950.000000	100.980051
1949.000000	100.980123
1948.000000	100.978148
1947.000000	100.974554
1946.000000	100.970553
1945.000000	100.967447
1944.000000	100.966234
1943.000000	100.967243
1942.000000	100.969796
1941.000000	100.972444
1940.000000	100.973724
1939.000000	100.972669
1938.000000	100.969074
1937.000000	100.963975
1936.000000	100.959685
1935.000000	100.958382
1934.000000	100.960235
1933.000000	100.963049
1932.000000	100.963946
1931.000000	100.961353
1930.000000	100.955880
1929.000000	100.949607
1928.000000	100.944588
1927.000000	100.941914
1926.000000	100.941896
1925.000000	100.944707
1924.000000	100.949480
1923.000000	100.952976
1922.000000	100.951447
1921.000000	100.944597
1920.000000	100.936157
1919.000000	100.929544
1918.000000	100.923708
1917.000000	100.915366
1916.000000	100.904512
1915.000000	100.894691
1914.000000	100.888273
1913.000000	100.884097
1912.000000	100.880110
1911.000000	100.876204
1910.000000	100.872987
1909.000000	100.869123
1908.000000	100.862632
1907.000000	100.854252
1906.000000	100.846850
1905.000000	100.841709
1904.000000	100.836919
1903.000000	100.830111
1902.000000	100.821585
1901.000000	100.813611
1900.000000	100.807708
1899.000000	100.803432
1898.000000	100.798967
1897.000000	100.792377
1896.000000	100.782777
1895.000000	100.771106
1894.000000	100.759671
1893.000000	100.750566
1892.000000	100.744926
1891.000000	100.743015
1890.000000	100.743239
1889.000000	100.741684
1888.000000	100.735680
1887.000000	100.728094
1886.000000	100.725476
1885.000000	100.731023
1884.000000	100.740348
1883.000000	100.745659
1882.000000	100.744021
1881.000000	100.739245
1880.000000	100.736375
1879.000000	100.736601
1878.000000	100.737510
1877.000000	100.736926
1876.000000	100.735673
1875.000000	100.736491
1874.000000	100.740736
1873.000000	100.746562
1872.000000	100.750750
1871.000000	100.752219
1870.000000	100.752827
1869.000000	100.754514
1868.000000	100.756959
1867.000000	100.759181
1866.000000	100.761717
1865.000000	100.765140
1864.000000	100.768077
1863.000000	100.769237
1862.000000	100.770970
1861.000000	100.778029
1860.000000	100.791789
1859.000000	100.807627
1858.000000	100.819375
1857.000000	100.825301
1856.000000	100.828665
1855.000000	100.833519
1854.000000	100.841571
1853.000000	100.852388
1852.000000	100.864817
1851.000000	100.877876
1850.000000	100.890205
1849.000000	100.900074
1848.000000	100.906729
1847.000000	100.911007
1846.000000	100.914075
1845.000000	100.915751
1844.000000	100.915618
1843.000000	100.915336
1842.000000	100.916822
1841.000000	100.919670
1840.000000	100.922697
1839.000000	100.926268
1838.000000	100.931730
1837.000000	100.938382
1836.000000	100.942399
1835.000000	100.940898
1834.000000	100.936235
1833.000000	100.934368
1832.000000	100.939301
1831.000000	100.949492
1830.000000	100.958739
1829.000000	100.962624
1828.000000	100.962576
1827.000000	100.962128
1826.000000	100.962365
1825.000000	100.961880
1824.000000	100.959909
1823.000000	100.957714
1822.000000	100.956815
1821.000000	100.957561
1820.000000	100.959346
1819.000000	100.961224
1818.000000	100.962293
1817.000000	100.962453
1816.000000	100.962712
1815.000000	100.964354
1814.000000	100.967545
1813.000000	100.970851
1812.000000	100.972650
1811.000000	100.972655
1810.000000	100.971973
1809.000000	100.971483
1808.000000	100.970513
1807.000000	100.967971
1806.000000	100.964183
1805.000000	100.960725
1804.000000	100.958558
1803.000000	100.957520
1802.000000	100.957793
1801.000000	100.960386
1800.000000	100.965545
1799.000000	100.971371
1798.000000	100.975659
1797.000000	100.978394
1796.000000	100.981270
1795.000000	100.985673
1794.000000	100.991588
1793.000000	100.997482
1792.000000	101.001569
1791.000000	101.003616
1790.000000	101.004912
1789.000000	101.006673
1788.000000	101.008930
1787.000000	101.010523
1786.000000	101.010316
1785.000000	101.009091
1784.000000	101.009518
1783.000000	101.013770
1782.000000	101.021647
1781.000000	101.030280
1780.000000	101.036262
1779.000000	101.038324
1778.000000	101.037973
1777.000000	101.037903
1776.000000	101.040232
1775.000000	101.045945
1774.000000	101.054722
1773.000000	101.063974
1772.000000	101.069776
1771.000000	101.070974
1770.000000	101.069835
1769.000000	101.069304
1768.000000	101.070876
1767.000000	101.073610
1766.000000	101.075274
1765.000000	101.075066
1764.000000	101.074993
1763.000000	101.077837
1762.000000	101.083352
1761.000000	101.088135
1760.000000	101.090462
1759.000000	101.092036
1758.000000	101.094802
1757.000000	101.097823
1756.000000	101.099563
1755.000000	101.101513
1754.000000	101.105693
1753.000000	101.110289
1752.000000	101.109829
1751.000000	101.101489
1750.000000	101.090716
1749.000000	101.085610
1748.000000	101.086806
1747.000000	101.088764
1746.000000	101.087487
1745.000000	101.083625
1744.000000	101.079952
1743.000000	101.077665
1742.000000	101.076300
1741.000000	101.075902
1740.000000	101.076412
1739.000000	101.075392
1738.000000	101.069985
1737.000000	101.060325
1736.000000	101.050491
1735.000000	101.044799
1734.000000	101.042360
1733.000000	101.039817
1732.000000	101.036617
1731.000000	101.034040
1730.000000	101.031490
1729.000000	101.026237
1728.000000	101.017579
1727.000000	101.008342
1726.000000	101.001345
1725.000000	100.997145
1724.000000	100.995323
1723.000000	100.994824
1722.000000	100.993866
1721.000000	100.991202
1720.000000	100.987574
1719.000000	100.983898
1718.000000	100.976827
1717.000000	100.962750
1716.000000	100.945643
1715.000000	100.932624
1714.000000	100.925815
1713.000000	100.922249
1712.000000	100.918394
1711.000000	100.913236
1710.000000	100.907377
1709.000000	100.901055
1708.000000	100.894145
1707.000000	100.886329
1706.000000	100.875621
1705.000000	100.860513
1704.000000	100.843585
1703.000000	100.828686
1702.000000	100.817522
1701.000000	100.805798
1700.000000	100.786913
1699.000000	100.764123
1698.000000	100.743404
1697.000000	100.724750
1696.000000	100.705103
1695.000000	100.684630
1694.000000	100.667656
1693.000000	100.655946
1692.000000	100.647851
1691.000000	100.640353
1690.000000	100.630596
1689.000000	100.617970
1688.000000	100.604401
1687.000000	100.591729
1686.000000	100.579323
1685.000000	100.562504
1684.000000	100.537407
1683.000000	100.510978
1682.000000	100.491047
1681.000000	100.477435
1680.000000	100.467511
1679.000000	100.459215
1678.000000	100.451118
1677.000000	100.441771
1676.000000	100.429281
1675.000000	100.413030
1674.000000	100.395473
1673.000000	100.378946
1672.000000	100.363591
1671.000000	100.348315
1670.000000	100.331912
1669.000000	100.314970
1668.000000	100.300122
1667.000000	100.289011
1666.000000	100.280548
1665.000000	100.271993
1664.000000	100.260527
1663.000000	100.244941
1662.000000	100.227815
1661.000000	100.213416
1660.000000	100.203685
1659.000000	100.198032
1658.000000	100.194233
1657.000000	100.189936
1656.000000	100.183540
1655.000000	100.174309
1654.000000	100.156501
1653.000000	100.124294
1652.000000	100.094477
1651.000000	100.080987
1650.000000	100.080351
1649.000000	100.086401
1648.000000	100.091678
1647.000000	100.088710
1646.000000	100.078347
1645.000000	100.068228
1644.000000	100.061345
1643.000000	100.055711
1642.000000	100.049334
1641.000000	100.041760
1640.000000	100.034743
1639.000000	100.031148
1638.000000	100.032097
1637.000000	100.034707
1636.000000	100.031734
1635.000000	100.021653
1634.000000	100.012791
1633.000000	100.010362
1632.000000	100.012358
1631.000000	100.014765
1630.000000	100.015277
1629.000000	100.014339
1628.000000	100.013705
1627.000000	100.014585
1626.000000	100.017097
1625.000000	100.020728
1624.000000	100.024993
1623.000000	100.029731
1622.000000	100.035891
1621.000000	100.044284
1620.000000	100.054701
1619.000000	100.066654
1618.000000	100.079004
1617.000000	100.088836
1616.000000	100.094163
1615.000000	100.096916
1614.000000	100.099509
1613.000000	100.102652
1612.000000	100.106821
1611.000000	100.113926
1610.000000	100.126450
1609.000000	100.143894
1608.000000	100.161994
1607.000000	100.176355
1606.000000	100.186192
1605.000000	100.193169
1604.000000	100.199166
1603.000000	100.205742
1602.000000	100.214186
1601.000000	100.225195
1600.000000	100.238137
1599.000000	100.250772
1598.000000	100.260042
1597.000000	100.264177
1596.000000	100.264557
1595.000000	100.265169
1594.000000	100.269740
1593.000000	100.279149
1592.000000	100.291732
1591.000000	100.305317
1590.000000	100.318555
1589.000000	100.331051
1588.000000	100.342896
1587.000000	100.353907
1586.000000	100.363566
1585.000000	100.372082
1584.000000	100.381087
1583.000000	100.392493
1582.000000	100.405488
1581.000000	100.416434
1580.000000	100.422936
1579.000000	100.426349
1578.000000	100.429691
1577.000000	100.434170
1576.000000	100.438756
1575.000000	100.443835
1574.000000	100.450712
1573.000000	100.458788
1572.000000	100.466862
1571.000000	100.474621
1570.000000	100.482152
1569.000000	100.488726
1568.000000	100.493240
1567.000000	100.496389
1566.000000	100.500266
1565.000000	100.505929
1564.000000	100.512194
1563.000000	100.517521
1562.000000	100.521305
1561.000000	100.524818
1560.000000	100.530840
1559.000000	100.537668
1558.000000	100.542011
1557.000000	100.544560
1556.000000	100.548580
1555.000000	100.557096
1554.000000	100.568963
1553.000000	100.579176
1552.000000	100.585338
1551.000000	100.589967
1550.000000	100.596101
1549.000000	100.602760
1548.000000	100.606189
1547.000000	100.605419
1546.000000	100.603803
1545.000000	100.605392
1544.000000	100.610352
1543.000000	100.615418
1542.000000	100.618771
1541.000000	100.622573
1540.000000	100.628394
1539.000000	100.634375
1538.000000	100.638605
1537.000000	100.641519
1536.000000	100.644373
1535.000000	100.647852
1534.000000	100.651507
1533.000000	100.653997
1532.000000	100.654909
1531.000000	100.654623
1530.000000	100.654261
1529.000000	100.655984
1528.000000	100.661734
1527.000000	100.671572
1526.000000	100.683025
1525.000000	100.692828
1524.000000	100.700374
1523.000000	100.708519
1522.000000	100.719499
1521.000000	100.730413
1520.000000	100.737203
1519.000000	100.741739
1518.000000	100.749209
1517.000000	100.760443
1516.000000	100.770261
1515.000000	100.775564
1514.000000	100.780014
1513.000000	100.788058
1512.000000	100.799130
1511.000000	100.808550
1510.000000	100.813815
1509.000000	100.817295
1508.000000	100.823683
1507.000000	100.833121
1506.000000	100.841360
1505.000000	100.847246
1504.000000	100.852118
1503.000000	100.857478
1502.000000	100.863987
1501.000000	100.870909
1500.000000	100.876126
1499.000000	100.877568
1498.000000	100.876016
1497.000000	100.876360
1496.000000	100.882931
1495.000000	100.893530
1494.000000	100.903539
1493.000000	100.911955
1492.000000	100.919830
1491.000000	100.926311
1490.000000	100.929313
1489.000000	100.930693
1488.000000	100.935565
1487.000000	100.944928
1486.000000	100.954909
1485.000000	100.961829
1484.000000	100.965055
1483.000000	100.966589
1482.000000	100.968275
1481.000000	100.970750
1480.000000	100.973864
1479.000000	100.976885
1478.000000	100.978332
1477.000000	100.976916
1476.000000	100.973315
1475.000000	100.969470
1474.000000	100.965894
1473.000000	100.960188
1472.000000	100.951595
1471.000000	100.944083
1470.000000	100.940687
1469.000000	100.940289
1468.000000	100.940063
1467.000000	100.938100
1466.000000	100.934485
1465.000000	100.930162
1464.000000	100.925662
1463.000000	100.921043
1462.000000	100.916205
1461.000000	100.911754
1460.000000	100.909286
1459.000000	100.911225
1458.000000	100.917747
1457.000000	100.921897
1456.000000	100.916508
1455.000000	100.904729
1454.000000	100.893980
1453.000000	100.888072
1452.000000	100.886915
1451.000000	100.888218
1450.000000	100.888835
1449.000000	100.885794
1448.000000	100.878140
1447.000000	100.868912
1446.000000	100.863083
1445.000000	100.862122
1444.000000	100.863288
1443.000000	100.862811
1442.000000	100.859292
1441.000000	100.854364
1440.000000	100.850345
1439.000000	100.848569
1438.000000	100.849477
1437.000000	100.852469
1436.000000	100.855049
1435.000000	100.854571
1434.000000	100.850522
1433.000000	100.844234
1432.000000	100.837669
1431.000000	100.833269
1430.000000	100.833176
1429.000000	100.837567
1428.000000	100.844244
1427.000000	100.850522
1426.000000	100.855478
1425.000000	100.859063
1424.000000	100.860989
1423.000000	100.861513
1422.000000	100.861794
1421.000000	100.862674
1420.000000	100.863323
1419.000000	100.862019
1418.000000	100.859571
1417.000000	100.858928
1416.000000	100.861010
1415.000000	100.864279
1414.000000	100.867500
1413.000000	100.871493
1412.000000	100.877853
1411.000000	100.886796
1410.000000	100.896940
1409.000000	100.906889
1408.000000	100.915665
1407.000000	100.922027
1406.000000	100.925591
1405.000000	100.928131
1404.000000	100.932804
1403.000000	100.941446
1402.000000	100.953317
1401.000000	100.966102
1400.000000	100.976372
1399.000000	100.981243
1398.000000	100.981918
1397.000000	100.983231
1396.000000	100.988653
1395.000000	100.997159
1394.000000	101.004993
1393.000000	101.009928
1392.000000	101.012664
1391.000000	101.014737
1390.000000	101.017014
1389.000000	101.019430
1388.000000	101.020917
1387.000000	101.020390
1386.000000	101.019016
1385.000000	101.019989
1384.000000	101.025283
1383.000000	101.033470
1382.000000	101.040559
1381.000000	101.043468
1380.000000	101.042469
1379.000000	101.040655
1378.000000	101.041476
1377.000000	101.046213
1376.000000	101.053277
1375.000000	101.059449
1374.000000	101.062611
1373.000000	101.063694
1372.000000	101.065129
1371.000000	101.067807
1370.000000	101.070704
1369.000000	101.072475
1368.000000	101.072875
1367.000000	101.072658
1366.000000	101.072452
1365.000000	101.072339
1364.000000	101.072434
1363.000000	101.073434
1362.000000	101.076306
1361.000000	101.081091
1360.000000	101.086244
1359.000000	101.089703
1358.000000	101.090681
1357.000000	101.090482
1356.000000	101.091558
1355.000000	101.095556
1354.000000	101.101923
1353.000000	101.108088
1352.000000	101.111027
1351.000000	101.109077
1350.000000	101.103278
1349.000000	101.096622
1348.000000	101.091784
1347.000000	101.089888
1346.000000	101.091258
1345.000000	101.095889
1344.000000	101.102466
1343.000000	101.108066
1342.000000	101.110115
1341.000000	101.108509
1340.000000	101.105417
1339.000000	101.103050
1338.000000	101.101974
1337.000000	101.101603
1336.000000	101.101529
1335.000000	101.101975
1334.000000	101.103220
1333.000000	101.104560
1332.000000	101.104179
1331.000000	101.100999
1330.000000	101.096814
1329.000000	101.095284
1328.000000	101.098200
1327.000000	101.103592
1326.000000	101.108139
1325.000000	101.110256
1324.000000	101.110225
1323.000000	101.108651
1322.000000	101.106103
1321.000000	101.103342
1320.000000	101.100355
1319.000000	101.095804
1318.000000	101.089276
1317.000000	101.083816
1316.000000	101.084071
1315.000000	101.091429
1314.000000	101.102044
1313.000000	101.110158
1312.000000	101.112865
1311.000000	101.111166
1310.000000	101.107552
1309.000000	101.103640
1308.000000	101.099754
1307.000000	101.095796
1306.000000	101.092326
1305.000000	101.090700
1304.000000	101.091921
1303.000000	101.095471
1302.000000	101.099818
1301.000000	101.103959
1300.000000	101.107551
1299.000000	101.109673
1298.000000	101.108762
1297.000000	101.104300
1296.000000	101.097745
1295.000000	101.091078
1294.000000	101.085029
1293.000000	101.079405
1292.000000	101.074182
1291.000000	101.069135
1290.000000	101.063121
1289.000000	101.055280
1288.000000	101.046980
1287.000000	101.041309
1286.000000	101.040172
1285.000000	101.042598
1284.000000	101.045752
1283.000000	101.046662
1282.000000	101.043348
1281.000000	101.035931
1280.000000	101.027247
1279.000000	101.021200
1278.000000	101.019365
1277.000000	101.019646
1276.000000	101.018830
1275.000000	101.015920
1274.000000	101.012400
1273.000000	101.009879
1272.000000	101.008462
1271.000000	101.007386
1270.000000	101.006304
1269.000000	101.005337
1268.000000	101.004013
1267.000000	101.000876
1266.000000	100.994953
1265.000000	100.987938
1264.000000	100.984129
1263.000000	100.986730
1262.000000	100.993528
1261.000000	100.997202
1260.000000	100.991435
1259.000000	100.977414
1258.000000	100.963670
1257.000000	100.958395
1256.000000	100.961565
1255.000000	100.964925
1254.000000	100.959979
1253.000000	100.945690
1252.000000	100.927995
1251.000000	100.912775
1250.000000	100.900511
1249.000000	100.887450
1248.000000	100.870246
1247.000000	100.849054
1246.000000	100.827710
1245.000000	100.811598
1244.000000	100.803662
1243.000000	100.800934
1242.000000	100.795773
1241.000000	100.781928
1240.000000	100.759099
1239.000000	100.731706
1238.000000	100.704782
1237.000000	100.681611
1236.000000	100.663267
1235.000000	100.648276
1234.000000	100.633371
1233.000000	100.615999
1232.000000	100.595479
1231.000000	100.571309
1230.000000	100.542461
1229.000000	100.509799
1228.000000	100.476890
1227.000000	100.445968
1226.000000	100.414623
1225.000000	100.378837
1224.000000	100.337508
1223.000000	100.291248
1222.000000	100.238712
1221.000000	100.178018
1220.000000	100.110882
1219.000000	100.041473
1218.000000	99.971327
1217.000000	99.898795
1216.000000	99.823029
1215.000000	99.744498
1214.000000	99.661986
1213.000000	99.573840
1212.000000	99.482739
1211.000000	99.394632
1210.000000	99.311562
1209.000000	99.229586
1208.000000	99.144836
1207.000000	99.057397
1206.000000	98.968445
1205.000000	98.878520
1204.000000	98.790177
1203.000000	98.707587
1202.000000	98.631403
1201.000000	98.557561
1200.000000	98.482189
1199.000000	98.403986
1198.000000	98.321558
1197.000000	98.233740
1196.000000	98.143973
1195.000000	98.059106
1194.000000	97.981144
1193.000000	97.904012
1192.000000	97.820428
1191.000000	97.728461
1190.000000	97.630389
1189.000000	97.529574
1188.000000	97.430103
1187.000000	97.335137
1186.000000	97.243158
1185.000000	97.148976
1184.000000	97.049443
1183.000000	96.944677
1182.000000	96.833915
1181.000000	96.715667
1180.000000	96.592942
1179.000000	96.472314
1178.000000	96.355370
1177.000000	96.236012
1176.000000	96.108409
1175.000000	95.973010
1174.000000	95.833146
1173.000000	95.690854
1172.000000	95.548105
1171.000000	95.407125
1170.000000	95.267262
1169.000000	95.126223
1168.000000	94.985916
1167.000000	94.852323
1166.000000	94.729340
1165.000000	94.619522
1164.000000	94.532207
1163.000000	94.483184
1162.000000	94.482347
1161.000000	94.524923
1160.000000	94.593791
1159.000000	94.665071
1158.000000	94.714635
1157.000000	94.729025
1156.000000	94.711869
1155.000000	94.674511
1154.000000	94.620861
1153.000000	94.547303
1152.000000	94.455482
1151.000000	94.355680
1150.000000	94.256669
1149.000000	94.160819
1148.000000	94.070012
1147.000000	93.986191
1146.000000	93.903420
1145.000000	93.809362
1144.000000	93.699086
1143.000000	93.580304
1142.000000	93.462293
1141.000000	93.346930
1140.000000	93.233025
1139.000000	93.121148
1138.000000	93.010779
1137.000000	92.899993
1136.000000	92.790399
1135.000000	92.685262
1134.000000	92.581562
1133.000000	92.472580
1132.000000	92.359687
1131.000000	92.251879
1130.000000	92.151354
1129.000000	92.049353
1128.000000	91.939358
1127.000000	91.825056
1126.000000	91.712134
1125.000000	91.601005
1124.000000	91.490670
1123.000000	91.381241
1122.000000	91.270200
1121.000000	91.154719
1120.000000	91.039313
1119.000000	90.931975
1118.000000	90.831853
1117.000000	90.731279
1116.000000	90.629793
1115.000000	90.533024
1114.000000	90.437219
1113.000000	90.330681
1112.000000	90.213957
1111.000000	90.102689
1110.000000	90.005195
1109.000000	89.911896
1108.000000	89.812313
1107.000000	89.707770
1106.000000	89.601150
1105.000000	89.489021
1104.000000	89.371547
1103.000000	89.256822
1102.000000	89.147863
1101.000000	89.037550
1100.000000	88.922985
1099.000000	88.812524
1098.000000	88.712391
1097.000000	88.618693
1096.000000	88.528010
1095.000000	88.442675
1094.000000	88.359888
1093.000000	88.269429
1092.000000	88.169279
1091.000000	88.071108
1090.000000	87.983558
1089.000000	87.901759
1088.000000	87.819390
1087.000000	87.739057
1086.000000	87.664156
1085.000000	87.591178
1084.000000	87.516200
1083.000000	87.440322
1082.000000	87.365393
1081.000000	87.292968
1080.000000	87.227798
1079.000000	87.171505
1078.000000	87.113576
1077.000000	87.041477
1076.000000	86.958303
1075.000000	86.876101
1074.000000	86.793168
1073.000000	86.694330
1072.000000	86.572910
1071.000000	86.435094
1070.000000	86.282825
1069.000000	86.110090
1068.000000	85.917365
1067.000000	85.712427
1066.000000	85.495702
1065.000000	85.262693
1064.000000	85.022413
1063.000000	84.793795
1062.000000	84.580982
1061.000000	84.372180
1060.000000	84.165149
1059.000000	83.971449
1058.000000	83.790935
1057.000000	83.604712
1056.000000	83.401073
1055.000000	83.189077
1054.000000	82.980026
1053.000000	82.773915
1052.000000	82.570080
1051.000000	82.370867
1050.000000	82.168062
1049.000000	81.947700
1048.000000	81.714409
1047.000000	81.488245
1046.000000	81.274004
1045.000000	81.056958
1044.000000	80.830248
1043.000000	80.602530
1042.000000	80.376193
1041.000000	80.142290
1040.000000	79.901833
1039.000000	79.668709
1038.000000	79.446338
1037.000000	79.225103
1036.000000	79.007740
1035.000000	78.812092
1034.000000	78.642508
1033.000000	78.483346
1032.000000	78.327224
1031.000000	78.185097
1030.000000	78.062080
1029.000000	77.949064
1028.000000	77.845309
1027.000000	77.763039
1026.000000	77.700423
1025.000000	77.634859
1024.000000	77.552959
1023.000000	77.464885
1022.000000	77.381082
1021.000000	77.298063
1020.000000	77.214808
1019.000000	77.139650
1018.000000	77.071937
1017.000000	76.998339
1016.000000	76.914510
1015.000000	76.829316
1014.000000	76.742935
1013.000000	76.644674
1012.000000	76.538250
1011.000000	76.443998
1010.000000	76.368153
1009.000000	76.294002
1008.000000	76.211634
1007.000000	76.133095
1006.000000	76.069434
1005.000000	76.015868
1004.000000	75.968564
1003.000000	75.934011
1002.000000	75.912862
1001.000000	75.895461
1000.000000	75.881344
999.000000	75.882266
998.000000	75.898224
997.000000	75.911488
996.000000	75.913020
995.000000	75.915724
994.000000	75.933626
993.000000	75.966132
992.000000	76.008434
991.000000	76.058517
990.000000	76.108567
989.000000	76.148589
988.000000	76.184067
987.000000	76.232061
986.000000	76.296476
985.000000	76.366424
984.000000	76.441420
983.000000	76.536427
982.000000	76.657261
981.000000	76.792283
980.000000	76.934188
979.000000	77.090205
978.000000	77.264552
977.000000	77.449707
976.000000	77.640941
975.000000	77.842615
974.000000	78.055899
973.000000	78.276772
972.000000	78.508666
971.000000	78.759856
970.000000	79.026272
969.000000	79.294125
968.000000	79.560525
967.000000	79.833222
966.000000	80.109583
965.000000	80.376095
964.000000	80.631246
963.000000	80.889395
962.000000	81.158266
961.000000	81.430152
960.000000	81.697764
959.000000	81.960398
958.000000	82.211915
957.000000	82.442113
956.000000	82.655252
955.000000	82.870258
954.000000	83.096720
953.000000	83.324765
952.000000	83.541761
951.000000	83.743681
950.000000	83.928049
949.000000	84.092408
948.000000	84.243721
947.000000	84.393967
946.000000	84.542165
945.000000	84.675038
944.000000	84.788385
943.000000	84.893141
942.000000	84.997653
941.000000	85.099422
940.000000	85.198228
939.000000	85.301586
938.000000	85.411637
937.000000	85.520715
936.000000	85.625367
935.000000	85.732025
934.000000	85.844064
933.000000	85.955228
932.000000	86.060175
931.000000	86.160628
930.000000	86.258557
929.000000	86.354400
928.000000	86.453798
927.000000	86.564551
926.000000	86.684879
925.000000	86.804470
924.000000	86.916091
923.000000	87.015757
922.000000	87.096244
921.000000	87.155761
920.000000	87.209765
919.000000	87.276364
918.000000	87.351065
917.000000	87.414137
916.000000	87.462624
915.000000	87.515548
914.000000	87.586378
913.000000	87.672284
912.000000	87.774788
911.000000	87.908319
910.000000	88.078751
909.000000	88.271872
908.000000	88.473263
907.000000	88.685163
906.000000	88.914667
905.000000	89.159158
904.000000	89.412335
903.000000	89.673300
902.000000	89.942061
901.000000	90.214877
900.000000	90.488934
899.000000	90.763812
898.000000	91.036723
897.000000	91.305229
896.000000	91.574443
895.000000	91.850575
894.000000	92.127292
893.000000	92.390020
892.000000	92.634249
891.000000	92.868436
890.000000	93.098831
889.000000	93.323236
888.000000	93.540367
887.000000	93.753084
886.000000	93.960384
885.000000	94.156856
884.000000	94.341764
883.000000	94.519886
882.000000	94.694399
881.000000	94.868611
880.000000	95.050853
879.000000	95.243623
878.000000	95.431207
877.000000	95.595875
876.000000	95.745974
875.000000	95.909944
874.000000	96.100806
873.000000	96.304825
872.000000	96.507796
871.000000	96.712402
870.000000	96.923357
869.000000	97.133131
868.000000	97.331773
867.000000	97.518731
866.000000	97.697831
865.000000	97.870892
864.000000	98.042049
863.000000	98.218105
862.000000	98.398139
861.000000	98.571605
860.000000	98.732573
859.000000	98.887786
858.000000	99.045129
857.000000	99.201630
856.000000	99.348632
855.000000	99.481991
854.000000	99.601687
853.000000	99.707829
852.000000	99.802892
851.000000	99.892772
850.000000	99.980091
849.000000	100.060550
848.000000	100.129723
847.000000	100.188502
846.000000	100.238211
845.000000	100.276213
844.000000	100.301177
843.000000	100.317214
842.000000	100.326697
841.000000	100.322467
840.000000	100.293303
839.000000	100.236304
838.000000	100.160807
837.000000	100.081802
836.000000	100.011765
835.000000	99.955741
834.000000	99.910576
833.000000	99.870682
832.000000	99.836495
831.000000	99.814850
830.000000	99.810016
829.000000	99.818731
828.000000	99.836350
827.000000	99.862898
826.000000	99.898584
825.000000	99.935934
824.000000	99.960683
823.000000	99.961308
822.000000	99.937613
821.000000	99.900147
820.000000	99.859752
819.000000	99.816392
818.000000	99.759301
817.000000	99.677917
816.000000	99.568187
815.000000	99.426187
814.000000	99.241869
813.000000	99.004634
812.000000	98.710292
811.000000	98.355837
810.000000	97.932131
809.000000	97.431737
808.000000	96.862761
807.000000	96.245370
806.000000	95.594708
805.000000	94.918483
804.000000	94.233519
803.000000	93.572034
802.000000	92.965828
801.000000	92.434148
800.000000	91.990305
799.000000	91.647475
798.000000	91.412458
797.000000	91.283112
796.000000	91.251995
795.000000	91.300282
794.000000	91.391140
793.000000	91.487301
792.000000	91.577255
791.000000	91.670308
790.000000	91.766567
789.000000	91.845650
788.000000	91.882704
787.000000	91.859941
786.000000	91.764928
785.000000	91.596351
784.000000	91.374502
783.000000	91.131422
782.000000	90.888010
781.000000	90.653350
780.000000	90.444662
779.000000	90.289464
778.000000	90.205852
777.000000	90.197414
776.000000	90.267641
775.000000	90.418894
774.000000	90.634238
773.000000	90.880603
772.000000	91.135525
771.000000	91.394712
770.000000	91.651182
769.000000	91.885952
768.000000	92.085765
767.000000	92.255207
766.000000	92.405692
765.000000	92.544490
764.000000	92.677437
763.000000	92.809205
762.000000	92.937161
761.000000	93.056594
760.000000	93.173597
759.000000	93.300366
758.000000	93.437103
757.000000	93.572447
756.000000	93.703059
755.000000	93.838579
754.000000	93.985180
753.000000	94.137059
752.000000	94.284901
751.000000	94.419688
750.000000	94.529691
