4000.000000	98.512307
3999.000000	98.511505
3998.000000	98.510701
3997.000000	98.509891
3996.000000	98.509076
3995.000000	98.508256
3994.000000	98.507433
3993.000000	98.506608
3992.000000	98.505782
3991.000000	98.504954
3990.000000	98.504125
3989.000000	98.503302
3988.000000	98.502495
3987.000000	98.501712
3986.000000	98.500951
3985.000000	98.500197
3984.000000	98.499433
3983.000000	98.498650
3982.000000	98.497851
3981.000000	98.497050
3980.000000	98.496263
3979.000000	98.495495
3978.000000	98.494736
3977.000000	98.493964
3976.000000	98.493158
3975.000000	98.492308
3974.000000	98.491424
3973.000000	98.490528
3972.000000	98.489642
3971.000000	98.488794
3970.000000	98.488009
3969.000000	98.487290
3968.000000	98.486625
3967.000000	98.485995
3966.000000	98.485398
3965.000000	98.484861
3964.000000	98.484431
3963.000000	98.484116
3962.000000	98.483856
3961.000000	98.483514
3960.000000	98.482997
3959.000000	98.482337
3958.000000	98.481667
3957.000000	98.481116
3956.000000	98.480722
3955.000000	98.480443
3954.000000	98.480217
3953.000000	98.479984
3952.000000	98.479710
3951.000000	98.479368
3950.000000	98.478956
3949.000000	98.478495
3948.000000	98.478017
3947.000000	98.477547
3946.000000	98.477094
3945.000000	98.476662
3944.000000	98.476273
3943.000000	98.475959
3942.000000	98.475741
3941.000000	98.475600
3940.000000	98.475464
3939.000000	98.475211
3938.000000	98.474702
3937.000000	98.473867
3936.000000	98.472815
3935.000000	98.471844
3934.000000	98.471263
3933.000000	98.471218
3932.000000	98.471639
3931.000000	98.472313
3930.000000	98.472965
3929.000000	98.473312
3928.000000	98.473186
3927.000000	98.472720
3926.000000	98.472348
3925.000000	98.472402
3924.000000	98.472690
3923.000000	98.472638
3922.000000	98.471872
3921.000000	98.470515
3920.000000	98.469078
3919.000000	98.468193
3918.000000	98.468207
3917.000000	98.468936
3916.000000	98.469675
3915.000000	98.469768
3914.000000	98.469161
3913.000000	98.468366
3912.000000	98.467990
3911.000000	98.468226
3910.000000	98.468701
3909.000000	98.468765
3908.000000	98.467969
3907.000000	98.466416
3906.000000	98.464854
3905.000000	98.464172
3904.000000	98.464627
3903.000000	98.465613
3902.000000	98.466325
3901.000000	98.466546
3900.000000	98.466571
3899.000000	98.466738
3898.000000	98.467269
3897.000000	98.468314
3896.000000	98.469841
3895.000000	98.471520
3894.000000	98.472935
3893.000000	98.473965
3892.000000	98.474809
3891.000000	98.475642
3890.000000	98.476372
3889.000000	98.476928
3888.000000	98.477376
3887.000000	98.477754
3886.000000	98.478077
3885.000000	98.478398
3884.000000	98.478795
3883.000000	98.479328
3882.000000	98.479944
3881.000000	98.480529
3880.000000	98.481047
3879.000000	98.481550
3878.000000	98.482094
3877.000000	98.482699
3876.000000	98.483350
3875.000000	98.484038
3874.000000	98.484756
3873.000000	98.485496
3872.000000	98.486262
3871.000000	98.487056
3870.000000	98.487867
3869.000000	98.488663
3868.000000	98.489419
3867.000000	98.490136
3866.000000	98.490836
3865.000000	98.491541
3864.000000	98.492264
3863.000000	98.493002
3862.000000	98.493737
3861.000000	98.494447
3860.000000	98.495116
3859.000000	98.495745
3858.000000	98.496343
3857.000000	98.496913
3856.000000	98.497451
3855.000000	98.497952
3854.000000	98.498417
3853.000000	98.498853
3852.000000	98.499261
3851.000000	98.499660
3850.000000	98.500070
3849.000000	98.500497
3848.000000	98.500926
3847.000000	98.501348
3846.000000	98.501771
3845.000000	98.502212
3844.000000	98.502687
3843.000000	98.503197
3842.000000	98.503730
3841.000000	98.504273
3840.000000	98.504826
3839.000000	98.505407
3838.000000	98.506032
3837.000000	98.506699
3836.000000	98.507385
3835.000000	98.508053
3834.000000	98.508673
3833.000000	98.509231
3832.000000	98.509732
3831.000000	98.510177
3830.000000	98.510554
3829.000000	98.510868
3828.000000	98.511163
3827.000000	98.511482
3826.000000	98.511788
3825.000000	98.511951
3824.000000	98.511905
3823.000000	98.511779
3822.000000	98.511847
3821.000000	98.512252
3820.000000	98.512651
3819.000000	98.512676
3818.000000	98.512518
3817.000000	98.512488
3816.000000	98.512471
3815.000000	98.512093
3814.000000	98.511282
3813.000000	98.510473
3812.000000	98.510002
3811.000000	98.509693
3810.000000	98.509227
3809.000000	98.508647
3808.000000	98.508342
3807.000000	98.508554
3806.000000	98.509024
3805.000000	98.509375
3804.000000	98.509554
3803.000000	98.509543
3802.000000	98.509206
3801.000000	98.508493
3800.000000	98.507535
3799.000000	98.506843
3798.000000	98.506873
3797.000000	98.507340
3796.000000	98.507359
3795.000000	98.506371
3794.000000	98.504562
3793.000000	98.502569
3792.000000	98.500834
3791.000000	98.499467
3790.000000	98.498507
3789.000000	98.497927
3788.000000	98.497463
3787.000000	98.496702
3786.000000	98.495421
3785.000000	98.493705
3784.000000	98.491829
3783.000000	98.490145
3782.000000	98.489011
3781.000000	98.488546
3780.000000	98.488387
3779.000000	98.487815
3778.000000	98.486330
3777.000000	98.484253
3776.000000	98.482660
3775.000000	98.482378
3774.000000	98.482924
3773.000000	98.482686
3772.000000	98.480437
3771.000000	98.476635
3770.000000	98.472768
3769.000000	98.469717
3768.000000	98.468093
3767.000000	98.469521
3766.000000	98.474732
3765.000000	98.481319
3764.000000	98.485480
3763.000000	98.485922
3762.000000	98.484372
3761.000000	98.482184
3760.000000	98.478849
3759.000000	98.474448
3758.000000	98.470466
3757.000000	98.467423
3756.000000	98.463280
3755.000000	98.456432
3754.000000	98.449080
3753.000000	98.446501
3752.000000	98.451976
3751.000000	98.461155
3750.000000	98.462615
3749.000000	98.448095
3748.000000	98.421364
3747.000000	98.394785
3746.000000	98.380790
3745.000000	98.384272
3744.000000	98.394160
3743.000000	98.391490
3742.000000	98.378843
3741.000000	98.373850
3740.000000	98.379550
3739.000000	98.387498
3738.000000	98.392731
3737.000000	98.396858
3736.000000	98.400782
3735.000000	98.400703
3734.000000	98.393785
3733.000000	98.383222
3732.000000	98.372276
3731.000000	98.358499
3730.000000	98.339596
3729.000000	98.317931
3728.000000	98.296799
3727.000000	98.276617
3726.000000	98.256079
3725.000000	98.235523
3724.000000	98.218707
3723.000000	98.208746
3722.000000	98.203906
3721.000000	98.199125
3720.000000	98.189435
3719.000000	98.171418
3718.000000	98.143745
3717.000000	98.108286
3716.000000	98.069886
3715.000000	98.034087
3714.000000	98.002098
3713.000000	97.969612
3712.000000	97.933003
3711.000000	97.894264
3710.000000	97.857109
3709.000000	97.823418
3708.000000	97.792261
3707.000000	97.760062
3706.000000	97.723849
3705.000000	97.684584
3704.000000	97.646939
3703.000000	97.615423
3702.000000	97.590225
3701.000000	97.566740
3700.000000	97.541080
3699.000000	97.515637
3698.000000	97.496124
3697.000000	97.484246
3696.000000	97.476641
3695.000000	97.470296
3694.000000	97.466437
3693.000000	97.467569
3692.000000	97.473122
3691.000000	97.480020
3690.000000	97.484313
3689.000000	97.480587
3688.000000	97.463194
3687.000000	97.433923
3686.000000	97.402390
3685.000000	97.374318
3684.000000	97.346852
3683.000000	97.316779
3682.000000	97.288404
3681.000000	97.269436
3680.000000	97.259101
3679.000000	97.244437
3678.000000	97.214061
3677.000000	97.173420
3676.000000	97.141782
3675.000000	97.124612
3674.000000	97.104622
3673.000000	97.075208
3672.000000	97.044809
3671.000000	97.014407
3670.000000	96.979098
3669.000000	96.936973
3668.000000	96.892387
3667.000000	96.854142
3666.000000	96.823142
3665.000000	96.790985
3664.000000	96.752123
3663.000000	96.709992
3662.000000	96.672409
3661.000000	96.643581
3660.000000	96.620862
3659.000000	96.598006
3658.000000	96.570774
3657.000000	96.540151
3656.000000	96.510598
3655.000000	96.484295
3654.000000	96.461680
3653.000000	96.441873
3652.000000	96.420016
3651.000000	96.392557
3650.000000	96.365996
3649.000000	96.350764
3648.000000	96.345426
3647.000000	96.338829
3646.000000	96.324094
3645.000000	96.303337
3644.000000	96.283867
3643.000000	96.271525
3642.000000	96.265275
3641.000000	96.257906
3640.000000	96.242340
3639.000000	96.216997
3638.000000	96.183784
3637.000000	96.144261
3636.000000	96.100715
3635.000000	96.058108
3634.000000	96.020669
3633.000000	95.986116
3632.000000	95.946446
3631.000000	95.894568
3630.000000	95.832831
3629.000000	95.776582
3628.000000	95.738100
3627.000000	95.716354
3626.000000	95.710405
3625.000000	95.716038
3624.000000	95.722917
3623.000000	95.726441
3622.000000	95.731082
3621.000000	95.742589
3620.000000	95.759316
3619.000000	95.772614
3618.000000	95.776732
3617.000000	95.777157
3616.000000	95.785709
3615.000000	95.807777
3614.000000	95.838087
3613.000000	95.866844
3612.000000	95.888517
3611.000000	95.904825
3610.000000	95.919160
3609.000000	95.930938
3608.000000	95.937990
3607.000000	95.941665
3606.000000	95.947130
3605.000000	95.958384
3604.000000	95.974269
3603.000000	95.990316
3602.000000	96.003676
3601.000000	96.014296
3600.000000	96.021979
3599.000000	96.024916
3598.000000	96.022132
3597.000000	96.015503
3596.000000	96.010171
3595.000000	96.011876
3594.000000	96.021781
3593.000000	96.034314
3592.000000	96.042085
3591.000000	96.040975
3590.000000	96.031750
3589.000000	96.019254
3588.000000	96.009454
3587.000000	96.004299
3586.000000	96.001494
3585.000000	96.000712
3584.000000	96.004012
3583.000000	96.010646
3582.000000	96.017202
3581.000000	96.020988
3580.000000	96.021361
3579.000000	96.018329
3578.000000	96.011265
3577.000000	95.999368
3576.000000	95.983410
3575.000000	95.966541
3574.000000	95.952686
3573.000000	95.944198
3572.000000	95.941051
3571.000000	95.941435
3570.000000	95.942338
3569.000000	95.940497
3568.000000	95.934016
3567.000000	95.923877
3566.000000	95.913366
3565.000000	95.906188
3564.000000	95.904249
3563.000000	95.905523
3562.000000	95.905408
3561.000000	95.900439
3560.000000	95.890387
3559.000000	95.877775
3558.000000	95.865706
3557.000000	95.855433
3556.000000	95.845662
3555.000000	95.834693
3554.000000	95.823279
3553.000000	95.814569
3552.000000	95.810459
3551.000000	95.808915
3550.000000	95.805844
3549.000000	95.799144
3548.000000	95.790246
3547.000000	95.782290
3546.000000	95.777095
3545.000000	95.773750
3544.000000	95.769989
3543.000000	95.764508
3542.000000	95.757751
3541.000000	95.751006
3540.000000	95.745166
3539.000000	95.740132
3538.000000	95.734960
3537.000000	95.728589
3536.000000	95.720645
3535.000000	95.711625
3534.000000	95.702522
3533.000000	95.694166
3532.000000	95.686819
3531.000000	95.680324
3530.000000	95.674338
3529.000000	95.668413
3528.000000	95.662069
3527.000000	95.655030
3526.000000	95.647522
3525.000000	95.640138
3524.000000	95.633305
3523.000000	95.626963
3522.000000	95.620786
3521.000000	95.614585
3520.000000	95.608363
3519.000000	95.602111
3518.000000	95.595730
3517.000000	95.589130
3516.000000	95.582312
3515.000000	95.575315
3514.000000	95.568147
3513.000000	95.560825
3512.000000	95.553460
3511.000000	95.546265
3510.000000	95.539421
3509.000000	95.532884
3508.000000	95.526315
3507.000000	95.519294
3506.000000	95.511712
3505.000000	95.503941
3504.000000	95.496552
3503.000000	95.489754
3502.000000	95.483228
3501.000000	95.476460
3500.000000	95.469237
3499.000000	95.461757
3498.000000	95.454350
3497.000000	95.447122
3496.000000	95.439841
3495.000000	95.432209
3494.000000	95.424182
3493.000000	95.416000
3492.000000	95.407877
3491.000000	95.399779
3490.000000	95.391726
3489.000000	95.384184
3488.000000	95.377833
3487.000000	95.372788
3486.000000	95.368090
3485.000000	95.362274
3484.000000	95.354593
3483.000000	95.345584
3482.000000	95.336735
3481.000000	95.329264
3480.000000	95.323246
3479.000000	95.317747
3478.000000	95.311672
3477.000000	95.304582
3476.000000	95.296820
3475.000000	95.288997
3474.000000	95.281339
3473.000000	95.273543
3472.000000	95.265242
3471.000000	95.256472
3470.000000	95.247632
3469.000000	95.238988
3468.000000	95.230395
3467.000000	95.221671
3466.000000	95.213137
3465.000000	95.205420
3464.000000	95.198515
3463.000000	95.191260
3462.000000	95.182296
3461.000000	95.171730
3460.000000	95.161510
3459.000000	95.153697
3458.000000	95.148608
3457.000000	95.144784
3456.000000	95.140499
3455.000000	95.135127
3454.000000	95.128979
3453.000000	95.122345
3452.000000	95.115048
3451.000000	95.106846
3450.000000	95.098057
3449.000000	95.089639
3448.000000	95.082590
3447.000000	95.077175
3446.000000	95.072667
3445.000000	95.067861
3444.000000	95.062000
3443.000000	95.055256
3442.000000	95.048397
3441.000000	95.041981
3440.000000	95.035788
3439.000000	95.029118
3438.000000	95.021567
3437.000000	95.013432
3436.000000	95.005402
3435.000000	94.998055
3434.000000	94.991724
3433.000000	94.986599
3432.000000	94.982712
3431.000000	94.979753
3430.000000	94.977004
3429.000000	94.973460
3428.000000	94.968122
3427.000000	94.960569
3426.000000	94.951540
3425.000000	94.942845
3424.000000	94.936251
3423.000000	94.932359
3422.000000	94.930405
3421.000000	94.928734
3420.000000	94.925559
3419.000000	94.919885
3418.000000	94.912425
3417.000000	94.905593
3416.000000	94.901764
3415.000000	94.901217
3414.000000	94.901873
3413.000000	94.901204
3412.000000	94.898287
3411.000000	94.893832
3410.000000	94.888757
3409.000000	94.883217
3408.000000	94.877041
3407.000000	94.870828
3406.000000	94.866177
3405.000000	94.864452
3404.000000	94.865247
3403.000000	94.866358
3402.000000	94.865718
3401.000000	94.863233
3400.000000	94.860368
3399.000000	94.858177
3398.000000	94.856274
3397.000000	94.853598
3396.000000	94.849646
3395.000000	94.844919
3394.000000	94.840757
3393.000000	94.838803
3392.000000	94.839929
3391.000000	94.843373
3390.000000	94.847413
3389.000000	94.851169
3388.000000	94.855031
3387.000000	94.858999
3386.000000	94.861527
3385.000000	94.860928
3384.000000	94.857602
3383.000000	94.853952
3382.000000	94.852036
3381.000000	94.852010
3380.000000	94.852750
3379.000000	94.853149
3378.000000	94.852640
3377.000000	94.851206
3376.000000	94.849585
3375.000000	94.849193
3374.000000	94.851342
3373.000000	94.856343
3372.000000	94.863204
3371.000000	94.870081
3370.000000	94.875125
3369.000000	94.877386
3368.000000	94.877229
3367.000000	94.875766
3366.000000	94.873817
3365.000000	94.871582
3364.000000	94.869343
3363.000000	94.868053
3362.000000	94.868774
3361.000000	94.871607
3360.000000	94.875381
3359.000000	94.878389
3358.000000	94.879552
3357.000000	94.879199
3356.000000	94.879024
3355.000000	94.880990
3354.000000	94.885761
3353.000000	94.892029
3352.000000	94.897484
3351.000000	94.900749
3350.000000	94.902124
3349.000000	94.902649
3348.000000	94.903048
3347.000000	94.903852
3346.000000	94.905987
3345.000000	94.910249
3344.000000	94.916158
3343.000000	94.922026
3342.000000	94.926602
3341.000000	94.930175
3340.000000	94.933622
3339.000000	94.936951
3338.000000	94.939484
3337.000000	94.941259
3336.000000	94.943364
3335.000000	94.946658
3334.000000	94.950803
3333.000000	94.954849
3332.000000	94.958432
3331.000000	94.962033
3330.000000	94.966281
3329.000000	94.971354
3328.000000	94.976935
3327.000000	94.982439
3326.000000	94.987288
3325.000000	94.991324
3324.000000	94.995010
3323.000000	94.998996
3322.000000	95.003399
3321.000000	95.007699
3320.000000	95.011484
3319.000000	95.015180
3318.000000	95.019747
3317.000000	95.025611
3316.000000	95.032153
3315.000000	95.038319
3314.000000	95.043663
3313.000000	95.048523
3312.000000	95.053291
3311.000000	95.057844
3310.000000	95.061861
3309.000000	95.065528
3308.000000	95.069651
3307.000000	95.074899
3306.000000	95.081031
3305.000000	95.086935
3304.000000	95.091461
3303.000000	95.094218
3302.000000	95.095746
3301.000000	95.097191
3300.000000	95.099747
3299.000000	95.104162
3298.000000	95.110423
3297.000000	95.117626
3296.000000	95.124346
3295.000000	95.129622
3294.000000	95.133531
3293.000000	95.136846
3292.000000	95.140256
3291.000000	95.143996
3290.000000	95.148100
3289.000000	95.152747
3288.000000	95.158360
3287.000000	95.165362
3286.000000	95.173615
3285.000000	95.181968
3284.000000	95.188687
3283.000000	95.192936
3282.000000	95.195709
3281.000000	95.198819
3280.000000	95.202899
3279.000000	95.207091
3278.000000	95.210870
3277.000000	95.215301
3276.000000	95.221867
3275.000000	95.230686
3274.000000	95.240504
3273.000000	95.250022
3272.000000	95.258516
3271.000000	95.265483
3270.000000	95.270682
3269.000000	95.274656
3268.000000	95.278495
3267.000000	95.282796
3266.000000	95.287336
3265.000000	95.291866
3264.000000	95.296570
3263.000000	95.301492
3262.000000	95.306128
3261.000000	95.310146
3260.000000	95.314261
3259.000000	95.319887
3258.000000	95.327879
3257.000000	95.337720
3256.000000	95.347626
3255.000000	95.355426
3254.000000	95.359759
3253.000000	95.360961
3252.000000	95.361170
3251.000000	95.362996
3250.000000	95.367550
3249.000000	95.373707
3248.000000	95.379233
3247.000000	95.383122
3246.000000	95.387012
3245.000000	95.393857
3244.000000	95.404929
3243.000000	95.418331
3242.000000	95.430551
3241.000000	95.439738
3240.000000	95.446958
3239.000000	95.454334
3238.000000	95.462418
3237.000000	95.469715
3236.000000	95.474633
3235.000000	95.477466
3234.000000	95.480401
3233.000000	95.485560
3232.000000	95.493117
3231.000000	95.501485
3230.000000	95.509269
3229.000000	95.516615
3228.000000	95.524362
3227.000000	95.532546
3226.000000	95.540564
3225.000000	95.548613
3224.000000	95.557892
3223.000000	95.569006
3222.000000	95.580899
3221.000000	95.591881
3220.000000	95.601328
3219.000000	95.609772
3218.000000	95.617693
3217.000000	95.625036
3216.000000	95.631955
3215.000000	95.639326
3214.000000	95.648075
3213.000000	95.658217
3212.000000	95.668752
3211.000000	95.678422
3210.000000	95.686564
3209.000000	95.693361
3208.000000	95.699625
3207.000000	95.706389
3206.000000	95.714320
3205.000000	95.723371
3204.000000	95.732854
3203.000000	95.741930
3202.000000	95.750228
3201.000000	95.758001
3200.000000	95.765801
3199.000000	95.773998
3198.000000	95.782572
3197.000000	95.791284
3196.000000	95.799950
3195.000000	95.808521
3194.000000	95.816999
3193.000000	95.825431
3192.000000	95.833983
3191.000000	95.842916
3190.000000	95.852359
3189.000000	95.862094
3188.000000	95.871571
3187.000000	95.880294
3186.000000	95.888185
3185.000000	95.895580
3184.000000	95.902935
3183.000000	95.910492
3182.000000	95.918353
3181.000000	95.926679
3180.000000	95.935561
3179.000000	95.944716
3178.000000	95.953579
3177.000000	95.961876
3176.000000	95.969966
3175.000000	95.978445
3174.000000	95.987423
3173.000000	95.996383
3172.000000	96.004865
3171.000000	96.013192
3170.000000	96.022171
3169.000000	96.032091
3168.000000	96.042302
3167.000000	96.051977
3166.000000	96.061157
3165.000000	96.070633
3164.000000	96.080684
3163.000000	96.090328
3162.000000	96.098298
3161.000000	96.104539
3160.000000	96.110360
3159.000000	96.117152
3158.000000	96.125324
3157.000000	96.134565
3156.000000	96.144594
3155.000000	96.155413
3154.000000	96.167060
3153.000000	96.179303
3152.000000	96.191384
3151.000000	96.202031
3150.000000	96.210128
3149.000000	96.215685
3148.000000	96.220222
3147.000000	96.225873
3146.000000	96.233922
3145.000000	96.244259
3144.000000	96.255740
3143.000000	96.266888
3142.000000	96.276771
3141.000000	96.285611
3140.000000	96.294542
3139.000000	96.304500
3138.000000	96.315442
3137.000000	96.326921
3136.000000	96.339047
3135.000000	96.352012
3134.000000	96.364673
3133.000000	96.374770
3132.000000	96.381326
3131.000000	96.386258
3130.000000	96.392723
3129.000000	96.401703
3128.000000	96.411349
3127.000000	96.419818
3126.000000	96.427673
3125.000000	96.436615
3124.000000	96.446416
3123.000000	96.454599
3122.000000	96.459511
3121.000000	96.462451
3120.000000	96.466416
3119.000000	96.473113
3118.000000	96.481876
3117.000000	96.491037
3116.000000	96.499498
3115.000000	96.507065
3114.000000	96.513985
3113.000000	96.520547
3112.000000	96.526966
3111.000000	96.533457
3110.000000	96.540416
3109.000000	96.548285
3108.000000	96.556991
3107.000000	96.565647
3106.000000	96.573248
3105.000000	96.579601
3104.000000	96.585263
3103.000000	96.590785
3102.000000	96.596407
3101.000000	96.602372
3100.000000	96.608953
3099.000000	96.616066
3098.000000	96.623297
3097.000000	96.630430
3096.000000	96.637604
3095.000000	96.644816
3094.000000	96.651645
3093.000000	96.657713
3092.000000	96.663189
3091.000000	96.668675
3090.000000	96.674713
3089.000000	96.681464
3088.000000	96.688661
3087.000000	96.695744
3086.000000	96.702209
3085.000000	96.707922
3084.000000	96.713153
3083.000000	96.718392
3082.000000	96.724118
3081.000000	96.730715
3080.000000	96.738397
3079.000000	96.746899
3078.000000	96.755263
3077.000000	96.762381
3076.000000	96.767923
3075.000000	96.772675
3074.000000	96.777819
3073.000000	96.784006
3072.000000	96.791183
3071.000000	96.798984
3070.000000	96.807057
3069.000000	96.815055
3068.000000	96.822383
3067.000000	96.828106
3066.000000	96.831394
3065.000000	96.832466
3064.000000	96.833101
3063.000000	96.835648
3062.000000	96.841195
3061.000000	96.848771
3060.000000	96.856265
3059.000000	96.861944
3058.000000	96.865184
3057.000000	96.866549
3056.000000	96.867753
3055.000000	96.871106
3054.000000	96.878194
3053.000000	96.888727
3052.000000	96.900525
3051.000000	96.910437
3050.000000	96.915452
3049.000000	96.914109
3048.000000	96.908245
3047.000000	96.903290
3046.000000	96.905040
3045.000000	96.914942
3044.000000	96.928585
3043.000000	96.939433
3042.000000	96.944156
3041.000000	96.944015
3040.000000	96.941964
3039.000000	96.939662
3038.000000	96.937302
3037.000000	96.934881
3036.000000	96.932676
3035.000000	96.931212
3034.000000	96.931707
3033.000000	96.936144
3032.000000	96.945572
3031.000000	96.957825
3030.000000	96.967665
3029.000000	96.970226
3028.000000	96.964663
3027.000000	96.954798
3026.000000	96.946228
3025.000000	96.941976
3024.000000	96.940294
3023.000000	96.936777
3022.000000	96.929048
3021.000000	96.919431
3020.000000	96.912740
3019.000000	96.911403
3018.000000	96.913200
3017.000000	96.913600
3016.000000	96.909439
3015.000000	96.900125
3014.000000	96.886632
3013.000000	96.870878
3012.000000	96.855891
3011.000000	96.844726
3010.000000	96.837715
3009.000000	96.831323
3008.000000	96.821207
3007.000000	96.806800
3006.000000	96.791847
3005.000000	96.779652
3004.000000	96.768789
3003.000000	96.755156
3002.000000	96.738055
3001.000000	96.722426
3000.000000	96.714152
2999.000000	96.714121
2998.000000	96.717594
2997.000000	96.718361
2996.000000	96.712320
2995.000000	96.697733
2994.000000	96.674160
2993.000000	96.642445
2992.000000	96.605400
2991.000000	96.567590
2990.000000	96.533742
2989.000000	96.506770
2988.000000	96.487102
2987.000000	96.473969
2986.000000	96.466837
2985.000000	96.464638
2984.000000	96.463655
2983.000000	96.457989
2982.000000	96.443920
2981.000000	96.423774
2980.000000	96.404377
2979.000000	96.391357
2978.000000	96.385278
2977.000000	96.382647
2976.000000	96.379825
2975.000000	96.376548
2974.000000	96.376921
2973.000000	96.387009
2972.000000	96.410320
2971.000000	96.444823
2970.000000	96.484174
2969.000000	96.521809
2968.000000	96.554077
2967.000000	96.581026
2966.000000	96.606005
2965.000000	96.634050
2964.000000	96.667981
2963.000000	96.704575
2962.000000	96.735937
2961.000000	96.756347
2960.000000	96.767289
2959.000000	96.775003
2958.000000	96.783951
2957.000000	96.794392
2956.000000	96.805846
2955.000000	96.819771
2954.000000	96.836829
2953.000000	96.853218
2952.000000	96.863022
2951.000000	96.864834
2950.000000	96.863791
2949.000000	96.865609
2948.000000	96.870228
2947.000000	96.873277
2946.000000	96.872366
2945.000000	96.868966
2944.000000	96.864716
2943.000000	96.859600
2942.000000	96.854911
2941.000000	96.854618
2940.000000	96.861134
2939.000000	96.871550
2938.000000	96.880852
2937.000000	96.887834
2936.000000	96.895346
2935.000000	96.905416
2934.000000	96.916806
2933.000000	96.927262
2932.000000	96.935622
2931.000000	96.941290
2930.000000	96.944082
2929.000000	96.945727
2928.000000	96.949715
2927.000000	96.957991
2926.000000	96.968566
2925.000000	96.977580
2924.000000	96.983477
2923.000000	96.988618
2922.000000	96.997340
2921.000000	97.012756
2920.000000	97.034388
2919.000000	97.057700
2918.000000	97.075998
2917.000000	97.083554
2916.000000	97.077692
2915.000000	97.059252
2914.000000	97.032527
2913.000000	97.004780
2912.000000	96.983818
2911.000000	96.974055
2910.000000	96.974185
2909.000000	96.978476
2908.000000	96.980580
2907.000000	96.976769
2906.000000	96.966550
2905.000000	96.951487
2904.000000	96.934455
2903.000000	96.920096
2902.000000	96.914257
2901.000000	96.920305
2900.000000	96.935046
2899.000000	96.949983
2898.000000	96.958723
2897.000000	96.962584
2896.000000	96.967307
2895.000000	96.975425
2894.000000	96.984123
2893.000000	96.990030
2892.000000	96.993391
2891.000000	96.996857
2890.000000	97.002333
2889.000000	97.010013
2888.000000	97.018766
2887.000000	97.026394
2886.000000	97.031099
2885.000000	97.034173
2884.000000	97.040140
2883.000000	97.052636
2882.000000	97.070424
2881.000000	97.088272
2880.000000	97.101749
2879.000000	97.111097
2878.000000	97.120842
2877.000000	97.135826
2876.000000	97.156784
2875.000000	97.179212
2874.000000	97.197157
2873.000000	97.208549
2872.000000	97.216304
2871.000000	97.224763
2870.000000	97.236677
2869.000000	97.253294
2868.000000	97.274397
2867.000000	97.296767
2866.000000	97.314974
2865.000000	97.326286
2864.000000	97.334018
2863.000000	97.344043
2862.000000	97.358486
2861.000000	97.374695
2860.000000	97.389673
2859.000000	97.403189
2858.000000	97.416589
2857.000000	97.430766
2856.000000	97.446162
2855.000000	97.463556
2854.000000	97.484097
2853.000000	97.508861
2852.000000	97.537969
2851.000000	97.569065
2850.000000	97.596942
2849.000000	97.616242
2848.000000	97.625041
2847.000000	97.625493
2846.000000	97.621434
2845.000000	97.616097
2844.000000	97.611714
2843.000000	97.609596
2842.000000	97.609739
2841.000000	97.611366
2840.000000	97.614573
2839.000000	97.620566
2838.000000	97.629542
2837.000000	97.639185
2836.000000	97.646519
2835.000000	97.651115
2834.000000	97.655436
2833.000000	97.661904
2832.000000	97.670495
2831.000000	97.679685
2830.000000	97.688978
2829.000000	97.699386
2828.000000	97.711314
2827.000000	97.722843
2826.000000	97.730978
2825.000000	97.734670
2824.000000	97.736153
2823.000000	97.739171
2822.000000	97.746011
2821.000000	97.756180
2820.000000	97.767406
2819.000000	97.777356
2818.000000	97.784612
2817.000000	97.788784
2816.000000	97.790436
2815.000000	97.791050
2814.000000	97.792629
2813.000000	97.796756
2812.000000	97.803624
2811.000000	97.811821
2810.000000	97.819123
2809.000000	97.823799
2808.000000	97.825601
2807.000000	97.825854
2806.000000	97.826595
2805.000000	97.829176
2804.000000	97.833518
2803.000000	97.838694
2802.000000	97.843885
2801.000000	97.848851
2800.000000	97.853806
2799.000000	97.859040
2798.000000	97.864640
2797.000000	97.870406
2796.000000	97.875907
2795.000000	97.880751
2794.000000	97.884927
2793.000000	97.888788
2792.000000	97.892672
2791.000000	97.896682
2790.000000	97.900948
2789.000000	97.905793
2788.000000	97.911260
2787.000000	97.916578
2786.000000	97.920612
2785.000000	97.922970
2784.000000	97.924424
2783.000000	97.926251
2782.000000	97.929134
2781.000000	97.932840
2780.000000	97.936795
2779.000000	97.940726
2778.000000	97.944733
2777.000000	97.948882
2776.000000	97.952966
2775.000000	97.956738
2774.000000	97.960234
2773.000000	97.963663
2772.000000	97.967008
2771.000000	97.970007
2770.000000	97.972665
2769.000000	97.975546
2768.000000	97.979266
2767.000000	97.983811
2766.000000	97.988454
2765.000000	97.992385
2764.000000	97.995401
2763.000000	97.997997
2762.000000	98.000908
2761.000000	98.004411
2760.000000	98.007996
2759.000000	98.010835
2758.000000	98.012600
2757.000000	98.013716
2756.000000	98.014904
2755.000000	98.016608
2754.000000	98.019016
2753.000000	98.022211
2752.000000	98.025961
2751.000000	98.029625
2750.000000	98.032657
2749.000000	98.035135
2748.000000	98.037500
2747.000000	98.039960
2746.000000	98.042475
2745.000000	98.045138
2744.000000	98.048060
2743.000000	98.050938
2742.000000	98.053267
2741.000000	98.055125
2740.000000	98.057281
2739.000000	98.060242
2738.000000	98.063525
2737.000000	98.066215
2736.000000	98.067921
2735.000000	98.068879
2734.000000	98.069572
2733.000000	98.070442
2732.000000	98.071842
2731.000000	98.073810
2730.000000	98.075984
2729.000000	98.077986
2728.000000	98.079799
2727.000000	98.081628
2726.000000	98.083579
2725.000000	98.085623
2724.000000	98.087702
2723.000000	98.089702
2722.000000	98.091443
2721.000000	98.092875
2720.000000	98.094187
2719.000000	98.095598
2718.000000	98.097093
2717.000000	98.098506
2716.000000	98.099799
2715.000000	98.101125
2714.000000	98.102614
2713.000000	98.104202
2712.000000	98.105697
2711.000000	98.106951
2710.000000	98.107981
2709.000000	98.108957
2708.000000	98.110062
2707.000000	98.111365
2706.000000	98.112797
2705.000000	98.114219
2704.000000	98.115530
2703.000000	98.116698
2702.000000	98.117707
2701.000000	98.118551
2700.000000	98.119273
2699.000000	98.119991
2698.000000	98.120804
2697.000000	98.121686
2696.000000	98.122515
2695.000000	98.123220
2694.000000	98.123887
2693.000000	98.124690
2692.000000	98.125708
2691.000000	98.126845
2690.000000	98.127871
2689.000000	98.128633
2688.000000	98.129144
2687.000000	98.129563
2686.000000	98.130079
2685.000000	98.130802
2684.000000	98.131713
2683.000000	98.132644
2682.000000	98.133413
2681.000000	98.134015
2680.000000	98.134647
2679.000000	98.135507
2678.000000	98.136623
2677.000000	98.137852
2676.000000	98.138935
2675.000000	98.139554
2674.000000	98.139513
2673.000000	98.139040
2672.000000	98.138813
2671.000000	98.139361
2670.000000	98.140591
2669.000000	98.141920
2668.000000	98.142895
2667.000000	98.143455
2666.000000	98.143754
2665.000000	98.144102
2664.000000	98.144975
2663.000000	98.146702
2662.000000	98.149052
2661.000000	98.151272
2660.000000	98.152768
2659.000000	98.153588
2658.000000	98.154223
2657.000000	98.155045
2656.000000	98.155983
2655.000000	98.156690
2654.000000	98.156949
2653.000000	98.156920
2652.000000	98.157098
2651.000000	98.157967
2650.000000	98.159589
2649.000000	98.161432
2648.000000	98.162674
2647.000000	98.162803
2646.000000	98.162113
2645.000000	98.161589
2644.000000	98.162028
2643.000000	98.163319
2642.000000	98.164594
2641.000000	98.165014
2640.000000	98.164332
2639.000000	98.162907
2638.000000	98.161540
2637.000000	98.161115
2636.000000	98.161993
2635.000000	98.163620
2634.000000	98.164964
2633.000000	98.165499
2632.000000	98.165489
2631.000000	98.165382
2630.000000	98.165348
2629.000000	98.165468
2628.000000	98.165855
2627.000000	98.166333
2626.000000	98.166469
2625.000000	98.166207
2624.000000	98.166126
2623.000000	98.166801
2622.000000	98.168209
2621.000000	98.169875
2620.000000	98.171193
2619.000000	98.171545
2618.000000	98.170669
2617.000000	98.169287
2616.000000	98.168800
2615.000000	98.169803
2614.000000	98.171424
2613.000000	98.172485
2612.000000	98.173146
2611.000000	98.174634
2610.000000	98.177577
2609.000000	98.181266
2608.000000	98.184362
2607.000000	98.186062
2606.000000	98.186485
2605.000000	98.186396
2604.000000	98.186618
2603.000000	98.187312
2602.000000	98.187861
2601.000000	98.187690
2600.000000	98.187088
2599.000000	98.186916
2598.000000	98.187565
2597.000000	98.188567
2596.000000	98.189289
2595.000000	98.189767
2594.000000	98.190622
2593.000000	98.192328
2592.000000	98.194779
2591.000000	98.197432
2590.000000	98.199725
2589.000000	98.201373
2588.000000	98.202328
2587.000000	98.202621
2586.000000	98.202409
2585.000000	98.202208
2584.000000	98.202704
2583.000000	98.204045
2582.000000	98.205545
2581.000000	98.206350
2580.000000	98.206404
2579.000000	98.206524
2578.000000	98.207523
2577.000000	98.209422
2576.000000	98.211489
2575.000000	98.212890
2574.000000	98.213320
2573.000000	98.213091
2572.000000	98.212852
2571.000000	98.213105
2570.000000	98.213873
2569.000000	98.214774
2568.000000	98.215430
2567.000000	98.215860
2566.000000	98.216467
2565.000000	98.217600
2564.000000	98.219147
2563.000000	98.220596
2562.000000	98.221477
2561.000000	98.221773
2560.000000	98.221879
2559.000000	98.222293
2558.000000	98.223341
2557.000000	98.225097
2556.000000	98.227390
2555.000000	98.229755
2554.000000	98.231700
2553.000000	98.233140
2552.000000	98.234371
2551.000000	98.235678
2550.000000	98.237070
2549.000000	98.238419
2548.000000	98.239728
2547.000000	98.241176
2546.000000	98.242909
2545.000000	98.244866
2544.000000	98.246794
2543.000000	98.248423
2542.000000	98.249687
2541.000000	98.250753
2540.000000	98.251886
2539.000000	98.253226
2538.000000	98.254741
2537.000000	98.256339
2536.000000	98.257970
2535.000000	98.259638
2534.000000	98.261371
2533.000000	98.263191
2532.000000	98.265097
2531.000000	98.267047
2530.000000	98.268974
2529.000000	98.270832
2528.000000	98.272615
2527.000000	98.274345
2526.000000	98.276056
2525.000000	98.277796
2524.000000	98.279607
2523.000000	98.281496
2522.000000	98.283431
2521.000000	98.285365
2520.000000	98.287269
2519.000000	98.289144
2518.000000	98.291017
2517.000000	98.292937
2516.000000	98.294936
2515.000000	98.297004
2514.000000	98.299100
2513.000000	98.301174
2512.000000	98.303208
2511.000000	98.305204
2510.000000	98.307198
2509.000000	98.309252
2508.000000	98.311409
2507.000000	98.313650
2506.000000	98.315898
2505.000000	98.318093
2504.000000	98.320252
2503.000000	98.322453
2502.000000	98.324755
2501.000000	98.327147
2500.000000	98.329566
2499.000000	98.331944
2498.000000	98.334272
2497.000000	98.336608
2496.000000	98.339039
2495.000000	98.341593
2494.000000	98.344199
2493.000000	98.346741
2492.000000	98.349135
2491.000000	98.351335
2490.000000	98.353347
2489.000000	98.355275
2488.000000	98.357298
2487.000000	98.359521
2486.000000	98.361880
2485.000000	98.364231
2484.000000	98.366521
2483.000000	98.368801
2482.000000	98.371087
2481.000000	98.373304
2480.000000	98.375400
2479.000000	98.377444
2478.000000	98.379563
2477.000000	98.381821
2476.000000	98.384145
2475.000000	98.386336
2474.000000	98.388199
2473.000000	98.389751
2472.000000	98.391293
2471.000000	98.393159
2470.000000	98.395457
2469.000000	98.397991
2468.000000	98.400437
2467.000000	98.402556
2466.000000	98.404278
2465.000000	98.405811
2464.000000	98.407575
2463.000000	98.409809
2462.000000	98.412288
2461.000000	98.414554
2460.000000	98.416488
2459.000000	98.418380
2458.000000	98.420453
2457.000000	98.422563
2456.000000	98.424453
2455.000000	98.426110
2454.000000	98.427700
2453.000000	98.429289
2452.000000	98.430797
2451.000000	98.432169
2450.000000	98.433525
2449.000000	98.435115
2448.000000	98.437086
2447.000000	98.439212
2446.000000	98.440945
2445.000000	98.441909
2444.000000	98.442343
2443.000000	98.442907
2442.000000	98.443956
2441.000000	98.445332
2440.000000	98.446833
2439.000000	98.448575
2438.000000	98.450715
2437.000000	98.453067
2436.000000	98.455263
2435.000000	98.457179
2434.000000	98.458959
2433.000000	98.460684
2432.000000	98.462238
2431.000000	98.463570
2430.000000	98.464904
2429.000000	98.466551
2428.000000	98.468503
2427.000000	98.470218
2426.000000	98.470928
2425.000000	98.470305
2424.000000	98.468958
2423.000000	98.468158
2422.000000	98.468853
2421.000000	98.470903
2420.000000	98.473116
2419.000000	98.474162
2418.000000	98.473600
2417.000000	98.472127
2416.000000	98.470943
2415.000000	98.470900
2414.000000	98.472254
2413.000000	98.474845
2412.000000	98.478047
2411.000000	98.480756
2410.000000	98.482091
2409.000000	98.482317
2408.000000	98.482548
2407.000000	98.483345
2406.000000	98.484025
2405.000000	98.483650
2404.000000	98.482269
2403.000000	98.480765
2402.000000	98.479881
2401.000000	98.479858
2400.000000	98.480583
2399.000000	98.481564
2398.000000	98.481961
2397.000000	98.481044
2396.000000	98.478702
2395.000000	98.475464
2394.000000	98.472213
2393.000000	98.469912
2392.000000	98.469182
2391.000000	98.469820
2390.000000	98.470758
2389.000000	98.470830
2388.000000	98.469704
2387.000000	98.467836
2386.000000	98.465771
2385.000000	98.463725
2384.000000	98.461592
2383.000000	98.459120
2382.000000	98.456173
2381.000000	98.453002
2380.000000	98.450212
2379.000000	98.448273
2378.000000	98.447114
2377.000000	98.446233
2376.000000	98.445124
2375.000000	98.443590
2374.000000	98.441744
2373.000000	98.439798
2372.000000	98.437839
2371.000000	98.435776
2370.000000	98.433575
2369.000000	98.431413
2368.000000	98.429479
2367.000000	98.427701
2366.000000	98.425791
2365.000000	98.423560
2364.000000	98.421096
2363.000000	98.418636
2362.000000	98.416323
2361.000000	98.414105
2360.000000	98.411842
2359.000000	98.409468
2358.000000	98.407090
2357.000000	98.404874
2356.000000	98.402843
2355.000000	98.400909
2354.000000	98.398992
2353.000000	98.397058
2352.000000	98.395064
2351.000000	98.392990
2350.000000	98.390852
2349.000000	98.388697
2348.000000	98.386581
2347.000000	98.384553
2346.000000	98.382625
2345.000000	98.380776
2344.000000	98.378957
2343.000000	98.377137
2342.000000	98.375312
2341.000000	98.373501
2340.000000	98.371730
2339.000000	98.370014
2338.000000	98.368369
2337.000000	98.366804
2336.000000	98.365283
2335.000000	98.363754
2334.000000	98.362241
2333.000000	98.360832
2332.000000	98.359528
2331.000000	98.358210
2330.000000	98.356764
2329.000000	98.355216
2328.000000	98.353627
2327.000000	98.352067
2326.000000	98.350596
2325.000000	98.349257
2324.000000	98.348072
2323.000000	98.347036
2322.000000	98.346131
2321.000000	98.345183
2320.000000	98.344165
2319.000000	98.343381
2318.000000	98.343030
2317.000000	98.342663
2316.000000	98.341407
2315.000000	98.339085
2314.000000	98.336689
2313.000000	98.335530
2312.000000	98.335803
2311.000000	98.336589
2310.000000	98.336836
2309.000000	98.336346
2308.000000	98.335637
2307.000000	98.335328
2306.000000	98.335661
2305.000000	98.336250
2304.000000	98.336198
2303.000000	98.334756
2302.000000	98.332120
2301.000000	98.329509
2300.000000	98.328230
2299.000000	98.328459
2298.000000	98.329009
2297.000000	98.328668
2296.000000	98.327464
2295.000000	98.326539
2294.000000	98.326579
2293.000000	98.326964
2292.000000	98.326559
2291.000000	98.325183
2290.000000	98.323782
2289.000000	98.323176
2288.000000	98.322974
2287.000000	98.321883
2286.000000	98.319024
2285.000000	98.314726
2284.000000	98.310425
2283.000000	98.307610
2282.000000	98.306685
2281.000000	98.306559
2280.000000	98.305427
2279.000000	98.302232
2278.000000	98.297503
2277.000000	98.292884
2276.000000	98.289755
2275.000000	98.288304
2274.000000	98.287682
2273.000000	98.286806
2272.000000	98.285081
2271.000000	98.282741
2270.000000	98.280645
2269.000000	98.279519
2268.000000	98.279262
2267.000000	98.279124
2266.000000	98.278629
2265.000000	98.278221
2264.000000	98.278602
2263.000000	98.279538
2262.000000	98.279731
2261.000000	98.278116
2260.000000	98.274996
2259.000000	98.271692
2258.000000	98.269086
2257.000000	98.266851
2256.000000	98.264358
2255.000000	98.261910
2254.000000	98.260539
2253.000000	98.260611
2252.000000	98.261181
2251.000000	98.260994
2250.000000	98.259784
2249.000000	98.258176
2248.000000	98.256534
2247.000000	98.254488
2246.000000	98.251649
2245.000000	98.248356
2244.000000	98.245507
2243.000000	98.243915
2242.000000	98.243960
2241.000000	98.245532
2240.000000	98.247890
2239.000000	98.249843
2238.000000	98.250523
2237.000000	98.249865
2236.000000	98.248297
2235.000000	98.246285
2234.000000	98.244358
2233.000000	98.243277
2232.000000	98.243538
2231.000000	98.244739
2230.000000	98.245872
2229.000000	98.246417
2228.000000	98.246831
2227.000000	98.247763
2226.000000	98.249037
2225.000000	98.249649
2224.000000	98.248719
2223.000000	98.246276
2222.000000	98.243336
2221.000000	98.241302
2220.000000	98.241026
2219.000000	98.242328
2218.000000	98.244216
2217.000000	98.245687
2216.000000	98.246473
2215.000000	98.246997
2214.000000	98.247833
2213.000000	98.249246
2212.000000	98.251102
2211.000000	98.253012
2210.000000	98.254580
2209.000000	98.255640
2208.000000	98.256390
2207.000000	98.257315
2206.000000	98.258830
2205.000000	98.260849
2204.000000	98.262741
2203.000000	98.263893
2202.000000	98.264318
2201.000000	98.264544
2200.000000	98.265020
2199.000000	98.265809
2198.000000	98.266884
2197.000000	98.268343
2196.000000	98.270134
2195.000000	98.271795
2194.000000	98.272803
2193.000000	98.273092
2192.000000	98.273077
2191.000000	98.273259
2190.000000	98.273880
2189.000000	98.274878
2188.000000	98.276052
2187.000000	98.277310
2186.000000	98.278811
2185.000000	98.280712
2184.000000	98.282824
2183.000000	98.284669
2182.000000	98.286019
2181.000000	98.287106
2180.000000	98.288327
2179.000000	98.289818
2178.000000	98.291430
2177.000000	98.292981
2176.000000	98.294431
2175.000000	98.295836
2174.000000	98.297232
2173.000000	98.298615
2172.000000	98.299999
2171.000000	98.301424
2170.000000	98.302913
2169.000000	98.304439
2168.000000	98.305961
2167.000000	98.307475
2166.000000	98.309009
2165.000000	98.310571
2164.000000	98.312127
2163.000000	98.313684
2162.000000	98.315345
2161.000000	98.317211
2160.000000	98.319253
2159.000000	98.321291
2158.000000	98.323170
2157.000000	98.324889
2156.000000	98.326596
2155.000000	98.328428
2154.000000	98.330383
2153.000000	98.332403
2152.000000	98.334491
2151.000000	98.336694
2150.000000	98.338999
2149.000000	98.341309
2148.000000	98.343526
2147.000000	98.345600
2146.000000	98.347572
2145.000000	98.349589
2144.000000	98.351810
2143.000000	98.354215
2142.000000	98.356521
2141.000000	98.358443
2140.000000	98.360079
2139.000000	98.361904
2138.000000	98.364307
2137.000000	98.367323
2136.000000	98.370686
2135.000000	98.373995
2134.000000	98.376912
2133.000000	98.379329
2132.000000	98.381503
2131.000000	98.383960
2130.000000	98.387089
2129.000000	98.390783
2128.000000	98.394432
2127.000000	98.397464
2126.000000	98.399850
2125.000000	98.401991
2124.000000	98.404134
2123.000000	98.406119
2122.000000	98.407836
2121.000000	98.409656
2120.000000	98.412079
2119.000000	98.415111
2118.000000	98.418294
2117.000000	98.421281
2116.000000	98.424115
2115.000000	98.426955
2114.000000	98.429921
2113.000000	98.433174
2112.000000	98.436693
2111.000000	98.439957
2110.000000	98.442323
2109.000000	98.443831
2108.000000	98.445338
2107.000000	98.447616
2106.000000	98.450637
2105.000000	98.453970
2104.000000	98.457425
2103.000000	98.460881
2102.000000	98.463823
2101.000000	98.465616
2100.000000	98.466190
2099.000000	98.466227
2098.000000	98.466754
2097.000000	98.468553
2096.000000	98.471571
2095.000000	98.474580
2094.000000	98.476027
2093.000000	98.475832
2092.000000	98.475852
2091.000000	98.477727
2090.000000	98.480756
2089.000000	98.482939
2088.000000	98.483773
2087.000000	98.484773
2086.000000	98.487337
2085.000000	98.491308
2084.000000	98.495626
2083.000000	98.499259
2082.000000	98.501343
2081.000000	98.501455
2080.000000	98.500206
2079.000000	98.498976
2078.000000	98.498803
2077.000000	98.499848
2076.000000	98.501663
2075.000000	98.503416
2074.000000	98.504238
2073.000000	98.504158
2072.000000	98.504541
2071.000000	98.506757
2070.000000	98.510395
2069.000000	98.513454
2068.000000	98.514232
2067.000000	98.512449
2066.000000	98.508936
2065.000000	98.505160
2064.000000	98.502927
2063.000000	98.503630
2062.000000	98.507386
2061.000000	98.513023
2060.000000	98.518626
2059.000000	98.521956
2058.000000	98.521157
2057.000000	98.516128
2056.000000	98.509211
2055.000000	98.503624
2054.000000	98.500748
2053.000000	98.499329
2052.000000	98.497340
2051.000000	98.494210
2050.000000	98.491189
2049.000000	98.489787
2048.000000	98.489860
2047.000000	98.489230
2046.000000	98.485449
2045.000000	98.478130
2044.000000	98.469417
2043.000000	98.462209
2042.000000	98.458057
2041.000000	98.456517
2040.000000	98.455764
2039.000000	98.453784
2038.000000	98.449891
2037.000000	98.445436
2036.000000	98.442404
2035.000000	98.441026
2034.000000	98.439421
2033.000000	98.435938
2032.000000	98.431124
2031.000000	98.426964
2030.000000	98.424828
2029.000000	98.424582
2028.000000	98.424967
2027.000000	98.424350
2026.000000	98.421834
2025.000000	98.418246
2024.000000	98.415498
2023.000000	98.414272
2022.000000	98.412892
2021.000000	98.409274
2020.000000	98.403386
2019.000000	98.397056
2018.000000	98.391832
2017.000000	98.387844
2016.000000	98.384480
2015.000000	98.381172
2014.000000	98.377536
2013.000000	98.373443
2012.000000	98.369103
2011.000000	98.364705
2010.000000	98.360091
2009.000000	98.355163
2008.000000	98.350357
2007.000000	98.346220
2006.000000	98.342850
2005.000000	98.340258
2004.000000	98.338897
2003.000000	98.338952
2002.000000	98.339158
2001.000000	98.337250
2000.000000	98.331865
1999.000000	98.323771
1998.000000	98.315381
1997.000000	98.309126
1996.000000	98.306056
1995.000000	98.305402
1994.000000	98.305325
1993.000000	98.304568
1992.000000	98.303331
1991.000000	98.302164
1990.000000	98.300670
1989.000000	98.298280
1988.000000	98.295719
1987.000000	98.294387
1986.000000	98.294445
1985.000000	98.294551
1984.000000	98.293566
1983.000000	98.291724
1982.000000	98.289970
1981.000000	98.289072
1980.000000	98.289548
1979.000000	98.291589
1978.000000	98.294403
1977.000000	98.296154
1976.000000	98.295410
1975.000000	98.292454
1974.000000	98.288900
1973.000000	98.286043
1972.000000	98.283889
1971.000000	98.281726
1970.000000	98.279229
1969.000000	98.276864
1968.000000	98.275426
1967.000000	98.275302
1966.000000	98.276143
1965.000000	98.277125
1964.000000	98.277453
1963.000000	98.276634
1962.000000	98.274579
1961.000000	98.271777
1960.000000	98.269245
1959.000000	98.267965
1958.000000	98.268109
1957.000000	98.268792
1956.000000	98.268639
1955.000000	98.266703
1954.000000	98.262999
1953.000000	98.258260
1952.000000	98.253256
1951.000000	98.248510
1950.000000	98.244725
1949.000000	98.242891
1948.000000	98.243240
1947.000000	98.244223
1946.000000	98.243400
1945.000000	98.239669
1944.000000	98.234258
1943.000000	98.229589
1942.000000	98.227440
1941.000000	98.228066
1940.000000	98.230470
1939.000000	98.232913
1938.000000	98.233394
1937.000000	98.230623
1936.000000	98.224962
1935.000000	98.218172
1934.000000	98.212163
1933.000000	98.207938
1932.000000	98.205212
1931.000000	98.202837
1930.000000	98.200264
1929.000000	98.198682
1928.000000	98.199585
1927.000000	98.202350
1926.000000	98.204276
1925.000000	98.203714
1924.000000	98.201852
1923.000000	98.200457
1922.000000	98.199123
1921.000000	98.195945
1920.000000	98.190175
1919.000000	98.182858
1918.000000	98.175450
1917.000000	98.168731
1916.000000	98.162601
1915.000000	98.156432
1914.000000	98.149473
1913.000000	98.141333
1912.000000	98.132421
1911.000000	98.123503
1910.000000	98.115169
1909.000000	98.108061
1908.000000	98.102767
1907.000000	98.099000
1906.000000	98.095056
1905.000000	98.089135
1904.000000	98.080956
1903.000000	98.071339
1902.000000	98.060834
1901.000000	98.049196
1900.000000	98.036417
1899.000000	98.024021
1898.000000	98.014544
1897.000000	98.009572
1896.000000	98.008315
1895.000000	98.008285
1894.000000	98.007695
1893.000000	98.006370
1892.000000	98.003931
1891.000000	97.998168
1890.000000	97.986981
1889.000000	97.972616
1888.000000	97.961402
1887.000000	97.958058
1886.000000	97.962104
1885.000000	97.968939
1884.000000	97.973511
1883.000000	97.973972
1882.000000	97.972177
1881.000000	97.970911
1880.000000	97.970920
1879.000000	97.970774
1878.000000	97.968943
1877.000000	97.965397
1876.000000	97.961143
1875.000000	97.956662
1874.000000	97.951999
1873.000000	97.948205
1872.000000	97.947065
1871.000000	97.949352
1870.000000	97.954447
1869.000000	97.961936
1868.000000	97.972268
1867.000000	97.984860
1866.000000	97.997555
1865.000000	98.008956
1864.000000	98.019664
1863.000000	98.030739
1862.000000	98.041874
1861.000000	98.051915
1860.000000	98.060919
1859.000000	98.070465
1858.000000	98.081450
1857.000000	98.092773
1856.000000	98.103274
1855.000000	98.114041
1854.000000	98.127052
1853.000000	98.141613
1852.000000	98.153542
1851.000000	98.159494
1850.000000	98.160643
1849.000000	98.161435
1848.000000	98.165640
1847.000000	98.173831
1846.000000	98.184425
1845.000000	98.195811
1844.000000	98.206871
1843.000000	98.216124
1842.000000	98.222605
1841.000000	98.227163
1840.000000	98.230813
1839.000000	98.233157
1838.000000	98.233644
1837.000000	98.234077
1836.000000	98.237517
1835.000000	98.243679
1834.000000	98.248088
1833.000000	98.247333
1832.000000	98.243703
1831.000000	98.243800
1830.000000	98.251538
1829.000000	98.263114
1828.000000	98.271772
1827.000000	98.275346
1826.000000	98.276097
1825.000000	98.276588
1824.000000	98.277616
1823.000000	98.278568
1822.000000	98.278951
1821.000000	98.279077
1820.000000	98.279540
1819.000000	98.280272
1818.000000	98.280114
1817.000000	98.278184
1816.000000	98.275448
1815.000000	98.274088
1814.000000	98.275408
1813.000000	98.278313
1812.000000	98.280140
1811.000000	98.279168
1810.000000	98.276577
1809.000000	98.275694
1808.000000	98.278755
1807.000000	98.285162
1806.000000	98.292737
1805.000000	98.299688
1804.000000	98.305077
1803.000000	98.308051
1802.000000	98.307947
1801.000000	98.305104
1800.000000	98.301217
1799.000000	98.298101
1798.000000	98.296881
1797.000000	98.298587
1796.000000	98.303626
1795.000000	98.310643
1794.000000	98.316860
1793.000000	98.320356
1792.000000	98.322564
1791.000000	98.326325
1790.000000	98.332010
1789.000000	98.338581
1788.000000	98.345855
1787.000000	98.353796
1786.000000	98.361590
1785.000000	98.368386
1784.000000	98.374287
1783.000000	98.379794
1782.000000	98.384969
1781.000000	98.389356
1780.000000	98.393780
1779.000000	98.400176
1778.000000	98.408644
1777.000000	98.416958
1776.000000	98.423071
1775.000000	98.428092
1774.000000	98.435466
1773.000000	98.446819
1772.000000	98.459283
1771.000000	98.468658
1770.000000	98.474149
1769.000000	98.477797
1768.000000	98.480987
1767.000000	98.483154
1766.000000	98.484442
1765.000000	98.487577
1764.000000	98.495034
1763.000000	98.504872
1762.000000	98.511401
1761.000000	98.511712
1760.000000	98.509214
1759.000000	98.508220
1758.000000	98.509068
1757.000000	98.509955
1756.000000	98.510810
1755.000000	98.513418
1754.000000	98.517898
1753.000000	98.521196
1752.000000	98.518707
1751.000000	98.508484
1750.000000	98.494937
1749.000000	98.486933
1748.000000	98.489755
1747.000000	98.499334
1746.000000	98.506210
1745.000000	98.505457
1744.000000	98.502007
1743.000000	98.504295
1742.000000	98.513736
1741.000000	98.523640
1740.000000	98.527100
1739.000000	98.522821
1738.000000	98.513976
1737.000000	98.504395
1736.000000	98.496033
1735.000000	98.488770
1734.000000	98.479431
1733.000000	98.463947
1732.000000	98.445066
1731.000000	98.431374
1730.000000	98.427161
1729.000000	98.428515
1728.000000	98.428031
1727.000000	98.422279
1726.000000	98.413265
1725.000000	98.403920
1724.000000	98.395655
1723.000000	98.387869
1722.000000	98.379174
1721.000000	98.369330
1720.000000	98.358581
1719.000000	98.345856
1718.000000	98.329730
1717.000000	98.313086
1716.000000	98.301469
1715.000000	98.295859
1714.000000	98.291774
1713.000000	98.283992
1712.000000	98.271164
1711.000000	98.255701
1710.000000	98.239882
1709.000000	98.223698
1708.000000	98.206223
1707.000000	98.187536
1706.000000	98.168692
1705.000000	98.152071
1704.000000	98.140433
1703.000000	98.134283
1702.000000	98.129214
1701.000000	98.114599
1700.000000	98.083822
1699.000000	98.045371
1698.000000	98.011286
1697.000000	97.983613
1696.000000	97.959962
1695.000000	97.939213
1694.000000	97.919746
1693.000000	97.900868
1692.000000	97.883020
1691.000000	97.865322
1690.000000	97.846421
1689.000000	97.825921
1688.000000	97.805209
1687.000000	97.786147
1686.000000	97.767409
1685.000000	97.743746
1684.000000	97.714219
1683.000000	97.686342
1682.000000	97.662506
1681.000000	97.639139
1680.000000	97.615210
1679.000000	97.592097
1678.000000	97.571447
1677.000000	97.552617
1676.000000	97.534330
1675.000000	97.517220
1674.000000	97.501964
1673.000000	97.487013
1672.000000	97.470258
1671.000000	97.449158
1670.000000	97.423071
1669.000000	97.397005
1668.000000	97.376530
1667.000000	97.361364
1666.000000	97.346989
1665.000000	97.328631
1664.000000	97.304335
1663.000000	97.277557
1662.000000	97.254920
1661.000000	97.238139
1660.000000	97.223645
1659.000000	97.209459
1658.000000	97.196573
1657.000000	97.188071
1656.000000	97.185787
1655.000000	97.186292
1654.000000	97.173902
1653.000000	97.139485
1652.000000	97.102830
1651.000000	97.079033
1650.000000	97.067525
1649.000000	97.063068
1648.000000	97.057322
1647.000000	97.047235
1646.000000	97.034701
1645.000000	97.021015
1644.000000	97.007888
1643.000000	96.999173
1642.000000	96.995991
1641.000000	96.995696
1640.000000	96.996048
1639.000000	96.997124
1638.000000	96.997626
1637.000000	96.992753
1636.000000	96.980382
1635.000000	96.968603
1634.000000	96.963625
1633.000000	96.964511
1632.000000	96.971336
1631.000000	96.982733
1630.000000	96.993245
1629.000000	96.996767
1628.000000	96.993615
1627.000000	96.991235
1626.000000	96.995260
1625.000000	97.004665
1624.000000	97.016525
1623.000000	97.030116
1622.000000	97.044269
1621.000000	97.055688
1620.000000	97.063591
1619.000000	97.070686
1618.000000	97.079239
1617.000000	97.089661
1616.000000	97.102035
1615.000000	97.116904
1614.000000	97.133736
1613.000000	97.150100
1612.000000	97.163373
1611.000000	97.173585
1610.000000	97.182778
1609.000000	97.191094
1608.000000	97.197375
1607.000000	97.203281
1606.000000	97.212888
1605.000000	97.227568
1604.000000	97.245141
1603.000000	97.263951
1602.000000	97.284447
1601.000000	97.306772
1600.000000	97.328575
1599.000000	97.346301
1598.000000	97.358666
1597.000000	97.368237
1596.000000	97.379468
1595.000000	97.394977
1594.000000	97.413693
1593.000000	97.432420
1592.000000	97.448649
1591.000000	97.461600
1590.000000	97.471953
1589.000000	97.481606
1588.000000	97.492939
1587.000000	97.507175
1586.000000	97.523419
1585.000000	97.539789
1584.000000	97.555033
1583.000000	97.569008
1582.000000	97.581581
1581.000000	97.592532
1580.000000	97.602863
1579.000000	97.614251
1578.000000	97.626526
1577.000000	97.637140
1576.000000	97.645207
1575.000000	97.653613
1574.000000	97.664586
1573.000000	97.677585
1572.000000	97.690973
1571.000000	97.703061
1570.000000	97.713078
1569.000000	97.721675
1568.000000	97.729654
1567.000000	97.737724
1566.000000	97.746633
1565.000000	97.755485
1564.000000	97.761996
1563.000000	97.764858
1562.000000	97.766007
1561.000000	97.768699
1560.000000	97.778205
1559.000000	97.798345
1558.000000	97.822425
1557.000000	97.837021
1556.000000	97.842508
1555.000000	97.846681
1554.000000	97.852417
1553.000000	97.860282
1552.000000	97.870930
1551.000000	97.884475
1550.000000	97.897280
1549.000000	97.905930
1548.000000	97.911699
1547.000000	97.919203
1546.000000	97.931157
1545.000000	97.946076
1544.000000	97.961366
1543.000000	97.976678
1542.000000	97.992018
1541.000000	98.005764
1540.000000	98.016183
1539.000000	98.022057
1538.000000	98.020935
1537.000000	98.014787
1536.000000	98.008285
1535.000000	98.001704
1534.000000	97.993900
1533.000000	97.987378
1532.000000	97.986118
1531.000000	97.989466
1530.000000	97.993985
1529.000000	97.997750
1528.000000	98.001409
1527.000000	98.007067
1526.000000	98.014842
1525.000000	98.021651
1524.000000	98.025310
1523.000000	98.026928
1522.000000	98.029227
1521.000000	98.034706
1520.000000	98.042163
1519.000000	98.048494
1518.000000	98.052890
1517.000000	98.056069
1516.000000	98.060304
1515.000000	98.067374
1514.000000	98.077203
1513.000000	98.088801
1512.000000	98.100629
1511.000000	98.111141
1510.000000	98.120701
1509.000000	98.130895
1508.000000	98.142669
1507.000000	98.155147
1506.000000	98.166339
1505.000000	98.169860
1504.000000	98.167198
1503.000000	98.168453
1502.000000	98.177053
1501.000000	98.189965
1500.000000	98.203039
1499.000000	98.214562
1498.000000	98.225327
1497.000000	98.236501
1496.000000	98.247219
1495.000000	98.254449
1494.000000	98.257657
1493.000000	98.260077
1492.000000	98.264612
1491.000000	98.270152
1490.000000	98.272060
1489.000000	98.268562
1488.000000	98.263718
1487.000000	98.262027
1486.000000	98.264074
1485.000000	98.267560
1484.000000	98.270370
1483.000000	98.272868
1482.000000	98.275871
1481.000000	98.278792
1480.000000	98.280677
1479.000000	98.281624
1478.000000	98.282566
1477.000000	98.284618
1476.000000	98.289494
1475.000000	98.298273
1474.000000	98.309036
1473.000000	98.315910
1472.000000	98.314755
1471.000000	98.307669
1470.000000	98.299578
1469.000000	98.294332
1468.000000	98.293105
1467.000000	98.293922
1466.000000	98.292801
1465.000000	98.286404
1464.000000	98.275460
1463.000000	98.263843
1462.000000	98.254462
1461.000000	98.248880
1460.000000	98.246942
1459.000000	98.245571
1458.000000	98.238321
1457.000000	98.223053
1456.000000	98.207134
1455.000000	98.195592
1454.000000	98.187225
1453.000000	98.178902
1452.000000	98.168409
1451.000000	98.156831
1450.000000	98.146771
1449.000000	98.140709
1448.000000	98.140773
1447.000000	98.146350
1446.000000	98.152930
1445.000000	98.155643
1444.000000	98.153941
1443.000000	98.150693
1442.000000	98.147467
1441.000000	98.143386
1440.000000	98.137564
1439.000000	98.129939
1438.000000	98.119363
1437.000000	98.105944
1436.000000	98.094751
1435.000000	98.089681
1434.000000	98.088280
1433.000000	98.086417
1432.000000	98.081891
1431.000000	98.074721
1430.000000	98.065718
1429.000000	98.055735
1428.000000	98.046549
1427.000000	98.039641
1426.000000	98.034138
1425.000000	98.026770
1424.000000	98.016806
1423.000000	98.008554
1422.000000	98.005681
1421.000000	98.007146
1420.000000	98.009464
1419.000000	98.010642
1418.000000	98.011149
1417.000000	98.011376
1416.000000	98.010837
1415.000000	98.009013
1414.000000	98.005494
1413.000000	98.000673
1412.000000	97.996653
1411.000000	97.995955
1410.000000	97.998754
1409.000000	98.002615
1408.000000	98.004900
1407.000000	98.004825
1406.000000	98.004686
1405.000000	98.008993
1404.000000	98.020780
1403.000000	98.037968
1402.000000	98.055404
1401.000000	98.070088
1400.000000	98.082140
1399.000000	98.091999
1398.000000	98.097651
1397.000000	98.095953
1396.000000	98.087128
1395.000000	98.078121
1394.000000	98.079229
1393.000000	98.094330
1392.000000	98.118321
1391.000000	98.142639
1390.000000	98.160250
1389.000000	98.168177
1388.000000	98.168029
1387.000000	98.164111
1386.000000	98.159993
1385.000000	98.157240
1384.000000	98.157233
1383.000000	98.161432
1382.000000	98.169223
1381.000000	98.177730
1380.000000	98.184426
1379.000000	98.189481
1378.000000	98.195433
1377.000000	98.204955
1376.000000	98.218970
1375.000000	98.236219
1374.000000	98.254416
1373.000000	98.272037
1372.000000	98.289000
1371.000000	98.305787
1370.000000	98.322541
1369.000000	98.339194
1368.000000	98.356352
1367.000000	98.374620
1366.000000	98.392897
1365.000000	98.408450
1364.000000	98.418579
1363.000000	98.423053
1362.000000	98.425573
1361.000000	98.431062
1360.000000	98.441118
1359.000000	98.453028
1358.000000	98.462410
1357.000000	98.466996
1356.000000	98.468509
1355.000000	98.470707
1354.000000	98.476083
1353.000000	98.484803
1352.000000	98.495496
1351.000000	98.505516
1350.000000	98.511816
1349.000000	98.512958
1348.000000	98.510753
1347.000000	98.509114
1346.000000	98.510741
1345.000000	98.515029
1344.000000	98.518737
1343.000000	98.518599
1342.000000	98.514013
1341.000000	98.507974
1340.000000	98.504910
1339.000000	98.506378
1338.000000	98.509555
1337.000000	98.511306
1336.000000	98.511861
1335.000000	98.513142
1334.000000	98.515692
1333.000000	98.518705
1332.000000	98.521430
1331.000000	98.522889
1330.000000	98.521431
1329.000000	98.516522
1328.000000	98.510571
1327.000000	98.507302
1326.000000	98.508293
1325.000000	98.511954
1324.000000	98.515525
1323.000000	98.517136
1322.000000	98.516725
1321.000000	98.516090
1320.000000	98.517002
1319.000000	98.518045
1318.000000	98.515024
1317.000000	98.506734
1316.000000	98.498669
1315.000000	98.498125
1314.000000	98.505940
1313.000000	98.515359
1312.000000	98.519500
1311.000000	98.517945
1310.000000	98.515442
1309.000000	98.515998
1308.000000	98.518919
1307.000000	98.519668
1306.000000	98.514618
1305.000000	98.505564
1304.000000	98.498969
1303.000000	98.499625
1302.000000	98.505923
1301.000000	98.512771
1300.000000	98.517600
1299.000000	98.521184
1298.000000	98.523948
1297.000000	98.524714
1296.000000	98.522911
1295.000000	98.519232
1294.000000	98.513887
1293.000000	98.506670
1292.000000	98.499064
1291.000000	98.493658
1290.000000	98.490752
1289.000000	98.487577
1288.000000	98.481198
1287.000000	98.470638
1286.000000	98.456774
1285.000000	98.442236
1284.000000	98.430792
1283.000000	98.424122
1282.000000	98.419375
1281.000000	98.412533
1280.000000	98.403711
1279.000000	98.396327
1278.000000	98.391613
1277.000000	98.387402
1276.000000	98.382036
1275.000000	98.375553
1274.000000	98.366992
1273.000000	98.354956
1272.000000	98.341787
1271.000000	98.332741
1270.000000	98.329168
1269.000000	98.326577
1268.000000	98.321067
1267.000000	98.313310
1266.000000	98.304485
1265.000000	98.293280
1264.000000	98.279917
1263.000000	98.268618
1262.000000	98.262100
1261.000000	98.256938
1260.000000	98.248132
1259.000000	98.235692
1258.000000	98.223572
1257.000000	98.214710
1256.000000	98.209592
1255.000000	98.206250
1254.000000	98.198800
1253.000000	98.179914
1252.000000	98.149068
1251.000000	98.116286
1250.000000	98.093825
1249.000000	98.085350
1248.000000	98.085665
1247.000000	98.087673
1246.000000	98.085785
1245.000000	98.075711
1244.000000	98.056543
1243.000000	98.032927
1242.000000	98.011328
1241.000000	97.993986
1240.000000	97.978863
1239.000000	97.964006
1238.000000	97.948656
1237.000000	97.931166
1236.000000	97.909504
1235.000000	97.884002
1234.000000	97.857019
1233.000000	97.829633
1232.000000	97.800606
1231.000000	97.768583
1230.000000	97.733839
1229.000000	97.698253
1228.000000	97.664525
1227.000000	97.634065
1226.000000	97.604009
1225.000000	97.567559
1224.000000	97.519233
1223.000000	97.459571
1222.000000	97.394186
1221.000000	97.329210
1220.000000	97.267954
1219.000000	97.209682
1218.000000	97.150008
1217.000000	97.084083
1216.000000	97.010793
1215.000000	96.932766
1214.000000	96.851936
1213.000000	96.767105
1212.000000	96.676524
1211.000000	96.580618
1210.000000	96.481600
1209.000000	96.382815
1208.000000	96.288321
1207.000000	96.199271
1206.000000	96.110122
1205.000000	96.012880
1204.000000	95.906357
1203.000000	95.797764
1202.000000	95.694617
1201.000000	95.598511
1200.000000	95.506939
1199.000000	95.416423
1198.000000	95.323136
1197.000000	95.225678
1196.000000	95.128506
1195.000000	95.037243
1194.000000	94.948914
1193.000000	94.852541
1192.000000	94.742036
1191.000000	94.623492
1190.000000	94.507067
1189.000000	94.396263
1188.000000	94.288176
1187.000000	94.179551
1186.000000	94.068690
1185.000000	93.954623
1184.000000	93.837503
1183.000000	93.717543
1182.000000	93.592249
1181.000000	93.457996
1180.000000	93.315435
1179.000000	93.169477
1178.000000	93.022422
1177.000000	92.870836
1176.000000	92.710591
1175.000000	92.541458
1174.000000	92.366047
1173.000000	92.187851
1172.000000	92.010483
1171.000000	91.834721
1170.000000	91.656564
1169.000000	91.472634
1168.000000	91.286640
1167.000000	91.106294
1166.000000	90.937519
1165.000000	90.789247
1164.000000	90.680015
1163.000000	90.627988
1162.000000	90.633408
1161.000000	90.678687
1160.000000	90.744298
1159.000000	90.815110
1158.000000	90.874156
1157.000000	90.904811
1156.000000	90.901897
1155.000000	90.870993
1154.000000	90.815464
1153.000000	90.733179
1152.000000	90.627114
1151.000000	90.509551
1150.000000	90.392760
1149.000000	90.282260
1148.000000	90.179504
1147.000000	90.082255
1146.000000	89.981344
1145.000000	89.866150
1144.000000	89.735212
1143.000000	89.595380
1142.000000	89.452721
1141.000000	89.312590
1140.000000	89.184430
1139.000000	89.072790
1138.000000	88.964128
1137.000000	88.836870
1136.000000	88.686690
1135.000000	88.530422
1134.000000	88.383978
1133.000000	88.247839
1132.000000	88.115011
1131.000000	87.979861
1130.000000	87.836988
1129.000000	87.684082
1128.000000	87.528641
1127.000000	87.381225
1126.000000	87.241178
1125.000000	87.099769
1124.000000	86.955892
1123.000000	86.815260
1122.000000	86.675774
1121.000000	86.529451
1120.000000	86.378702
1119.000000	86.234360
1118.000000	86.096820
1117.000000	85.955877
1116.000000	85.809456
1115.000000	85.664721
1114.000000	85.520250
1113.000000	85.366793
1112.000000	85.208152
1111.000000	85.061002
1110.000000	84.929238
1109.000000	84.797336
1108.000000	84.653579
1107.000000	84.501149
1106.000000	84.342615
1105.000000	84.173859
1104.000000	83.999312
1103.000000	83.833511
1102.000000	83.680300
1101.000000	83.527964
1100.000000	83.369747
1099.000000	83.210636
1098.000000	83.049861
1097.000000	82.877673
1096.000000	82.695609
1095.000000	82.519679
1094.000000	82.356683
1093.000000	82.196333
1092.000000	82.032233
1091.000000	81.871071
1090.000000	81.716414
1089.000000	81.564365
1088.000000	81.419638
1087.000000	81.293503
1086.000000	81.180408
1085.000000	81.059508
1084.000000	80.925856
1083.000000	80.797976
1082.000000	80.688618
1081.000000	80.590119
1080.000000	80.494111
1079.000000	80.402364
1078.000000	80.312289
1077.000000	80.215347
1076.000000	80.115784
1075.000000	80.026854
1074.000000	79.942257
1073.000000	79.835965
1072.000000	79.695801
1071.000000	79.531729
1070.000000	79.346292
1069.000000	79.125076
1068.000000	78.866985
1067.000000	78.598143
1066.000000	78.341814
1065.000000	78.094597
1064.000000	77.843702
1063.000000	77.585610
1062.000000	77.317621
1061.000000	77.033337
1060.000000	76.737843
1059.000000	76.448254
1058.000000	76.170780
1057.000000	75.896496
1056.000000	75.624543
1055.000000	75.366294
1054.000000	75.121286
1053.000000	74.874535
1052.000000	74.625195
1051.000000	74.390527
1050.000000	74.172450
1049.000000	73.951066
1048.000000	73.720782
1047.000000	73.499375
1046.000000	73.292546
1045.000000	73.082211
1044.000000	72.857062
1043.000000	72.624228
1042.000000	72.384018
1041.000000	72.124323
1040.000000	71.850548
1039.000000	71.591594
1038.000000	71.363201
1037.000000	71.151149
1036.000000	70.939957
1035.000000	70.731426
1034.000000	70.526074
1033.000000	70.315934
1032.000000	70.107279
1031.000000	69.922435
1030.000000	69.767689
1029.000000	69.625149
1028.000000	69.485418
1027.000000	69.361155
1026.000000	69.258590
1025.000000	69.163963
1024.000000	69.068603
1023.000000	68.980068
1022.000000	68.897908
1021.000000	68.804895
1020.000000	68.692855
1019.000000	68.573267
1018.000000	68.454475
1017.000000	68.332788
1016.000000	68.211469
1015.000000	68.101473
1014.000000	67.996831
1013.000000	67.876430
1012.000000	67.737281
1011.000000	67.600211
1010.000000	67.477727
1009.000000	67.363452
1008.000000	67.257032
1007.000000	67.169728
1006.000000	67.099239
1005.000000	67.027929
1004.000000	66.952709
1003.000000	66.889169
1002.000000	66.841356
1001.000000	66.796452
1000.000000	66.753928
999.000000	66.729617
998.000000	66.724340
997.000000	66.718039
996.000000	66.702445
995.000000	66.691789
994.000000	66.695040
993.000000	66.705408
992.000000	66.722156
991.000000	66.754379
990.000000	66.797864
989.000000	66.836567
988.000000	66.872257
987.000000	66.924750
986.000000	66.999082
985.000000	67.081120
984.000000	67.168378
983.000000	67.274533
982.000000	67.399310
981.000000	67.526078
980.000000	67.655334
979.000000	67.808967
978.000000	67.994016
977.000000	68.192441
976.000000	68.394277
975.000000	68.611684
974.000000	68.852007
973.000000	69.105898
972.000000	69.370463
971.000000	69.656247
970.000000	69.962073
969.000000	70.269138
968.000000	70.569236
967.000000	70.874658
966.000000	71.192437
965.000000	71.512562
964.000000	71.828709
963.000000	72.147402
962.000000	72.469450
961.000000	72.783825
960.000000	73.085968
959.000000	73.382040
958.000000	73.671682
957.000000	73.947676
956.000000	74.214884
955.000000	74.486649
954.000000	74.759712
953.000000	75.016393
952.000000	75.254806
951.000000	75.492512
950.000000	75.735563
949.000000	75.967157
948.000000	76.172457
947.000000	76.352490
946.000000	76.510090
945.000000	76.645784
944.000000	76.772961
943.000000	76.913310
942.000000	77.068698
941.000000	77.217953
940.000000	77.347866
939.000000	77.467109
938.000000	77.585163
937.000000	77.699814
936.000000	77.812559
935.000000	77.934553
934.000000	78.068006
933.000000	78.200303
932.000000	78.324466
931.000000	78.448497
930.000000	78.579154
929.000000	78.713655
928.000000	78.851280
927.000000	78.994506
926.000000	79.134612
925.000000	79.255355
924.000000	79.355944
923.000000	79.452851
922.000000	79.555386
921.000000	79.656902
920.000000	79.751705
919.000000	79.840780
918.000000	79.918636
917.000000	79.976279
916.000000	80.022242
915.000000	80.080948
914.000000	80.165732
913.000000	80.271969
912.000000	80.398730
911.000000	80.555683
910.000000	80.744940
909.000000	80.957507
908.000000	81.191702
907.000000	81.454266
906.000000	81.740488
905.000000	82.035366
904.000000	82.338067
903.000000	82.663112
902.000000	83.013219
901.000000	83.371941
900.000000	83.726661
899.000000	84.078753
898.000000	84.428411
897.000000	84.770227
896.000000	85.106541
895.000000	85.444456
894.000000	85.776503
893.000000	86.084521
892.000000	86.365985
891.000000	86.637250
890.000000	86.908288
889.000000	87.174132
888.000000	87.433913
887.000000	87.696378
886.000000	87.960603
885.000000	88.211060
884.000000	88.438911
883.000000	88.652134
882.000000	88.861682
881.000000	89.076073
880.000000	89.311473
879.000000	89.583434
878.000000	89.880983
877.000000	90.170425
876.000000	90.433807
875.000000	90.685652
874.000000	90.947294
873.000000	91.225066
872.000000	91.518155
871.000000	91.824541
870.000000	92.130184
869.000000	92.412300
868.000000	92.663692
867.000000	92.900660
866.000000	93.142403
865.000000	93.395901
864.000000	93.662182
863.000000	93.938655
862.000000	94.209715
861.000000	94.453315
860.000000	94.665407
859.000000	94.864685
858.000000	95.067561
857.000000	95.272441
856.000000	95.473252
855.000000	95.670138
854.000000	95.858120
853.000000	96.022800
852.000000	96.159921
851.000000	96.286466
850.000000	96.420059
849.000000	96.557207
848.000000	96.682575
847.000000	96.789021
846.000000	96.876723
845.000000	96.941989
844.000000	96.980548
843.000000	96.997894
842.000000	97.006358
841.000000	97.013387
840.000000	97.016569
839.000000	97.003963
838.000000	96.955788
837.000000	96.857170
836.000000	96.719844
835.000000	96.585293
834.000000	96.495181
833.000000	96.458637
832.000000	96.451957
831.000000	96.444370
830.000000	96.420976
829.000000	96.390630
828.000000	96.380132
827.000000	96.413777
826.000000	96.486977
825.000000	96.561388
824.000000	96.594031
823.000000	96.571948
822.000000	96.517341
821.000000	96.463801
820.000000	96.430288
819.000000	96.411076
818.000000	96.382447
817.000000	96.317267
816.000000	96.194081
815.000000	95.997037
814.000000	95.719277
813.000000	95.373786
812.000000	94.990714
811.000000	94.588359
810.000000	94.147530
809.000000	93.626962
808.000000	93.003378
807.000000	92.286602
806.000000	91.502996
805.000000	90.684707
804.000000	89.874550
803.000000	89.115579
802.000000	88.425136
801.000000	87.797595
800.000000	87.240302
799.000000	86.786933
798.000000	86.467760
797.000000	86.286403
796.000000	86.229888
795.000000	86.276404
794.000000	86.385347
793.000000	86.505556
792.000000	86.608209
791.000000	86.697182
790.000000	86.780408
789.000000	86.845944
788.000000	86.869389
787.000000	86.827535
786.000000	86.701195
785.000000	86.483848
784.000000	86.196062
783.000000	85.878406
782.000000	85.565534
781.000000	85.279076
780.000000	85.042751
779.000000	84.881330
778.000000	84.800132
777.000000	84.786775
776.000000	84.838340
775.000000	84.966908
774.000000	85.174472
773.000000	85.442107
772.000000	85.746064
771.000000	86.064347
770.000000	86.367738
769.000000	86.629932
768.000000	86.852523
767.000000	87.059236
766.000000	87.260496
765.000000	87.442615
764.000000	87.595019
763.000000	87.726788
762.000000	87.850978
761.000000	87.973576
760.000000	88.104514
759.000000	88.258438
758.000000	88.434627
757.000000	88.612715
756.000000	88.776399
755.000000	88.927391
754.000000	89.072629
753.000000	89.215474
752.000000	89.364373
751.000000	89.531164
750.000000	89.712099
