4000.000000	101.711920
3999.000000	101.714018
3998.000000	101.717760
3997.000000	101.721927
3996.000000	101.724890
3995.000000	101.725609
3994.000000	101.723885
3993.000000	101.720299
3992.000000	101.715681
3991.000000	101.710690
3990.000000	101.706177
3989.000000	101.703393
3988.000000	101.703361
3987.000000	101.706136
3986.000000	101.710520
3985.000000	101.714625
3984.000000	101.717181
3983.000000	101.718077
3982.000000	101.717897
3981.000000	101.717303
3980.000000	101.716790
3979.000000	101.716720
3978.000000	101.717158
3977.000000	101.717604
3976.000000	101.717178
3975.000000	101.715319
3974.000000	101.712344
3973.000000	101.709358
3972.000000	101.707486
3971.000000	101.707118
3970.000000	101.707727
3969.000000	101.708246
3968.000000	101.707763
3967.000000	101.706023
3966.000000	101.703579
3965.000000	101.701531
3964.000000	101.700855
3963.000000	101.701678
3962.000000	101.703104
3961.000000	101.703924
3960.000000	101.703644
3959.000000	101.702725
3958.000000	101.701943
3957.000000	101.701649
3956.000000	101.701610
3955.000000	101.701358
3954.000000	101.700660
3953.000000	101.699655
3952.000000	101.698700
3951.000000	101.698122
3950.000000	101.698013
3949.000000	101.698205
3948.000000	101.698363
3947.000000	101.698194
3946.000000	101.697569
3945.000000	101.696507
3944.000000	101.695167
3943.000000	101.693827
3942.000000	101.692763
3941.000000	101.692067
3940.000000	101.691533
3939.000000	101.690828
3938.000000	101.689867
3937.000000	101.688981
3936.000000	101.688636
3935.000000	101.688944
3934.000000	101.689574
3933.000000	101.690232
3932.000000	101.691122
3931.000000	101.692594
3930.000000	101.694277
3929.000000	101.695011
3928.000000	101.693925
3927.000000	101.691425
3926.000000	101.689179
3925.000000	101.688915
3924.000000	101.691121
3923.000000	101.694689
3922.000000	101.697520
3921.000000	101.697940
3920.000000	101.695729
3919.000000	101.692308
3918.000000	101.689815
3917.000000	101.689623
3916.000000	101.691631
3915.000000	101.694542
3914.000000	101.696647
3913.000000	101.696839
3912.000000	101.695304
3911.000000	101.693193
3910.000000	101.691225
3909.000000	101.688668
3908.000000	101.684148
3907.000000	101.677439
3906.000000	101.670526
3905.000000	101.666420
3904.000000	101.666639
3903.000000	101.670021
3902.000000	101.673843
3901.000000	101.676282
3900.000000	101.677653
3899.000000	101.679374
3898.000000	101.682173
3897.000000	101.685390
3896.000000	101.687720
3895.000000	101.688406
3894.000000	101.687679
3893.000000	101.686408
3892.000000	101.685350
3891.000000	101.684796
3890.000000	101.684744
3889.000000	101.684952
3888.000000	101.684809
3887.000000	101.683418
3886.000000	101.680420
3885.000000	101.677076
3884.000000	101.675562
3883.000000	101.676896
3882.000000	101.680043
3881.000000	101.682504
3880.000000	101.682418
3879.000000	101.680122
3878.000000	101.677350
3877.000000	101.675317
3876.000000	101.673852
3875.000000	101.672075
3874.000000	101.669663
3873.000000	101.667344
3872.000000	101.666165
3871.000000	101.666638
3870.000000	101.668657
3869.000000	101.671784
3868.000000	101.674939
3867.000000	101.676338
3866.000000	101.674642
3865.000000	101.670569
3864.000000	101.667039
3863.000000	101.666477
3862.000000	101.668329
3861.000000	101.669918
3860.000000	101.668957
3859.000000	101.664948
3858.000000	101.658983
3857.000000	101.653143
3856.000000	101.649660
3855.000000	101.649169
3854.000000	101.649791
3853.000000	101.650625
3852.000000	101.653447
3851.000000	101.658882
3850.000000	101.665187
3849.000000	101.670556
3848.000000	101.674461
3847.000000	101.677114
3846.000000	101.678406
3845.000000	101.677680
3844.000000	101.674323
3843.000000	101.668509
3842.000000	101.661348
3841.000000	101.654401
3840.000000	101.649359
3839.000000	101.647995
3838.000000	101.651124
3837.000000	101.657219
3836.000000	101.663039
3835.000000	101.666375
3834.000000	101.667706
3833.000000	101.669157
3832.000000	101.672102
3831.000000	101.675805
3830.000000	101.678284
3829.000000	101.678226
3828.000000	101.675935
3827.000000	101.672832
3826.000000	101.670351
3825.000000	101.669186
3824.000000	101.669322
3823.000000	101.670346
3822.000000	101.671654
3821.000000	101.673159
3820.000000	101.675407
3819.000000	101.678320
3818.000000	101.680722
3817.000000	101.681137
3816.000000	101.679346
3815.000000	101.677065
3814.000000	101.676047
3813.000000	101.676266
3812.000000	101.676780
3811.000000	101.677045
3810.000000	101.677105
3809.000000	101.677080
3808.000000	101.676835
3807.000000	101.676353
3806.000000	101.676080
3805.000000	101.676396
3804.000000	101.677109
3803.000000	101.677654
3802.000000	101.677624
3801.000000	101.677435
3800.000000	101.678025
3799.000000	101.679693
3798.000000	101.681790
3797.000000	101.683245
3796.000000	101.683460
3795.000000	101.682614
3794.000000	101.681438
3793.000000	101.680556
3792.000000	101.680191
3791.000000	101.680342
3790.000000	101.680948
3789.000000	101.681910
3788.000000	101.682996
3787.000000	101.683843
3786.000000	101.684117
3785.000000	101.683734
3784.000000	101.682899
3783.000000	101.681827
3782.000000	101.680329
3781.000000	101.677836
3780.000000	101.674038
3779.000000	101.669663
3778.000000	101.666345
3777.000000	101.665581
3776.000000	101.667856
3775.000000	101.672409
3774.000000	101.677486
3773.000000	101.680826
3772.000000	101.680100
3771.000000	101.673999
3770.000000	101.664302
3769.000000	101.656030
3768.000000	101.653573
3767.000000	101.657077
3766.000000	101.662848
3765.000000	101.667201
3764.000000	101.669826
3763.000000	101.672702
3762.000000	101.676281
3761.000000	101.678065
3760.000000	101.675180
3759.000000	101.667687
3758.000000	101.658215
3757.000000	101.649101
3756.000000	101.640888
3755.000000	101.632818
3754.000000	101.623988
3753.000000	101.614332
3752.000000	101.605091
3751.000000	101.597083
3750.000000	101.588261
3749.000000	101.575722
3748.000000	101.560218
3747.000000	101.547376
3746.000000	101.544293
3745.000000	101.552235
3744.000000	101.566418
3743.000000	101.582081
3742.000000	101.594455
3741.000000	101.599156
3740.000000	101.597171
3739.000000	101.595474
3738.000000	101.600492
3737.000000	101.610852
3736.000000	101.618698
3735.000000	101.618062
3734.000000	101.609030
3733.000000	101.594650
3732.000000	101.578297
3731.000000	101.563149
3730.000000	101.550900
3729.000000	101.540938
3728.000000	101.531207
3727.000000	101.519644
3726.000000	101.505556
3725.000000	101.489691
3724.000000	101.473396
3723.000000	101.458709
3722.000000	101.447939
3721.000000	101.441525
3720.000000	101.436115
3719.000000	101.426057
3718.000000	101.407600
3717.000000	101.382303
3716.000000	101.356256
3715.000000	101.334589
3714.000000	101.316111
3713.000000	101.293348
3712.000000	101.260028
3711.000000	101.220018
3710.000000	101.184666
3709.000000	101.161510
3708.000000	101.148995
3707.000000	101.139905
3706.000000	101.127060
3705.000000	101.106527
3704.000000	101.078738
3703.000000	101.048588
3702.000000	101.023643
3701.000000	101.009507
3700.000000	101.005662
3699.000000	101.006083
3698.000000	101.003566
3697.000000	100.994294
3696.000000	100.980278
3695.000000	100.967120
3694.000000	100.959108
3693.000000	100.956954
3692.000000	100.959022
3691.000000	100.963386
3690.000000	100.967500
3689.000000	100.967658
3688.000000	100.961692
3687.000000	100.950884
3686.000000	100.937432
3685.000000	100.922136
3684.000000	100.905568
3683.000000	100.889354
3682.000000	100.875393
3681.000000	100.863443
3680.000000	100.850673
3679.000000	100.834021
3678.000000	100.811756
3677.000000	100.782123
3676.000000	100.744595
3675.000000	100.705406
3674.000000	100.673747
3673.000000	100.652787
3672.000000	100.639764
3671.000000	100.629052
3670.000000	100.614711
3669.000000	100.595468
3668.000000	100.574508
3667.000000	100.554084
3666.000000	100.533518
3665.000000	100.510718
3664.000000	100.484299
3663.000000	100.454692
3662.000000	100.423806
3661.000000	100.394372
3660.000000	100.369482
3659.000000	100.350566
3658.000000	100.334464
3657.000000	100.313939
3656.000000	100.285709
3655.000000	100.255782
3654.000000	100.231968
3653.000000	100.214848
3652.000000	100.198152
3651.000000	100.175508
3650.000000	100.147898
3649.000000	100.122971
3648.000000	100.104459
3647.000000	100.088566
3646.000000	100.070954
3645.000000	100.050857
3644.000000	100.029635
3643.000000	100.009075
3642.000000	99.990898
3641.000000	99.975592
3640.000000	99.960785
3639.000000	99.942063
3638.000000	99.916981
3637.000000	99.887578
3636.000000	99.858100
3635.000000	99.831406
3634.000000	99.808365
3633.000000	99.789164
3632.000000	99.772758
3631.000000	99.755019
3630.000000	99.730151
3629.000000	99.700428
3628.000000	99.680160
3627.000000	99.679098
3626.000000	99.692211
3625.000000	99.708961
3624.000000	99.723700
3623.000000	99.737536
3622.000000	99.754202
3621.000000	99.774671
3620.000000	99.794489
3619.000000	99.806757
3618.000000	99.808918
3617.000000	99.805354
3616.000000	99.803049
3615.000000	99.805766
3614.000000	99.812494
3613.000000	99.820959
3612.000000	99.831846
3611.000000	99.848177
3610.000000	99.870932
3609.000000	99.897056
3608.000000	99.921945
3607.000000	99.943133
3606.000000	99.961023
3605.000000	99.977150
3604.000000	99.992362
3603.000000	100.005180
3602.000000	100.011962
3601.000000	100.010031
3600.000000	100.001973
3599.000000	99.995365
3598.000000	99.997060
3597.000000	100.007632
3596.000000	100.021138
3595.000000	100.030015
3594.000000	100.031626
3593.000000	100.030247
3592.000000	100.032497
3591.000000	100.041616
3590.000000	100.055181
3589.000000	100.067492
3588.000000	100.074861
3587.000000	100.078936
3586.000000	100.083526
3585.000000	100.089614
3584.000000	100.095263
3583.000000	100.098223
3582.000000	100.097522
3581.000000	100.093418
3580.000000	100.086969
3579.000000	100.079476
3578.000000	100.072282
3577.000000	100.066995
3576.000000	100.065007
3575.000000	100.065902
3574.000000	100.066530
3573.000000	100.063555
3572.000000	100.057443
3571.000000	100.053159
3570.000000	100.055763
3569.000000	100.065052
3568.000000	100.074740
3567.000000	100.078253
3566.000000	100.074674
3565.000000	100.067817
3564.000000	100.061388
3563.000000	100.056517
3562.000000	100.052386
3561.000000	100.047748
3560.000000	100.042230
3559.000000	100.036876
3558.000000	100.033193
3557.000000	100.031470
3556.000000	100.030448
3555.000000	100.028876
3554.000000	100.027033
3553.000000	100.026166
3552.000000	100.026500
3551.000000	100.026489
3550.000000	100.024376
3549.000000	100.019917
3548.000000	100.014388
3547.000000	100.009351
3546.000000	100.005652
3545.000000	100.003386
3544.000000	100.002212
3543.000000	100.001508
3542.000000	100.000605
3541.000000	99.999210
3540.000000	99.997454
3539.000000	99.995502
3538.000000	99.993313
3537.000000	99.990810
3536.000000	99.988098
3535.000000	99.985425
3534.000000	99.982970
3533.000000	99.980699
3532.000000	99.978467
3531.000000	99.976148
3530.000000	99.973729
3529.000000	99.971272
3528.000000	99.968849
3527.000000	99.966496
3526.000000	99.964201
3525.000000	99.961954
3524.000000	99.959748
3523.000000	99.957573
3522.000000	99.955421
3521.000000	99.953292
3520.000000	99.951184
3519.000000	99.949097
3518.000000	99.947030
3517.000000	99.944981
3516.000000	99.942944
3515.000000	99.940905
3514.000000	99.938843
3513.000000	99.936744
3512.000000	99.934601
3511.000000	99.932419
3510.000000	99.930203
3509.000000	99.927961
3508.000000	99.925702
3507.000000	99.923428
3506.000000	99.921132
3505.000000	99.918807
3504.000000	99.916482
3503.000000	99.914210
3502.000000	99.912005
3501.000000	99.909810
3500.000000	99.907525
3499.000000	99.905112
3498.000000	99.902653
3497.000000	99.900316
3496.000000	99.898209
3495.000000	99.896279
3494.000000	99.894312
3493.000000	99.892086
3492.000000	99.889490
3491.000000	99.886541
3490.000000	99.883424
3489.000000	99.880447
3488.000000	99.877936
3487.000000	99.876055
3486.000000	99.874595
3485.000000	99.872997
3484.000000	99.870754
3483.000000	99.867826
3482.000000	99.864659
3481.000000	99.861717
3480.000000	99.859053
3479.000000	99.856390
3478.000000	99.853485
3477.000000	99.850342
3476.000000	99.847147
3475.000000	99.844091
3474.000000	99.841230
3473.000000	99.838433
3472.000000	99.835475
3471.000000	99.832236
3470.000000	99.828821
3469.000000	99.825464
3468.000000	99.822317
3467.000000	99.819382
3466.000000	99.816622
3465.000000	99.814044
3464.000000	99.811626
3463.000000	99.809231
3462.000000	99.806691
3461.000000	99.803941
3460.000000	99.801039
3459.000000	99.798095
3458.000000	99.795215
3457.000000	99.792466
3456.000000	99.789858
3455.000000	99.787340
3454.000000	99.784825
3453.000000	99.782235
3452.000000	99.779551
3451.000000	99.776814
3450.000000	99.774098
3449.000000	99.771474
3448.000000	99.768961
3447.000000	99.766534
3446.000000	99.764122
3445.000000	99.761648
3444.000000	99.759083
3443.000000	99.756483
3442.000000	99.753954
3441.000000	99.751560
3440.000000	99.749227
3439.000000	99.746766
3438.000000	99.744042
3437.000000	99.741140
3436.000000	99.738266
3435.000000	99.735488
3434.000000	99.732718
3433.000000	99.730000
3432.000000	99.727719
3431.000000	99.726288
3430.000000	99.725634
3429.000000	99.725099
3428.000000	99.723983
3427.000000	99.722110
3426.000000	99.719740
3425.000000	99.717081
3424.000000	99.714123
3423.000000	99.711058
3422.000000	99.708578
3421.000000	99.707336
3420.000000	99.707149
3419.000000	99.706990
3418.000000	99.706041
3417.000000	99.704549
3416.000000	99.703447
3415.000000	99.703230
3414.000000	99.703301
3413.000000	99.702468
3412.000000	99.700088
3411.000000	99.696687
3410.000000	99.693418
3409.000000	99.690788
3408.000000	99.688036
3407.000000	99.684100
3406.000000	99.679221
3405.000000	99.675104
3404.000000	99.673067
3403.000000	99.672504
3402.000000	99.671557
3401.000000	99.669271
3400.000000	99.666885
3399.000000	99.666787
3398.000000	99.670340
3397.000000	99.676623
3396.000000	99.682779
3395.000000	99.686140
3394.000000	99.686394
3393.000000	99.685458
3392.000000	99.685315
3391.000000	99.686111
3390.000000	99.686729
3389.000000	99.686634
3388.000000	99.686195
3387.000000	99.685466
3386.000000	99.683861
3385.000000	99.681464
3384.000000	99.679608
3383.000000	99.679400
3382.000000	99.680398
3381.000000	99.681371
3380.000000	99.681879
3379.000000	99.682409
3378.000000	99.683306
3377.000000	99.684378
3376.000000	99.685477
3375.000000	99.686730
3374.000000	99.688044
3373.000000	99.688890
3372.000000	99.688856
3371.000000	99.688171
3370.000000	99.687498
3369.000000	99.687423
3368.000000	99.688130
3367.000000	99.689290
3366.000000	99.690169
3365.000000	99.690102
3364.000000	99.689067
3363.000000	99.687781
3362.000000	99.687164
3361.000000	99.687611
3360.000000	99.688759
3359.000000	99.689800
3358.000000	99.690084
3357.000000	99.689567
3356.000000	99.688831
3355.000000	99.688657
3354.000000	99.689454
3353.000000	99.691103
3352.000000	99.693140
3351.000000	99.695090
3350.000000	99.696651
3349.000000	99.697724
3348.000000	99.698467
3347.000000	99.699256
3346.000000	99.700414
3345.000000	99.701917
3344.000000	99.703391
3343.000000	99.704457
3342.000000	99.705106
3341.000000	99.705713
3340.000000	99.706700
3339.000000	99.708155
3338.000000	99.709869
3337.000000	99.711609
3336.000000	99.713335
3335.000000	99.715069
3334.000000	99.716698
3333.000000	99.718032
3332.000000	99.719055
3331.000000	99.720033
3330.000000	99.721302
3329.000000	99.722948
3328.000000	99.724749
3327.000000	99.726371
3326.000000	99.727669
3325.000000	99.728776
3324.000000	99.729968
3323.000000	99.731407
3322.000000	99.733072
3321.000000	99.734884
3320.000000	99.736821
3319.000000	99.738852
3318.000000	99.740821
3317.000000	99.742540
3316.000000	99.744032
3315.000000	99.745608
3314.000000	99.747606
3313.000000	99.750075
3312.000000	99.752696
3311.000000	99.754982
3310.000000	99.756674
3309.000000	99.757902
3308.000000	99.759082
3307.000000	99.760538
3306.000000	99.762288
3305.000000	99.764169
3304.000000	99.766013
3303.000000	99.767668
3302.000000	99.768960
3301.000000	99.769815
3300.000000	99.770491
3299.000000	99.771493
3298.000000	99.773081
3297.000000	99.775019
3296.000000	99.776821
3295.000000	99.778307
3294.000000	99.779766
3293.000000	99.781560
3292.000000	99.783745
3291.000000	99.786077
3290.000000	99.788237
3289.000000	99.790033
3288.000000	99.791491
3287.000000	99.792873
3286.000000	99.794532
3285.000000	99.796592
3284.000000	99.798879
3283.000000	99.801111
3282.000000	99.803178
3281.000000	99.805153
3280.000000	99.807119
3279.000000	99.809088
3278.000000	99.811044
3277.000000	99.812999
3276.000000	99.814981
3275.000000	99.817005
3274.000000	99.819062
3273.000000	99.821131
3272.000000	99.823201
3271.000000	99.825279
3270.000000	99.827369
3269.000000	99.829467
3268.000000	99.831568
3267.000000	99.833676
3266.000000	99.835801
3265.000000	99.837952
3264.000000	99.840128
3263.000000	99.842327
3262.000000	99.844544
3261.000000	99.846781
3260.000000	99.849045
3259.000000	99.851344
3258.000000	99.853681
3257.000000	99.856050
3256.000000	99.858440
3255.000000	99.860839
3254.000000	99.863244
3253.000000	99.865658
3252.000000	99.868085
3251.000000	99.870528
3250.000000	99.872993
3249.000000	99.875487
3248.000000	99.878004
3247.000000	99.880527
3246.000000	99.883042
3245.000000	99.885567
3244.000000	99.888149
3243.000000	99.890811
3242.000000	99.893520
3241.000000	99.896195
3240.000000	99.898786
3239.000000	99.901314
3238.000000	99.903840
3237.000000	99.906367
3236.000000	99.908833
3235.000000	99.911228
3234.000000	99.913691
3233.000000	99.916404
3232.000000	99.919404
3231.000000	99.922541
3230.000000	99.925637
3229.000000	99.928629
3228.000000	99.931543
3227.000000	99.934415
3226.000000	99.937294
3225.000000	99.940252
3224.000000	99.943348
3223.000000	99.946574
3222.000000	99.949866
3221.000000	99.953166
3220.000000	99.956442
3219.000000	99.959641
3218.000000	99.962704
3217.000000	99.965663
3216.000000	99.968680
3215.000000	99.971922
3214.000000	99.975403
3213.000000	99.978969
3212.000000	99.982426
3211.000000	99.985712
3210.000000	99.988885
3209.000000	99.992005
3208.000000	99.995101
3207.000000	99.998234
3206.000000	100.001529
3205.000000	100.005063
3204.000000	100.008750
3203.000000	100.012370
3202.000000	100.015804
3201.000000	100.019141
3200.000000	100.022586
3199.000000	100.026237
3198.000000	100.029983
3197.000000	100.033606
3196.000000	100.037028
3195.000000	100.040354
3194.000000	100.043711
3193.000000	100.047140
3192.000000	100.050707
3191.000000	100.054567
3190.000000	100.058830
3189.000000	100.063353
3188.000000	100.067785
3187.000000	100.071890
3186.000000	100.075772
3185.000000	100.079656
3184.000000	100.083431
3183.000000	100.086756
3182.000000	100.089693
3181.000000	100.092882
3180.000000	100.096773
3179.000000	100.100946
3178.000000	100.104665
3177.000000	100.108041
3176.000000	100.112062
3175.000000	100.117190
3174.000000	100.122462
3173.000000	100.126518
3172.000000	100.129360
3171.000000	100.132504
3170.000000	100.137280
3169.000000	100.143534
3168.000000	100.150009
3167.000000	100.155649
3166.000000	100.160277
3165.000000	100.164174
3164.000000	100.167434
3163.000000	100.169819
3162.000000	100.171184
3161.000000	100.171950
3160.000000	100.173084
3159.000000	100.175581
3158.000000	100.179978
3157.000000	100.186250
3156.000000	100.193819
3155.000000	100.201664
3154.000000	100.208786
3153.000000	100.214752
3152.000000	100.219641
3151.000000	100.223433
3150.000000	100.225840
3149.000000	100.227077
3148.000000	100.228454
3147.000000	100.231609
3146.000000	100.237189
3145.000000	100.244586
3144.000000	100.252649
3143.000000	100.260351
3142.000000	100.266996
3141.000000	100.272534
3140.000000	100.277898
3139.000000	100.284383
3138.000000	100.292301
3137.000000	100.300539
3136.000000	100.307668
3135.000000	100.313111
3134.000000	100.317010
3133.000000	100.319664
3132.000000	100.321785
3131.000000	100.324744
3130.000000	100.329606
3129.000000	100.335845
3128.000000	100.341741
3127.000000	100.346417
3126.000000	100.350896
3125.000000	100.356594
3124.000000	100.363240
3123.000000	100.369050
3122.000000	100.372907
3121.000000	100.375535
3120.000000	100.378498
3119.000000	100.382520
3118.000000	100.387248
3117.000000	100.392227
3116.000000	100.397376
3115.000000	100.402582
3114.000000	100.407488
3113.000000	100.411925
3112.000000	100.416180
3111.000000	100.420600
3110.000000	100.425168
3109.000000	100.429700
3108.000000	100.434276
3107.000000	100.439152
3106.000000	100.444334
3105.000000	100.449471
3104.000000	100.454160
3103.000000	100.458182
3102.000000	100.461533
3101.000000	100.464450
3100.000000	100.467398
3099.000000	100.470790
3098.000000	100.474680
3097.000000	100.478831
3096.000000	100.483018
3095.000000	100.487090
3094.000000	100.490797
3093.000000	100.493899
3092.000000	100.496622
3091.000000	100.499720
3090.000000	100.503788
3089.000000	100.508648
3088.000000	100.513437
3087.000000	100.517547
3086.000000	100.521145
3085.000000	100.524752
3084.000000	100.528595
3083.000000	100.532480
3082.000000	100.536186
3081.000000	100.539797
3080.000000	100.543588
3079.000000	100.547664
3078.000000	100.551811
3077.000000	100.555726
3076.000000	100.559354
3075.000000	100.562964
3074.000000	100.566877
3073.000000	100.571128
3072.000000	100.575426
3071.000000	100.579458
3070.000000	100.583248
3069.000000	100.587138
3068.000000	100.591362
3067.000000	100.595668
3066.000000	100.599534
3065.000000	100.602778
3064.000000	100.605754
3063.000000	100.608939
3062.000000	100.612415
3061.000000	100.615915
3060.000000	100.619238
3059.000000	100.622455
3058.000000	100.625771
3057.000000	100.629303
3056.000000	100.633070
3055.000000	100.637091
3054.000000	100.641399
3053.000000	100.645928
3052.000000	100.650437
3051.000000	100.654571
3050.000000	100.658100
3049.000000	100.661078
3048.000000	100.663890
3047.000000	100.667027
3046.000000	100.670697
3045.000000	100.674752
3044.000000	100.678811
3043.000000	100.682601
3042.000000	100.686099
3041.000000	100.689403
3040.000000	100.692611
3039.000000	100.695821
3038.000000	100.699110
3037.000000	100.702457
3036.000000	100.705749
3035.000000	100.708948
3034.000000	100.712229
3033.000000	100.715887
3032.000000	100.720079
3031.000000	100.724635
3030.000000	100.729046
3029.000000	100.732740
3028.000000	100.735468
3027.000000	100.737572
3026.000000	100.739824
3025.000000	100.742816
3024.000000	100.746505
3023.000000	100.750333
3022.000000	100.753771
3021.000000	100.756753
3020.000000	100.759589
3019.000000	100.762562
3018.000000	100.765715
3017.000000	100.769043
3016.000000	100.772648
3015.000000	100.776474
3014.000000	100.780021
3013.000000	100.782685
3012.000000	100.784424
3011.000000	100.785778
3010.000000	100.787142
3009.000000	100.788327
3008.000000	100.789059
3007.000000	100.789601
3006.000000	100.790477
3005.000000	100.791866
3004.000000	100.793684
3003.000000	100.795957
3002.000000	100.798721
3001.000000	100.801745
3000.000000	100.804673
2999.000000	100.807473
2998.000000	100.810456
2997.000000	100.813842
2996.000000	100.817483
2995.000000	100.820864
2994.000000	100.823305
2993.000000	100.824360
2992.000000	100.824286
2991.000000	100.824169
2990.000000	100.825170
2989.000000	100.827594
2988.000000	100.830833
2987.000000	100.833965
2986.000000	100.836302
2985.000000	100.837614
2984.000000	100.838176
2983.000000	100.838654
2982.000000	100.839635
2981.000000	100.841188
2980.000000	100.843054
2979.000000	100.845173
2978.000000	100.847702
2977.000000	100.850536
2976.000000	100.853097
2975.000000	100.854763
2974.000000	100.855349
2973.000000	100.855200
2972.000000	100.855010
2971.000000	100.855506
2970.000000	100.857007
2969.000000	100.859143
2968.000000	100.861174
2967.000000	100.862721
2966.000000	100.864055
2965.000000	100.865672
2964.000000	100.867847
2963.000000	100.870645
2962.000000	100.874032
2961.000000	100.877699
2960.000000	100.880919
2959.000000	100.882963
2958.000000	100.883819
2957.000000	100.884469
2956.000000	100.886357
2955.000000	100.890274
2954.000000	100.895332
2953.000000	100.899182
2952.000000	100.899949
2951.000000	100.897972
2950.000000	100.895526
2949.000000	100.894649
2948.000000	100.895762
2947.000000	100.898425
2946.000000	100.902218
2945.000000	100.906331
2944.000000	100.909335
2943.000000	100.910502
2942.000000	100.910921
2941.000000	100.912305
2940.000000	100.914934
2939.000000	100.917592
2938.000000	100.919196
2937.000000	100.919441
2936.000000	100.918146
2935.000000	100.915283
2934.000000	100.911882
2933.000000	100.909930
2932.000000	100.910905
2931.000000	100.914815
2930.000000	100.920419
2929.000000	100.925714
2928.000000	100.928604
2927.000000	100.928320
2926.000000	100.926324
2925.000000	100.924899
2924.000000	100.924774
2923.000000	100.925251
2922.000000	100.926636
2921.000000	100.930941
2920.000000	100.939511
2919.000000	100.951173
2918.000000	100.963190
2917.000000	100.973251
2916.000000	100.980083
2915.000000	100.983219
2914.000000	100.983355
2913.000000	100.982525
2912.000000	100.982869
2911.000000	100.985072
2910.000000	100.988441
2909.000000	100.992181
2908.000000	100.996052
2907.000000	100.999880
2906.000000	101.003022
2905.000000	101.004707
2904.000000	101.004980
2903.000000	101.005226
2902.000000	101.007314
2901.000000	101.011683
2900.000000	101.016630
2899.000000	101.020161
2898.000000	101.022364
2897.000000	101.025100
2896.000000	101.029326
2895.000000	101.033785
2894.000000	101.036745
2893.000000	101.038026
2892.000000	101.038672
2891.000000	101.039493
2890.000000	101.040839
2889.000000	101.043184
2888.000000	101.046783
2887.000000	101.050982
2886.000000	101.054742
2885.000000	101.057832
2884.000000	101.060899
2883.000000	101.064564
2882.000000	101.069136
2881.000000	101.074852
2880.000000	101.081456
2879.000000	101.087563
2878.000000	101.091476
2877.000000	101.092916
2876.000000	101.093292
2875.000000	101.093921
2874.000000	101.094663
2873.000000	101.094819
2872.000000	101.094553
2871.000000	101.094881
2870.000000	101.096812
2869.000000	101.100898
2868.000000	101.106936
2867.000000	101.113596
2866.000000	101.119065
2865.000000	101.122756
2864.000000	101.125870
2863.000000	101.129688
2862.000000	101.133768
2861.000000	101.136615
2860.000000	101.137555
2859.000000	101.137032
2858.000000	101.135560
2857.000000	101.133562
2856.000000	101.132208
2855.000000	101.133234
2854.000000	101.137560
2853.000000	101.144620
2852.000000	101.153046
2851.000000	101.161517
2850.000000	101.169050
2849.000000	101.175263
2848.000000	101.180441
2847.000000	101.184866
2846.000000	101.188143
2845.000000	101.189800
2844.000000	101.190496
2843.000000	101.191819
2842.000000	101.194613
2841.000000	101.198285
2840.000000	101.202025
2839.000000	101.205928
2838.000000	101.210360
2837.000000	101.214866
2836.000000	101.218529
2835.000000	101.221105
2834.000000	101.223126
2833.000000	101.225115
2832.000000	101.227423
2831.000000	101.230652
2830.000000	101.235302
2829.000000	101.240779
2828.000000	101.245493
2827.000000	101.248610
2826.000000	101.251045
2825.000000	101.254151
2824.000000	101.257915
2823.000000	101.261143
2822.000000	101.263226
2821.000000	101.264901
2820.000000	101.267247
2819.000000	101.270494
2818.000000	101.274042
2817.000000	101.277212
2816.000000	101.279701
2815.000000	101.281568
2814.000000	101.283155
2813.000000	101.284973
2812.000000	101.287404
2811.000000	101.290422
2810.000000	101.293627
2809.000000	101.296541
2808.000000	101.298941
2807.000000	101.300985
2806.000000	101.303088
2805.000000	101.305632
2804.000000	101.308697
2803.000000	101.312042
2802.000000	101.315327
2801.000000	101.318397
2800.000000	101.321309
2799.000000	101.324123
2798.000000	101.326772
2797.000000	101.329158
2796.000000	101.331338
2795.000000	101.333555
2794.000000	101.336095
2793.000000	101.339073
2792.000000	101.342348
2791.000000	101.345656
2790.000000	101.348876
2789.000000	101.352139
2788.000000	101.355560
2787.000000	101.358874
2786.000000	101.361562
2785.000000	101.363427
2784.000000	101.364838
2783.000000	101.366555
2782.000000	101.368999
2781.000000	101.372031
2780.000000	101.375223
2779.000000	101.378291
2778.000000	101.381274
2777.000000	101.384292
2776.000000	101.387272
2775.000000	101.390001
2774.000000	101.392398
2773.000000	101.394644
2772.000000	101.397018
2771.000000	101.399604
2770.000000	101.402228
2769.000000	101.404704
2768.000000	101.407107
2767.000000	101.409685
2766.000000	101.412528
2765.000000	101.415457
2764.000000	101.418279
2763.000000	101.421018
2762.000000	101.423779
2761.000000	101.426474
2760.000000	101.428848
2759.000000	101.430775
2758.000000	101.432411
2757.000000	101.434006
2756.000000	101.435687
2755.000000	101.437520
2754.000000	101.439656
2753.000000	101.442239
2752.000000	101.445199
2751.000000	101.448223
2750.000000	101.451007
2749.000000	101.453484
2748.000000	101.455788
2747.000000	101.458028
2746.000000	101.460130
2745.000000	101.461894
2744.000000	101.463150
2743.000000	101.463919
2742.000000	101.464579
2741.000000	101.465747
2740.000000	101.467883
2739.000000	101.470937
2738.000000	101.474193
2737.000000	101.476703
2736.000000	101.477981
2735.000000	101.478262
2734.000000	101.478360
2733.000000	101.479029
2732.000000	101.480465
2731.000000	101.482334
2730.000000	101.484109
2729.000000	101.485507
2728.000000	101.486626
2727.000000	101.487737
2726.000000	101.488987
2725.000000	101.490287
2724.000000	101.491404
2723.000000	101.492155
2722.000000	101.492548
2721.000000	101.492857
2720.000000	101.493479
2719.000000	101.494651
2718.000000	101.496272
2717.000000	101.497958
2716.000000	101.499346
2715.000000	101.500397
2714.000000	101.501356
2713.000000	101.502497
2712.000000	101.503867
2711.000000	101.505293
2710.000000	101.506546
2709.000000	101.507540
2708.000000	101.508344
2707.000000	101.509066
2706.000000	101.509734
2705.000000	101.510314
2704.000000	101.510793
2703.000000	101.511231
2702.000000	101.511715
2701.000000	101.512283
2700.000000	101.512909
2699.000000	101.513538
2698.000000	101.514129
2697.000000	101.514674
2696.000000	101.515191
2695.000000	101.515694
2694.000000	101.516191
2693.000000	101.516699
2692.000000	101.517223
2691.000000	101.517753
2690.000000	101.518274
2689.000000	101.518778
2688.000000	101.519265
2687.000000	101.519746
2686.000000	101.520236
2685.000000	101.520739
2684.000000	101.521253
2683.000000	101.521767
2682.000000	101.522271
2681.000000	101.522763
2680.000000	101.523250
2679.000000	101.523738
2678.000000	101.524224
2677.000000	101.524693
2676.000000	101.525123
2675.000000	101.525498
2674.000000	101.525817
2673.000000	101.526100
2672.000000	101.526373
2671.000000	101.526659
2670.000000	101.526964
2669.000000	101.527282
2668.000000	101.527605
2667.000000	101.527932
2666.000000	101.528266
2665.000000	101.528605
2664.000000	101.528950
2663.000000	101.529297
2662.000000	101.529644
2661.000000	101.529984
2660.000000	101.530309
2659.000000	101.530612
2658.000000	101.530885
2657.000000	101.531121
2656.000000	101.531314
2655.000000	101.531464
2654.000000	101.531574
2653.000000	101.531657
2652.000000	101.531728
2651.000000	101.531786
2650.000000	101.531845
2649.000000	101.531940
2648.000000	101.532063
2647.000000	101.532159
2646.000000	101.532207
2645.000000	101.532303
2644.000000	101.532571
2643.000000	101.533019
2642.000000	101.533484
2641.000000	101.533692
2640.000000	101.533406
2639.000000	101.532655
2638.000000	101.531861
2637.000000	101.531565
2636.000000	101.531939
2635.000000	101.532512
2634.000000	101.532557
2633.000000	101.531890
2632.000000	101.531245
2631.000000	101.531702
2630.000000	101.533644
2629.000000	101.536288
2628.000000	101.538228
2627.000000	101.538563
2626.000000	101.537246
2625.000000	101.534772
2624.000000	101.531937
2623.000000	101.529680
2622.000000	101.528706
2621.000000	101.528927
2620.000000	101.529405
2619.000000	101.529162
2618.000000	101.528062
2617.000000	101.526809
2616.000000	101.526157
2615.000000	101.526227
2614.000000	101.526605
2613.000000	101.527098
2612.000000	101.528282
2611.000000	101.531012
2610.000000	101.535274
2609.000000	101.539680
2608.000000	101.542480
2607.000000	101.543048
2606.000000	101.542074
2605.000000	101.540581
2604.000000	101.539088
2603.000000	101.537752
2602.000000	101.536799
2601.000000	101.536491
2600.000000	101.536895
2599.000000	101.537845
2598.000000	101.538929
2597.000000	101.539502
2596.000000	101.539102
2595.000000	101.538028
2594.000000	101.537258
2593.000000	101.537514
2592.000000	101.538610
2591.000000	101.539839
2590.000000	101.540726
2589.000000	101.541173
2588.000000	101.541134
2587.000000	101.540601
2586.000000	101.539885
2585.000000	101.539535
2584.000000	101.539808
2583.000000	101.540391
2582.000000	101.540759
2581.000000	101.540730
2580.000000	101.540593
2579.000000	101.540756
2578.000000	101.541335
2577.000000	101.542087
2576.000000	101.542642
2575.000000	101.542782
2574.000000	101.542532
2573.000000	101.542061
2572.000000	101.541598
2571.000000	101.541370
2570.000000	101.541474
2569.000000	101.541760
2568.000000	101.541866
2567.000000	101.541599
2566.000000	101.541189
2565.000000	101.541036
2564.000000	101.541211
2563.000000	101.541450
2562.000000	101.541528
2561.000000	101.541475
2560.000000	101.541430
2559.000000	101.541515
2558.000000	101.541873
2557.000000	101.542568
2556.000000	101.543388
2555.000000	101.543980
2554.000000	101.544261
2553.000000	101.544485
2552.000000	101.544798
2551.000000	101.545009
2550.000000	101.544916
2549.000000	101.544689
2548.000000	101.544744
2547.000000	101.545335
2546.000000	101.546446
2545.000000	101.547897
2544.000000	101.549386
2543.000000	101.550593
2542.000000	101.551382
2541.000000	101.551864
2540.000000	101.552265
2539.000000	101.552732
2538.000000	101.553309
2537.000000	101.554011
2536.000000	101.554843
2535.000000	101.555766
2534.000000	101.556720
2533.000000	101.557684
2532.000000	101.558676
2531.000000	101.559713
2530.000000	101.560800
2529.000000	101.561927
2528.000000	101.563047
2527.000000	101.564087
2526.000000	101.565030
2525.000000	101.565942
2524.000000	101.566930
2523.000000	101.568030
2522.000000	101.569201
2521.000000	101.570373
2520.000000	101.571500
2519.000000	101.572572
2518.000000	101.573604
2517.000000	101.574630
2516.000000	101.575707
2515.000000	101.576882
2514.000000	101.578146
2513.000000	101.579426
2512.000000	101.580637
2511.000000	101.581753
2510.000000	101.582828
2509.000000	101.583971
2508.000000	101.585234
2507.000000	101.586542
2506.000000	101.587729
2505.000000	101.588685
2504.000000	101.589487
2503.000000	101.590396
2502.000000	101.591621
2501.000000	101.593154
2500.000000	101.594827
2499.000000	101.596512
2498.000000	101.598200
2497.000000	101.599932
2496.000000	101.601718
2495.000000	101.603482
2494.000000	101.605068
2493.000000	101.606334
2492.000000	101.607256
2491.000000	101.607970
2490.000000	101.608718
2489.000000	101.609741
2488.000000	101.611164
2487.000000	101.612904
2486.000000	101.614712
2485.000000	101.616349
2484.000000	101.617660
2483.000000	101.618544
2482.000000	101.618992
2481.000000	101.619214
2480.000000	101.619559
2479.000000	101.620208
2478.000000	101.621152
2477.000000	101.622562
2476.000000	101.624729
2475.000000	101.627361
2474.000000	101.629309
2473.000000	101.629611
2472.000000	101.628717
2471.000000	101.628225
2470.000000	101.629118
2469.000000	101.630865
2468.000000	101.632235
2467.000000	101.632640
2466.000000	101.632400
2465.000000	101.632213
2464.000000	101.632769
2463.000000	101.634506
2462.000000	101.637211
2461.000000	101.640208
2460.000000	101.643139
2459.000000	101.646135
2458.000000	101.649108
2457.000000	101.651401
2456.000000	101.652624
2455.000000	101.653400
2454.000000	101.654613
2453.000000	101.656088
2452.000000	101.656852
2451.000000	101.656699
2450.000000	101.656748
2449.000000	101.658134
2448.000000	101.660656
2447.000000	101.663120
2446.000000	101.664751
2445.000000	101.665756
2444.000000	101.666521
2443.000000	101.666885
2442.000000	101.666570
2441.000000	101.665946
2440.000000	101.665881
2439.000000	101.666932
2438.000000	101.668974
2437.000000	101.671506
2436.000000	101.674118
2435.000000	101.676672
2434.000000	101.679185
2433.000000	101.681547
2432.000000	101.683369
2431.000000	101.684318
2430.000000	101.684752
2429.000000	101.685654
2428.000000	101.687570
2427.000000	101.689892
2426.000000	101.691538
2425.000000	101.692175
2424.000000	101.692400
2423.000000	101.692888
2422.000000	101.693796
2421.000000	101.694991
2420.000000	101.696302
2419.000000	101.697387
2418.000000	101.697792
2417.000000	101.697514
2416.000000	101.697281
2415.000000	101.697983
2414.000000	101.699926
2413.000000	101.702683
2412.000000	101.705513
2411.000000	101.707842
2410.000000	101.709527
2409.000000	101.711004
2408.000000	101.712887
2407.000000	101.715202
2406.000000	101.717209
2405.000000	101.718173
2404.000000	101.718064
2403.000000	101.717371
2402.000000	101.716568
2401.000000	101.715972
2400.000000	101.715912
2399.000000	101.716602
2398.000000	101.717771
2397.000000	101.718710
2396.000000	101.718813
2395.000000	101.718043
2394.000000	101.716903
2393.000000	101.716096
2392.000000	101.716116
2391.000000	101.717040
2390.000000	101.718560
2389.000000	101.720161
2388.000000	101.721344
2387.000000	101.721832
2386.000000	101.721701
2385.000000	101.721294
2384.000000	101.720958
2383.000000	101.720787
2382.000000	101.720671
2381.000000	101.720528
2380.000000	101.720387
2379.000000	101.720262
2378.000000	101.720094
2377.000000	101.719874
2376.000000	101.719717
2375.000000	101.719735
2374.000000	101.719882
2373.000000	101.719915
2372.000000	101.719515
2371.000000	101.718536
2370.000000	101.717158
2369.000000	101.715820
2368.000000	101.714868
2367.000000	101.714266
2366.000000	101.713762
2365.000000	101.713136
2364.000000	101.712370
2363.000000	101.711560
2362.000000	101.710749
2361.000000	101.709903
2360.000000	101.708973
2359.000000	101.707963
2358.000000	101.706959
2357.000000	101.706046
2356.000000	101.705227
2355.000000	101.704429
2354.000000	101.703618
2353.000000	101.702750
2352.000000	101.701716
2351.000000	101.700493
2350.000000	101.699215
2349.000000	101.698049
2348.000000	101.697032
2347.000000	101.696099
2346.000000	101.695075
2345.000000	101.693747
2344.000000	101.692105
2343.000000	101.690376
2342.000000	101.688838
2341.000000	101.687615
2340.000000	101.686769
2339.000000	101.686268
2338.000000	101.686021
2337.000000	101.685813
2336.000000	101.685288
2335.000000	101.684184
2334.000000	101.682655
2333.000000	101.681106
2332.000000	101.679708
2331.000000	101.678447
2330.000000	101.677431
2329.000000	101.676923
2328.000000	101.676840
2327.000000	101.676746
2326.000000	101.676152
2325.000000	101.674838
2324.000000	101.673070
2323.000000	101.671291
2322.000000	101.669825
2321.000000	101.668526
2320.000000	101.667239
2319.000000	101.666108
2318.000000	101.665303
2317.000000	101.664539
2316.000000	101.663259
2315.000000	101.661501
2314.000000	101.660034
2313.000000	101.659722
2312.000000	101.660707
2311.000000	101.662448
2310.000000	101.664049
2309.000000	101.664849
2308.000000	101.664942
2307.000000	101.665076
2306.000000	101.665746
2305.000000	101.666326
2304.000000	101.665583
2303.000000	101.662929
2302.000000	101.659156
2301.000000	101.655964
2300.000000	101.654763
2299.000000	101.655662
2298.000000	101.657266
2297.000000	101.657981
2296.000000	101.657609
2295.000000	101.657423
2294.000000	101.658181
2293.000000	101.658843
2292.000000	101.657893
2291.000000	101.655679
2290.000000	101.654458
2289.000000	101.655990
2288.000000	101.659703
2287.000000	101.663217
2286.000000	101.664290
2285.000000	101.662053
2284.000000	101.657229
2283.000000	101.651612
2282.000000	101.646864
2281.000000	101.643293
2280.000000	101.639966
2279.000000	101.636011
2278.000000	101.631661
2277.000000	101.628020
2276.000000	101.626120
2275.000000	101.626288
2274.000000	101.627933
2273.000000	101.629641
2272.000000	101.629888
2271.000000	101.628186
2270.000000	101.625442
2269.000000	101.622988
2268.000000	101.621383
2267.000000	101.620421
2266.000000	101.620018
2265.000000	101.620464
2264.000000	101.621735
2263.000000	101.623052
2262.000000	101.623409
2261.000000	101.622374
2260.000000	101.620207
2259.000000	101.617360
2258.000000	101.614073
2257.000000	101.610495
2256.000000	101.607095
2255.000000	101.604676
2254.000000	101.603816
2253.000000	101.604254
2252.000000	101.604976
2251.000000	101.605059
2250.000000	101.604416
2249.000000	101.603571
2248.000000	101.602827
2247.000000	101.601857
2246.000000	101.600142
2245.000000	101.597692
2244.000000	101.595250
2243.000000	101.593772
2242.000000	101.593726
2241.000000	101.594851
2240.000000	101.596455
2239.000000	101.597908
2238.000000	101.598807
2237.000000	101.598807
2236.000000	101.597628
2235.000000	101.595472
2234.000000	101.593205
2233.000000	101.591678
2232.000000	101.590955
2231.000000	101.590530
2230.000000	101.590226
2229.000000	101.590452
2228.000000	101.591372
2227.000000	101.592287
2226.000000	101.592207
2225.000000	101.590797
2224.000000	101.588506
2223.000000	101.586084
2222.000000	101.584285
2221.000000	101.583792
2220.000000	101.584855
2219.000000	101.586839
2218.000000	101.588570
2217.000000	101.589418
2216.000000	101.589678
2215.000000	101.589860
2214.000000	101.590045
2213.000000	101.590138
2212.000000	101.590331
2211.000000	101.590813
2210.000000	101.591269
2209.000000	101.591180
2208.000000	101.590613
2207.000000	101.590286
2206.000000	101.590807
2205.000000	101.592189
2204.000000	101.594189
2203.000000	101.596734
2202.000000	101.599743
2201.000000	101.602668
2200.000000	101.604516
2199.000000	101.604521
2198.000000	101.602860
2197.000000	101.600804
2196.000000	101.599958
2195.000000	101.600889
2194.000000	101.602490
2193.000000	101.602966
2192.000000	101.601661
2191.000000	101.599673
2190.000000	101.598602
2189.000000	101.598849
2188.000000	101.599503
2187.000000	101.599607
2186.000000	101.599109
2185.000000	101.598592
2184.000000	101.598551
2183.000000	101.599182
2182.000000	101.600558
2181.000000	101.602672
2180.000000	101.605346
2179.000000	101.608188
2178.000000	101.610633
2177.000000	101.612097
2176.000000	101.612329
2175.000000	101.611606
2174.000000	101.610397
2173.000000	101.608814
2172.000000	101.606761
2171.000000	101.604666
2170.000000	101.603544
2169.000000	101.603948
2168.000000	101.605234
2167.000000	101.606307
2166.000000	101.606797
2165.000000	101.606989
2164.000000	101.606922
2163.000000	101.606464
2162.000000	101.606237
2161.000000	101.607484
2160.000000	101.610558
2159.000000	101.614099
2158.000000	101.616285
2157.000000	101.616680
2156.000000	101.616243
2155.000000	101.615939
2154.000000	101.615887
2153.000000	101.615858
2152.000000	101.615828
2151.000000	101.615822
2150.000000	101.615781
2149.000000	101.615852
2148.000000	101.616329
2147.000000	101.617115
2146.000000	101.617646
2145.000000	101.617702
2144.000000	101.617879
2143.000000	101.618804
2142.000000	101.620296
2141.000000	101.621762
2140.000000	101.623199
2139.000000	101.625294
2138.000000	101.628516
2137.000000	101.632495
2136.000000	101.636349
2135.000000	101.639275
2134.000000	101.640826
2133.000000	101.641098
2132.000000	101.640905
2131.000000	101.641520
2130.000000	101.643708
2129.000000	101.647039
2128.000000	101.650207
2127.000000	101.652187
2126.000000	101.652942
2125.000000	101.653094
2124.000000	101.653235
2123.000000	101.653620
2122.000000	101.654330
2121.000000	101.655409
2120.000000	101.656822
2119.000000	101.658479
2118.000000	101.660357
2117.000000	101.662523
2116.000000	101.665017
2115.000000	101.667752
2114.000000	101.670477
2113.000000	101.672828
2112.000000	101.674528
2111.000000	101.675657
2110.000000	101.676686
2109.000000	101.678065
2108.000000	101.679808
2107.000000	101.681605
2106.000000	101.683277
2105.000000	101.684962
2104.000000	101.686804
2103.000000	101.688637
2102.000000	101.690156
2101.000000	101.691307
2100.000000	101.692313
2099.000000	101.693456
2098.000000	101.694839
2097.000000	101.696357
2096.000000	101.697777
2095.000000	101.698890
2094.000000	101.699676
2093.000000	101.700401
2092.000000	101.701438
2091.000000	101.702881
2090.000000	101.704368
2089.000000	101.705424
2088.000000	101.705988
2087.000000	101.706459
2086.000000	101.707195
2085.000000	101.708152
2084.000000	101.709135
2083.000000	101.710181
2082.000000	101.711447
2081.000000	101.712820
2080.000000	101.713919
2079.000000	101.714524
2078.000000	101.714794
2077.000000	101.714997
2076.000000	101.715206
2075.000000	101.715350
2074.000000	101.715404
2073.000000	101.715389
2072.000000	101.715291
2071.000000	101.715142
2070.000000	101.715212
2069.000000	101.715965
2068.000000	101.717579
2067.000000	101.719413
2066.000000	101.720187
2065.000000	101.719078
2064.000000	101.716708
2063.000000	101.714864
2062.000000	101.714934
2061.000000	101.716694
2060.000000	101.718654
2059.000000	101.719472
2058.000000	101.718921
2057.000000	101.717589
2056.000000	101.716074
2055.000000	101.714710
2054.000000	101.713664
2053.000000	101.712876
2052.000000	101.712038
2051.000000	101.710944
2050.000000	101.709857
2049.000000	101.709274
2048.000000	101.709312
2047.000000	101.709506
2046.000000	101.709243
2045.000000	101.708253
2044.000000	101.706668
2043.000000	101.704847
2042.000000	101.703185
2041.000000	101.701803
2040.000000	101.700380
2039.000000	101.698524
2038.000000	101.696340
2037.000000	101.694389
2036.000000	101.693026
2035.000000	101.691976
2034.000000	101.690631
2033.000000	101.688679
2032.000000	101.686298
2031.000000	101.683891
2030.000000	101.681780
2029.000000	101.680061
2028.000000	101.678610
2027.000000	101.677141
2026.000000	101.675395
2025.000000	101.673359
2024.000000	101.671276
2023.000000	101.669422
2022.000000	101.667845
2021.000000	101.666324
2020.000000	101.664557
2019.000000	101.662445
2018.000000	101.660171
2017.000000	101.658022
2016.000000	101.656144
2015.000000	101.654501
2014.000000	101.652999
2013.000000	101.651566
2012.000000	101.650057
2011.000000	101.648213
2010.000000	101.645884
2009.000000	101.643338
2008.000000	101.641138
2007.000000	101.639607
2006.000000	101.638557
2005.000000	101.637603
2004.000000	101.636658
2003.000000	101.635929
2002.000000	101.635481
2001.000000	101.634922
2000.000000	101.633580
1999.000000	101.631064
1998.000000	101.627765
1997.000000	101.624834
1996.000000	101.623256
1995.000000	101.623038
1994.000000	101.623235
1993.000000	101.622851
1992.000000	101.621672
1991.000000	101.620105
1990.000000	101.618545
1989.000000	101.617184
1988.000000	101.616232
1987.000000	101.615875
1986.000000	101.615993
1985.000000	101.616146
1984.000000	101.615976
1983.000000	101.615548
1982.000000	101.615294
1981.000000	101.615635
1980.000000	101.616656
1979.000000	101.618094
1978.000000	101.619534
1977.000000	101.620504
1976.000000	101.620479
1975.000000	101.619163
1974.000000	101.616946
1973.000000	101.614838
1972.000000	101.613556
1971.000000	101.612834
1970.000000	101.611963
1969.000000	101.610747
1968.000000	101.609612
1967.000000	101.608954
1966.000000	101.608889
1965.000000	101.609521
1964.000000	101.610810
1963.000000	101.612111
1962.000000	101.612414
1961.000000	101.611391
1960.000000	101.609785
1959.000000	101.608406
1958.000000	101.607174
1957.000000	101.605696
1956.000000	101.604256
1955.000000	101.603481
1954.000000	101.603253
1953.000000	101.602613
1952.000000	101.600683
1951.000000	101.597516
1950.000000	101.594388
1949.000000	101.593225
1948.000000	101.595020
1947.000000	101.598474
1946.000000	101.600796
1945.000000	101.600438
1944.000000	101.598297
1943.000000	101.596017
1942.000000	101.594073
1941.000000	101.592164
1940.000000	101.590262
1939.000000	101.588116
1938.000000	101.584879
1937.000000	101.580605
1936.000000	101.577294
1935.000000	101.576762
1934.000000	101.577907
1933.000000	101.577689
1932.000000	101.574796
1931.000000	101.570906
1930.000000	101.568339
1929.000000	101.567823
1928.000000	101.568931
1927.000000	101.571413
1926.000000	101.575175
1925.000000	101.579414
1924.000000	101.582306
1923.000000	101.581894
1922.000000	101.577690
1921.000000	101.571359
1920.000000	101.565340
1919.000000	101.560741
1918.000000	101.556834
1917.000000	101.552757
1916.000000	101.548866
1915.000000	101.545419
1914.000000	101.541040
1913.000000	101.534113
1912.000000	101.525397
1911.000000	101.517842
1910.000000	101.513359
1909.000000	101.510902
1908.000000	101.508252
1907.000000	101.504190
1906.000000	101.498267
1905.000000	101.490298
1904.000000	101.481381
1903.000000	101.474082
1902.000000	101.469605
1901.000000	101.465363
1900.000000	101.457639
1899.000000	101.446519
1898.000000	101.436231
1897.000000	101.430168
1896.000000	101.427214
1895.000000	101.424137
1894.000000	101.420277
1893.000000	101.417614
1892.000000	101.416781
1891.000000	101.415269
1890.000000	101.410073
1889.000000	101.401448
1888.000000	101.392648
1887.000000	101.385955
1886.000000	101.380995
1885.000000	101.376832
1884.000000	101.374036
1883.000000	101.374107
1882.000000	101.377148
1881.000000	101.380883
1880.000000	101.382465
1879.000000	101.380783
1878.000000	101.376623
1877.000000	101.371278
1876.000000	101.365711
1875.000000	101.360965
1874.000000	101.358461
1873.000000	101.358931
1872.000000	101.361410
1871.000000	101.364238
1870.000000	101.367128
1869.000000	101.371698
1868.000000	101.379372
1867.000000	101.389267
1866.000000	101.398916
1865.000000	101.406573
1864.000000	101.412456
1863.000000	101.418050
1862.000000	101.424351
1861.000000	101.431002
1860.000000	101.437082
1859.000000	101.442146
1858.000000	101.446218
1857.000000	101.449568
1856.000000	101.453365
1855.000000	101.459759
1854.000000	101.469810
1853.000000	101.481272
1852.000000	101.489951
1851.000000	101.493721
1850.000000	101.494465
1849.000000	101.496242
1848.000000	101.501651
1847.000000	101.509854
1846.000000	101.517643
1845.000000	101.522192
1844.000000	101.523909
1843.000000	101.526270
1842.000000	101.531513
1841.000000	101.538400
1840.000000	101.544493
1839.000000	101.548723
1838.000000	101.552179
1837.000000	101.556590
1836.000000	101.561895
1835.000000	101.565746
1834.000000	101.565540
1833.000000	101.561064
1832.000000	101.555369
1831.000000	101.553052
1830.000000	101.556653
1829.000000	101.564195
1828.000000	101.571217
1827.000000	101.574787
1826.000000	101.574720
1825.000000	101.572785
1824.000000	101.571158
1823.000000	101.570471
1822.000000	101.569823
1821.000000	101.568590
1820.000000	101.567283
1819.000000	101.566456
1818.000000	101.565449
1817.000000	101.562979
1816.000000	101.559125
1815.000000	101.556149
1814.000000	101.556561
1813.000000	101.560571
1812.000000	101.565468
1811.000000	101.567885
1810.000000	101.567305
1809.000000	101.566156
1808.000000	101.566480
1807.000000	101.568026
1806.000000	101.569393
1805.000000	101.569729
1804.000000	101.569250
1803.000000	101.568956
1802.000000	101.569942
1801.000000	101.572298
1800.000000	101.574349
1799.000000	101.574091
1798.000000	101.571663
1797.000000	101.569215
1796.000000	101.568465
1795.000000	101.569362
1794.000000	101.571073
1793.000000	101.573670
1792.000000	101.577905
1791.000000	101.583518
1790.000000	101.589424
1789.000000	101.595106
1788.000000	101.600582
1787.000000	101.605469
1786.000000	101.608974
1785.000000	101.610845
1784.000000	101.611977
1783.000000	101.613723
1782.000000	101.616846
1781.000000	101.621486
1780.000000	101.627379
1779.000000	101.633642
1778.000000	101.638948
1777.000000	101.642233
1776.000000	101.643431
1775.000000	101.643586
1774.000000	101.644376
1773.000000	101.647867
1772.000000	101.655102
1771.000000	101.664228
1770.000000	101.672008
1769.000000	101.676431
1768.000000	101.677190
1767.000000	101.675865
1766.000000	101.675649
1765.000000	101.679538
1764.000000	101.688264
1763.000000	101.698769
1762.000000	101.705463
1761.000000	101.706253
1760.000000	101.705138
1759.000000	101.706517
1758.000000	101.710230
1757.000000	101.713368
1756.000000	101.715055
1755.000000	101.717198
1754.000000	101.720562
1753.000000	101.723060
1752.000000	101.721929
1751.000000	101.716859
1750.000000	101.710939
1749.000000	101.708171
1748.000000	101.710537
1747.000000	101.716428
1746.000000	101.721053
1745.000000	101.720367
1744.000000	101.714945
1743.000000	101.709367
1742.000000	101.707325
1741.000000	101.708574
1740.000000	101.710729
1739.000000	101.711972
1738.000000	101.711228
1737.000000	101.707769
1736.000000	101.701634
1735.000000	101.695376
1734.000000	101.692673
1733.000000	101.691940
1732.000000	101.688671
1731.000000	101.683212
1730.000000	101.679191
1729.000000	101.677836
1728.000000	101.676746
1727.000000	101.672848
1726.000000	101.665797
1725.000000	101.658110
1724.000000	101.653033
1723.000000	101.651848
1722.000000	101.653169
1721.000000	101.654575
1720.000000	101.654366
1719.000000	101.651511
1718.000000	101.645179
1717.000000	101.635950
1716.000000	101.625931
1715.000000	101.617047
1714.000000	101.610145
1713.000000	101.604166
1712.000000	101.596628
1711.000000	101.585897
1710.000000	101.572596
1709.000000	101.559347
1708.000000	101.548970
1707.000000	101.542356
1706.000000	101.538105
1705.000000	101.534536
1704.000000	101.531419
1703.000000	101.528415
1702.000000	101.522300
1701.000000	101.508261
1700.000000	101.487990
1699.000000	101.470588
1698.000000	101.459747
1697.000000	101.450750
1696.000000	101.438927
1695.000000	101.425174
1694.000000	101.412805
1693.000000	101.402049
1692.000000	101.391690
1691.000000	101.381075
1690.000000	101.370074
1689.000000	101.358639
1688.000000	101.346948
1687.000000	101.334958
1686.000000	101.321341
1685.000000	101.304285
1684.000000	101.284939
1683.000000	101.268283
1682.000000	101.255717
1681.000000	101.243580
1680.000000	101.229720
1679.000000	101.214805
1678.000000	101.200623
1677.000000	101.187803
1676.000000	101.176384
1675.000000	101.166481
1674.000000	101.157106
1673.000000	101.146375
1672.000000	101.133170
1671.000000	101.117646
1670.000000	101.101494
1669.000000	101.087946
1668.000000	101.079618
1667.000000	101.075430
1666.000000	101.070813
1665.000000	101.060865
1664.000000	101.043673
1663.000000	101.023170
1662.000000	101.006662
1661.000000	100.996919
1660.000000	100.991094
1659.000000	100.986372
1658.000000	100.982320
1657.000000	100.979854
1656.000000	100.978595
1655.000000	100.974750
1654.000000	100.959254
1653.000000	100.930001
1652.000000	100.903982
1651.000000	100.890053
1650.000000	100.881514
1649.000000	100.874741
1648.000000	100.869436
1647.000000	100.867958
1646.000000	100.870374
1645.000000	100.872730
1644.000000	100.871865
1643.000000	100.868764
1642.000000	100.865271
1641.000000	100.861815
1640.000000	100.858595
1639.000000	100.856370
1638.000000	100.854594
1637.000000	100.849893
1636.000000	100.839769
1635.000000	100.829742
1634.000000	100.827078
1633.000000	100.830590
1632.000000	100.835740
1631.000000	100.840347
1630.000000	100.844590
1629.000000	100.849972
1628.000000	100.858191
1627.000000	100.869688
1626.000000	100.882076
1625.000000	100.891203
1624.000000	100.894660
1623.000000	100.894498
1622.000000	100.895012
1621.000000	100.897578
1620.000000	100.901133
1619.000000	100.905480
1618.000000	100.911503
1617.000000	100.919610
1616.000000	100.929616
1615.000000	100.942199
1614.000000	100.957604
1613.000000	100.973681
1612.000000	100.986800
1611.000000	100.995228
1610.000000	101.000968
1609.000000	101.007035
1608.000000	101.014204
1607.000000	101.021663
1606.000000	101.029072
1605.000000	101.036815
1604.000000	101.045453
1603.000000	101.055747
1602.000000	101.068798
1601.000000	101.084911
1600.000000	101.102289
1599.000000	101.117836
1598.000000	101.130088
1597.000000	101.140892
1596.000000	101.153248
1595.000000	101.167641
1594.000000	101.181362
1593.000000	101.191502
1592.000000	101.197707
1591.000000	101.201853
1590.000000	101.206178
1589.000000	101.212028
1588.000000	101.219858
1587.000000	101.229550
1586.000000	101.240436
1585.000000	101.251417
1584.000000	101.261491
1583.000000	101.269925
1582.000000	101.276337
1581.000000	101.281485
1580.000000	101.287245
1579.000000	101.294899
1578.000000	101.303809
1577.000000	101.312317
1576.000000	101.320172
1575.000000	101.328506
1574.000000	101.336849
1573.000000	101.343627
1572.000000	101.348497
1571.000000	101.352746
1570.000000	101.358430
1569.000000	101.365853
1568.000000	101.373586
1567.000000	101.380448
1566.000000	101.385857
1565.000000	101.389038
1564.000000	101.389898
1563.000000	101.389432
1562.000000	101.389535
1561.000000	101.391607
1560.000000	101.398389
1559.000000	101.409710
1558.000000	101.419278
1557.000000	101.424735
1556.000000	101.427892
1555.000000	101.430531
1554.000000	101.433474
1553.000000	101.437481
1552.000000	101.442587
1551.000000	101.447935
1550.000000	101.452094
1549.000000	101.454508
1548.000000	101.456120
1547.000000	101.458434
1546.000000	101.462388
1545.000000	101.467928
1544.000000	101.473989
1543.000000	101.479330
1542.000000	101.483538
1541.000000	101.486864
1540.000000	101.489554
1539.000000	101.492268
1538.000000	101.495423
1537.000000	101.498570
1536.000000	101.501452
1535.000000	101.504051
1534.000000	101.506592
1533.000000	101.509462
1532.000000	101.512749
1531.000000	101.516064
1530.000000	101.519157
1529.000000	101.522226
1528.000000	101.525571
1527.000000	101.529117
1526.000000	101.532356
1525.000000	101.534976
1524.000000	101.537284
1523.000000	101.539892
1522.000000	101.543224
1521.000000	101.547191
1520.000000	101.551487
1519.000000	101.556204
1518.000000	101.561597
1517.000000	101.567016
1516.000000	101.570978
1515.000000	101.572963
1514.000000	101.573757
1513.000000	101.574364
1512.000000	101.575397
1511.000000	101.577140
1510.000000	101.580012
1509.000000	101.584550
1508.000000	101.590716
1507.000000	101.596255
1506.000000	101.599521
1505.000000	101.602110
1504.000000	101.605004
1503.000000	101.608249
1502.000000	101.611762
1501.000000	101.615409
1500.000000	101.618953
1499.000000	101.621647
1498.000000	101.622095
1497.000000	101.619609
1496.000000	101.615781
1495.000000	101.613538
1494.000000	101.614689
1493.000000	101.619512
1492.000000	101.627188
1491.000000	101.635278
1490.000000	101.640172
1489.000000	101.640370
1488.000000	101.637897
1487.000000	101.635344
1486.000000	101.633581
1485.000000	101.632197
1484.000000	101.631182
1483.000000	101.631512
1482.000000	101.633908
1481.000000	101.637389
1480.000000	101.639549
1479.000000	101.638839
1478.000000	101.636015
1477.000000	101.633587
1476.000000	101.633520
1475.000000	101.635108
1474.000000	101.635501
1473.000000	101.632338
1472.000000	101.626438
1471.000000	101.621044
1470.000000	101.618141
1469.000000	101.617574
1468.000000	101.618038
1467.000000	101.617353
1466.000000	101.613373
1465.000000	101.606136
1464.000000	101.598721
1463.000000	101.593532
1462.000000	101.589680
1461.000000	101.585531
1460.000000	101.581190
1459.000000	101.578116
1458.000000	101.577137
1457.000000	101.577892
1456.000000	101.580112
1455.000000	101.582938
1454.000000	101.584591
1453.000000	101.583848
1452.000000	101.580013
1451.000000	101.573499
1450.000000	101.565823
1449.000000	101.559368
1448.000000	101.556673
1447.000000	101.558180
1446.000000	101.560707
1445.000000	101.560433
1444.000000	101.556877
1443.000000	101.552742
1442.000000	101.550409
1441.000000	101.548992
1440.000000	101.545841
1439.000000	101.539848
1438.000000	101.532504
1437.000000	101.526699
1436.000000	101.523677
1435.000000	101.521523
1434.000000	101.518213
1433.000000	101.513958
1432.000000	101.510057
1431.000000	101.507533
1430.000000	101.505887
1429.000000	101.503328
1428.000000	101.498796
1427.000000	101.493383
1426.000000	101.489375
1425.000000	101.488296
1424.000000	101.489921
1423.000000	101.492637
1422.000000	101.495719
1421.000000	101.500709
1420.000000	101.510124
1419.000000	101.523146
1418.000000	101.534646
1417.000000	101.542094
1416.000000	101.547287
1415.000000	101.552022
1414.000000	101.556350
1413.000000	101.559387
1412.000000	101.560518
1411.000000	101.560443
1410.000000	101.561334
1409.000000	101.565084
1408.000000	101.570798
1407.000000	101.575448
1406.000000	101.577749
1405.000000	101.580396
1404.000000	101.586819
1403.000000	101.596207
1402.000000	101.604784
1401.000000	101.610550
1400.000000	101.614131
1399.000000	101.616653
1398.000000	101.618588
1397.000000	101.620411
1396.000000	101.622980
1395.000000	101.627117
1394.000000	101.633010
1393.000000	101.639974
1392.000000	101.646605
1391.000000	101.651432
1390.000000	101.654296
1389.000000	101.656710
1388.000000	101.659846
1387.000000	101.662318
1386.000000	101.661916
1385.000000	101.659163
1384.000000	101.657071
1383.000000	101.658108
1382.000000	101.662436
1381.000000	101.668261
1380.000000	101.673148
1379.000000	101.675642
1378.000000	101.676551
1377.000000	101.678556
1376.000000	101.683547
1375.000000	101.690022
1374.000000	101.694054
1373.000000	101.694054
1372.000000	101.692611
1371.000000	101.693032
1370.000000	101.696332
1369.000000	101.701526
1368.000000	101.707057
1367.000000	101.711419
1366.000000	101.713778
1365.000000	101.714835
1364.000000	101.716059
1363.000000	101.717328
1362.000000	101.716995
1361.000000	101.715307
1360.000000	101.715106
1359.000000	101.717792
1358.000000	101.720904
1357.000000	101.721208
1356.000000	101.719015
1355.000000	101.717485
1354.000000	101.717962
1353.000000	101.718433
1352.000000	101.716890
1351.000000	101.714131
1350.000000	101.712315
1349.000000	101.712103
1348.000000	101.712828
1347.000000	101.714119
1346.000000	101.715946
1345.000000	101.717575
1344.000000	101.717875
1343.000000	101.716648
1342.000000	101.715044
1341.000000	101.714652
1340.000000	101.716326
1339.000000	101.719369
1338.000000	101.721571
1337.000000	101.721009
1336.000000	101.718427
1335.000000	101.717159
1334.000000	101.719712
1333.000000	101.724544
1332.000000	101.727324
1331.000000	101.725561
1330.000000	101.721035
1329.000000	101.717277
1328.000000	101.715871
1327.000000	101.716397
1326.000000	101.718422
1325.000000	101.721402
1324.000000	101.723331
1323.000000	101.721748
1322.000000	101.716898
1321.000000	101.712433
1320.000000	101.711576
1319.000000	101.713146
1318.000000	101.713199
1317.000000	101.710427
1316.000000	101.707898
1315.000000	101.709078
1314.000000	101.713716
1313.000000	101.718458
1312.000000	101.720650
1311.000000	101.720582
1310.000000	101.720301
1309.000000	101.721116
1308.000000	101.722393
1307.000000	101.722656
1306.000000	101.721629
1305.000000	101.720449
1304.000000	101.719759
1303.000000	101.718592
1302.000000	101.716313
1301.000000	101.714657
1300.000000	101.715871
1299.000000	101.719076
1298.000000	101.720801
1297.000000	101.719559
1296.000000	101.717488
1295.000000	101.716500
1294.000000	101.715033
1293.000000	101.710504
1292.000000	101.703396
1291.000000	101.696745
1290.000000	101.692063
1289.000000	101.687643
1288.000000	101.681068
1287.000000	101.672379
1286.000000	101.664780
1285.000000	101.662519
1284.000000	101.667041
1283.000000	101.674183
1282.000000	101.676391
1281.000000	101.669651
1280.000000	101.657552
1279.000000	101.647456
1278.000000	101.643458
1277.000000	101.644549
1276.000000	101.648050
1275.000000	101.652116
1274.000000	101.655423
1273.000000	101.656911
1272.000000	101.655984
1271.000000	101.651718
1270.000000	101.643085
1269.000000	101.631915
1268.000000	101.623869
1267.000000	101.623111
1266.000000	101.626791
1265.000000	101.628299
1264.000000	101.625389
1263.000000	101.621323
1262.000000	101.618315
1261.000000	101.614036
1260.000000	101.605477
1259.000000	101.592919
1258.000000	101.579212
1257.000000	101.568053
1256.000000	101.563174
1255.000000	101.565525
1254.000000	101.570148
1253.000000	101.569092
1252.000000	101.558646
1251.000000	101.541582
1250.000000	101.522386
1249.000000	101.503200
1248.000000	101.484437
1247.000000	101.465745
1246.000000	101.445805
1245.000000	101.424829
1244.000000	101.407553
1243.000000	101.399047
1242.000000	101.396137
1241.000000	101.387962
1240.000000	101.367627
1239.000000	101.339587
1238.000000	101.313273
1237.000000	101.292896
1236.000000	101.276417
1235.000000	101.260880
1234.000000	101.244198
1233.000000	101.223462
1232.000000	101.195790
1231.000000	101.161360
1230.000000	101.123755
1229.000000	101.087073
1228.000000	101.052917
1227.000000	101.018966
1226.000000	100.980186
1225.000000	100.933083
1224.000000	100.879045
1223.000000	100.821586
1222.000000	100.760661
1221.000000	100.693037
1220.000000	100.618493
1219.000000	100.541548
1218.000000	100.465536
1217.000000	100.388404
1216.000000	100.305757
1215.000000	100.214300
1214.000000	100.111554
1213.000000	99.997767
1212.000000	99.880915
1211.000000	99.774551
1210.000000	99.685941
1209.000000	99.609327
1208.000000	99.533720
1207.000000	99.453256
1206.000000	99.367387
1205.000000	99.276091
1204.000000	99.179761
1203.000000	99.080960
1202.000000	98.982013
1201.000000	98.882404
1200.000000	98.781254
1199.000000	98.680269
1198.000000	98.581993
1197.000000	98.487624
1196.000000	98.398099
1195.000000	98.313785
1194.000000	98.230947
1193.000000	98.142101
1192.000000	98.042552
1191.000000	97.934440
1190.000000	97.823433
1189.000000	97.714666
1188.000000	97.612392
1187.000000	97.518146
1186.000000	97.426454
1185.000000	97.327069
1184.000000	97.214874
1183.000000	97.094612
1182.000000	96.973843
1181.000000	96.854939
1180.000000	96.736349
1179.000000	96.617494
1178.000000	96.498523
1177.000000	96.377436
1176.000000	96.250161
1175.000000	96.112498
1174.000000	95.962230
1173.000000	95.802325
1172.000000	95.641591
1171.000000	95.487742
1170.000000	95.339387
1169.000000	95.189175
1168.000000	95.034988
1167.000000	94.883797
1166.000000	94.746361
1165.000000	94.635095
1164.000000	94.565471
1163.000000	94.549111
1162.000000	94.582056
1161.000000	94.645629
1160.000000	94.719662
1159.000000	94.788754
1158.000000	94.837760
1157.000000	94.852445
1156.000000	94.827767
1155.000000	94.769042
1154.000000	94.683528
1153.000000	94.576670
1152.000000	94.456764
1151.000000	94.335133
1150.000000	94.218594
1149.000000	94.107078
1148.000000	93.999236
1147.000000	93.893389
1146.000000	93.783003
1145.000000	93.660267
1144.000000	93.526506
1143.000000	93.392257
1142.000000	93.266115
1141.000000	93.150055
1140.000000	93.044118
1139.000000	92.945206
1138.000000	92.841129
1137.000000	92.717908
1136.000000	92.576180
1135.000000	92.431106
1134.000000	92.293726
1133.000000	92.161743
1132.000000	92.030419
1131.000000	91.901056
1130.000000	91.774731
1129.000000	91.647711
1128.000000	91.517555
1127.000000	91.385748
1126.000000	91.251820
1125.000000	91.113512
1124.000000	90.974595
1123.000000	90.843138
1122.000000	90.719980
1121.000000	90.598087
1120.000000	90.474479
1119.000000	90.352686
1118.000000	90.232678
1117.000000	90.109687
1116.000000	89.983875
1115.000000	89.859660
1114.000000	89.735243
1113.000000	89.606073
1112.000000	89.479252
1111.000000	89.369010
1110.000000	89.275396
1109.000000	89.181974
1108.000000	89.077103
1107.000000	88.962840
1106.000000	88.841191
1105.000000	88.708955
1104.000000	88.570558
1103.000000	88.439539
1102.000000	88.321493
1101.000000	88.209432
1100.000000	88.099004
1099.000000	87.992866
1098.000000	87.887629
1097.000000	87.773250
1096.000000	87.649676
1095.000000	87.528155
1094.000000	87.412762
1093.000000	87.296794
1092.000000	87.179711
1091.000000	87.069517
1090.000000	86.965487
1089.000000	86.857855
1088.000000	86.748659
1087.000000	86.653098
1086.000000	86.574651
1085.000000	86.497890
1084.000000	86.412087
1083.000000	86.323720
1082.000000	86.239967
1081.000000	86.158031
1080.000000	86.076781
1079.000000	86.000832
1078.000000	85.926871
1077.000000	85.843265
1076.000000	85.748766
1075.000000	85.654415
1074.000000	85.561715
1073.000000	85.455956
1072.000000	85.325719
1071.000000	85.172021
1070.000000	84.995576
1069.000000	84.792922
1068.000000	84.568958
1067.000000	84.335410
1066.000000	84.092498
1065.000000	83.830313
1064.000000	83.552010
1063.000000	83.276381
1062.000000	83.013450
1061.000000	82.757216
1060.000000	82.506145
1059.000000	82.269196
1058.000000	82.047008
1057.000000	81.828709
1056.000000	81.611746
1055.000000	81.402998
1054.000000	81.196374
1053.000000	80.973338
1052.000000	80.732216
1051.000000	80.492239
1050.000000	80.260764
1049.000000	80.023992
1048.000000	79.777638
1047.000000	79.535644
1046.000000	79.300595
1045.000000	79.055542
1044.000000	78.792457
1043.000000	78.521736
1042.000000	78.247647
1041.000000	77.962616
1040.000000	77.674894
1039.000000	77.413298
1038.000000	77.190852
1037.000000	76.987649
1036.000000	76.781053
1035.000000	76.570650
1034.000000	76.364223
1033.000000	76.164974
1032.000000	75.984445
1031.000000	75.842737
1030.000000	75.741486
1029.000000	75.656089
1028.000000	75.565716
1027.000000	75.473215
1026.000000	75.388120
1025.000000	75.311446
1024.000000	75.244502
1023.000000	75.190636
1022.000000	75.140047
1021.000000	75.073158
1020.000000	74.985900
1019.000000	74.892530
1018.000000	74.800368
1017.000000	74.703801
1016.000000	74.605756
1015.000000	74.519582
1014.000000	74.443860
1013.000000	74.359962
1012.000000	74.261792
1011.000000	74.165394
1010.000000	74.083246
1009.000000	74.011649
1008.000000	73.948473
1007.000000	73.899959
1006.000000	73.863790
1005.000000	73.827743
1004.000000	73.790902
1003.000000	73.765482
1002.000000	73.754276
1001.000000	73.748191
1000.000000	73.748394
999.000000	73.767167
998.000000	73.803058
997.000000	73.838333
996.000000	73.865384
995.000000	73.894537
994.000000	73.933823
993.000000	73.982820
992.000000	74.046112
991.000000	74.128628
990.000000	74.217298
989.000000	74.293297
988.000000	74.364201
987.000000	74.457368
986.000000	74.579712
985.000000	74.711023
984.000000	74.840104
983.000000	74.980235
982.000000	75.142734
981.000000	75.321771
980.000000	75.512704
979.000000	75.721502
978.000000	75.948331
977.000000	76.182932
976.000000	76.422668
975.000000	76.676159
974.000000	76.945629
973.000000	77.224917
972.000000	77.516170
971.000000	77.827478
970.000000	78.152558
969.000000	78.474411
968.000000	78.790868
967.000000	79.114814
966.000000	79.447610
965.000000	79.774849
964.000000	80.091237
963.000000	80.407429
962.000000	80.727949
961.000000	81.042807
960.000000	81.345415
959.000000	81.639728
958.000000	81.925808
957.000000	82.196469
956.000000	82.451573
955.000000	82.698434
954.000000	82.936198
953.000000	83.157643
952.000000	83.367556
951.000000	83.579746
950.000000	83.792601
949.000000	83.986348
948.000000	84.148649
947.000000	84.286208
946.000000	84.409589
945.000000	84.524569
944.000000	84.640926
943.000000	84.770085
942.000000	84.907526
941.000000	85.033740
940.000000	85.138185
939.000000	85.228921
938.000000	85.317366
937.000000	85.408894
936.000000	85.509289
935.000000	85.622311
934.000000	85.737805
933.000000	85.839907
932.000000	85.930514
931.000000	86.027962
930.000000	86.139841
929.000000	86.254621
928.000000	86.362727
927.000000	86.466816
926.000000	86.566882
925.000000	86.654291
924.000000	86.727803
923.000000	86.799328
922.000000	86.876374
921.000000	86.952045
920.000000	87.017381
919.000000	87.070691
918.000000	87.112012
917.000000	87.143086
916.000000	87.176448
915.000000	87.230400
914.000000	87.311512
913.000000	87.414593
912.000000	87.539674
911.000000	87.692761
910.000000	87.869785
909.000000	88.059280
908.000000	88.264134
907.000000	88.501415
906.000000	88.776005
905.000000	89.071769
904.000000	89.373369
903.000000	89.680452
902.000000	89.995155
901.000000	90.311522
900.000000	90.623153
899.000000	90.928834
898.000000	91.227055
897.000000	91.516361
896.000000	91.802138
895.000000	92.090515
894.000000	92.374856
893.000000	92.641041
892.000000	92.886428
891.000000	93.121173
890.000000	93.351778
889.000000	93.577186
888.000000	93.800282
887.000000	94.027145
886.000000	94.252534
885.000000	94.460695
884.000000	94.644543
883.000000	94.813816
882.000000	94.984166
881.000000	95.168870
880.000000	95.377653
879.000000	95.606840
878.000000	95.831497
877.000000	96.026096
876.000000	96.195221
875.000000	96.368044
874.000000	96.562373
873.000000	96.771492
872.000000	96.985726
871.000000	97.205627
870.000000	97.429946
869.000000	97.649422
868.000000	97.858566
867.000000	98.059617
866.000000	98.252222
865.000000	98.433783
864.000000	98.612055
863.000000	98.801055
862.000000	98.999135
861.000000	99.185947
860.000000	99.348070
859.000000	99.495623
858.000000	99.647549
857.000000	99.810654
856.000000	99.977829
855.000000	100.135647
854.000000	100.268872
853.000000	100.369584
852.000000	100.448246
851.000000	100.525798
850.000000	100.609558
849.000000	100.687814
848.000000	100.752452
847.000000	100.812045
846.000000	100.873226
845.000000	100.922339
844.000000	100.939547
843.000000	100.924899
842.000000	100.899531
841.000000	100.883580
840.000000	100.878590
839.000000	100.866514
838.000000	100.821014
837.000000	100.728203
836.000000	100.605353
835.000000	100.494714
834.000000	100.430271
833.000000	100.411565
832.000000	100.412424
831.000000	100.407913
830.000000	100.388902
829.000000	100.361401
828.000000	100.343372
827.000000	100.357282
826.000000	100.411940
825.000000	100.488036
824.000000	100.547589
823.000000	100.561107
822.000000	100.527600
821.000000	100.472480
820.000000	100.426456
819.000000	100.399864
818.000000	100.372389
817.000000	100.309952
816.000000	100.192660
815.000000	100.023028
814.000000	99.809251
813.000000	99.549467
812.000000	99.234667
811.000000	98.857422
810.000000	98.411009
809.000000	97.886006
808.000000	97.275324
807.000000	96.581924
806.000000	95.821443
805.000000	95.023529
804.000000	94.231166
803.000000	93.487419
802.000000	92.816938
801.000000	92.228502
800.000000	91.735969
799.000000	91.361839
798.000000	91.118191
797.000000	91.000946
796.000000	91.003875
795.000000	91.116453
794.000000	91.303199
793.000000	91.508353
792.000000	91.692090
791.000000	91.847143
790.000000	91.974672
789.000000	92.061819
788.000000	92.090948
787.000000	92.054223
786.000000	91.947558
785.000000	91.763246
784.000000	91.503158
783.000000	91.194544
782.000000	90.883789
781.000000	90.616627
780.000000	90.423841
779.000000	90.313579
778.000000	90.272346
777.000000	90.284454
776.000000	90.354951
775.000000	90.504188
774.000000	90.739436
773.000000	91.042610
772.000000	91.383369
771.000000	91.729702
770.000000	92.048582
769.000000	92.316949
768.000000	92.538597
767.000000	92.737780
766.000000	92.931604
765.000000	93.117355
764.000000	93.285947
763.000000	93.433757
762.000000	93.559488
761.000000	93.664605
760.000000	93.762515
759.000000	93.875142
758.000000	94.013073
757.000000	94.165553
756.000000	94.312235
755.000000	94.438215
754.000000	94.540764
753.000000	94.633712
752.000000	94.744397
751.000000	94.891993
750.000000	95.065110
