4000.000000	100.975591
3999.000000	100.974388
3998.000000	100.973156
3997.000000	100.971930
3996.000000	100.970582
3995.000000	100.968965
3994.000000	100.967162
3993.000000	100.965555
3992.000000	100.964441
3991.000000	100.963722
3990.000000	100.962929
3989.000000	100.961661
3988.000000	100.959999
3987.000000	100.958508
3986.000000	100.957709
3985.000000	100.957684
3984.000000	100.958070
3983.000000	100.958238
3982.000000	100.957731
3981.000000	100.956443
3980.000000	100.954592
3979.000000	100.952553
3978.000000	100.950637
3977.000000	100.948998
3976.000000	100.947642
3975.000000	100.946448
3974.000000	100.945273
3973.000000	100.944105
3972.000000	100.943116
3971.000000	100.942472
3970.000000	100.942055
3969.000000	100.941360
3968.000000	100.939821
3967.000000	100.937339
3966.000000	100.934446
3965.000000	100.931974
3964.000000	100.930527
3963.000000	100.930106
3962.000000	100.930165
3961.000000	100.930047
3960.000000	100.929484
3959.000000	100.928762
3958.000000	100.928344
3957.000000	100.928377
3956.000000	100.928535
3955.000000	100.928306
3954.000000	100.927418
3953.000000	100.926031
3952.000000	100.924574
3951.000000	100.923397
3950.000000	100.922575
3949.000000	100.922005
3948.000000	100.921584
3947.000000	100.921254
3946.000000	100.920917
3945.000000	100.920435
3944.000000	100.919701
3943.000000	100.918679
3942.000000	100.917417
3941.000000	100.916036
3940.000000	100.914724
3939.000000	100.913673
3938.000000	100.912925
3937.000000	100.912337
3936.000000	100.911736
3935.000000	100.911115
3934.000000	100.910672
3933.000000	100.910652
3932.000000	100.911160
3931.000000	100.912012
3930.000000	100.912763
3929.000000	100.912938
3928.000000	100.912353
3927.000000	100.911278
3926.000000	100.910351
3925.000000	100.910101
3924.000000	100.910490
3923.000000	100.910929
3922.000000	100.910739
3921.000000	100.909735
3920.000000	100.908272
3919.000000	100.906990
3918.000000	100.906337
3917.000000	100.906206
3916.000000	100.906070
3915.000000	100.905495
3914.000000	100.904535
3913.000000	100.903531
3912.000000	100.902743
3911.000000	100.902162
3910.000000	100.901630
3909.000000	100.901019
3908.000000	100.900304
3907.000000	100.899547
3906.000000	100.898839
3905.000000	100.898232
3904.000000	100.897703
3903.000000	100.897209
3902.000000	100.896759
3901.000000	100.896409
3900.000000	100.896177
3899.000000	100.896011
3898.000000	100.895848
3897.000000	100.895658
3896.000000	100.895441
3895.000000	100.895198
3894.000000	100.894925
3893.000000	100.894613
3892.000000	100.894262
3891.000000	100.893879
3890.000000	100.893474
3889.000000	100.893065
3888.000000	100.892684
3887.000000	100.892372
3886.000000	100.892157
3885.000000	100.892045
3884.000000	100.892018
3883.000000	100.892049
3882.000000	100.892106
3881.000000	100.892157
3880.000000	100.892173
3879.000000	100.892141
3878.000000	100.892074
3877.000000	100.891999
3876.000000	100.891942
3875.000000	100.891911
3874.000000	100.891904
3873.000000	100.891921
3872.000000	100.891983
3871.000000	100.892113
3870.000000	100.892320
3869.000000	100.892585
3868.000000	100.892874
3867.000000	100.893167
3866.000000	100.893463
3865.000000	100.893769
3864.000000	100.894094
3863.000000	100.894460
3862.000000	100.894888
3861.000000	100.895350
3860.000000	100.895765
3859.000000	100.896055
3858.000000	100.896199
3857.000000	100.896216
3856.000000	100.896155
3855.000000	100.896180
3854.000000	100.896543
3853.000000	100.897189
3852.000000	100.897580
3851.000000	100.897686
3850.000000	100.898173
3849.000000	100.899314
3848.000000	100.900765
3847.000000	100.902156
3846.000000	100.903445
3845.000000	100.904679
3844.000000	100.905657
3843.000000	100.906011
3842.000000	100.905555
3841.000000	100.904564
3840.000000	100.903703
3839.000000	100.903498
3838.000000	100.903925
3837.000000	100.904632
3836.000000	100.905405
3835.000000	100.906378
3834.000000	100.907765
3833.000000	100.909601
3832.000000	100.911636
3831.000000	100.913401
3830.000000	100.914516
3829.000000	100.915056
3828.000000	100.915431
3827.000000	100.915961
3826.000000	100.916576
3825.000000	100.917059
3824.000000	100.917481
3823.000000	100.918163
3822.000000	100.919226
3821.000000	100.920430
3820.000000	100.921337
3819.000000	100.921890
3818.000000	100.922348
3817.000000	100.922910
3816.000000	100.923542
3815.000000	100.924145
3814.000000	100.924707
3813.000000	100.925279
3812.000000	100.925857
3811.000000	100.926396
3810.000000	100.926870
3809.000000	100.927288
3808.000000	100.927653
3807.000000	100.927963
3806.000000	100.928212
3805.000000	100.928408
3804.000000	100.928564
3803.000000	100.928694
3802.000000	100.928804
3801.000000	100.928892
3800.000000	100.928965
3799.000000	100.929035
3798.000000	100.929109
3797.000000	100.929158
3796.000000	100.929137
3795.000000	100.929010
3794.000000	100.928749
3793.000000	100.928355
3792.000000	100.927885
3791.000000	100.927416
3790.000000	100.926950
3789.000000	100.926413
3788.000000	100.925725
3787.000000	100.924868
3786.000000	100.923845
3785.000000	100.922607
3784.000000	100.921018
3783.000000	100.919022
3782.000000	100.916900
3781.000000	100.915109
3780.000000	100.913806
3779.000000	100.912586
3778.000000	100.910902
3777.000000	100.908797
3776.000000	100.906893
3775.000000	100.905552
3774.000000	100.904207
3773.000000	100.901857
3772.000000	100.898037
3771.000000	100.893426
3770.000000	100.889311
3769.000000	100.886195
3768.000000	100.883749
3767.000000	100.882348
3766.000000	100.882932
3765.000000	100.884961
3764.000000	100.886027
3763.000000	100.884483
3762.000000	100.881331
3761.000000	100.878198
3760.000000	100.874855
3759.000000	100.870680
3758.000000	100.866827
3757.000000	100.864829
3756.000000	100.863330
3755.000000	100.859033
3754.000000	100.850129
3753.000000	100.838081
3752.000000	100.826996
3751.000000	100.820813
3750.000000	100.819076
3749.000000	100.815923
3748.000000	100.806568
3747.000000	100.793700
3746.000000	100.785030
3745.000000	100.785782
3744.000000	100.789552
3743.000000	100.781099
3742.000000	100.763091
3741.000000	100.755271
3740.000000	100.762876
3739.000000	100.775115
3738.000000	100.782670
3737.000000	100.784956
3736.000000	100.784344
3735.000000	100.781448
3734.000000	100.778526
3733.000000	100.780348
3732.000000	100.786870
3731.000000	100.791049
3730.000000	100.788285
3729.000000	100.781685
3728.000000	100.775657
3727.000000	100.769045
3726.000000	100.757003
3725.000000	100.737934
3724.000000	100.717151
3723.000000	100.700793
3722.000000	100.689031
3721.000000	100.678543
3720.000000	100.668137
3719.000000	100.658774
3718.000000	100.649482
3717.000000	100.636819
3716.000000	100.618883
3715.000000	100.598828
3714.000000	100.581034
3713.000000	100.564678
3712.000000	100.544173
3711.000000	100.517083
3710.000000	100.488364
3709.000000	100.465082
3708.000000	100.448692
3707.000000	100.434965
3706.000000	100.419485
3705.000000	100.401637
3704.000000	100.384522
3703.000000	100.371461
3702.000000	100.362444
3701.000000	100.353255
3700.000000	100.339577
3699.000000	100.322420
3698.000000	100.307269
3697.000000	100.297002
3696.000000	100.288602
3695.000000	100.278262
3694.000000	100.267278
3693.000000	100.260014
3692.000000	100.257352
3691.000000	100.255422
3690.000000	100.249825
3689.000000	100.239683
3688.000000	100.226012
3687.000000	100.210183
3686.000000	100.195470
3685.000000	100.184194
3684.000000	100.173794
3683.000000	100.160146
3682.000000	100.143239
3681.000000	100.126274
3680.000000	100.109409
3679.000000	100.086970
3678.000000	100.054698
3677.000000	100.018124
3676.000000	99.990288
3675.000000	99.974903
3674.000000	99.960959
3673.000000	99.942194
3672.000000	99.924512
3671.000000	99.912952
3670.000000	99.905957
3669.000000	99.897480
3668.000000	99.883389
3667.000000	99.866186
3666.000000	99.849225
3665.000000	99.832287
3664.000000	99.814277
3663.000000	99.795505
3662.000000	99.777085
3661.000000	99.759769
3660.000000	99.743949
3659.000000	99.730079
3658.000000	99.718000
3657.000000	99.705065
3656.000000	99.686416
3655.000000	99.658285
3654.000000	99.624156
3653.000000	99.593499
3652.000000	99.572827
3651.000000	99.561839
3650.000000	99.555583
3649.000000	99.547003
3648.000000	99.532306
3647.000000	99.513553
3646.000000	99.493848
3645.000000	99.475269
3644.000000	99.460517
3643.000000	99.452719
3642.000000	99.452323
3641.000000	99.455261
3640.000000	99.454832
3639.000000	99.446110
3638.000000	99.427778
3637.000000	99.401781
3636.000000	99.373339
3635.000000	99.348806
3634.000000	99.330391
3633.000000	99.313699
3632.000000	99.293568
3631.000000	99.270770
3630.000000	99.251539
3629.000000	99.240091
3628.000000	99.230710
3627.000000	99.217779
3626.000000	99.210102
3625.000000	99.215580
3624.000000	99.226818
3623.000000	99.232202
3622.000000	99.230723
3621.000000	99.233026
3620.000000	99.248148
3619.000000	99.270580
3618.000000	99.284889
3617.000000	99.284594
3616.000000	99.279212
3615.000000	99.281725
3614.000000	99.295024
3613.000000	99.310891
3612.000000	99.320481
3611.000000	99.324093
3610.000000	99.329189
3609.000000	99.340962
3608.000000	99.357510
3607.000000	99.374092
3606.000000	99.389361
3605.000000	99.405074
3604.000000	99.421820
3603.000000	99.437335
3602.000000	99.448270
3601.000000	99.452174
3600.000000	99.448901
3599.000000	99.441741
3598.000000	99.437090
3597.000000	99.440271
3596.000000	99.451690
3595.000000	99.466485
3594.000000	99.477773
3593.000000	99.480821
3592.000000	99.475978
3591.000000	99.467939
3590.000000	99.462669
3589.000000	99.463531
3588.000000	99.468226
3587.000000	99.470713
3586.000000	99.468400
3585.000000	99.465254
3584.000000	99.466386
3583.000000	99.471978
3582.000000	99.478060
3581.000000	99.481521
3580.000000	99.482749
3579.000000	99.483433
3578.000000	99.483555
3577.000000	99.481512
3576.000000	99.476749
3575.000000	99.470874
3574.000000	99.465866
3573.000000	99.462035
3572.000000	99.458256
3571.000000	99.453983
3570.000000	99.450008
3569.000000	99.447636
3568.000000	99.446771
3567.000000	99.445543
3566.000000	99.442624
3565.000000	99.439040
3564.000000	99.436411
3563.000000	99.434471
3562.000000	99.431367
3561.000000	99.426143
3560.000000	99.420307
3559.000000	99.416579
3558.000000	99.416191
3557.000000	99.417618
3556.000000	99.417756
3555.000000	99.414635
3554.000000	99.409229
3553.000000	99.404551
3552.000000	99.402408
3551.000000	99.401472
3550.000000	99.398920
3549.000000	99.393517
3548.000000	99.386601
3547.000000	99.380636
3546.000000	99.377377
3545.000000	99.377141
3544.000000	99.379053
3543.000000	99.381485
3542.000000	99.382857
3541.000000	99.382797
3540.000000	99.382397
3539.000000	99.382859
3538.000000	99.383723
3537.000000	99.382960
3536.000000	99.379232
3535.000000	99.373574
3534.000000	99.368579
3533.000000	99.365953
3532.000000	99.365164
3531.000000	99.364056
3530.000000	99.360586
3529.000000	99.354232
3528.000000	99.346302
3527.000000	99.339052
3526.000000	99.334208
3525.000000	99.332054
3524.000000	99.331706
3523.000000	99.332107
3522.000000	99.332640
3521.000000	99.332943
3520.000000	99.332577
3519.000000	99.331237
3518.000000	99.329214
3517.000000	99.327391
3516.000000	99.326640
3515.000000	99.327081
3514.000000	99.327816
3513.000000	99.327454
3512.000000	99.325114
3511.000000	99.320843
3510.000000	99.315289
3509.000000	99.309151
3508.000000	99.302876
3507.000000	99.296676
3506.000000	99.290789
3505.000000	99.285624
3504.000000	99.281661
3503.000000	99.279139
3502.000000	99.277778
3501.000000	99.276831
3500.000000	99.275444
3499.000000	99.273067
3498.000000	99.269642
3497.000000	99.265577
3496.000000	99.261558
3495.000000	99.258234
3494.000000	99.255855
3493.000000	99.254101
3492.000000	99.252260
3491.000000	99.249652
3490.000000	99.246094
3489.000000	99.242085
3488.000000	99.238455
3487.000000	99.235687
3486.000000	99.233537
3485.000000	99.231297
3484.000000	99.228406
3483.000000	99.224830
3482.000000	99.220921
3481.000000	99.217075
3480.000000	99.213476
3479.000000	99.210072
3478.000000	99.206688
3477.000000	99.203184
3476.000000	99.199571
3475.000000	99.195953
3474.000000	99.192402
3473.000000	99.188905
3472.000000	99.185389
3471.000000	99.181784
3470.000000	99.178071
3469.000000	99.174287
3468.000000	99.170507
3467.000000	99.166818
3466.000000	99.163306
3465.000000	99.160026
3464.000000	99.156951
3463.000000	99.153934
3462.000000	99.150798
3461.000000	99.147471
3460.000000	99.144029
3459.000000	99.140606
3458.000000	99.137290
3457.000000	99.134132
3456.000000	99.131219
3455.000000	99.128619
3454.000000	99.126210
3453.000000	99.123616
3452.000000	99.120416
3451.000000	99.116416
3450.000000	99.111842
3449.000000	99.107338
3448.000000	99.103643
3447.000000	99.101086
3446.000000	99.099202
3445.000000	99.096959
3444.000000	99.093631
3443.000000	99.089429
3442.000000	99.085313
3441.000000	99.082137
3440.000000	99.080024
3439.000000	99.078459
3438.000000	99.076716
3437.000000	99.074140
3436.000000	99.070200
3435.000000	99.064709
3434.000000	99.058240
3433.000000	99.052228
3432.000000	99.048260
3431.000000	99.046995
3430.000000	99.047822
3429.000000	99.049572
3428.000000	99.051563
3427.000000	99.053685
3426.000000	99.055499
3425.000000	99.055755
3424.000000	99.053303
3423.000000	99.048541
3422.000000	99.043603
3421.000000	99.040598
3420.000000	99.039729
3419.000000	99.039367
3418.000000	99.037861
3417.000000	99.034992
3416.000000	99.031730
3415.000000	99.028993
3414.000000	99.026871
3413.000000	99.024872
3412.000000	99.022578
3411.000000	99.019907
3410.000000	99.016899
3409.000000	99.013576
3408.000000	99.010171
3407.000000	99.007302
3406.000000	99.005562
3405.000000	99.004855
3404.000000	99.004412
3403.000000	99.003708
3402.000000	99.003165
3401.000000	99.003767
3400.000000	99.006079
3399.000000	99.009626
3398.000000	99.012851
3397.000000	99.013864
3396.000000	99.011750
3395.000000	99.007498
3394.000000	99.003719
3393.000000	99.002601
3392.000000	99.004090
3391.000000	99.006249
3390.000000	99.007291
3389.000000	99.007229
3388.000000	99.007308
3387.000000	99.008350
3386.000000	99.009941
3385.000000	99.011033
3384.000000	99.011043
3383.000000	99.010245
3382.000000	99.009333
3381.000000	99.008869
3380.000000	99.009019
3379.000000	99.009509
3378.000000	99.009838
3377.000000	99.009738
3376.000000	99.009534
3375.000000	99.009855
3374.000000	99.010871
3373.000000	99.011960
3372.000000	99.012269
3371.000000	99.011520
3370.000000	99.010180
3369.000000	99.009050
3368.000000	99.008886
3367.000000	99.010186
3366.000000	99.012912
3365.000000	99.016301
3364.000000	99.019312
3363.000000	99.021498
3362.000000	99.023262
3361.000000	99.025212
3360.000000	99.027425
3359.000000	99.029425
3358.000000	99.030660
3357.000000	99.030785
3356.000000	99.029755
3355.000000	99.028030
3354.000000	99.026579
3353.000000	99.026186
3352.000000	99.026724
3351.000000	99.027485
3350.000000	99.028130
3349.000000	99.028935
3348.000000	99.030175
3347.000000	99.031730
3346.000000	99.033422
3345.000000	99.035337
3344.000000	99.037444
3343.000000	99.039187
3342.000000	99.039880
3341.000000	99.039520
3340.000000	99.039013
3339.000000	99.039508
3338.000000	99.041524
3337.000000	99.044744
3336.000000	99.048318
3335.000000	99.051351
3334.000000	99.053274
3333.000000	99.053945
3332.000000	99.053615
3331.000000	99.052886
3330.000000	99.052550
3329.000000	99.053174
3328.000000	99.054752
3327.000000	99.056750
3326.000000	99.058639
3325.000000	99.060380
3324.000000	99.062271
3323.000000	99.064417
3322.000000	99.066564
3321.000000	99.068407
3320.000000	99.069926
3319.000000	99.071298
3318.000000	99.072609
3317.000000	99.073776
3316.000000	99.074742
3315.000000	99.075678
3314.000000	99.076955
3313.000000	99.078902
3312.000000	99.081575
3311.000000	99.084711
3310.000000	99.087824
3309.000000	99.090471
3308.000000	99.092480
3307.000000	99.093981
3306.000000	99.095287
3305.000000	99.096698
3304.000000	99.098342
3303.000000	99.100148
3302.000000	99.101954
3301.000000	99.103676
3300.000000	99.105425
3299.000000	99.107407
3298.000000	99.109689
3297.000000	99.112091
3296.000000	99.114351
3295.000000	99.116364
3294.000000	99.118239
3293.000000	99.120172
3292.000000	99.122298
3291.000000	99.124630
3290.000000	99.127059
3289.000000	99.129404
3288.000000	99.131566
3287.000000	99.133607
3286.000000	99.135701
3285.000000	99.137959
3284.000000	99.140353
3283.000000	99.142767
3282.000000	99.145109
3281.000000	99.147368
3280.000000	99.149583
3279.000000	99.151807
3278.000000	99.154090
3277.000000	99.156457
3276.000000	99.158888
3275.000000	99.161321
3274.000000	99.163709
3273.000000	99.166070
3272.000000	99.168472
3271.000000	99.170952
3270.000000	99.173486
3269.000000	99.176007
3268.000000	99.178475
3267.000000	99.180922
3266.000000	99.183406
3265.000000	99.185924
3264.000000	99.188392
3263.000000	99.190740
3262.000000	99.192984
3261.000000	99.195219
3260.000000	99.197539
3259.000000	99.199970
3258.000000	99.202487
3257.000000	99.205030
3256.000000	99.207523
3255.000000	99.209913
3254.000000	99.212185
3253.000000	99.214380
3252.000000	99.216598
3251.000000	99.218964
3250.000000	99.221550
3249.000000	99.224328
3248.000000	99.227159
3247.000000	99.229901
3246.000000	99.232531
3245.000000	99.235144
3244.000000	99.237855
3243.000000	99.240669
3242.000000	99.243483
3241.000000	99.246222
3240.000000	99.248932
3239.000000	99.251735
3238.000000	99.254681
3237.000000	99.257688
3236.000000	99.260612
3235.000000	99.263391
3234.000000	99.266136
3233.000000	99.269047
3232.000000	99.272214
3231.000000	99.275537
3230.000000	99.278862
3229.000000	99.282166
3228.000000	99.285507
3227.000000	99.288881
3226.000000	99.292233
3225.000000	99.295569
3224.000000	99.298941
3223.000000	99.302324
3222.000000	99.305660
3221.000000	99.309047
3220.000000	99.312710
3219.000000	99.316660
3218.000000	99.320547
3217.000000	99.324014
3216.000000	99.327157
3215.000000	99.330503
3214.000000	99.334415
3213.000000	99.338746
3212.000000	99.343050
3211.000000	99.347100
3210.000000	99.351016
3209.000000	99.354957
3208.000000	99.358923
3207.000000	99.362878
3206.000000	99.366944
3205.000000	99.371337
3204.000000	99.376086
3203.000000	99.380862
3202.000000	99.385245
3201.000000	99.389114
3200.000000	99.392724
3199.000000	99.396488
3198.000000	99.400647
3197.000000	99.405152
3196.000000	99.409718
3195.000000	99.414018
3194.000000	99.417906
3193.000000	99.421535
3192.000000	99.425244
3191.000000	99.429233
3190.000000	99.433406
3189.000000	99.437583
3188.000000	99.441755
3187.000000	99.445996
3186.000000	99.450150
3185.000000	99.453811
3184.000000	99.456745
3183.000000	99.459333
3182.000000	99.462451
3181.000000	99.466718
3180.000000	99.471874
3179.000000	99.476851
3178.000000	99.480766
3177.000000	99.483826
3176.000000	99.487101
3175.000000	99.491288
3174.000000	99.495955
3173.000000	99.500319
3172.000000	99.504584
3171.000000	99.509774
3170.000000	99.516185
3169.000000	99.522682
3168.000000	99.527899
3167.000000	99.531818
3166.000000	99.535670
3165.000000	99.540436
3164.000000	99.545813
3163.000000	99.550746
3162.000000	99.554502
3161.000000	99.557032
3160.000000	99.558690
3159.000000	99.560167
3158.000000	99.562507
3157.000000	99.566737
3156.000000	99.573284
3155.000000	99.581660
3154.000000	99.590701
3153.000000	99.599190
3152.000000	99.606317
3151.000000	99.611754
3150.000000	99.615608
3149.000000	99.618414
3148.000000	99.621016
3147.000000	99.624161
3146.000000	99.628103
3145.000000	99.632596
3144.000000	99.637333
3143.000000	99.642372
3142.000000	99.648107
3141.000000	99.654861
3140.000000	99.662510
3139.000000	99.670391
3138.000000	99.677630
3137.000000	99.683868
3136.000000	99.689653
3135.000000	99.695849
3134.000000	99.702449
3133.000000	99.708292
3132.000000	99.712407
3131.000000	99.715313
3130.000000	99.718567
3129.000000	99.723105
3128.000000	99.728574
3127.000000	99.734288
3126.000000	99.740088
3125.000000	99.745792
3124.000000	99.750430
3123.000000	99.753010
3122.000000	99.754037
3121.000000	99.755645
3120.000000	99.759621
3119.000000	99.765766
3118.000000	99.772303
3117.000000	99.777590
3116.000000	99.781327
3115.000000	99.784126
3114.000000	99.786645
3113.000000	99.789272
3112.000000	99.792231
3111.000000	99.795579
3110.000000	99.799192
3109.000000	99.803056
3108.000000	99.807503
3107.000000	99.812896
3106.000000	99.819064
3105.000000	99.825180
3104.000000	99.830283
3103.000000	99.833920
3102.000000	99.836361
3101.000000	99.838412
3100.000000	99.840918
3099.000000	99.844298
3098.000000	99.848492
3097.000000	99.853278
3096.000000	99.858443
3095.000000	99.863507
3094.000000	99.867544
3093.000000	99.869770
3092.000000	99.870413
3091.000000	99.870773
3090.000000	99.872085
3089.000000	99.874482
3088.000000	99.877245
3087.000000	99.879893
3086.000000	99.882723
3085.000000	99.886179
3084.000000	99.890105
3083.000000	99.893918
3082.000000	99.897354
3081.000000	99.900727
3080.000000	99.904345
3079.000000	99.907936
3078.000000	99.910939
3077.000000	99.913326
3076.000000	99.915845
3075.000000	99.919375
3074.000000	99.924217
3073.000000	99.929940
3072.000000	99.935770
3071.000000	99.941061
3070.000000	99.945593
3069.000000	99.949605
3068.000000	99.953421
3067.000000	99.956979
3066.000000	99.959826
3065.000000	99.961739
3064.000000	99.963269
3063.000000	99.965328
3062.000000	99.968225
3061.000000	99.971340
3060.000000	99.973821
3059.000000	99.975494
3058.000000	99.977013
3057.000000	99.979248
3056.000000	99.982621
3055.000000	99.987000
3054.000000	99.992072
3053.000000	99.997585
3052.000000	100.003074
3051.000000	100.007587
3050.000000	100.010161
3049.000000	100.010808
3048.000000	100.010954
3047.000000	100.012438
3046.000000	100.015863
3045.000000	100.020197
3044.000000	100.023944
3043.000000	100.026592
3042.000000	100.028740
3041.000000	100.031092
3040.000000	100.033706
3039.000000	100.036172
3038.000000	100.038153
3037.000000	100.039622
3036.000000	100.040771
3035.000000	100.041872
3034.000000	100.043280
3033.000000	100.045483
3032.000000	100.048978
3031.000000	100.053708
3030.000000	100.058389
3029.000000	100.060904
3028.000000	100.060030
3027.000000	100.056960
3026.000000	100.054811
3025.000000	100.055798
3024.000000	100.058991
3023.000000	100.061216
3022.000000	100.060364
3021.000000	100.057415
3020.000000	100.055182
3019.000000	100.055469
3018.000000	100.058034
3017.000000	100.061998
3016.000000	100.066980
3015.000000	100.072096
3014.000000	100.074821
3013.000000	100.072550
3012.000000	100.065505
3011.000000	100.057163
3010.000000	100.051192
3009.000000	100.048639
3008.000000	100.048475
3007.000000	100.049511
3006.000000	100.050653
3005.000000	100.050241
3004.000000	100.047069
3003.000000	100.042460
3002.000000	100.039914
3001.000000	100.041810
3000.000000	100.047018
2999.000000	100.052298
2998.000000	100.055319
2997.000000	100.055491
2996.000000	100.052421
2995.000000	100.044973
2994.000000	100.032579
2993.000000	100.017133
2992.000000	100.002872
2991.000000	99.993795
2990.000000	99.990762
2989.000000	99.990833
2988.000000	99.989723
2987.000000	99.985447
2986.000000	99.979632
2985.000000	99.975163
2984.000000	99.972812
2983.000000	99.970485
2982.000000	99.965449
2981.000000	99.956939
2980.000000	99.946844
2979.000000	99.938443
2978.000000	99.934398
2977.000000	99.935119
2976.000000	99.938418
2975.000000	99.941249
2974.000000	99.942639
2973.000000	99.944852
2972.000000	99.951262
2971.000000	99.962986
2970.000000	99.977642
2969.000000	99.991120
2968.000000	100.000429
2967.000000	100.005264
2966.000000	100.007807
2965.000000	100.011405
2964.000000	100.018565
2963.000000	100.029153
2962.000000	100.040484
2961.000000	100.049907
2960.000000	100.057438
2959.000000	100.065268
2958.000000	100.074568
2957.000000	100.083594
2956.000000	100.089551
2955.000000	100.091684
2954.000000	100.091781
2953.000000	100.092037
2952.000000	100.093351
2951.000000	100.095507
2950.000000	100.097794
2949.000000	100.099057
2948.000000	100.098230
2947.000000	100.095562
2946.000000	100.092478
2945.000000	100.089602
2944.000000	100.086048
2943.000000	100.081764
2942.000000	100.079426
2941.000000	100.081911
2940.000000	100.087967
2939.000000	100.092307
2938.000000	100.090897
2937.000000	100.084863
2936.000000	100.078446
2935.000000	100.074247
2934.000000	100.071594
2933.000000	100.068787
2932.000000	100.065443
2931.000000	100.062663
2930.000000	100.061866
2929.000000	100.063547
2928.000000	100.066498
2927.000000	100.068325
2926.000000	100.067396
2925.000000	100.064347
2924.000000	100.061259
2923.000000	100.059817
2922.000000	100.061054
2921.000000	100.066372
2920.000000	100.077214
2919.000000	100.093102
2918.000000	100.110646
2917.000000	100.125279
2916.000000	100.134078
2915.000000	100.136855
2914.000000	100.135603
2913.000000	100.133625
2912.000000	100.134353
2911.000000	100.139515
2910.000000	100.147714
2909.000000	100.155046
2908.000000	100.157920
2907.000000	100.155734
2906.000000	100.151157
2905.000000	100.148040
2904.000000	100.148652
2903.000000	100.152516
2902.000000	100.157418
2901.000000	100.161285
2900.000000	100.163495
2899.000000	100.164900
2898.000000	100.166841
2897.000000	100.170072
2896.000000	100.174368
2895.000000	100.179075
2894.000000	100.183897
2893.000000	100.188999
2892.000000	100.194339
2891.000000	100.199347
2890.000000	100.203524
2889.000000	100.207046
2888.000000	100.210456
2887.000000	100.214001
2886.000000	100.217677
2885.000000	100.221744
2884.000000	100.226696
2883.000000	100.232618
2882.000000	100.238910
2881.000000	100.244728
2880.000000	100.249484
2879.000000	100.252925
2878.000000	100.255196
2877.000000	100.257164
2876.000000	100.260229
2875.000000	100.265104
2874.000000	100.270759
2873.000000	100.275088
2872.000000	100.277102
2871.000000	100.278269
2870.000000	100.281364
2869.000000	100.287923
2868.000000	100.296860
2867.000000	100.305462
2866.000000	100.311882
2865.000000	100.316343
2864.000000	100.319950
2863.000000	100.322849
2862.000000	100.324368
2861.000000	100.324855
2860.000000	100.326046
2859.000000	100.328938
2858.000000	100.332304
2857.000000	100.334424
2856.000000	100.335825
2855.000000	100.339005
2854.000000	100.345665
2853.000000	100.355448
2852.000000	100.367159
2851.000000	100.379714
2850.000000	100.391578
2849.000000	100.400758
2848.000000	100.406565
2847.000000	100.410917
2846.000000	100.416793
2845.000000	100.425125
2844.000000	100.433780
2843.000000	100.439713
2842.000000	100.441709
2841.000000	100.441194
2840.000000	100.441158
2839.000000	100.444163
2838.000000	100.450830
2837.000000	100.459646
2836.000000	100.468191
2835.000000	100.474908
2834.000000	100.479773
2833.000000	100.483529
2832.000000	100.486748
2831.000000	100.489717
2830.000000	100.492662
2829.000000	100.495642
2828.000000	100.498404
2827.000000	100.500788
2826.000000	100.503149
2825.000000	100.505902
2824.000000	100.508758
2823.000000	100.511049
2822.000000	100.512933
2821.000000	100.515702
2820.000000	100.520462
2819.000000	100.526818
2818.000000	100.533104
2817.000000	100.537806
2816.000000	100.540564
2815.000000	100.542056
2814.000000	100.543483
2813.000000	100.545968
2812.000000	100.549922
2811.000000	100.554823
2810.000000	100.559551
2809.000000	100.563263
2808.000000	100.565932
2807.000000	100.568102
2806.000000	100.570321
2805.000000	100.572841
2804.000000	100.575665
2803.000000	100.578638
2802.000000	100.581510
2801.000000	100.584182
2800.000000	100.586889
2799.000000	100.589984
2798.000000	100.593482
2797.000000	100.596966
2796.000000	100.600013
2795.000000	100.602665
2794.000000	100.605326
2793.000000	100.608275
2792.000000	100.611445
2791.000000	100.614684
2790.000000	100.618034
2789.000000	100.621661
2788.000000	100.625524
2787.000000	100.629187
2786.000000	100.632152
2785.000000	100.634325
2784.000000	100.636111
2783.000000	100.638059
2782.000000	100.640415
2781.000000	100.643075
2780.000000	100.645825
2779.000000	100.648550
2778.000000	100.651317
2777.000000	100.654291
2776.000000	100.657538
2775.000000	100.660861
2774.000000	100.663878
2773.000000	100.666322
2772.000000	100.668246
2771.000000	100.669966
2770.000000	100.671917
2769.000000	100.674479
2768.000000	100.677732
2767.000000	100.681277
2766.000000	100.684408
2765.000000	100.686730
2764.000000	100.688503
2763.000000	100.690309
2762.000000	100.692418
2761.000000	100.694634
2760.000000	100.696690
2759.000000	100.698522
2758.000000	100.700158
2757.000000	100.701572
2756.000000	100.702814
2755.000000	100.704210
2754.000000	100.706210
2753.000000	100.708977
2752.000000	100.712200
2751.000000	100.715335
2750.000000	100.718013
2749.000000	100.720215
2748.000000	100.722127
2747.000000	100.723920
2746.000000	100.725658
2745.000000	100.727323
2744.000000	100.728850
2743.000000	100.730207
2742.000000	100.731508
2741.000000	100.733005
2740.000000	100.734876
2739.000000	100.737037
2738.000000	100.739165
2737.000000	100.740980
2736.000000	100.742457
2735.000000	100.743727
2734.000000	100.744941
2733.000000	100.746194
2732.000000	100.747527
2731.000000	100.748918
2730.000000	100.750299
2729.000000	100.751630
2728.000000	100.752931
2727.000000	100.754223
2726.000000	100.755486
2725.000000	100.756690
2724.000000	100.757834
2723.000000	100.758929
2722.000000	100.759975
2721.000000	100.760991
2720.000000	100.762021
2719.000000	100.763084
2718.000000	100.764167
2717.000000	100.765242
2716.000000	100.766278
2715.000000	100.767258
2714.000000	100.768179
2713.000000	100.769057
2712.000000	100.769899
2711.000000	100.770705
2710.000000	100.771467
2709.000000	100.772176
2708.000000	100.772826
2707.000000	100.773420
2706.000000	100.773964
2705.000000	100.774468
2704.000000	100.774945
2703.000000	100.775404
2702.000000	100.775851
2701.000000	100.776287
2700.000000	100.776709
2699.000000	100.777118
2698.000000	100.777515
2697.000000	100.777892
2696.000000	100.778240
2695.000000	100.778554
2694.000000	100.778840
2693.000000	100.779131
2692.000000	100.779462
2691.000000	100.779845
2690.000000	100.780248
2689.000000	100.780632
2688.000000	100.780995
2687.000000	100.781364
2686.000000	100.781758
2685.000000	100.782168
2684.000000	100.782561
2683.000000	100.782900
2682.000000	100.783171
2681.000000	100.783393
2680.000000	100.783618
2679.000000	100.783902
2678.000000	100.784276
2677.000000	100.784715
2676.000000	100.785106
2675.000000	100.785315
2674.000000	100.785302
2673.000000	100.785169
2672.000000	100.785106
2671.000000	100.785198
2670.000000	100.785356
2669.000000	100.785414
2668.000000	100.785310
2667.000000	100.785130
2666.000000	100.784974
2665.000000	100.784888
2664.000000	100.784962
2663.000000	100.785327
2662.000000	100.785979
2661.000000	100.786651
2660.000000	100.787032
2659.000000	100.787091
2658.000000	100.787092
2657.000000	100.787308
2656.000000	100.787708
2655.000000	100.788024
2654.000000	100.788037
2653.000000	100.787742
2652.000000	100.787318
2651.000000	100.786982
2650.000000	100.786835
2649.000000	100.786821
2648.000000	100.786801
2647.000000	100.786700
2646.000000	100.786568
2645.000000	100.786484
2644.000000	100.786465
2643.000000	100.786483
2642.000000	100.786493
2641.000000	100.786404
2640.000000	100.786077
2639.000000	100.785468
2638.000000	100.784748
2637.000000	100.784221
2636.000000	100.784073
2635.000000	100.784232
2634.000000	100.784455
2633.000000	100.784550
2632.000000	100.784488
2631.000000	100.784409
2630.000000	100.784528
2629.000000	100.784946
2628.000000	100.785475
2627.000000	100.785698
2626.000000	100.785273
2625.000000	100.784188
2624.000000	100.782799
2623.000000	100.781671
2622.000000	100.781234
2621.000000	100.781576
2620.000000	100.782359
2619.000000	100.783044
2618.000000	100.783354
2617.000000	100.783411
2616.000000	100.783491
2615.000000	100.783669
2614.000000	100.783760
2613.000000	100.783655
2612.000000	100.783624
2611.000000	100.784125
2610.000000	100.785251
2609.000000	100.786475
2608.000000	100.787097
2607.000000	100.786941
2606.000000	100.786442
2605.000000	100.786055
2604.000000	100.785754
2603.000000	100.785258
2602.000000	100.784519
2601.000000	100.783832
2600.000000	100.783537
2599.000000	100.783775
2598.000000	100.784470
2597.000000	100.785399
2596.000000	100.786228
2595.000000	100.786726
2594.000000	100.787029
2593.000000	100.787553
2592.000000	100.788558
2591.000000	100.789809
2590.000000	100.790730
2589.000000	100.790909
2588.000000	100.790355
2587.000000	100.789370
2586.000000	100.788332
2585.000000	100.787592
2584.000000	100.787392
2583.000000	100.787687
2582.000000	100.788080
2581.000000	100.788219
2580.000000	100.788235
2579.000000	100.788612
2578.000000	100.789601
2577.000000	100.790914
2576.000000	100.791916
2575.000000	100.792180
2574.000000	100.791726
2573.000000	100.790893
2572.000000	100.790132
2571.000000	100.789791
2570.000000	100.789919
2569.000000	100.790233
2568.000000	100.790361
2567.000000	100.790241
2566.000000	100.790177
2565.000000	100.790449
2564.000000	100.790999
2563.000000	100.791555
2562.000000	100.791931
2561.000000	100.792103
2560.000000	100.792137
2559.000000	100.792167
2558.000000	100.792417
2557.000000	100.793022
2556.000000	100.793888
2555.000000	100.794761
2554.000000	100.795461
2553.000000	100.796004
2552.000000	100.796488
2551.000000	100.796971
2550.000000	100.797474
2549.000000	100.798024
2548.000000	100.798658
2547.000000	100.799381
2546.000000	100.800169
2545.000000	100.800998
2544.000000	100.801846
2543.000000	100.802688
2542.000000	100.803496
2541.000000	100.804264
2540.000000	100.805013
2539.000000	100.805774
2538.000000	100.806571
2537.000000	100.807414
2536.000000	100.808298
2535.000000	100.809215
2534.000000	100.810160
2533.000000	100.811137
2532.000000	100.812152
2531.000000	100.813206
2530.000000	100.814293
2529.000000	100.815397
2528.000000	100.816504
2527.000000	100.817599
2526.000000	100.818682
2525.000000	100.819761
2524.000000	100.820847
2523.000000	100.821948
2522.000000	100.823061
2521.000000	100.824176
2520.000000	100.825281
2519.000000	100.826372
2518.000000	100.827455
2517.000000	100.828541
2516.000000	100.829641
2515.000000	100.830758
2514.000000	100.831884
2513.000000	100.833014
2512.000000	100.834146
2511.000000	100.835286
2510.000000	100.836445
2509.000000	100.837632
2508.000000	100.838857
2507.000000	100.840111
2506.000000	100.841374
2505.000000	100.842622
2504.000000	100.843849
2503.000000	100.845065
2502.000000	100.846296
2501.000000	100.847568
2500.000000	100.848912
2499.000000	100.850362
2498.000000	100.851925
2497.000000	100.853566
2496.000000	100.855219
2495.000000	100.856809
2494.000000	100.858285
2493.000000	100.859657
2492.000000	100.860984
2491.000000	100.862331
2490.000000	100.863724
2489.000000	100.865145
2488.000000	100.866574
2487.000000	100.868002
2486.000000	100.869424
2485.000000	100.870838
2484.000000	100.872264
2483.000000	100.873729
2482.000000	100.875232
2481.000000	100.876725
2480.000000	100.878149
2479.000000	100.879513
2478.000000	100.880928
2477.000000	100.882533
2476.000000	100.884347
2475.000000	100.886213
2474.000000	100.887909
2473.000000	100.889357
2472.000000	100.890657
2471.000000	100.891975
2470.000000	100.893388
2469.000000	100.894888
2468.000000	100.896437
2467.000000	100.897994
2466.000000	100.899512
2465.000000	100.900988
2464.000000	100.902514
2463.000000	100.904228
2462.000000	100.906158
2461.000000	100.908148
2460.000000	100.909981
2459.000000	100.911580
2458.000000	100.913045
2457.000000	100.914516
2456.000000	100.916012
2455.000000	100.917444
2454.000000	100.918736
2453.000000	100.919886
2452.000000	100.920934
2451.000000	100.921960
2450.000000	100.923123
2449.000000	100.924618
2448.000000	100.926506
2447.000000	100.928570
2446.000000	100.930406
2445.000000	100.931756
2444.000000	100.932641
2443.000000	100.933283
2442.000000	100.933937
2441.000000	100.934804
2440.000000	100.936029
2439.000000	100.937632
2438.000000	100.939450
2437.000000	100.941209
2436.000000	100.942673
2435.000000	100.943756
2434.000000	100.944616
2433.000000	100.945636
2432.000000	100.947158
2431.000000	100.949202
2430.000000	100.951462
2429.000000	100.953633
2428.000000	100.955570
2427.000000	100.957110
2426.000000	100.958029
2425.000000	100.958329
2424.000000	100.958419
2423.000000	100.958798
2422.000000	100.959651
2421.000000	100.960853
2420.000000	100.962147
2419.000000	100.963224
2418.000000	100.963817
2417.000000	100.963903
2416.000000	100.963780
2415.000000	100.963868
2414.000000	100.964394
2413.000000	100.965354
2412.000000	100.966611
2411.000000	100.967920
2410.000000	100.968994
2409.000000	100.969731
2408.000000	100.970336
2407.000000	100.971084
2406.000000	100.971964
2405.000000	100.972717
2404.000000	100.973213
2403.000000	100.973576
2402.000000	100.973964
2401.000000	100.974383
2400.000000	100.974780
2399.000000	100.975153
2398.000000	100.975524
2397.000000	100.975868
2396.000000	100.976133
2395.000000	100.976308
2394.000000	100.976439
2393.000000	100.976588
2392.000000	100.976785
2391.000000	100.977003
2390.000000	100.977164
2389.000000	100.977203
2388.000000	100.977144
2387.000000	100.977051
2386.000000	100.976977
2385.000000	100.976925
2384.000000	100.976876
2383.000000	100.976812
2382.000000	100.976720
2381.000000	100.976598
2380.000000	100.976452
2379.000000	100.976283
2378.000000	100.976090
2377.000000	100.975869
2376.000000	100.975624
2375.000000	100.975369
2374.000000	100.975116
2373.000000	100.974866
2372.000000	100.974604
2371.000000	100.974309
2370.000000	100.973960
2369.000000	100.973549
2368.000000	100.973083
2367.000000	100.972578
2366.000000	100.972037
2365.000000	100.971445
2364.000000	100.970794
2363.000000	100.970093
2362.000000	100.969370
2361.000000	100.968651
2360.000000	100.967949
2359.000000	100.967263
2358.000000	100.966587
2357.000000	100.965927
2356.000000	100.965283
2355.000000	100.964641
2354.000000	100.963985
2353.000000	100.963299
2352.000000	100.962564
2351.000000	100.961774
2350.000000	100.960939
2349.000000	100.960073
2348.000000	100.959200
2347.000000	100.958334
2346.000000	100.957471
2345.000000	100.956589
2344.000000	100.955666
2343.000000	100.954694
2342.000000	100.953687
2341.000000	100.952668
2340.000000	100.951655
2339.000000	100.950655
2338.000000	100.949662
2337.000000	100.948666
2336.000000	100.947666
2335.000000	100.946667
2334.000000	100.945675
2333.000000	100.944684
2332.000000	100.943675
2331.000000	100.942631
2330.000000	100.941551
2329.000000	100.940450
2328.000000	100.939348
2327.000000	100.938257
2326.000000	100.937181
2325.000000	100.936111
2324.000000	100.935038
2323.000000	100.933962
2322.000000	100.932887
2321.000000	100.931812
2320.000000	100.930731
2319.000000	100.929637
2318.000000	100.928522
2317.000000	100.927381
2316.000000	100.926208
2315.000000	100.924999
2314.000000	100.923755
2313.000000	100.922484
2312.000000	100.921192
2311.000000	100.919886
2310.000000	100.918578
2309.000000	100.917266
2308.000000	100.915932
2307.000000	100.914589
2306.000000	100.913306
2305.000000	100.912111
2304.000000	100.910859
2303.000000	100.909400
2302.000000	100.907735
2301.000000	100.906053
2300.000000	100.904528
2299.000000	100.903149
2298.000000	100.901785
2297.000000	100.900342
2296.000000	100.898849
2295.000000	100.897423
2294.000000	100.896160
2293.000000	100.895003
2292.000000	100.893719
2291.000000	100.892112
2290.000000	100.890281
2289.000000	100.888590
2288.000000	100.887270
2287.000000	100.886090
2286.000000	100.884476
2285.000000	100.882039
2284.000000	100.878981
2283.000000	100.876036
2282.000000	100.873754
2281.000000	100.871981
2280.000000	100.870106
2279.000000	100.867844
2278.000000	100.865502
2277.000000	100.863444
2276.000000	100.861694
2275.000000	100.860175
2274.000000	100.858969
2273.000000	100.857969
2272.000000	100.856557
2271.000000	100.854107
2270.000000	100.850823
2269.000000	100.847782
2268.000000	100.845950
2267.000000	100.845434
2266.000000	100.845701
2265.000000	100.846145
2264.000000	100.846336
2263.000000	100.845846
2262.000000	100.844306
2261.000000	100.841757
2260.000000	100.838816
2259.000000	100.836240
2258.000000	100.834171
2257.000000	100.832067
2256.000000	100.829545
2255.000000	100.827163
2254.000000	100.825994
2253.000000	100.826275
2252.000000	100.826763
2251.000000	100.825803
2250.000000	100.822943
2249.000000	100.819210
2248.000000	100.815915
2247.000000	100.813409
2246.000000	100.811139
2245.000000	100.808545
2244.000000	100.805717
2243.000000	100.803410
2242.000000	100.802575
2241.000000	100.803659
2240.000000	100.806099
2239.000000	100.808416
2238.000000	100.809217
2237.000000	100.808202
2236.000000	100.806203
2235.000000	100.804421
2234.000000	100.803562
2233.000000	100.803569
2232.000000	100.803932
2231.000000	100.804190
2230.000000	100.804242
2229.000000	100.804279
2228.000000	100.804431
2227.000000	100.804503
2226.000000	100.804068
2225.000000	100.802759
2224.000000	100.800478
2223.000000	100.797459
2222.000000	100.794342
2221.000000	100.792094
2220.000000	100.791556
2219.000000	100.792869
2218.000000	100.795385
2217.000000	100.798174
2216.000000	100.800558
2215.000000	100.802185
2214.000000	100.802912
2213.000000	100.802926
2212.000000	100.802882
2211.000000	100.803476
2210.000000	100.804663
2209.000000	100.805535
2208.000000	100.805245
2207.000000	100.804015
2206.000000	100.802984
2205.000000	100.803021
2204.000000	100.803935
2203.000000	100.804872
2202.000000	100.805318
2201.000000	100.805565
2200.000000	100.806243
2199.000000	100.807595
2198.000000	100.809323
2197.000000	100.810976
2196.000000	100.812337
2195.000000	100.813377
2194.000000	100.814005
2193.000000	100.814113
2192.000000	100.813919
2191.000000	100.814031
2190.000000	100.814908
2189.000000	100.816302
2188.000000	100.817395
2187.000000	100.817579
2186.000000	100.816965
2185.000000	100.816220
2184.000000	100.815992
2183.000000	100.816473
2182.000000	100.817402
2181.000000	100.818303
2180.000000	100.818831
2179.000000	100.819065
2178.000000	100.819496
2177.000000	100.820633
2176.000000	100.822512
2175.000000	100.824575
2174.000000	100.826095
2173.000000	100.826696
2172.000000	100.826602
2171.000000	100.826389
2170.000000	100.826408
2169.000000	100.826507
2168.000000	100.826333
2167.000000	100.825885
2166.000000	100.825566
2165.000000	100.825601
2164.000000	100.825685
2163.000000	100.825524
2162.000000	100.825536
2161.000000	100.826514
2160.000000	100.828581
2159.000000	100.830827
2158.000000	100.832157
2157.000000	100.832308
2156.000000	100.831843
2155.000000	100.831549
2154.000000	100.831975
2153.000000	100.833304
2152.000000	100.835248
2151.000000	100.837138
2150.000000	100.838395
2149.000000	100.838919
2148.000000	100.838972
2147.000000	100.838903
2146.000000	100.839099
2145.000000	100.839928
2144.000000	100.841378
2143.000000	100.842950
2142.000000	100.844300
2141.000000	100.845805
2140.000000	100.848052
2139.000000	100.851010
2138.000000	100.854184
2137.000000	100.857394
2136.000000	100.860785
2135.000000	100.864016
2134.000000	100.866163
2133.000000	100.866786
2132.000000	100.866672
2131.000000	100.867273
2130.000000	100.869344
2129.000000	100.872564
2128.000000	100.876073
2127.000000	100.879119
2126.000000	100.881286
2125.000000	100.882487
2124.000000	100.882974
2123.000000	100.883263
2122.000000	100.883891
2121.000000	100.885237
2120.000000	100.887474
2119.000000	100.890461
2118.000000	100.893646
2117.000000	100.896333
2116.000000	100.898267
2115.000000	100.899903
2114.000000	100.902019
2113.000000	100.905020
2112.000000	100.908671
2111.000000	100.912361
2110.000000	100.915560
2109.000000	100.918053
2108.000000	100.919904
2107.000000	100.921377
2106.000000	100.922891
2105.000000	100.924873
2104.000000	100.927456
2103.000000	100.930296
2102.000000	100.932813
2101.000000	100.934702
2100.000000	100.936134
2099.000000	100.937463
2098.000000	100.938812
2097.000000	100.940036
2096.000000	100.941030
2095.000000	100.941926
2094.000000	100.943086
2093.000000	100.944980
2092.000000	100.947912
2091.000000	100.951479
2090.000000	100.954388
2089.000000	100.955465
2088.000000	100.954893
2087.000000	100.954291
2086.000000	100.955043
2085.000000	100.956936
2084.000000	100.958925
2083.000000	100.960728
2082.000000	100.962899
2081.000000	100.965433
2080.000000	100.967353
2079.000000	100.968065
2078.000000	100.968345
2077.000000	100.969362
2076.000000	100.971121
2075.000000	100.972543
2074.000000	100.972864
2073.000000	100.972375
2072.000000	100.971875
2071.000000	100.971967
2070.000000	100.972981
2069.000000	100.974947
2068.000000	100.977232
2067.000000	100.978494
2066.000000	100.977535
2065.000000	100.974361
2064.000000	100.970438
2063.000000	100.967867
2062.000000	100.968137
2061.000000	100.971294
2060.000000	100.975832
2059.000000	100.979474
2058.000000	100.980521
2057.000000	100.978706
2056.000000	100.975057
2055.000000	100.971193
2054.000000	100.968529
2053.000000	100.967567
2052.000000	100.967569
2051.000000	100.967175
2050.000000	100.965845
2049.000000	100.964617
2048.000000	100.964937
2047.000000	100.966614
2046.000000	100.967455
2045.000000	100.965365
2044.000000	100.960394
2043.000000	100.954558
2042.000000	100.949880
2041.000000	100.946709
2040.000000	100.944025
2039.000000	100.940884
2038.000000	100.937265
2037.000000	100.933719
2036.000000	100.930634
2035.000000	100.927937
2034.000000	100.925297
2033.000000	100.922449
2032.000000	100.919530
2031.000000	100.917264
2030.000000	100.916491
2029.000000	100.917109
2028.000000	100.917646
2027.000000	100.916494
2026.000000	100.913569
2025.000000	100.910220
2024.000000	100.907528
2023.000000	100.905268
2022.000000	100.902752
2021.000000	100.899887
2020.000000	100.896878
2019.000000	100.893554
2018.000000	100.889802
2017.000000	100.886292
2016.000000	100.883970
2015.000000	100.882979
2014.000000	100.882597
2013.000000	100.881961
2012.000000	100.880326
2011.000000	100.877016
2010.000000	100.871993
2009.000000	100.866501
2008.000000	100.862232
2007.000000	100.859547
2006.000000	100.857314
2005.000000	100.854681
2004.000000	100.852329
2003.000000	100.851361
2002.000000	100.851667
2001.000000	100.851906
2000.000000	100.850802
1999.000000	100.848037
1998.000000	100.844270
1997.000000	100.840791
1996.000000	100.838715
1995.000000	100.838058
1994.000000	100.837753
1993.000000	100.836951
1992.000000	100.835979
1991.000000	100.835524
1990.000000	100.835490
1989.000000	100.835326
1988.000000	100.834878
1987.000000	100.834188
1986.000000	100.832876
1985.000000	100.830577
1984.000000	100.827878
1983.000000	100.825993
1982.000000	100.825420
1981.000000	100.825609
1980.000000	100.825886
1979.000000	100.826128
1978.000000	100.826292
1977.000000	100.825982
1976.000000	100.824931
1975.000000	100.823491
1974.000000	100.822286
1973.000000	100.821552
1972.000000	100.821015
1971.000000	100.820270
1970.000000	100.819139
1969.000000	100.817826
1968.000000	100.816810
1967.000000	100.816359
1966.000000	100.816176
1965.000000	100.815731
1964.000000	100.814907
1963.000000	100.814132
1962.000000	100.813825
1961.000000	100.813775
1960.000000	100.813266
1959.000000	100.811794
1958.000000	100.809438
1957.000000	100.806820
1956.000000	100.804922
1955.000000	100.804488
1954.000000	100.805171
1953.000000	100.805482
1952.000000	100.804249
1951.000000	100.802003
1950.000000	100.800530
1949.000000	100.800999
1948.000000	100.802724
1947.000000	100.803768
1946.000000	100.802658
1945.000000	100.799531
1944.000000	100.795829
1943.000000	100.792924
1942.000000	100.790898
1941.000000	100.788947
1940.000000	100.786760
1939.000000	100.784658
1938.000000	100.782762
1937.000000	100.780908
1936.000000	100.779097
1935.000000	100.777282
1934.000000	100.774922
1933.000000	100.771722
1932.000000	100.768829
1931.000000	100.767971
1930.000000	100.769158
1929.000000	100.770331
1928.000000	100.769919
1927.000000	100.768869
1926.000000	100.769164
1925.000000	100.771086
1924.000000	100.772781
1923.000000	100.772118
1922.000000	100.768220
1921.000000	100.761552
1920.000000	100.753437
1919.000000	100.745850
1918.000000	100.740829
1917.000000	100.738760
1916.000000	100.738041
1915.000000	100.736664
1914.000000	100.732923
1913.000000	100.725662
1912.000000	100.715446
1911.000000	100.705058
1910.000000	100.697481
1909.000000	100.692873
1908.000000	100.688667
1907.000000	100.683069
1906.000000	100.676931
1905.000000	100.672022
1904.000000	100.668927
1903.000000	100.667017
1902.000000	100.665016
1901.000000	100.660791
1900.000000	100.652674
1899.000000	100.642357
1898.000000	100.634507
1897.000000	100.631726
1896.000000	100.631067
1895.000000	100.627547
1894.000000	100.620444
1893.000000	100.613249
1892.000000	100.607985
1891.000000	100.602924
1890.000000	100.596046
1889.000000	100.587960
1888.000000	100.580610
1887.000000	100.575248
1886.000000	100.572438
1885.000000	100.572229
1884.000000	100.573375
1883.000000	100.573874
1882.000000	100.573285
1881.000000	100.572996
1880.000000	100.573601
1879.000000	100.573689
1878.000000	100.571977
1877.000000	100.569265
1876.000000	100.566856
1875.000000	100.563980
1874.000000	100.558749
1873.000000	100.551316
1872.000000	100.544490
1871.000000	100.541655
1870.000000	100.545245
1869.000000	100.555554
1868.000000	100.569356
1867.000000	100.582068
1866.000000	100.591371
1865.000000	100.596721
1864.000000	100.597805
1863.000000	100.595247
1862.000000	100.591868
1861.000000	100.591862
1860.000000	100.597676
1859.000000	100.607983
1858.000000	100.619136
1857.000000	100.628361
1856.000000	100.635427
1855.000000	100.641867
1854.000000	100.649209
1853.000000	100.657746
1852.000000	100.666494
1851.000000	100.674105
1850.000000	100.679612
1849.000000	100.683027
1848.000000	100.685660
1847.000000	100.689211
1846.000000	100.694308
1845.000000	100.700223
1844.000000	100.705959
1843.000000	100.711435
1842.000000	100.717634
1841.000000	100.724580
1840.000000	100.730299
1839.000000	100.732991
1838.000000	100.733339
1837.000000	100.734174
1836.000000	100.737418
1835.000000	100.741793
1834.000000	100.743922
1833.000000	100.741528
1832.000000	100.735914
1831.000000	100.732081
1830.000000	100.734869
1829.000000	100.743180
1828.000000	100.751226
1827.000000	100.755056
1826.000000	100.754690
1825.000000	100.752777
1824.000000	100.751949
1823.000000	100.752810
1822.000000	100.754836
1821.000000	100.757643
1820.000000	100.760927
1819.000000	100.763716
1818.000000	100.764545
1817.000000	100.762829
1816.000000	100.759542
1815.000000	100.756540
1814.000000	100.755368
1813.000000	100.756224
1812.000000	100.757730
1811.000000	100.757910
1810.000000	100.756379
1809.000000	100.755077
1808.000000	100.755780
1807.000000	100.758212
1806.000000	100.761258
1805.000000	100.764352
1804.000000	100.766960
1803.000000	100.768186
1802.000000	100.767955
1801.000000	100.767386
1800.000000	100.766827
1799.000000	100.764886
1798.000000	100.761241
1797.000000	100.758582
1796.000000	100.759680
1795.000000	100.763984
1794.000000	100.768478
1793.000000	100.771730
1792.000000	100.775113
1791.000000	100.779089
1790.000000	100.782877
1789.000000	100.787292
1788.000000	100.793745
1787.000000	100.801552
1786.000000	100.807725
1785.000000	100.810266
1784.000000	100.810924
1783.000000	100.813178
1782.000000	100.818253
1781.000000	100.824646
1780.000000	100.830947
1779.000000	100.837206
1778.000000	100.843578
1777.000000	100.849196
1776.000000	100.853023
1775.000000	100.855311
1774.000000	100.857469
1773.000000	100.861708
1772.000000	100.869316
1771.000000	100.877934
1770.000000	100.884022
1769.000000	100.886133
1768.000000	100.885014
1767.000000	100.883427
1766.000000	100.884504
1765.000000	100.889746
1764.000000	100.898528
1763.000000	100.908350
1762.000000	100.915793
1761.000000	100.919227
1760.000000	100.920942
1759.000000	100.924195
1758.000000	100.929416
1757.000000	100.934798
1756.000000	100.938945
1755.000000	100.942040
1754.000000	100.943997
1753.000000	100.943126
1752.000000	100.938396
1751.000000	100.932160
1750.000000	100.928469
1749.000000	100.929510
1748.000000	100.934854
1747.000000	100.941887
1746.000000	100.946801
1745.000000	100.947253
1744.000000	100.944623
1743.000000	100.942272
1742.000000	100.941481
1741.000000	100.941235
1740.000000	100.941634
1739.000000	100.944080
1738.000000	100.947786
1737.000000	100.949609
1736.000000	100.946322
1735.000000	100.937852
1734.000000	100.929439
1733.000000	100.923624
1732.000000	100.919090
1731.000000	100.916960
1730.000000	100.918662
1729.000000	100.922999
1728.000000	100.926756
1727.000000	100.927830
1726.000000	100.926221
1725.000000	100.922748
1724.000000	100.918833
1723.000000	100.915967
1722.000000	100.914864
1721.000000	100.914896
1720.000000	100.914219
1719.000000	100.910609
1718.000000	100.903178
1717.000000	100.892785
1716.000000	100.881400
1715.000000	100.871459
1714.000000	100.864063
1713.000000	100.858562
1712.000000	100.853704
1711.000000	100.848486
1710.000000	100.842143
1709.000000	100.833825
1708.000000	100.823542
1707.000000	100.813342
1706.000000	100.806681
1705.000000	100.805100
1704.000000	100.806382
1703.000000	100.807281
1702.000000	100.803727
1701.000000	100.791725
1700.000000	100.773861
1699.000000	100.757813
1698.000000	100.747948
1697.000000	100.742533
1696.000000	100.736814
1695.000000	100.726908
1694.000000	100.713542
1693.000000	100.700153
1692.000000	100.688043
1691.000000	100.677104
1690.000000	100.667054
1689.000000	100.657262
1688.000000	100.647276
1687.000000	100.637125
1686.000000	100.625426
1685.000000	100.610928
1684.000000	100.595777
1683.000000	100.581668
1682.000000	100.569891
1681.000000	100.560030
1680.000000	100.549107
1679.000000	100.536368
1678.000000	100.523419
1677.000000	100.511509
1676.000000	100.500817
1675.000000	100.491420
1674.000000	100.482786
1673.000000	100.473659
1672.000000	100.462452
1671.000000	100.447713
1670.000000	100.431082
1669.000000	100.417274
1668.000000	100.409276
1667.000000	100.405879
1666.000000	100.402857
1665.000000	100.395857
1664.000000	100.383171
1663.000000	100.367340
1662.000000	100.353087
1661.000000	100.342680
1660.000000	100.335589
1659.000000	100.330320
1658.000000	100.325634
1657.000000	100.321610
1656.000000	100.319482
1655.000000	100.318008
1654.000000	100.311957
1653.000000	100.296488
1652.000000	100.273967
1651.000000	100.256656
1650.000000	100.248775
1649.000000	100.245428
1648.000000	100.244290
1647.000000	100.245156
1646.000000	100.244794
1645.000000	100.239058
1644.000000	100.229599
1643.000000	100.220152
1642.000000	100.213450
1641.000000	100.210584
1640.000000	100.211242
1639.000000	100.214026
1638.000000	100.215428
1637.000000	100.210057
1636.000000	100.196887
1635.000000	100.182909
1634.000000	100.175500
1633.000000	100.175678
1632.000000	100.180390
1631.000000	100.187643
1630.000000	100.196906
1629.000000	100.206410
1628.000000	100.213252
1627.000000	100.216405
1626.000000	100.217537
1625.000000	100.218270
1624.000000	100.219567
1623.000000	100.222651
1622.000000	100.227254
1621.000000	100.231876
1620.000000	100.236548
1619.000000	100.242790
1618.000000	100.251371
1617.000000	100.259986
1616.000000	100.264171
1615.000000	100.264773
1614.000000	100.267383
1613.000000	100.273403
1612.000000	100.280319
1611.000000	100.287557
1610.000000	100.297041
1609.000000	100.307750
1608.000000	100.314311
1607.000000	100.313903
1606.000000	100.310764
1605.000000	100.311280
1604.000000	100.317586
1603.000000	100.327456
1602.000000	100.338159
1601.000000	100.348734
1600.000000	100.359307
1599.000000	100.369648
1598.000000	100.379188
1597.000000	100.388077
1596.000000	100.397409
1595.000000	100.408220
1594.000000	100.420445
1593.000000	100.432808
1592.000000	100.443663
1591.000000	100.451882
1590.000000	100.457440
1589.000000	100.461419
1588.000000	100.465364
1587.000000	100.470411
1586.000000	100.476870
1585.000000	100.484493
1584.000000	100.493072
1583.000000	100.502508
1582.000000	100.511960
1581.000000	100.520179
1580.000000	100.527128
1579.000000	100.534055
1578.000000	100.541562
1577.000000	100.548887
1576.000000	100.555328
1575.000000	100.561432
1574.000000	100.568842
1573.000000	100.578040
1572.000000	100.587537
1571.000000	100.595373
1570.000000	100.600607
1569.000000	100.603377
1568.000000	100.605139
1567.000000	100.608283
1566.000000	100.613608
1565.000000	100.619421
1564.000000	100.623431
1563.000000	100.624852
1562.000000	100.624169
1561.000000	100.621627
1560.000000	100.619530
1559.000000	100.626466
1558.000000	100.639629
1557.000000	100.649873
1556.000000	100.658253
1555.000000	100.665786
1554.000000	100.671999
1553.000000	100.677045
1552.000000	100.681705
1551.000000	100.686557
1550.000000	100.690726
1549.000000	100.693283
1548.000000	100.694503
1547.000000	100.695739
1546.000000	100.698085
1545.000000	100.702138
1544.000000	100.707520
1543.000000	100.712556
1542.000000	100.715635
1541.000000	100.717183
1540.000000	100.719529
1539.000000	100.722409
1538.000000	100.724614
1537.000000	100.726304
1536.000000	100.727007
1535.000000	100.726359
1534.000000	100.725657
1533.000000	100.726674
1532.000000	100.729013
1531.000000	100.731188
1530.000000	100.732548
1529.000000	100.733559
1528.000000	100.735268
1527.000000	100.737592
1526.000000	100.738777
1525.000000	100.737426
1524.000000	100.734532
1523.000000	100.732625
1522.000000	100.734660
1521.000000	100.741354
1520.000000	100.749266
1519.000000	100.755593
1518.000000	100.759758
1517.000000	100.761456
1516.000000	100.761242
1515.000000	100.761211
1514.000000	100.763488
1513.000000	100.767943
1512.000000	100.772714
1511.000000	100.775984
1510.000000	100.777041
1509.000000	100.776610
1508.000000	100.776982
1507.000000	100.781903
1506.000000	100.787994
1505.000000	100.790391
1504.000000	100.791295
1503.000000	100.792750
1502.000000	100.795081
1501.000000	100.797824
1500.000000	100.799760
1499.000000	100.800364
1498.000000	100.800266
1497.000000	100.800779
1496.000000	100.802045
1495.000000	100.802949
1494.000000	100.803474
1493.000000	100.804532
1492.000000	100.806200
1491.000000	100.807684
1490.000000	100.808205
1489.000000	100.807326
1488.000000	100.805186
1487.000000	100.802048
1486.000000	100.798252
1485.000000	100.794638
1484.000000	100.792189
1483.000000	100.791517
1482.000000	100.792187
1481.000000	100.792758
1480.000000	100.791772
1479.000000	100.788886
1478.000000	100.785078
1477.000000	100.782339
1476.000000	100.782455
1475.000000	100.785279
1474.000000	100.788665
1473.000000	100.789828
1472.000000	100.787145
1471.000000	100.781970
1470.000000	100.777628
1469.000000	100.775668
1468.000000	100.775083
1467.000000	100.773830
1466.000000	100.770323
1465.000000	100.764642
1464.000000	100.758178
1463.000000	100.751904
1462.000000	100.745771
1461.000000	100.739913
1460.000000	100.735697
1459.000000	100.734800
1458.000000	100.737161
1457.000000	100.739294
1456.000000	100.737557
1455.000000	100.734221
1454.000000	100.732564
1453.000000	100.732005
1452.000000	100.730852
1451.000000	100.728245
1450.000000	100.724508
1449.000000	100.720543
1448.000000	100.717529
1447.000000	100.716410
1446.000000	100.717099
1445.000000	100.718439
1444.000000	100.719256
1443.000000	100.719125
1442.000000	100.718359
1441.000000	100.717484
1440.000000	100.716258
1439.000000	100.713157
1438.000000	100.706191
1437.000000	100.696522
1436.000000	100.688742
1435.000000	100.685008
1434.000000	100.683544
1433.000000	100.682561
1432.000000	100.682624
1431.000000	100.685571
1430.000000	100.690725
1429.000000	100.693983
1428.000000	100.692247
1427.000000	100.686692
1426.000000	100.680718
1425.000000	100.676665
1424.000000	100.675413
1423.000000	100.676466
1422.000000	100.678215
1421.000000	100.678782
1420.000000	100.677650
1419.000000	100.677369
1418.000000	100.679960
1417.000000	100.685243
1416.000000	100.692246
1415.000000	100.698489
1414.000000	100.701624
1413.000000	100.702232
1412.000000	100.703490
1411.000000	100.707896
1410.000000	100.714917
1409.000000	100.722628
1408.000000	100.730035
1407.000000	100.737028
1406.000000	100.743564
1405.000000	100.749418
1404.000000	100.754499
1403.000000	100.758662
1402.000000	100.761551
1401.000000	100.763513
1400.000000	100.766644
1399.000000	100.773063
1398.000000	100.781291
1397.000000	100.787457
1396.000000	100.789936
1395.000000	100.791484
1394.000000	100.796490
1393.000000	100.805981
1392.000000	100.817103
1391.000000	100.826279
1390.000000	100.831768
1389.000000	100.834099
1388.000000	100.834866
1387.000000	100.835215
1386.000000	100.835642
1385.000000	100.836870
1384.000000	100.839567
1383.000000	100.843473
1382.000000	100.847844
1381.000000	100.852549
1380.000000	100.857919
1379.000000	100.863560
1378.000000	100.868319
1377.000000	100.872005
1376.000000	100.876344
1375.000000	100.883218
1374.000000	100.891591
1373.000000	100.897828
1372.000000	100.900398
1371.000000	100.901655
1370.000000	100.904912
1369.000000	100.911534
1368.000000	100.920581
1367.000000	100.930253
1366.000000	100.938925
1365.000000	100.945129
1364.000000	100.947784
1363.000000	100.947141
1362.000000	100.945189
1361.000000	100.944670
1360.000000	100.947384
1359.000000	100.953097
1358.000000	100.959818
1357.000000	100.965274
1356.000000	100.968711
1355.000000	100.971224
1354.000000	100.973964
1353.000000	100.976539
1352.000000	100.977515
1351.000000	100.975926
1350.000000	100.972114
1349.000000	100.967515
1348.000000	100.964583
1347.000000	100.966000
1346.000000	100.972170
1345.000000	100.979588
1344.000000	100.983297
1343.000000	100.981495
1342.000000	100.976853
1341.000000	100.973466
1340.000000	100.973122
1339.000000	100.974561
1338.000000	100.975703
1337.000000	100.975704
1336.000000	100.975041
1335.000000	100.974820
1334.000000	100.976053
1333.000000	100.978776
1332.000000	100.981664
1331.000000	100.982684
1330.000000	100.980284
1329.000000	100.974602
1328.000000	100.968300
1327.000000	100.965702
1326.000000	100.969433
1325.000000	100.977169
1324.000000	100.983075
1323.000000	100.983303
1322.000000	100.979316
1321.000000	100.975455
1320.000000	100.974007
1319.000000	100.973323
1318.000000	100.970394
1317.000000	100.964533
1316.000000	100.958506
1315.000000	100.956489
1314.000000	100.960685
1313.000000	100.969232
1312.000000	100.977518
1311.000000	100.982086
1310.000000	100.982860
1309.000000	100.981640
1308.000000	100.979618
1307.000000	100.977021
1306.000000	100.974270
1305.000000	100.971978
1304.000000	100.970061
1303.000000	100.968131
1302.000000	100.967092
1301.000000	100.969136
1300.000000	100.975138
1299.000000	100.982463
1298.000000	100.986562
1297.000000	100.985058
1296.000000	100.979638
1295.000000	100.973938
1294.000000	100.970003
1293.000000	100.967345
1292.000000	100.965079
1291.000000	100.963716
1290.000000	100.964181
1289.000000	100.965542
1288.000000	100.964617
1287.000000	100.958527
1286.000000	100.947779
1285.000000	100.936562
1284.000000	100.929439
1283.000000	100.927275
1282.000000	100.926465
1281.000000	100.922496
1280.000000	100.914294
1279.000000	100.904973
1278.000000	100.898710
1277.000000	100.897365
1276.000000	100.899563
1275.000000	100.901984
1274.000000	100.901718
1273.000000	100.898494
1272.000000	100.894811
1271.000000	100.893237
1270.000000	100.893773
1269.000000	100.894691
1268.000000	100.895151
1267.000000	100.895207
1266.000000	100.893783
1265.000000	100.889328
1264.000000	100.883032
1263.000000	100.878811
1262.000000	100.878451
1261.000000	100.878413
1260.000000	100.873281
1259.000000	100.861735
1258.000000	100.848041
1257.000000	100.838264
1256.000000	100.835453
1255.000000	100.837150
1254.000000	100.836844
1253.000000	100.829283
1252.000000	100.815164
1251.000000	100.799788
1250.000000	100.787192
1249.000000	100.777332
1248.000000	100.768847
1247.000000	100.761283
1246.000000	100.753113
1245.000000	100.740789
1244.000000	100.722628
1243.000000	100.701930
1242.000000	100.683476
1241.000000	100.667945
1240.000000	100.652301
1239.000000	100.634784
1238.000000	100.617023
1237.000000	100.601365
1236.000000	100.587981
1235.000000	100.574736
1234.000000	100.558788
1233.000000	100.538414
1232.000000	100.513968
1231.000000	100.486843
1230.000000	100.457492
1229.000000	100.425558
1228.000000	100.391718
1227.000000	100.356872
1226.000000	100.318519
1225.000000	100.270848
1224.000000	100.211038
1223.000000	100.144066
1222.000000	100.078841
1221.000000	100.019832
1220.000000	99.963857
1219.000000	99.904106
1218.000000	99.835873
1217.000000	99.759555
1216.000000	99.679255
1215.000000	99.597411
1214.000000	99.510768
1213.000000	99.414465
1212.000000	99.310909
1211.000000	99.210883
1210.000000	99.123323
1209.000000	99.046953
1208.000000	98.974192
1207.000000	98.899129
1206.000000	98.818619
1205.000000	98.729874
1204.000000	98.632417
1203.000000	98.531431
1202.000000	98.434971
1201.000000	98.347179
1200.000000	98.265739
1199.000000	98.185021
1198.000000	98.100606
1197.000000	98.012556
1196.000000	97.925523
1195.000000	97.843876
1194.000000	97.766154
1193.000000	97.686763
1192.000000	97.603293
1191.000000	97.518482
1190.000000	97.434415
1189.000000	97.349449
1188.000000	97.262614
1187.000000	97.176154
1186.000000	97.090788
1185.000000	97.002729
1184.000000	96.908880
1183.000000	96.811322
1182.000000	96.713074
1181.000000	96.612714
1180.000000	96.507220
1179.000000	96.397636
1178.000000	96.287589
1177.000000	96.177382
1176.000000	96.063059
1175.000000	95.941006
1174.000000	95.811622
1173.000000	95.678996
1172.000000	95.547664
1171.000000	95.418449
1170.000000	95.287302
1169.000000	95.150185
1168.000000	95.009156
1167.000000	94.872170
1166.000000	94.749331
1165.000000	94.653142
1164.000000	94.598556
1163.000000	94.593998
1162.000000	94.631105
1161.000000	94.689335
1160.000000	94.751108
1159.000000	94.806592
1158.000000	94.846162
1157.000000	94.858639
1156.000000	94.838793
1155.000000	94.789104
1154.000000	94.712740
1153.000000	94.611985
1152.000000	94.495296
1151.000000	94.377597
1150.000000	94.268901
1149.000000	94.167908
1148.000000	94.069215
1147.000000	93.969759
1146.000000	93.865503
1145.000000	93.750268
1144.000000	93.623777
1143.000000	93.495931
1142.000000	93.378353
1141.000000	93.274753
1140.000000	93.180946
1139.000000	93.088273
1138.000000	92.985245
1137.000000	92.863714
1136.000000	92.728347
1135.000000	92.595310
1134.000000	92.477390
1133.000000	92.373146
1132.000000	92.271391
1131.000000	92.161137
1130.000000	92.037199
1129.000000	91.903190
1128.000000	91.770538
1127.000000	91.648324
1126.000000	91.533152
1125.000000	91.415335
1124.000000	91.294125
1123.000000	91.177844
1122.000000	91.068845
1121.000000	90.958958
1120.000000	90.842527
1119.000000	90.724147
1118.000000	90.609847
1117.000000	90.499049
1116.000000	90.388287
1115.000000	90.275111
1114.000000	90.156626
1113.000000	90.032946
1112.000000	89.913575
1111.000000	89.810465
1110.000000	89.722343
1109.000000	89.634953
1108.000000	89.537975
1107.000000	89.431559
1106.000000	89.316569
1105.000000	89.191953
1104.000000	89.063800
1103.000000	88.943337
1102.000000	88.832334
1101.000000	88.722325
1100.000000	88.610302
1099.000000	88.501649
1098.000000	88.395872
1097.000000	88.284266
1096.000000	88.165098
1095.000000	88.046787
1094.000000	87.932638
1093.000000	87.817242
1092.000000	87.701350
1091.000000	87.594583
1090.000000	87.499202
1089.000000	87.407131
1088.000000	87.317587
1087.000000	87.240847
1086.000000	87.178643
1085.000000	87.117695
1084.000000	87.050375
1083.000000	86.986307
1082.000000	86.934749
1081.000000	86.888705
1080.000000	86.835219
1079.000000	86.770479
1078.000000	86.698218
1077.000000	86.623349
1076.000000	86.551646
1075.000000	86.484622
1074.000000	86.410512
1073.000000	86.311429
1072.000000	86.182439
1071.000000	86.033459
1070.000000	85.871747
1069.000000	85.694286
1068.000000	85.498383
1067.000000	85.286015
1066.000000	85.055944
1065.000000	84.806336
1064.000000	84.547945
1063.000000	84.300108
1062.000000	84.069987
1061.000000	83.849055
1060.000000	83.631025
1059.000000	83.417485
1058.000000	83.205503
1057.000000	82.987872
1056.000000	82.767888
1055.000000	82.555999
1054.000000	82.349182
1053.000000	82.132662
1052.000000	81.906411
1051.000000	81.689794
1050.000000	81.493510
1049.000000	81.307426
1048.000000	81.121011
1047.000000	80.933095
1046.000000	80.738089
1045.000000	80.525917
1044.000000	80.299221
1043.000000	80.070258
1042.000000	79.838967
1041.000000	79.595421
1040.000000	79.346316
1039.000000	79.115361
1038.000000	78.911959
1037.000000	78.721709
1036.000000	78.532867
1035.000000	78.350192
1034.000000	78.178050
1033.000000	78.014124
1032.000000	77.866546
1031.000000	77.753076
1030.000000	77.674257
1029.000000	77.607386
1028.000000	77.534583
1027.000000	77.458616
1026.000000	77.386715
1025.000000	77.320378
1024.000000	77.265888
1023.000000	77.231982
1022.000000	77.209449
1021.000000	77.172916
1020.000000	77.110110
1019.000000	77.032261
1018.000000	76.952568
1017.000000	76.873700
1016.000000	76.798936
1015.000000	76.733993
1014.000000	76.672915
1013.000000	76.601818
1012.000000	76.520756
1011.000000	76.443674
1010.000000	76.375679
1009.000000	76.310658
1008.000000	76.251693
1007.000000	76.211025
1006.000000	76.187477
1005.000000	76.166471
1004.000000	76.145444
1003.000000	76.137386
1002.000000	76.146613
1001.000000	76.163384
1000.000000	76.185209
999.000000	76.221014
998.000000	76.270331
997.000000	76.319748
996.000000	76.364015
995.000000	76.411468
994.000000	76.466822
993.000000	76.527919
992.000000	76.598700
991.000000	76.683791
990.000000	76.771230
989.000000	76.844636
988.000000	76.913070
987.000000	77.003875
986.000000	77.124877
985.000000	77.258879
984.000000	77.397574
983.000000	77.554317
982.000000	77.736977
981.000000	77.933266
980.000000	78.131312
979.000000	78.333950
978.000000	78.545492
977.000000	78.763958
976.000000	78.993013
975.000000	79.243120
974.000000	79.514443
973.000000	79.794743
972.000000	80.078194
971.000000	80.370771
970.000000	80.674747
969.000000	80.983987
968.000000	81.296029
967.000000	81.612417
966.000000	81.926188
965.000000	82.226019
964.000000	82.514005
963.000000	82.803061
962.000000	83.095898
961.000000	83.382467
960.000000	83.658275
959.000000	83.928346
958.000000	84.192325
957.000000	84.442143
956.000000	84.675542
955.000000	84.896717
954.000000	85.104081
953.000000	85.293493
952.000000	85.472793
951.000000	85.655439
950.000000	85.838347
949.000000	86.002877
948.000000	86.139545
947.000000	86.256620
946.000000	86.364682
945.000000	86.468720
944.000000	86.575321
943.000000	86.689779
942.000000	86.803730
941.000000	86.902039
940.000000	86.983906
939.000000	87.062470
938.000000	87.144599
937.000000	87.228301
936.000000	87.318516
935.000000	87.423668
934.000000	87.534225
933.000000	87.626847
932.000000	87.695802
931.000000	87.761449
930.000000	87.841947
929.000000	87.934809
928.000000	88.032014
927.000000	88.132974
926.000000	88.233135
925.000000	88.317838
924.000000	88.379926
923.000000	88.431554
922.000000	88.488886
921.000000	88.554198
920.000000	88.618723
919.000000	88.672903
918.000000	88.710095
917.000000	88.732060
916.000000	88.755101
915.000000	88.799874
914.000000	88.872115
913.000000	88.963627
912.000000	89.071574
911.000000	89.202334
910.000000	89.356383
909.000000	89.527183
908.000000	89.717674
907.000000	89.939699
906.000000	90.192683
905.000000	90.459441
904.000000	90.727540
903.000000	90.998588
902.000000	91.272543
901.000000	91.540895
900.000000	91.801506
899.000000	92.063735
898.000000	92.331018
897.000000	92.592329
896.000000	92.838592
895.000000	93.075023
894.000000	93.309564
893.000000	93.539902
892.000000	93.759091
891.000000	93.965148
890.000000	94.159761
889.000000	94.346125
888.000000	94.531999
887.000000	94.725370
886.000000	94.922129
885.000000	95.106194
884.000000	95.266072
883.000000	95.405070
882.000000	95.535201
881.000000	95.670521
880.000000	95.826150
879.000000	96.009991
878.000000	96.210713
877.000000	96.405345
876.000000	96.582772
875.000000	96.749954
874.000000	96.915367
873.000000	97.080826
872.000000	97.251389
871.000000	97.436728
870.000000	97.636017
869.000000	97.833604
868.000000	98.015282
867.000000	98.179883
866.000000	98.333814
865.000000	98.485286
864.000000	98.644762
863.000000	98.816960
862.000000	98.987942
861.000000	99.133916
860.000000	99.249591
859.000000	99.356876
858.000000	99.479340
857.000000	99.618243
856.000000	99.759723
855.000000	99.892585
854.000000	100.009731
853.000000	100.103809
852.000000	100.174143
851.000000	100.231842
850.000000	100.287982
849.000000	100.341570
848.000000	100.386612
847.000000	100.423492
846.000000	100.453858
845.000000	100.471250
844.000000	100.468134
843.000000	100.448918
842.000000	100.427033
841.000000	100.410929
840.000000	100.398156
839.000000	100.377442
838.000000	100.330134
837.000000	100.239055
836.000000	100.109741
835.000000	99.980742
834.000000	99.899531
833.000000	99.883515
832.000000	99.908276
831.000000	99.931492
830.000000	99.925278
829.000000	99.892686
828.000000	99.862421
827.000000	99.865259
826.000000	99.905900
825.000000	99.957142
824.000000	99.986747
823.000000	99.986153
822.000000	99.968109
821.000000	99.946024
820.000000	99.926578
819.000000	99.913643
818.000000	99.903330
817.000000	99.875322
816.000000	99.800450
815.000000	99.660867
814.000000	99.459094
813.000000	99.207551
812.000000	98.914576
811.000000	98.580032
810.000000	98.196118
809.000000	97.748436
808.000000	97.221010
807.000000	96.606198
806.000000	95.914008
805.000000	95.176318
804.000000	94.442079
803.000000	93.759163
802.000000	93.152750
801.000000	92.625233
800.000000	92.180196
799.000000	91.837438
798.000000	91.620143
797.000000	91.536779
796.000000	91.577348
795.000000	91.713440
794.000000	91.898662
793.000000	92.086291
792.000000	92.256680
791.000000	92.417975
790.000000	92.574497
789.000000	92.704189
788.000000	92.771866
787.000000	92.753994
786.000000	92.644390
785.000000	92.447879
784.000000	92.182498
783.000000	91.884661
782.000000	91.599605
781.000000	91.363076
780.000000	91.193453
779.000000	91.096519
778.000000	91.073180
777.000000	91.125695
776.000000	91.257848
775.000000	91.465153
774.000000	91.727315
773.000000	92.018022
772.000000	92.320018
771.000000	92.622392
770.000000	92.907544
769.000000	93.154999
768.000000	93.360397
767.000000	93.540024
766.000000	93.712450
765.000000	93.881842
764.000000	94.040173
763.000000	94.177876
762.000000	94.290726
761.000000	94.384406
760.000000	94.475262
759.000000	94.579820
758.000000	94.700010
757.000000	94.822823
756.000000	94.935219
755.000000	95.034438
754.000000	95.125103
753.000000	95.214381
752.000000	95.311395
751.000000	95.424047
750.000000	95.552615
