4000.000000	100.447043
3999.000000	100.446529
3998.000000	100.443455
3997.000000	100.438137
3996.000000	100.431893
3995.000000	100.426110
3994.000000	100.421195
3993.000000	100.416329
3992.000000	100.410283
3991.000000	100.402994
3990.000000	100.396521
3989.000000	100.393991
3988.000000	100.397249
3987.000000	100.405417
3986.000000	100.414990
3985.000000	100.421889
3984.000000	100.424209
3983.000000	100.422863
3982.000000	100.420190
3981.000000	100.417817
3980.000000	100.415546
3979.000000	100.412271
3978.000000	100.407538
3977.000000	100.401969
3976.000000	100.396464
3975.000000	100.391471
3974.000000	100.387252
3973.000000	100.384466
3972.000000	100.383894
3971.000000	100.385412
3970.000000	100.387414
3969.000000	100.387745
3968.000000	100.385418
3967.000000	100.381312
3966.000000	100.377329
3965.000000	100.374995
3964.000000	100.374790
3963.000000	100.376404
3962.000000	100.379209
3961.000000	100.382308
3960.000000	100.384669
3959.000000	100.385764
3958.000000	100.385963
3957.000000	100.386054
3956.000000	100.386335
3955.000000	100.386298
3954.000000	100.385340
3953.000000	100.383565
3952.000000	100.381653
3951.000000	100.380098
3950.000000	100.378793
3949.000000	100.377437
3948.000000	100.376087
3947.000000	100.375137
3946.000000	100.374895
3945.000000	100.375351
3944.000000	100.376149
3943.000000	100.376770
3942.000000	100.376855
3941.000000	100.376373
3940.000000	100.375482
3939.000000	100.374325
3938.000000	100.373033
3937.000000	100.371838
3936.000000	100.371029
3935.000000	100.370740
3934.000000	100.370874
3933.000000	100.371298
3932.000000	100.372037
3931.000000	100.373083
3930.000000	100.374076
3929.000000	100.374413
3928.000000	100.373800
3927.000000	100.372609
3926.000000	100.371733
3925.000000	100.371837
3924.000000	100.372766
3923.000000	100.373666
3922.000000	100.373689
3921.000000	100.372672
3920.000000	100.371239
3919.000000	100.370428
3918.000000	100.370818
3917.000000	100.372037
3916.000000	100.373066
3915.000000	100.373208
3914.000000	100.372599
3913.000000	100.371893
3912.000000	100.371617
3911.000000	100.371725
3910.000000	100.371665
3909.000000	100.370793
3908.000000	100.368833
3907.000000	100.366156
3906.000000	100.363791
3905.000000	100.362833
3904.000000	100.363581
3903.000000	100.365313
3902.000000	100.367003
3901.000000	100.368242
3900.000000	100.369312
3899.000000	100.370569
3898.000000	100.372050
3897.000000	100.373532
3896.000000	100.374720
3895.000000	100.375330
3894.000000	100.375247
3893.000000	100.374723
3892.000000	100.374376
3891.000000	100.374665
3890.000000	100.375470
3889.000000	100.376338
3888.000000	100.376874
3887.000000	100.376959
3886.000000	100.376845
3885.000000	100.377041
3884.000000	100.378023
3883.000000	100.379970
3882.000000	100.382466
3881.000000	100.384527
3880.000000	100.385332
3879.000000	100.384847
3878.000000	100.383841
3877.000000	100.383231
3876.000000	100.383387
3875.000000	100.384085
3874.000000	100.384778
3873.000000	100.385064
3872.000000	100.385100
3871.000000	100.385512
3870.000000	100.386768
3869.000000	100.388604
3868.000000	100.390262
3867.000000	100.391186
3866.000000	100.391258
3865.000000	100.390876
3864.000000	100.390827
3863.000000	100.391666
3862.000000	100.393228
3861.000000	100.394743
3860.000000	100.395510
3859.000000	100.395386
3858.000000	100.394616
3857.000000	100.393463
3856.000000	100.392285
3855.000000	100.391840
3854.000000	100.392463
3853.000000	100.392978
3852.000000	100.392825
3851.000000	100.393997
3850.000000	100.397895
3849.000000	100.403282
3848.000000	100.407965
3847.000000	100.410663
3846.000000	100.411124
3845.000000	100.409461
3844.000000	100.406165
3843.000000	100.402469
3842.000000	100.400012
3841.000000	100.399805
3840.000000	100.401539
3839.000000	100.404158
3838.000000	100.407211
3837.000000	100.411137
3836.000000	100.416166
3835.000000	100.421493
3834.000000	100.425597
3833.000000	100.427432
3832.000000	100.427033
3831.000000	100.425018
3830.000000	100.422292
3829.000000	100.420244
3828.000000	100.420353
3827.000000	100.423116
3826.000000	100.427384
3825.000000	100.431322
3824.000000	100.434044
3823.000000	100.435981
3822.000000	100.437854
3821.000000	100.439124
3820.000000	100.438602
3819.000000	100.437077
3818.000000	100.436394
3817.000000	100.436589
3816.000000	100.435930
3815.000000	100.433184
3814.000000	100.429356
3813.000000	100.426394
3812.000000	100.424805
3811.000000	100.423917
3810.000000	100.423252
3809.000000	100.422757
3808.000000	100.422544
3807.000000	100.422831
3806.000000	100.423996
3805.000000	100.426494
3804.000000	100.429936
3803.000000	100.432580
3802.000000	100.432810
3801.000000	100.430663
3800.000000	100.427940
3799.000000	100.426818
3798.000000	100.427657
3797.000000	100.428967
3796.000000	100.429154
3795.000000	100.427841
3794.000000	100.425764
3793.000000	100.423851
3792.000000	100.422512
3791.000000	100.421792
3790.000000	100.421741
3789.000000	100.422304
3788.000000	100.423041
3787.000000	100.423224
3786.000000	100.422336
3785.000000	100.420498
3784.000000	100.418433
3783.000000	100.416973
3782.000000	100.416584
3781.000000	100.417149
3780.000000	100.418011
3779.000000	100.418404
3778.000000	100.418126
3777.000000	100.417823
3776.000000	100.418398
3775.000000	100.420061
3774.000000	100.421963
3773.000000	100.422772
3772.000000	100.421560
3771.000000	100.418467
3770.000000	100.414682
3769.000000	100.411611
3768.000000	100.410292
3767.000000	100.411248
3766.000000	100.414172
3765.000000	100.418079
3764.000000	100.422006
3763.000000	100.425346
3762.000000	100.427388
3761.000000	100.426954
3760.000000	100.423259
3759.000000	100.417199
3758.000000	100.411191
3757.000000	100.406961
3756.000000	100.404131
3755.000000	100.401071
3754.000000	100.396804
3753.000000	100.392429
3752.000000	100.390244
3751.000000	100.390614
3750.000000	100.390024
3749.000000	100.384686
3748.000000	100.375423
3747.000000	100.366371
3746.000000	100.361635
3745.000000	100.362999
3744.000000	100.365649
3743.000000	100.363990
3742.000000	100.362241
3741.000000	100.365876
3740.000000	100.373010
3739.000000	100.379802
3738.000000	100.384945
3737.000000	100.388563
3736.000000	100.390498
3735.000000	100.391245
3734.000000	100.391786
3733.000000	100.391203
3732.000000	100.386998
3731.000000	100.378533
3730.000000	100.368126
3729.000000	100.358427
3728.000000	100.350512
3727.000000	100.344982
3726.000000	100.342391
3725.000000	100.341651
3724.000000	100.339798
3723.000000	100.334555
3722.000000	100.327350
3721.000000	100.323102
3720.000000	100.325956
3719.000000	100.334948
3718.000000	100.344422
3717.000000	100.349069
3716.000000	100.348318
3715.000000	100.345078
3714.000000	100.340918
3713.000000	100.333931
3712.000000	100.321785
3711.000000	100.306348
3710.000000	100.292327
3709.000000	100.281574
3708.000000	100.271862
3707.000000	100.261011
3706.000000	100.249679
3705.000000	100.239723
3704.000000	100.231470
3703.000000	100.223027
3702.000000	100.212335
3701.000000	100.199226
3700.000000	100.185395
3699.000000	100.172708
3698.000000	100.161500
3697.000000	100.150772
3696.000000	100.140349
3695.000000	100.132427
3694.000000	100.130317
3693.000000	100.134953
3692.000000	100.142242
3691.000000	100.144417
3690.000000	100.135030
3689.000000	100.113868
3688.000000	100.086914
3687.000000	100.062095
3686.000000	100.043178
3685.000000	100.026322
3684.000000	100.005300
3683.000000	99.979751
3682.000000	99.956103
3681.000000	99.939666
3680.000000	99.927201
3679.000000	99.908722
3678.000000	99.876859
3677.000000	99.835226
3676.000000	99.797474
3675.000000	99.772705
3674.000000	99.756764
3673.000000	99.741951
3672.000000	99.721976
3671.000000	99.691999
3670.000000	99.652967
3669.000000	99.611658
3668.000000	99.573948
3667.000000	99.540101
3666.000000	99.506085
3665.000000	99.468905
3664.000000	99.429577
3663.000000	99.390962
3662.000000	99.354969
3661.000000	99.322515
3660.000000	99.294724
3659.000000	99.272366
3658.000000	99.253863
3657.000000	99.235248
3656.000000	99.213267
3655.000000	99.189089
3654.000000	99.167145
3653.000000	99.148675
3652.000000	99.129329
3651.000000	99.104459
3650.000000	99.074267
3649.000000	99.043436
3648.000000	99.016354
3647.000000	98.993221
3646.000000	98.971586
3645.000000	98.950142
3644.000000	98.930423
3643.000000	98.915399
3642.000000	98.906460
3641.000000	98.901210
3640.000000	98.894337
3639.000000	98.881174
3638.000000	98.860082
3637.000000	98.832182
3636.000000	98.799721
3635.000000	98.764868
3634.000000	98.728992
3633.000000	98.692249
3632.000000	98.654141
3631.000000	98.615783
3630.000000	98.582731
3629.000000	98.561766
3628.000000	98.553116
3627.000000	98.552463
3626.000000	98.557622
3625.000000	98.566592
3624.000000	98.577071
3623.000000	98.590241
3622.000000	98.610703
3621.000000	98.641795
3620.000000	98.679744
3619.000000	98.713499
3618.000000	98.734160
3617.000000	98.743387
3616.000000	98.749733
3615.000000	98.759693
3614.000000	98.774179
3613.000000	98.790941
3612.000000	98.808233
3611.000000	98.826191
3610.000000	98.846040
3609.000000	98.869351
3608.000000	98.896718
3607.000000	98.925748
3606.000000	98.951296
3605.000000	98.969190
3604.000000	98.980391
3603.000000	98.990755
3602.000000	99.005788
3601.000000	99.025529
3600.000000	99.045040
3599.000000	99.059852
3598.000000	99.069527
3597.000000	99.076125
3596.000000	99.081041
3595.000000	99.084368
3594.000000	99.086180
3593.000000	99.087311
3592.000000	99.088642
3591.000000	99.090332
3590.000000	99.091376
3589.000000	99.089712
3588.000000	99.083567
3587.000000	99.074962
3586.000000	99.070486
3585.000000	99.075671
3584.000000	99.089494
3583.000000	99.104311
3582.000000	99.111314
3581.000000	99.107488
3580.000000	99.097352
3579.000000	99.087347
3578.000000	99.079269
3577.000000	99.070618
3576.000000	99.060121
3575.000000	99.050207
3574.000000	99.043261
3573.000000	99.037693
3572.000000	99.029488
3571.000000	99.016889
3570.000000	99.002248
3569.000000	98.989936
3568.000000	98.982589
3567.000000	98.979528
3566.000000	98.978471
3565.000000	98.977741
3564.000000	98.976639
3563.000000	98.974794
3562.000000	98.971364
3561.000000	98.965595
3560.000000	98.958363
3559.000000	98.952075
3558.000000	98.947986
3557.000000	98.944053
3556.000000	98.936710
3555.000000	98.925186
3554.000000	98.913516
3553.000000	98.907175
3552.000000	98.907534
3551.000000	98.910217
3550.000000	98.909138
3549.000000	98.901678
3548.000000	98.890150
3547.000000	98.879548
3546.000000	98.873939
3545.000000	98.873891
3544.000000	98.876724
3543.000000	98.879072
3542.000000	98.879604
3541.000000	98.879363
3540.000000	98.879841
3539.000000	98.880887
3538.000000	98.880592
3537.000000	98.877161
3536.000000	98.870775
3535.000000	98.863641
3534.000000	98.858304
3533.000000	98.855857
3532.000000	98.855525
3531.000000	98.855309
3530.000000	98.853153
3529.000000	98.848119
3528.000000	98.840975
3527.000000	98.833815
3526.000000	98.828732
3525.000000	98.826637
3524.000000	98.827063
3523.000000	98.828825
3522.000000	98.830810
3521.000000	98.832335
3520.000000	98.833032
3519.000000	98.832653
3518.000000	98.831088
3517.000000	98.828527
3516.000000	98.825420
3515.000000	98.822133
3514.000000	98.818618
3513.000000	98.814573
3512.000000	98.810002
3511.000000	98.805518
3510.000000	98.801962
3509.000000	98.799610
3508.000000	98.797747
3507.000000	98.795113
3506.000000	98.790938
3505.000000	98.785623
3504.000000	98.780526
3503.000000	98.776947
3502.000000	98.775151
3501.000000	98.774201
3500.000000	98.772642
3499.000000	98.769605
3498.000000	98.765316
3497.000000	98.760687
3496.000000	98.756389
3495.000000	98.752368
3494.000000	98.748288
3493.000000	98.744147
3492.000000	98.740144
3491.000000	98.736060
3490.000000	98.731275
3489.000000	98.725586
3488.000000	98.719772
3487.000000	98.715028
3486.000000	98.711755
3485.000000	98.709264
3484.000000	98.706433
3483.000000	98.702638
3482.000000	98.697990
3481.000000	98.692913
3480.000000	98.687687
3479.000000	98.682349
3478.000000	98.676892
3477.000000	98.671402
3476.000000	98.666019
3475.000000	98.660843
3474.000000	98.655897
3473.000000	98.651131
3472.000000	98.646391
3471.000000	98.641424
3470.000000	98.636020
3469.000000	98.630207
3468.000000	98.624338
3467.000000	98.618871
3466.000000	98.614028
3465.000000	98.609671
3464.000000	98.605402
3463.000000	98.600765
3462.000000	98.595493
3461.000000	98.589718
3460.000000	98.583999
3459.000000	98.578903
3458.000000	98.574534
3457.000000	98.570550
3456.000000	98.566567
3455.000000	98.562311
3454.000000	98.557378
3453.000000	98.551217
3452.000000	98.543633
3451.000000	98.535276
3450.000000	98.527457
3449.000000	98.521255
3448.000000	98.516910
3447.000000	98.513790
3446.000000	98.510757
3445.000000	98.506858
3444.000000	98.501798
3443.000000	98.495981
3442.000000	98.490110
3441.000000	98.484487
3440.000000	98.478869
3439.000000	98.473059
3438.000000	98.467466
3437.000000	98.462716
3436.000000	98.458725
3435.000000	98.454497
3434.000000	98.449074
3433.000000	98.442628
3432.000000	98.436457
3431.000000	98.431851
3430.000000	98.429042
3429.000000	98.427146
3428.000000	98.425014
3427.000000	98.422164
3426.000000	98.418884
3425.000000	98.415566
3424.000000	98.412261
3423.000000	98.409052
3422.000000	98.406558
3421.000000	98.405382
3420.000000	98.404855
3419.000000	98.402998
3418.000000	98.398499
3417.000000	98.392501
3416.000000	98.387860
3415.000000	98.386189
3414.000000	98.386097
3413.000000	98.384573
3412.000000	98.380013
3411.000000	98.373465
3410.000000	98.367331
3409.000000	98.363340
3408.000000	98.361918
3407.000000	98.362821
3406.000000	98.365297
3405.000000	98.367853
3404.000000	98.368782
3403.000000	98.367136
3402.000000	98.363343
3401.000000	98.359002
3400.000000	98.355954
3399.000000	98.355197
3398.000000	98.356336
3397.000000	98.357955
3396.000000	98.358796
3395.000000	98.358804
3394.000000	98.358858
3393.000000	98.359587
3392.000000	98.360754
3391.000000	98.361817
3390.000000	98.362713
3389.000000	98.363754
3388.000000	98.364956
3387.000000	98.365897
3386.000000	98.366343
3385.000000	98.366714
3384.000000	98.367650
3383.000000	98.369195
3382.000000	98.370636
3381.000000	98.371215
3380.000000	98.370880
3379.000000	98.370314
3378.000000	98.370325
3377.000000	98.371231
3376.000000	98.372753
3375.000000	98.374382
3374.000000	98.375867
3373.000000	98.377365
3372.000000	98.379092
3371.000000	98.380898
3370.000000	98.382381
3369.000000	98.383488
3368.000000	98.384811
3367.000000	98.386973
3366.000000	98.389791
3365.000000	98.392207
3364.000000	98.393292
3363.000000	98.393086
3362.000000	98.392590
3361.000000	98.392944
3360.000000	98.394424
3359.000000	98.396357
3358.000000	98.397779
3357.000000	98.398251
3356.000000	98.398167
3355.000000	98.398484
3354.000000	98.399945
3353.000000	98.402512
3352.000000	98.405393
3351.000000	98.407759
3350.000000	98.409519
3349.000000	98.411251
3348.000000	98.413514
3347.000000	98.416292
3346.000000	98.419129
3345.000000	98.421650
3344.000000	98.423827
3343.000000	98.425787
3342.000000	98.427578
3341.000000	98.429230
3340.000000	98.430956
3339.000000	98.433080
3338.000000	98.435745
3337.000000	98.438720
3336.000000	98.441574
3335.000000	98.443990
3334.000000	98.445884
3333.000000	98.447271
3332.000000	98.448188
3331.000000	98.448850
3330.000000	98.449777
3329.000000	98.451566
3328.000000	98.454418
3327.000000	98.457933
3326.000000	98.461395
3325.000000	98.464206
3324.000000	98.466053
3323.000000	98.467003
3322.000000	98.467700
3321.000000	98.469226
3320.000000	98.472181
3319.000000	98.475934
3318.000000	98.479170
3317.000000	98.481323
3316.000000	98.483202
3315.000000	98.486077
3314.000000	98.490469
3313.000000	98.496046
3312.000000	98.502175
3311.000000	98.508045
3310.000000	98.512697
3309.000000	98.515608
3308.000000	98.517238
3307.000000	98.518781
3306.000000	98.521122
3305.000000	98.524279
3304.000000	98.527841
3303.000000	98.531336
3302.000000	98.534184
3301.000000	98.535948
3300.000000	98.537047
3299.000000	98.538824
3298.000000	98.542322
3297.000000	98.547250
3296.000000	98.552287
3295.000000	98.556434
3294.000000	98.559705
3293.000000	98.562622
3292.000000	98.565640
3291.000000	98.569099
3290.000000	98.573263
3289.000000	98.578117
3288.000000	98.583321
3287.000000	98.588457
3286.000000	98.593263
3285.000000	98.597644
3284.000000	98.601657
3283.000000	98.605566
3282.000000	98.609718
3281.000000	98.614218
3280.000000	98.618819
3279.000000	98.623192
3278.000000	98.627262
3277.000000	98.631202
3276.000000	98.635218
3275.000000	98.639390
3274.000000	98.643689
3273.000000	98.648066
3272.000000	98.652489
3271.000000	98.656928
3270.000000	98.661325
3269.000000	98.665604
3268.000000	98.669734
3267.000000	98.673758
3266.000000	98.677766
3265.000000	98.681847
3264.000000	98.686033
3263.000000	98.690302
3262.000000	98.694587
3261.000000	98.698822
3260.000000	98.702987
3259.000000	98.707133
3258.000000	98.711350
3257.000000	98.715677
3256.000000	98.720063
3255.000000	98.724387
3254.000000	98.728553
3253.000000	98.732549
3252.000000	98.736505
3251.000000	98.740599
3250.000000	98.744916
3249.000000	98.749354
3248.000000	98.753681
3247.000000	98.757758
3246.000000	98.761762
3245.000000	98.766119
3244.000000	98.771083
3243.000000	98.776354
3242.000000	98.781314
3241.000000	98.785733
3240.000000	98.790041
3239.000000	98.794779
3238.000000	98.799834
3237.000000	98.804488
3236.000000	98.808227
3235.000000	98.811339
3234.000000	98.814620
3233.000000	98.818539
3232.000000	98.822836
3231.000000	98.826956
3230.000000	98.830707
3229.000000	98.834272
3228.000000	98.837743
3227.000000	98.841116
3226.000000	98.844904
3225.000000	98.850162
3224.000000	98.857346
3223.000000	98.865397
3222.000000	98.872544
3221.000000	98.878069
3220.000000	98.882800
3219.000000	98.887891
3218.000000	98.893722
3217.000000	98.900191
3216.000000	98.907496
3215.000000	98.915948
3214.000000	98.925097
3213.000000	98.933543
3212.000000	98.939797
3211.000000	98.943310
3210.000000	98.944755
3209.000000	98.945550
3208.000000	98.947096
3207.000000	98.950172
3206.000000	98.954844
3205.000000	98.960726
3204.000000	98.967195
3203.000000	98.973564
3202.000000	98.979344
3201.000000	98.984515
3200.000000	98.989580
3199.000000	98.995276
3198.000000	99.002111
3197.000000	99.009961
3196.000000	99.017974
3195.000000	99.025056
3194.000000	99.030657
3193.000000	99.035103
3192.000000	99.039185
3191.000000	99.043494
3190.000000	99.048315
3189.000000	99.053892
3188.000000	99.060348
3187.000000	99.067301
3186.000000	99.073833
3185.000000	99.079117
3184.000000	99.083004
3183.000000	99.086057
3182.000000	99.089207
3181.000000	99.093187
3180.000000	99.098039
3179.000000	99.103135
3178.000000	99.107842
3177.000000	99.112284
3176.000000	99.117168
3175.000000	99.122805
3174.000000	99.128627
3173.000000	99.133890
3172.000000	99.138684
3171.000000	99.143836
3170.000000	99.149839
3169.000000	99.156273
3168.000000	99.162281
3167.000000	99.167423
3166.000000	99.171854
3165.000000	99.175911
3164.000000	99.179785
3163.000000	99.183625
3162.000000	99.187758
3161.000000	99.192550
3160.000000	99.198014
3159.000000	99.203673
3158.000000	99.208887
3157.000000	99.213435
3156.000000	99.217723
3155.000000	99.222435
3154.000000	99.227966
3153.000000	99.234162
3152.000000	99.240387
3151.000000	99.245850
3150.000000	99.250056
3149.000000	99.253195
3148.000000	99.256198
3147.000000	99.260072
3146.000000	99.265027
3145.000000	99.270408
3144.000000	99.275465
3143.000000	99.280092
3142.000000	99.284708
3141.000000	99.289746
3140.000000	99.295426
3139.000000	99.301783
3138.000000	99.308621
3137.000000	99.315543
3136.000000	99.322190
3135.000000	99.328310
3134.000000	99.333544
3133.000000	99.337502
3132.000000	99.340375
3131.000000	99.343257
3130.000000	99.347321
3129.000000	99.352693
3128.000000	99.358416
3127.000000	99.363509
3126.000000	99.367863
3125.000000	99.371922
3124.000000	99.375831
3123.000000	99.379305
3122.000000	99.382280
3121.000000	99.385297
3120.000000	99.389069
3119.000000	99.393832
3118.000000	99.399203
3117.000000	99.404508
3116.000000	99.409232
3115.000000	99.413221
3114.000000	99.416647
3113.000000	99.419905
3112.000000	99.423411
3111.000000	99.427371
3110.000000	99.431714
3109.000000	99.436209
3108.000000	99.440643
3107.000000	99.444859
3106.000000	99.448716
3105.000000	99.452134
3104.000000	99.455221
3103.000000	99.458277
3102.000000	99.461575
3101.000000	99.465157
3100.000000	99.468866
3099.000000	99.472485
3098.000000	99.475894
3097.000000	99.479121
3096.000000	99.482293
3095.000000	99.485517
3094.000000	99.488785
3093.000000	99.492013
3092.000000	99.495156
3091.000000	99.498308
3090.000000	99.501636
3089.000000	99.505199
3088.000000	99.508845
3087.000000	99.512354
3086.000000	99.515656
3085.000000	99.518795
3084.000000	99.521738
3083.000000	99.524384
3082.000000	99.526758
3081.000000	99.529159
3080.000000	99.531978
3079.000000	99.535400
3078.000000	99.539232
3077.000000	99.542950
3076.000000	99.546071
3075.000000	99.548523
3074.000000	99.550672
3073.000000	99.552994
3072.000000	99.555701
3071.000000	99.558661
3070.000000	99.561612
3069.000000	99.564407
3068.000000	99.567025
3067.000000	99.569413
3066.000000	99.571441
3065.000000	99.573081
3064.000000	99.574632
3063.000000	99.576640
3062.000000	99.579450
3061.000000	99.582757
3060.000000	99.585761
3059.000000	99.587925
3058.000000	99.589475
3057.000000	99.591008
3056.000000	99.592756
3055.000000	99.594633
3054.000000	99.596905
3053.000000	99.600107
3052.000000	99.603884
3051.000000	99.606418
3050.000000	99.605766
3049.000000	99.601876
3048.000000	99.597131
3047.000000	99.594622
3046.000000	99.595792
3045.000000	99.599614
3044.000000	99.603533
3043.000000	99.605321
3042.000000	99.604422
3041.000000	99.602044
3040.000000	99.600174
3039.000000	99.600102
3038.000000	99.601442
3037.000000	99.602429
3036.000000	99.601645
3035.000000	99.599768
3034.000000	99.599331
3033.000000	99.602286
3032.000000	99.607777
3031.000000	99.612505
3030.000000	99.613188
3029.000000	99.608538
3028.000000	99.599688
3027.000000	99.589893
3026.000000	99.583267
3025.000000	99.581923
3024.000000	99.583503
3023.000000	99.582725
3022.000000	99.576916
3021.000000	99.569445
3020.000000	99.566454
3019.000000	99.570032
3018.000000	99.575983
3017.000000	99.578574
3016.000000	99.576060
3015.000000	99.570547
3014.000000	99.563860
3013.000000	99.555437
3012.000000	99.544468
3011.000000	99.532389
3010.000000	99.521949
3009.000000	99.514115
3008.000000	99.507015
3007.000000	99.498351
3006.000000	99.488349
3005.000000	99.479525
3004.000000	99.473510
3003.000000	99.468921
3002.000000	99.463092
3001.000000	99.455485
3000.000000	99.448566
2999.000000	99.445226
2998.000000	99.445889
2997.000000	99.448061
2996.000000	99.447882
2995.000000	99.441877
2994.000000	99.428205
2993.000000	99.407524
2992.000000	99.383145
2991.000000	99.359864
2990.000000	99.341892
2989.000000	99.331104
2988.000000	99.326678
2987.000000	99.326285
2986.000000	99.327913
2985.000000	99.330536
2984.000000	99.332855
2983.000000	99.332129
2982.000000	99.325634
2981.000000	99.313748
2980.000000	99.300623
2979.000000	99.290616
2978.000000	99.284339
2977.000000	99.279108
2976.000000	99.273045
2975.000000	99.267773
2974.000000	99.266726
2973.000000	99.271778
2972.000000	99.282258
2971.000000	99.296503
2970.000000	99.312995
2969.000000	99.329924
2968.000000	99.345100
2967.000000	99.357709
2966.000000	99.369869
2965.000000	99.384989
2964.000000	99.403766
2963.000000	99.422334
2962.000000	99.435376
2961.000000	99.441268
2960.000000	99.443620
2959.000000	99.448026
2958.000000	99.457797
2957.000000	99.472697
2956.000000	99.490239
2955.000000	99.506865
2954.000000	99.518610
2953.000000	99.522821
2952.000000	99.520483
2951.000000	99.516248
2950.000000	99.514917
2949.000000	99.517568
2948.000000	99.521475
2947.000000	99.523203
2946.000000	99.521240
2945.000000	99.516413
2944.000000	99.511490
2943.000000	99.510400
2942.000000	99.515691
2941.000000	99.525294
2940.000000	99.532900
2939.000000	99.533467
2938.000000	99.528255
2937.000000	99.523314
2936.000000	99.523180
2935.000000	99.527315
2934.000000	99.532637
2933.000000	99.537421
2932.000000	99.541703
2931.000000	99.545119
2930.000000	99.546127
2929.000000	99.543543
2928.000000	99.538114
2927.000000	99.532270
2926.000000	99.528298
2925.000000	99.526505
2924.000000	99.525285
2923.000000	99.523577
2922.000000	99.523357
2921.000000	99.528665
2920.000000	99.541534
2919.000000	99.559290
2918.000000	99.576107
2917.000000	99.587263
2916.000000	99.591332
2915.000000	99.589264
2914.000000	99.583148
2913.000000	99.575741
2912.000000	99.569797
2911.000000	99.566836
2910.000000	99.566511
2909.000000	99.567334
2908.000000	99.568000
2907.000000	99.568057
2906.000000	99.567531
2905.000000	99.566115
2904.000000	99.563091
2903.000000	99.558587
2902.000000	99.554773
2901.000000	99.554578
2900.000000	99.558754
2899.000000	99.564868
2898.000000	99.570241
2897.000000	99.574984
2896.000000	99.580674
2895.000000	99.586936
2894.000000	99.591594
2893.000000	99.594251
2892.000000	99.597545
2891.000000	99.603949
2890.000000	99.612756
2889.000000	99.621185
2888.000000	99.627390
2887.000000	99.631538
2886.000000	99.634829
2885.000000	99.638699
2884.000000	99.644537
2883.000000	99.653041
2882.000000	99.663492
2881.000000	99.673947
2880.000000	99.682135
2879.000000	99.686564
2878.000000	99.687707
2877.000000	99.688613
2876.000000	99.693158
2875.000000	99.702661
2874.000000	99.714400
2873.000000	99.724029
2872.000000	99.729562
2871.000000	99.732669
2870.000000	99.736791
2869.000000	99.744585
2868.000000	99.756385
2867.000000	99.769874
2866.000000	99.781393
2865.000000	99.788697
2864.000000	99.792664
2863.000000	99.795972
2862.000000	99.800297
2861.000000	99.805403
2860.000000	99.810568
2859.000000	99.815608
2858.000000	99.820479
2857.000000	99.825038
2856.000000	99.829725
2855.000000	99.835821
2854.000000	99.844719
2853.000000	99.857334
2852.000000	99.873961
2851.000000	99.893520
2850.000000	99.912773
2849.000000	99.927646
2848.000000	99.936151
2847.000000	99.939552
2846.000000	99.940539
2845.000000	99.940868
2844.000000	99.941209
2843.000000	99.942096
2842.000000	99.943749
2841.000000	99.945640
2840.000000	99.947500
2839.000000	99.950478
2838.000000	99.956063
2837.000000	99.963782
2836.000000	99.971051
2835.000000	99.975721
2834.000000	99.978121
2833.000000	99.980482
2832.000000	99.985029
2831.000000	99.992713
2830.000000	100.002748
2829.000000	100.012721
2828.000000	100.019930
2827.000000	100.023457
2826.000000	100.024620
2825.000000	100.025046
2824.000000	100.024913
2823.000000	100.023896
2822.000000	100.023220
2821.000000	100.025257
2820.000000	100.030875
2819.000000	100.038264
2818.000000	100.044706
2817.000000	100.049008
2816.000000	100.051740
2815.000000	100.053923
2814.000000	100.056329
2813.000000	100.059659
2812.000000	100.064306
2811.000000	100.069643
2810.000000	100.074117
2809.000000	100.076588
2808.000000	100.077349
2807.000000	100.077677
2806.000000	100.078656
2805.000000	100.080575
2804.000000	100.083223
2803.000000	100.086347
2802.000000	100.089751
2801.000000	100.093189
2800.000000	100.096349
2799.000000	100.099005
2798.000000	100.101181
2797.000000	100.103197
2796.000000	100.105499
2795.000000	100.108387
2794.000000	100.111822
2793.000000	100.115456
2792.000000	100.118854
2791.000000	100.121812
2790.000000	100.124510
2789.000000	100.127319
2788.000000	100.130404
2787.000000	100.133496
2786.000000	100.136159
2785.000000	100.138226
2784.000000	100.139929
2783.000000	100.141732
2782.000000	100.144026
2781.000000	100.146910
2780.000000	100.150188
2779.000000	100.153458
2778.000000	100.156389
2777.000000	100.158905
2776.000000	100.161106
2775.000000	100.163085
2774.000000	100.164896
2773.000000	100.166635
2772.000000	100.168430
2771.000000	100.170374
2770.000000	100.172525
2769.000000	100.174905
2768.000000	100.177440
2767.000000	100.179948
2766.000000	100.182287
2765.000000	100.184488
2764.000000	100.186685
2763.000000	100.188900
2762.000000	100.191016
2761.000000	100.192986
2760.000000	100.194911
2759.000000	100.196885
2758.000000	100.198842
2757.000000	100.200682
2756.000000	100.202470
2755.000000	100.204369
2754.000000	100.206427
2753.000000	100.208520
2752.000000	100.210491
2751.000000	100.212271
2750.000000	100.213886
2749.000000	100.215425
2748.000000	100.217035
2747.000000	100.218858
2746.000000	100.220926
2745.000000	100.223068
2744.000000	100.224986
2743.000000	100.226485
2742.000000	100.227620
2741.000000	100.228715
2740.000000	100.230092
2739.000000	100.231791
2738.000000	100.233540
2737.000000	100.235090
2736.000000	100.236450
2735.000000	100.237736
2734.000000	100.238953
2733.000000	100.240018
2732.000000	100.240944
2731.000000	100.241857
2730.000000	100.242820
2729.000000	100.243776
2728.000000	100.244687
2727.000000	100.245631
2726.000000	100.246716
2725.000000	100.247935
2724.000000	100.249117
2723.000000	100.250053
2722.000000	100.250674
2721.000000	100.251143
2720.000000	100.251708
2719.000000	100.252408
2718.000000	100.253024
2717.000000	100.253347
2716.000000	100.253417
2715.000000	100.253481
2714.000000	100.253757
2713.000000	100.254273
2712.000000	100.254925
2711.000000	100.255580
2710.000000	100.256133
2709.000000	100.256530
2708.000000	100.256749
2707.000000	100.256780
2706.000000	100.256612
2705.000000	100.256283
2704.000000	100.255903
2703.000000	100.255595
2702.000000	100.255394
2701.000000	100.255252
2700.000000	100.255110
2699.000000	100.254943
2698.000000	100.254715
2697.000000	100.254367
2696.000000	100.253880
2695.000000	100.253312
2694.000000	100.252773
2693.000000	100.252342
2692.000000	100.252017
2691.000000	100.251740
2690.000000	100.251432
2689.000000	100.251054
2688.000000	100.250616
2687.000000	100.250154
2686.000000	100.249707
2685.000000	100.249288
2684.000000	100.248866
2683.000000	100.248385
2682.000000	100.247811
2681.000000	100.247159
2680.000000	100.246494
2679.000000	100.245880
2678.000000	100.245337
2677.000000	100.244837
2676.000000	100.244309
2675.000000	100.243706
2674.000000	100.243030
2673.000000	100.242348
2672.000000	100.241737
2671.000000	100.241219
2670.000000	100.240739
2669.000000	100.240203
2668.000000	100.239564
2667.000000	100.238864
2666.000000	100.238201
2665.000000	100.237656
2664.000000	100.237278
2663.000000	100.237097
2662.000000	100.237095
2661.000000	100.237154
2660.000000	100.237104
2659.000000	100.236879
2658.000000	100.236602
2657.000000	100.236455
2656.000000	100.236457
2655.000000	100.236385
2654.000000	100.235986
2653.000000	100.235227
2652.000000	100.234371
2651.000000	100.233754
2650.000000	100.233505
2649.000000	100.233463
2648.000000	100.233350
2647.000000	100.233067
2646.000000	100.232764
2645.000000	100.232620
2644.000000	100.232616
2643.000000	100.232569
2642.000000	100.232356
2641.000000	100.232037
2640.000000	100.231747
2639.000000	100.231578
2638.000000	100.231574
2637.000000	100.231739
2636.000000	100.231968
2635.000000	100.232035
2634.000000	100.231783
2633.000000	100.231280
2632.000000	100.230774
2631.000000	100.230499
2630.000000	100.230537
2629.000000	100.230815
2628.000000	100.231128
2627.000000	100.231220
2626.000000	100.230967
2625.000000	100.230474
2624.000000	100.229944
2623.000000	100.229488
2622.000000	100.229121
2621.000000	100.228886
2620.000000	100.228832
2619.000000	100.228871
2618.000000	100.228803
2617.000000	100.228554
2616.000000	100.228301
2615.000000	100.228261
2614.000000	100.228451
2613.000000	100.228745
2612.000000	100.229089
2611.000000	100.229506
2610.000000	100.229918
2609.000000	100.230165
2608.000000	100.230184
2607.000000	100.230078
2606.000000	100.230008
2605.000000	100.230039
2604.000000	100.230124
2603.000000	100.230192
2602.000000	100.230213
2601.000000	100.230202
2600.000000	100.230194
2599.000000	100.230218
2598.000000	100.230281
2597.000000	100.230368
2596.000000	100.230462
2595.000000	100.230561
2594.000000	100.230678
2593.000000	100.230822
2592.000000	100.230996
2591.000000	100.231189
2590.000000	100.231382
2589.000000	100.231556
2588.000000	100.231699
2587.000000	100.231813
2586.000000	100.231909
2585.000000	100.232005
2584.000000	100.232115
2583.000000	100.232239
2582.000000	100.232363
2581.000000	100.232476
2580.000000	100.232574
2579.000000	100.232666
2578.000000	100.232760
2577.000000	100.232859
2576.000000	100.232952
2575.000000	100.233027
2574.000000	100.233079
2573.000000	100.233115
2572.000000	100.233158
2571.000000	100.233241
2570.000000	100.233388
2569.000000	100.233574
2568.000000	100.233707
2567.000000	100.233729
2566.000000	100.233728
2565.000000	100.233862
2564.000000	100.234175
2563.000000	100.234562
2562.000000	100.234884
2561.000000	100.235082
2560.000000	100.235195
2559.000000	100.235355
2558.000000	100.235734
2557.000000	100.236412
2556.000000	100.237296
2555.000000	100.238181
2554.000000	100.238910
2553.000000	100.239459
2552.000000	100.239857
2551.000000	100.240126
2550.000000	100.240317
2549.000000	100.240519
2548.000000	100.240806
2547.000000	100.241200
2546.000000	100.241711
2545.000000	100.242354
2544.000000	100.243102
2543.000000	100.243872
2542.000000	100.244590
2541.000000	100.245262
2540.000000	100.245948
2539.000000	100.246697
2538.000000	100.247511
2537.000000	100.248364
2536.000000	100.249234
2535.000000	100.250120
2534.000000	100.251034
2533.000000	100.251984
2532.000000	100.252967
2531.000000	100.253971
2530.000000	100.254978
2529.000000	100.255976
2528.000000	100.256959
2527.000000	100.257926
2526.000000	100.258889
2525.000000	100.259865
2524.000000	100.260866
2523.000000	100.261894
2522.000000	100.262939
2521.000000	100.263986
2520.000000	100.265026
2519.000000	100.266060
2518.000000	100.267102
2517.000000	100.268171
2516.000000	100.269278
2515.000000	100.270427
2514.000000	100.271604
2513.000000	100.272793
2512.000000	100.273983
2511.000000	100.275177
2510.000000	100.276392
2509.000000	100.277644
2508.000000	100.278939
2507.000000	100.280269
2506.000000	100.281621
2505.000000	100.282986
2504.000000	100.284370
2503.000000	100.285781
2502.000000	100.287220
2501.000000	100.288685
2500.000000	100.290169
2499.000000	100.291669
2498.000000	100.293181
2497.000000	100.294703
2496.000000	100.296234
2495.000000	100.297775
2494.000000	100.299326
2493.000000	100.300889
2492.000000	100.302467
2491.000000	100.304062
2490.000000	100.305677
2489.000000	100.307313
2488.000000	100.308976
2487.000000	100.310673
2486.000000	100.312407
2485.000000	100.314177
2484.000000	100.315975
2483.000000	100.317784
2482.000000	100.319562
2481.000000	100.321306
2480.000000	100.323078
2479.000000	100.324938
2478.000000	100.326888
2477.000000	100.328904
2476.000000	100.330981
2475.000000	100.333080
2474.000000	100.335063
2473.000000	100.336769
2472.000000	100.338212
2471.000000	100.339648
2470.000000	100.341360
2469.000000	100.343434
2468.000000	100.345693
2467.000000	100.347826
2466.000000	100.349577
2465.000000	100.350911
2464.000000	100.352123
2463.000000	100.353672
2462.000000	100.355794
2461.000000	100.358349
2460.000000	100.361008
2459.000000	100.363506
2458.000000	100.365741
2457.000000	100.367782
2456.000000	100.369805
2455.000000	100.371851
2454.000000	100.373618
2453.000000	100.374809
2452.000000	100.375742
2451.000000	100.377314
2450.000000	100.380104
2449.000000	100.383710
2448.000000	100.387078
2447.000000	100.389418
2446.000000	100.390612
2445.000000	100.391019
2444.000000	100.391208
2443.000000	100.391638
2442.000000	100.392276
2441.000000	100.392713
2440.000000	100.392845
2439.000000	100.393223
2438.000000	100.394431
2437.000000	100.396321
2436.000000	100.398161
2435.000000	100.399470
2434.000000	100.400416
2433.000000	100.401455
2432.000000	100.402857
2431.000000	100.404634
2430.000000	100.406645
2429.000000	100.408672
2428.000000	100.410470
2427.000000	100.411840
2426.000000	100.412728
2425.000000	100.413258
2424.000000	100.413700
2423.000000	100.414345
2422.000000	100.415313
2421.000000	100.416494
2420.000000	100.417688
2419.000000	100.418756
2418.000000	100.419637
2417.000000	100.420312
2416.000000	100.420804
2415.000000	100.421220
2414.000000	100.421694
2413.000000	100.422285
2412.000000	100.422929
2411.000000	100.423520
2410.000000	100.424050
2409.000000	100.424622
2408.000000	100.425305
2407.000000	100.426043
2406.000000	100.426699
2405.000000	100.427207
2404.000000	100.427594
2403.000000	100.427923
2402.000000	100.428241
2401.000000	100.428563
2400.000000	100.428889
2399.000000	100.429220
2398.000000	100.429526
2397.000000	100.429720
2396.000000	100.429735
2395.000000	100.429587
2394.000000	100.429367
2393.000000	100.429188
2392.000000	100.429089
2391.000000	100.429048
2390.000000	100.428982
2389.000000	100.428797
2388.000000	100.428475
2387.000000	100.428053
2386.000000	100.427596
2385.000000	100.427153
2384.000000	100.426740
2383.000000	100.426332
2382.000000	100.425875
2381.000000	100.425333
2380.000000	100.424729
2379.000000	100.424120
2378.000000	100.423532
2377.000000	100.422943
2376.000000	100.422308
2375.000000	100.421595
2374.000000	100.420795
2373.000000	100.419915
2372.000000	100.418965
2371.000000	100.417942
2370.000000	100.416857
2369.000000	100.415749
2368.000000	100.414652
2367.000000	100.413562
2366.000000	100.412440
2365.000000	100.411241
2364.000000	100.409955
2363.000000	100.408607
2362.000000	100.407227
2361.000000	100.405832
2360.000000	100.404424
2359.000000	100.403002
2358.000000	100.401580
2357.000000	100.400175
2356.000000	100.398794
2355.000000	100.397431
2354.000000	100.396077
2353.000000	100.394714
2352.000000	100.393315
2351.000000	100.391863
2350.000000	100.390363
2349.000000	100.388833
2348.000000	100.387300
2347.000000	100.385784
2346.000000	100.384289
2345.000000	100.382803
2344.000000	100.381308
2343.000000	100.379795
2342.000000	100.378269
2341.000000	100.376739
2340.000000	100.375217
2339.000000	100.373707
2338.000000	100.372201
2337.000000	100.370686
2336.000000	100.369154
2335.000000	100.367613
2334.000000	100.366083
2333.000000	100.364588
2332.000000	100.363136
2331.000000	100.361722
2330.000000	100.360338
2329.000000	100.358999
2328.000000	100.357700
2327.000000	100.356386
2326.000000	100.354965
2325.000000	100.353415
2324.000000	100.351808
2323.000000	100.350255
2322.000000	100.348774
2321.000000	100.347285
2320.000000	100.345760
2319.000000	100.344467
2318.000000	100.343588
2317.000000	100.342927
2316.000000	100.341885
2315.000000	100.340312
2314.000000	100.338579
2313.000000	100.337323
2312.000000	100.336599
2311.000000	100.336319
2310.000000	100.336363
2309.000000	100.336578
2308.000000	100.336207
2307.000000	100.334916
2306.000000	100.333113
2305.000000	100.331579
2304.000000	100.330251
2303.000000	100.328700
2302.000000	100.326723
2301.000000	100.324784
2300.000000	100.323106
2299.000000	100.321590
2298.000000	100.319547
2297.000000	100.316617
2296.000000	100.313133
2295.000000	100.310738
2294.000000	100.310998
2293.000000	100.313975
2292.000000	100.317494
2291.000000	100.319201
2290.000000	100.318510
2289.000000	100.316482
2288.000000	100.314172
2287.000000	100.311776
2286.000000	100.309172
2285.000000	100.306316
2284.000000	100.303355
2283.000000	100.300525
2282.000000	100.298076
2281.000000	100.295818
2280.000000	100.293180
2279.000000	100.289874
2278.000000	100.286448
2277.000000	100.283761
2276.000000	100.282003
2275.000000	100.280610
2274.000000	100.278940
2273.000000	100.276815
2272.000000	100.274479
2271.000000	100.272573
2270.000000	100.271784
2269.000000	100.272061
2268.000000	100.272318
2267.000000	100.271531
2266.000000	100.269966
2265.000000	100.268814
2264.000000	100.268679
2263.000000	100.268953
2262.000000	100.268689
2261.000000	100.267561
2260.000000	100.265875
2259.000000	100.264002
2258.000000	100.262095
2257.000000	100.260112
2256.000000	100.258052
2255.000000	100.256196
2254.000000	100.255065
2253.000000	100.254892
2252.000000	100.255145
2251.000000	100.254928
2250.000000	100.253949
2249.000000	100.252833
2248.000000	100.252246
2247.000000	100.252037
2246.000000	100.251400
2245.000000	100.249758
2244.000000	100.247277
2243.000000	100.244741
2242.000000	100.242997
2241.000000	100.242434
2240.000000	100.242903
2239.000000	100.243882
2238.000000	100.244808
2237.000000	100.245353
2236.000000	100.245432
2235.000000	100.245030
2234.000000	100.244106
2233.000000	100.242677
2232.000000	100.240989
2231.000000	100.239533
2230.000000	100.238721
2229.000000	100.238558
2228.000000	100.238670
2227.000000	100.238715
2226.000000	100.238701
2225.000000	100.238754
2224.000000	100.238701
2223.000000	100.238134
2222.000000	100.236948
2221.000000	100.235648
2220.000000	100.234904
2219.000000	100.234862
2218.000000	100.235059
2217.000000	100.235022
2216.000000	100.234853
2215.000000	100.235094
2214.000000	100.236116
2213.000000	100.237734
2212.000000	100.239326
2211.000000	100.240295
2210.000000	100.240451
2209.000000	100.240054
2208.000000	100.239582
2207.000000	100.239372
2206.000000	100.239378
2205.000000	100.239251
2204.000000	100.238715
2203.000000	100.237919
2202.000000	100.237364
2201.000000	100.237457
2200.000000	100.238258
2199.000000	100.239596
2198.000000	100.241161
2197.000000	100.242471
2196.000000	100.243059
2195.000000	100.242896
2194.000000	100.242548
2193.000000	100.242639
2192.000000	100.243218
2191.000000	100.243949
2190.000000	100.244774
2189.000000	100.245972
2188.000000	100.247537
2187.000000	100.248893
2186.000000	100.249463
2185.000000	100.249255
2184.000000	100.248747
2183.000000	100.248360
2182.000000	100.248239
2181.000000	100.248447
2180.000000	100.249118
2179.000000	100.250411
2178.000000	100.252376
2177.000000	100.254802
2176.000000	100.257139
2175.000000	100.258793
2174.000000	100.259541
2173.000000	100.259619
2172.000000	100.259502
2171.000000	100.259696
2170.000000	100.260589
2169.000000	100.262127
2168.000000	100.263706
2167.000000	100.264761
2166.000000	100.265306
2165.000000	100.265548
2164.000000	100.265365
2163.000000	100.264908
2162.000000	100.265428
2161.000000	100.268419
2160.000000	100.273828
2159.000000	100.279757
2158.000000	100.284334
2157.000000	100.287284
2156.000000	100.289242
2155.000000	100.290526
2154.000000	100.291199
2153.000000	100.291643
2152.000000	100.292170
2151.000000	100.292520
2150.000000	100.292426
2149.000000	100.292162
2148.000000	100.291923
2147.000000	100.291305
2146.000000	100.290282
2145.000000	100.290083
2144.000000	100.291964
2143.000000	100.295488
2142.000000	100.299052
2141.000000	100.301947
2140.000000	100.304791
2139.000000	100.308090
2138.000000	100.311653
2137.000000	100.315433
2136.000000	100.319650
2135.000000	100.323757
2134.000000	100.326430
2133.000000	100.327239
2132.000000	100.327603
2131.000000	100.329488
2130.000000	100.333519
2129.000000	100.338735
2128.000000	100.343519
2127.000000	100.346448
2126.000000	100.346807
2125.000000	100.345073
2124.000000	100.342973
2123.000000	100.342290
2122.000000	100.343470
2121.000000	100.345770
2120.000000	100.348400
2119.000000	100.351164
2118.000000	100.354090
2117.000000	100.357048
2116.000000	100.359993
2115.000000	100.363158
2114.000000	100.366692
2113.000000	100.370266
2112.000000	100.373288
2111.000000	100.375476
2110.000000	100.377085
2109.000000	100.378614
2108.000000	100.380350
2107.000000	100.382271
2106.000000	100.384302
2105.000000	100.386496
2104.000000	100.388870
2103.000000	100.391206
2102.000000	100.393232
2101.000000	100.394930
2100.000000	100.396548
2099.000000	100.398318
2098.000000	100.400270
2097.000000	100.402264
2096.000000	100.404103
2095.000000	100.405643
2094.000000	100.406950
2093.000000	100.408360
2092.000000	100.410178
2091.000000	100.412262
2090.000000	100.414097
2089.000000	100.415430
2088.000000	100.416665
2087.000000	100.418407
2086.000000	100.420655
2085.000000	100.422748
2084.000000	100.424123
2083.000000	100.424880
2082.000000	100.425550
2081.000000	100.426444
2080.000000	100.427468
2079.000000	100.428532
2078.000000	100.429893
2077.000000	100.431936
2076.000000	100.434587
2075.000000	100.437032
2074.000000	100.438309
2073.000000	100.438222
2072.000000	100.437606
2071.000000	100.437566
2070.000000	100.438518
2069.000000	100.440174
2068.000000	100.442056
2067.000000	100.443698
2066.000000	100.444533
2065.000000	100.444115
2064.000000	100.442653
2063.000000	100.441112
2062.000000	100.440572
2061.000000	100.441501
2060.000000	100.443518
2059.000000	100.445589
2058.000000	100.446651
2057.000000	100.446386
2056.000000	100.445361
2055.000000	100.444357
2054.000000	100.443641
2053.000000	100.443086
2052.000000	100.442775
2051.000000	100.443041
2050.000000	100.443925
2049.000000	100.444955
2048.000000	100.445536
2047.000000	100.445306
2046.000000	100.444180
2045.000000	100.442379
2044.000000	100.440469
2043.000000	100.439090
2042.000000	100.438420
2041.000000	100.437958
2040.000000	100.436954
2039.000000	100.435104
2038.000000	100.432868
2037.000000	100.431098
2036.000000	100.430179
2035.000000	100.429562
2034.000000	100.428297
2033.000000	100.426097
2032.000000	100.423689
2031.000000	100.422030
2030.000000	100.421334
2029.000000	100.421006
2028.000000	100.420308
2027.000000	100.418949
2026.000000	100.417162
2025.000000	100.415445
2024.000000	100.414181
2023.000000	100.413304
2022.000000	100.412278
2021.000000	100.410534
2020.000000	100.407904
2019.000000	100.404640
2018.000000	100.401226
2017.000000	100.398194
2016.000000	100.395914
2015.000000	100.394395
2014.000000	100.393271
2013.000000	100.392028
2012.000000	100.390329
2011.000000	100.388106
2010.000000	100.385468
2009.000000	100.382685
2008.000000	100.380159
2007.000000	100.378171
2006.000000	100.376671
2005.000000	100.375337
2004.000000	100.373875
2003.000000	100.372230
2002.000000	100.370454
2001.000000	100.368561
2000.000000	100.366598
1999.000000	100.364746
1998.000000	100.363144
1997.000000	100.361637
1996.000000	100.359872
1995.000000	100.357707
1994.000000	100.355401
1993.000000	100.353357
1992.000000	100.351722
1991.000000	100.350300
1990.000000	100.348795
1989.000000	100.347115
1988.000000	100.345445
1987.000000	100.344061
1986.000000	100.343024
1985.000000	100.342057
1984.000000	100.340763
1983.000000	100.339014
1982.000000	100.337105
1981.000000	100.335517
1980.000000	100.334517
1979.000000	100.333998
1978.000000	100.333549
1977.000000	100.332675
1976.000000	100.331071
1975.000000	100.328809
1974.000000	100.326318
1973.000000	100.324112
1972.000000	100.322393
1971.000000	100.321007
1970.000000	100.319780
1969.000000	100.318798
1968.000000	100.318240
1967.000000	100.317995
1966.000000	100.317638
1965.000000	100.316838
1964.000000	100.315577
1963.000000	100.313943
1962.000000	100.311887
1961.000000	100.309361
1960.000000	100.306525
1959.000000	100.303637
1958.000000	100.300887
1957.000000	100.298516
1956.000000	100.296881
1955.000000	100.296054
1954.000000	100.295402
1953.000000	100.293955
1952.000000	100.291327
1951.000000	100.288027
1950.000000	100.284901
1949.000000	100.282536
1948.000000	100.281236
1947.000000	100.281054
1946.000000	100.281422
1945.000000	100.281088
1944.000000	100.279060
1943.000000	100.275663
1942.000000	100.272351
1941.000000	100.270123
1940.000000	100.268567
1939.000000	100.266635
1938.000000	100.263716
1937.000000	100.259953
1936.000000	100.256053
1935.000000	100.252983
1934.000000	100.251467
1933.000000	100.251198
1932.000000	100.250524
1931.000000	100.247666
1930.000000	100.242519
1929.000000	100.237016
1928.000000	100.233313
1927.000000	100.231828
1926.000000	100.231454
1925.000000	100.231114
1924.000000	100.230513
1923.000000	100.229488
1922.000000	100.227478
1921.000000	100.224017
1920.000000	100.219266
1919.000000	100.213911
1918.000000	100.209065
1917.000000	100.205875
1916.000000	100.204357
1915.000000	100.202789
1914.000000	100.198927
1913.000000	100.192316
1912.000000	100.185113
1911.000000	100.179842
1910.000000	100.176508
1909.000000	100.172958
1908.000000	100.167782
1907.000000	100.161332
1906.000000	100.153927
1905.000000	100.144900
1904.000000	100.134442
1903.000000	100.124940
1902.000000	100.118747
1901.000000	100.115057
1900.000000	100.110712
1899.000000	100.104187
1898.000000	100.097246
1897.000000	100.092281
1896.000000	100.089585
1895.000000	100.087897
1894.000000	100.086289
1893.000000	100.084106
1892.000000	100.079978
1891.000000	100.072698
1890.000000	100.063456
1889.000000	100.055919
1888.000000	100.052849
1887.000000	100.053786
1886.000000	100.056125
1885.000000	100.057117
1884.000000	100.055480
1883.000000	100.052225
1882.000000	100.049480
1881.000000	100.047992
1880.000000	100.046438
1879.000000	100.043736
1878.000000	100.041038
1877.000000	100.039956
1876.000000	100.039311
1875.000000	100.035749
1874.000000	100.028190
1873.000000	100.019921
1872.000000	100.015290
1871.000000	100.015877
1870.000000	100.020634
1869.000000	100.027811
1868.000000	100.035489
1867.000000	100.041751
1866.000000	100.045998
1865.000000	100.049126
1864.000000	100.052017
1863.000000	100.054552
1862.000000	100.056484
1861.000000	100.058762
1860.000000	100.062913
1859.000000	100.069031
1858.000000	100.075355
1857.000000	100.080272
1856.000000	100.084266
1855.000000	100.089408
1854.000000	100.097000
1853.000000	100.106067
1852.000000	100.114475
1851.000000	100.121081
1850.000000	100.126680
1849.000000	100.133036
1848.000000	100.141026
1847.000000	100.149429
1846.000000	100.155498
1845.000000	100.157157
1844.000000	100.155530
1843.000000	100.154359
1842.000000	100.155774
1841.000000	100.158671
1840.000000	100.161235
1839.000000	100.163234
1838.000000	100.165939
1837.000000	100.170278
1836.000000	100.175429
1835.000000	100.179335
1834.000000	100.180350
1833.000000	100.178484
1832.000000	100.175642
1831.000000	100.174880
1830.000000	100.178604
1829.000000	100.186065
1828.000000	100.193669
1827.000000	100.198478
1826.000000	100.199882
1825.000000	100.199219
1824.000000	100.198492
1823.000000	100.198654
1822.000000	100.199544
1821.000000	100.201025
1820.000000	100.203186
1819.000000	100.205485
1818.000000	100.206601
1817.000000	100.205738
1816.000000	100.203898
1815.000000	100.203223
1814.000000	100.204842
1813.000000	100.207588
1812.000000	100.208739
1811.000000	100.206573
1810.000000	100.202585
1809.000000	100.200486
1808.000000	100.202582
1807.000000	100.207908
1806.000000	100.213606
1805.000000	100.217501
1804.000000	100.219495
1803.000000	100.221134
1802.000000	100.223924
1801.000000	100.227574
1800.000000	100.229622
1799.000000	100.228069
1798.000000	100.224420
1797.000000	100.222679
1796.000000	100.225059
1795.000000	100.229657
1794.000000	100.232368
1793.000000	100.231262
1792.000000	100.229009
1791.000000	100.229445
1790.000000	100.233275
1789.000000	100.239281
1788.000000	100.246617
1787.000000	100.254837
1786.000000	100.263282
1785.000000	100.271223
1784.000000	100.278212
1783.000000	100.283933
1782.000000	100.287839
1781.000000	100.289959
1780.000000	100.291872
1779.000000	100.295952
1778.000000	100.303352
1777.000000	100.313087
1776.000000	100.322813
1775.000000	100.330442
1774.000000	100.335398
1773.000000	100.339099
1772.000000	100.344373
1771.000000	100.352315
1770.000000	100.360917
1769.000000	100.367557
1768.000000	100.370830
1767.000000	100.371300
1766.000000	100.371477
1765.000000	100.373990
1764.000000	100.379227
1763.000000	100.384632
1762.000000	100.386916
1761.000000	100.386584
1760.000000	100.387765
1759.000000	100.392690
1758.000000	100.399354
1757.000000	100.404964
1756.000000	100.409785
1755.000000	100.415786
1754.000000	100.422539
1753.000000	100.427070
1752.000000	100.427058
1751.000000	100.423396
1750.000000	100.419676
1749.000000	100.419058
1748.000000	100.422874
1747.000000	100.430012
1746.000000	100.436660
1745.000000	100.439217
1744.000000	100.438076
1743.000000	100.437449
1742.000000	100.440265
1741.000000	100.445031
1740.000000	100.448589
1739.000000	100.449843
1738.000000	100.449265
1737.000000	100.446659
1736.000000	100.441637
1735.000000	100.435893
1734.000000	100.432831
1733.000000	100.432180
1732.000000	100.431169
1731.000000	100.429908
1730.000000	100.429614
1729.000000	100.429937
1728.000000	100.429400
1727.000000	100.427890
1726.000000	100.426857
1725.000000	100.427088
1724.000000	100.427615
1723.000000	100.427452
1722.000000	100.426723
1721.000000	100.425186
1720.000000	100.421022
1719.000000	100.412741
1718.000000	100.403030
1717.000000	100.397892
1716.000000	100.398096
1715.000000	100.399094
1714.000000	100.398137
1713.000000	100.395320
1712.000000	100.390947
1711.000000	100.384423
1710.000000	100.375314
1709.000000	100.364682
1708.000000	100.354513
1707.000000	100.346160
1706.000000	100.340881
1705.000000	100.339864
1704.000000	100.341875
1703.000000	100.343171
1702.000000	100.339282
1701.000000	100.326146
1700.000000	100.305599
1699.000000	100.286073
1698.000000	100.271423
1697.000000	100.260022
1696.000000	100.251071
1695.000000	100.244543
1694.000000	100.239529
1693.000000	100.234985
1692.000000	100.229655
1691.000000	100.222630
1690.000000	100.213593
1689.000000	100.203110
1688.000000	100.192251
1687.000000	100.180920
1686.000000	100.167483
1685.000000	100.150974
1684.000000	100.136116
1683.000000	100.127635
1682.000000	100.121883
1681.000000	100.114371
1680.000000	100.104939
1679.000000	100.095794
1678.000000	100.087791
1677.000000	100.079469
1676.000000	100.069693
1675.000000	100.059953
1674.000000	100.052003
1673.000000	100.045179
1672.000000	100.037640
1671.000000	100.028224
1670.000000	100.017430
1669.000000	100.007493
1668.000000	100.000694
1667.000000	99.997230
1666.000000	99.994434
1665.000000	99.988349
1664.000000	99.976919
1663.000000	99.962986
1662.000000	99.952124
1661.000000	99.945625
1660.000000	99.940406
1659.000000	99.934496
1658.000000	99.928784
1657.000000	99.924739
1656.000000	99.921759
1655.000000	99.916431
1654.000000	99.903148
1653.000000	99.882855
1652.000000	99.866328
1651.000000	99.859113
1650.000000	99.857269
1649.000000	99.854335
1648.000000	99.849169
1647.000000	99.846673
1646.000000	99.848918
1645.000000	99.850716
1644.000000	99.849491
1643.000000	99.847207
1642.000000	99.845504
1641.000000	99.844319
1640.000000	99.842844
1639.000000	99.840735
1638.000000	99.838219
1637.000000	99.835617
1636.000000	99.833918
1635.000000	99.833678
1634.000000	99.833398
1633.000000	99.832879
1632.000000	99.833180
1631.000000	99.834803
1630.000000	99.836546
1629.000000	99.836012
1628.000000	99.833166
1627.000000	99.831673
1626.000000	99.834266
1625.000000	99.839686
1624.000000	99.844990
1623.000000	99.848745
1622.000000	99.850476
1621.000000	99.849599
1620.000000	99.846869
1619.000000	99.844743
1618.000000	99.845628
1617.000000	99.848746
1616.000000	99.851058
1615.000000	99.853307
1614.000000	99.858597
1613.000000	99.866769
1612.000000	99.875482
1611.000000	99.883256
1610.000000	99.889622
1609.000000	99.893582
1608.000000	99.894502
1607.000000	99.894639
1606.000000	99.897758
1605.000000	99.904897
1604.000000	99.913502
1603.000000	99.920959
1602.000000	99.927665
1601.000000	99.935708
1600.000000	99.945594
1599.000000	99.955337
1598.000000	99.962437
1597.000000	99.966330
1596.000000	99.968940
1595.000000	99.973137
1594.000000	99.980280
1593.000000	99.989067
1592.000000	99.996865
1591.000000	100.001958
1590.000000	100.004607
1589.000000	100.006627
1588.000000	100.010150
1587.000000	100.016327
1586.000000	100.024696
1585.000000	100.033563
1584.000000	100.041376
1583.000000	100.047628
1582.000000	100.052707
1581.000000	100.057354
1580.000000	100.062335
1579.000000	100.068199
1578.000000	100.075078
1577.000000	100.082371
1576.000000	100.088725
1575.000000	100.093395
1574.000000	100.097124
1573.000000	100.100785
1572.000000	100.104873
1571.000000	100.110019
1570.000000	100.116535
1569.000000	100.123442
1568.000000	100.129438
1567.000000	100.134530
1566.000000	100.139026
1565.000000	100.142353
1564.000000	100.143805
1563.000000	100.143702
1562.000000	100.143239
1561.000000	100.143650
1560.000000	100.146046
1559.000000	100.152687
1558.000000	100.161947
1557.000000	100.167548
1556.000000	100.169408
1555.000000	100.169504
1554.000000	100.169754
1553.000000	100.171930
1552.000000	100.176387
1551.000000	100.181435
1550.000000	100.184491
1549.000000	100.184324
1548.000000	100.182466
1547.000000	100.181782
1546.000000	100.184072
1545.000000	100.189191
1544.000000	100.195342
1543.000000	100.200342
1542.000000	100.203174
1541.000000	100.204763
1540.000000	100.207164
1539.000000	100.209540
1538.000000	100.209339
1537.000000	100.206766
1536.000000	100.202349
1535.000000	100.196573
1534.000000	100.191404
1533.000000	100.189473
1532.000000	100.190465
1531.000000	100.191860
1530.000000	100.192377
1529.000000	100.192208
1528.000000	100.192205
1527.000000	100.193272
1526.000000	100.195120
1525.000000	100.195919
1524.000000	100.193814
1523.000000	100.188873
1522.000000	100.184446
1521.000000	100.185055
1520.000000	100.190328
1519.000000	100.196247
1518.000000	100.200544
1517.000000	100.203565
1516.000000	100.206280
1515.000000	100.208523
1514.000000	100.209918
1513.000000	100.210921
1512.000000	100.212406
1511.000000	100.214852
1510.000000	100.218175
1509.000000	100.222283
1508.000000	100.227056
1507.000000	100.231073
1506.000000	100.230509
1505.000000	100.224432
1504.000000	100.218225
1503.000000	100.215071
1502.000000	100.214826
1501.000000	100.216910
1500.000000	100.220573
1499.000000	100.224238
1498.000000	100.226253
1497.000000	100.226461
1496.000000	100.225977
1495.000000	100.225577
1494.000000	100.225650
1493.000000	100.226690
1492.000000	100.228669
1491.000000	100.229919
1490.000000	100.227844
1489.000000	100.222273
1488.000000	100.215799
1487.000000	100.210444
1486.000000	100.206406
1485.000000	100.203330
1484.000000	100.201540
1483.000000	100.201286
1482.000000	100.201410
1481.000000	100.199938
1480.000000	100.196328
1479.000000	100.192153
1478.000000	100.189549
1477.000000	100.189788
1476.000000	100.192787
1475.000000	100.197192
1474.000000	100.200740
1473.000000	100.200784
1472.000000	100.196047
1471.000000	100.188196
1470.000000	100.180697
1469.000000	100.175969
1468.000000	100.174056
1467.000000	100.172569
1466.000000	100.167662
1465.000000	100.157271
1464.000000	100.143732
1463.000000	100.131207
1462.000000	100.121626
1461.000000	100.114898
1460.000000	100.110379
1459.000000	100.106699
1458.000000	100.101481
1457.000000	100.094669
1456.000000	100.090397
1455.000000	100.090668
1454.000000	100.091854
1453.000000	100.088737
1452.000000	100.080265
1451.000000	100.070328
1450.000000	100.063039
1449.000000	100.059146
1448.000000	100.057464
1447.000000	100.057070
1446.000000	100.057207
1445.000000	100.057286
1444.000000	100.056865
1443.000000	100.055106
1442.000000	100.050823
1441.000000	100.043762
1440.000000	100.035342
1439.000000	100.026927
1438.000000	100.018250
1437.000000	100.009289
1436.000000	100.002478
1435.000000	99.998465
1434.000000	99.993968
1433.000000	99.986680
1432.000000	99.978813
1431.000000	99.974900
1430.000000	99.975094
1429.000000	99.973797
1428.000000	99.967234
1427.000000	99.958096
1426.000000	99.950975
1425.000000	99.947890
1424.000000	99.948778
1423.000000	99.952119
1422.000000	99.954946
1421.000000	99.955219
1420.000000	99.954681
1419.000000	99.958046
1418.000000	99.965578
1417.000000	99.971804
1416.000000	99.974391
1415.000000	99.976270
1414.000000	99.980528
1413.000000	99.986529
1412.000000	99.991596
1411.000000	99.994986
1410.000000	99.998253
1409.000000	100.002267
1408.000000	100.005985
1407.000000	100.008693
1406.000000	100.012486
1405.000000	100.021571
1404.000000	100.038165
1403.000000	100.059283
1402.000000	100.079302
1401.000000	100.094565
1400.000000	100.105073
1399.000000	100.113811
1398.000000	100.123016
1397.000000	100.130916
1396.000000	100.134003
1395.000000	100.132634
1394.000000	100.133294
1393.000000	100.142618
1392.000000	100.160894
1391.000000	100.182707
1390.000000	100.201824
1389.000000	100.215254
1388.000000	100.223709
1387.000000	100.229137
1386.000000	100.232364
1385.000000	100.233837
1384.000000	100.235398
1383.000000	100.239454
1382.000000	100.246462
1381.000000	100.254117
1380.000000	100.259885
1379.000000	100.263998
1378.000000	100.269044
1377.000000	100.276858
1376.000000	100.287051
1375.000000	100.298447
1374.000000	100.310358
1373.000000	100.321827
1372.000000	100.331393
1371.000000	100.338771
1370.000000	100.345775
1369.000000	100.354976
1368.000000	100.367220
1367.000000	100.380407
1366.000000	100.391235
1365.000000	100.397533
1364.000000	100.398918
1363.000000	100.396949
1362.000000	100.395085
1361.000000	100.397027
1360.000000	100.404587
1359.000000	100.416666
1358.000000	100.429534
1357.000000	100.439091
1356.000000	100.444080
1355.000000	100.446666
1354.000000	100.449209
1353.000000	100.451213
1352.000000	100.450569
1351.000000	100.447014
1350.000000	100.442617
1349.000000	100.438846
1348.000000	100.435471
1347.000000	100.432989
1346.000000	100.433712
1345.000000	100.438648
1344.000000	100.444939
1343.000000	100.448311
1342.000000	100.447336
1341.000000	100.444085
1340.000000	100.441466
1339.000000	100.440851
1338.000000	100.441849
1337.000000	100.443424
1336.000000	100.444871
1335.000000	100.446368
1334.000000	100.448830
1333.000000	100.452528
1332.000000	100.455862
1331.000000	100.456402
1330.000000	100.453235
1329.000000	100.447709
1328.000000	100.442223
1327.000000	100.439114
1326.000000	100.439982
1325.000000	100.444334
1324.000000	100.448880
1323.000000	100.449711
1322.000000	100.446226
1321.000000	100.442239
1320.000000	100.442128
1319.000000	100.445796
1318.000000	100.448433
1317.000000	100.446046
1316.000000	100.440251
1315.000000	100.436636
1314.000000	100.438668
1313.000000	100.444109
1312.000000	100.448000
1311.000000	100.448365
1310.000000	100.447311
1309.000000	100.446866
1308.000000	100.446068
1307.000000	100.443494
1306.000000	100.440907
1305.000000	100.441701
1304.000000	100.445989
1303.000000	100.449723
1302.000000	100.449626
1301.000000	100.446991
1300.000000	100.445277
1299.000000	100.445480
1298.000000	100.445749
1297.000000	100.444859
1296.000000	100.443959
1295.000000	100.444784
1294.000000	100.447605
1293.000000	100.451161
1292.000000	100.453454
1291.000000	100.452531
1290.000000	100.447824
1289.000000	100.440879
1288.000000	100.433479
1287.000000	100.425277
1286.000000	100.415270
1285.000000	100.405470
1284.000000	100.400086
1283.000000	100.399862
1282.000000	100.400096
1281.000000	100.396555
1280.000000	100.390950
1279.000000	100.387698
1278.000000	100.387239
1277.000000	100.386271
1276.000000	100.383359
1275.000000	100.380210
1274.000000	100.377612
1273.000000	100.374028
1272.000000	100.368746
1271.000000	100.363181
1270.000000	100.358518
1269.000000	100.355095
1268.000000	100.354211
1267.000000	100.356834
1266.000000	100.360266
1265.000000	100.360329
1264.000000	100.357538
1263.000000	100.356517
1262.000000	100.357979
1261.000000	100.356179
1260.000000	100.346880
1259.000000	100.333666
1258.000000	100.323246
1257.000000	100.317928
1256.000000	100.315399
1255.000000	100.312030
1254.000000	100.303431
1253.000000	100.285789
1252.000000	100.260978
1251.000000	100.238012
1250.000000	100.225359
1249.000000	100.223156
1248.000000	100.225522
1247.000000	100.227360
1246.000000	100.225475
1245.000000	100.216781
1244.000000	100.200952
1243.000000	100.183329
1242.000000	100.169761
1241.000000	100.158854
1240.000000	100.144053
1239.000000	100.122992
1238.000000	100.100119
1237.000000	100.079655
1236.000000	100.060336
1235.000000	100.038663
1234.000000	100.013981
1233.000000	99.988143
1232.000000	99.961869
1231.000000	99.933097
1230.000000	99.898499
1229.000000	99.856535
1228.000000	99.809513
1227.000000	99.761840
1226.000000	99.715138
1225.000000	99.666205
1224.000000	99.611223
1223.000000	99.550454
1222.000000	99.486993
1221.000000	99.422408
1220.000000	99.355781
1219.000000	99.285634
1218.000000	99.210424
1217.000000	99.128261
1216.000000	99.038323
1215.000000	98.941757
1214.000000	98.840030
1213.000000	98.734278
1212.000000	98.627680
1211.000000	98.525330
1210.000000	98.428941
1209.000000	98.334686
1208.000000	98.239283
1207.000000	98.144872
1206.000000	98.054160
1205.000000	97.963926
1204.000000	97.868534
1203.000000	97.768478
1202.000000	97.670939
1201.000000	97.581776
1200.000000	97.499473
1199.000000	97.416833
1198.000000	97.327653
1197.000000	97.233176
1196.000000	97.142722
1195.000000	97.065599
1194.000000	97.000955
1193.000000	96.937680
1192.000000	96.865030
1191.000000	96.780581
1190.000000	96.687873
1189.000000	96.591320
1188.000000	96.495806
1187.000000	96.406424
1186.000000	96.324000
1185.000000	96.243178
1184.000000	96.158282
1183.000000	96.069087
1182.000000	95.978526
1181.000000	95.887532
1180.000000	95.795337
1179.000000	95.702535
1178.000000	95.609848
1177.000000	95.514325
1176.000000	95.409755
1175.000000	95.291847
1174.000000	95.162947
1173.000000	95.031570
1172.000000	94.905881
1171.000000	94.785839
1170.000000	94.662890
1169.000000	94.529739
1168.000000	94.388577
1167.000000	94.247181
1166.000000	94.111815
1165.000000	93.991319
1164.000000	93.904769
1163.000000	93.873450
1162.000000	93.901780
1161.000000	93.971667
1160.000000	94.056227
1159.000000	94.133561
1158.000000	94.188911
1157.000000	94.214102
1156.000000	94.209038
1155.000000	94.178199
1154.000000	94.123347
1153.000000	94.044097
1152.000000	93.946039
1151.000000	93.841879
1150.000000	93.742397
1149.000000	93.650861
1148.000000	93.566077
1147.000000	93.483666
1146.000000	93.394078
1145.000000	93.288443
1144.000000	93.169511
1143.000000	93.050574
1142.000000	92.941580
1141.000000	92.842141
1140.000000	92.748003
1139.000000	92.654903
1138.000000	92.554364
1137.000000	92.436173
1136.000000	92.300396
1135.000000	92.160423
1134.000000	92.029754
1133.000000	91.910435
1132.000000	91.795981
1131.000000	91.678683
1130.000000	91.552421
1129.000000	91.415867
1128.000000	91.275286
1127.000000	91.138364
1126.000000	91.004925
1125.000000	90.870478
1124.000000	90.737162
1123.000000	90.611029
1122.000000	90.488891
1121.000000	90.359468
1120.000000	90.219024
1119.000000	90.074705
1118.000000	89.930642
1117.000000	89.782572
1116.000000	89.628753
1115.000000	89.474570
1114.000000	89.323601
1113.000000	89.175457
1112.000000	89.034959
1111.000000	88.911289
1110.000000	88.803997
1109.000000	88.699801
1108.000000	88.585766
1107.000000	88.456853
1106.000000	88.311568
1105.000000	88.152533
1104.000000	87.991970
1103.000000	87.843565
1102.000000	87.706534
1101.000000	87.568976
1100.000000	87.426904
1099.000000	87.286636
1098.000000	87.149479
1097.000000	87.009420
1096.000000	86.866292
1095.000000	86.724824
1094.000000	86.580257
1093.000000	86.422909
1092.000000	86.258394
1091.000000	86.104361
1090.000000	85.964740
1089.000000	85.826816
1088.000000	85.686435
1087.000000	85.554204
1086.000000	85.431600
1085.000000	85.303528
1084.000000	85.163292
1083.000000	85.025064
1082.000000	84.902256
1081.000000	84.790918
1080.000000	84.682707
1079.000000	84.577104
1078.000000	84.472924
1077.000000	84.364028
1076.000000	84.250614
1075.000000	84.139750
1074.000000	84.029857
1073.000000	83.910174
1072.000000	83.777720
1071.000000	83.636753
1070.000000	83.479834
1069.000000	83.290384
1068.000000	83.068688
1067.000000	82.835897
1066.000000	82.606751
1065.000000	82.377471
1064.000000	82.145838
1063.000000	81.920838
1062.000000	81.705282
1061.000000	81.490377
1060.000000	81.275615
1059.000000	81.073647
1058.000000	80.888040
1057.000000	80.706421
1056.000000	80.522349
1055.000000	80.342803
1054.000000	80.167025
1053.000000	79.979982
1052.000000	79.776651
1051.000000	79.571459
1050.000000	79.372800
1049.000000	79.169867
1048.000000	78.954164
1047.000000	78.730007
1046.000000	78.496511
1045.000000	78.243483
1044.000000	77.970824
1043.000000	77.688783
1042.000000	77.394464
1041.000000	77.073248
1040.000000	76.731207
1039.000000	76.400743
1038.000000	76.102681
1037.000000	75.825128
1036.000000	75.549189
1035.000000	75.273150
1034.000000	75.002750
1033.000000	74.741356
1032.000000	74.499734
1031.000000	74.292598
1030.000000	74.115597
1029.000000	73.946369
1028.000000	73.775637
1027.000000	73.615584
1026.000000	73.472306
1025.000000	73.335459
1024.000000	73.201702
1023.000000	73.081740
1022.000000	72.975142
1021.000000	72.862975
1020.000000	72.734547
1019.000000	72.598929
1018.000000	72.463482
1017.000000	72.324871
1016.000000	72.186756
1015.000000	72.060324
1014.000000	71.940330
1013.000000	71.806453
1012.000000	71.656246
1011.000000	71.511890
1010.000000	71.387254
1009.000000	71.272753
1008.000000	71.158541
1007.000000	71.047036
1006.000000	70.936078
1005.000000	70.815802
1004.000000	70.689926
1003.000000	70.575969
1002.000000	70.478330
1001.000000	70.385047
1000.000000	70.294796
999.000000	70.219978
998.000000	70.157856
997.000000	70.086565
996.000000	69.997100
995.000000	69.903471
994.000000	69.815440
993.000000	69.728121
992.000000	69.644033
991.000000	69.576946
990.000000	69.525957
989.000000	69.472864
988.000000	69.413505
987.000000	69.365910
986.000000	69.340685
985.000000	69.330079
984.000000	69.332943
983.000000	69.362566
982.000000	69.420930
981.000000	69.491948
980.000000	69.569735
979.000000	69.668927
978.000000	69.798557
977.000000	69.949903
976.000000	70.117817
975.000000	70.310497
974.000000	70.530431
973.000000	70.768201
972.000000	71.021459
971.000000	71.298390
970.000000	71.597899
969.000000	71.908477
968.000000	72.230138
967.000000	72.574189
966.000000	72.937636
965.000000	73.301078
964.000000	73.655689
963.000000	74.009487
962.000000	74.364070
961.000000	74.708850
960.000000	75.042126
959.000000	75.374513
958.000000	75.706588
957.000000	76.024793
956.000000	76.323675
955.000000	76.611232
954.000000	76.889306
953.000000	77.150281
952.000000	77.396252
951.000000	77.639157
950.000000	77.877555
949.000000	78.094442
948.000000	78.282271
947.000000	78.449792
946.000000	78.601812
945.000000	78.734378
944.000000	78.853620
943.000000	78.976129
942.000000	79.104515
941.000000	79.224067
940.000000	79.329351
939.000000	79.432679
938.000000	79.541111
937.000000	79.647950
936.000000	79.753841
935.000000	79.872573
934.000000	80.006117
933.000000	80.135530
932.000000	80.247963
931.000000	80.354484
930.000000	80.471517
929.000000	80.601962
928.000000	80.743480
927.000000	80.897445
926.000000	81.059333
925.000000	81.215524
924.000000	81.359280
923.000000	81.497630
922.000000	81.636614
921.000000	81.772713
920.000000	81.902825
919.000000	82.028352
918.000000	82.146105
917.000000	82.251036
916.000000	82.351857
915.000000	82.467697
914.000000	82.605073
913.000000	82.753633
912.000000	82.907622
911.000000	83.074525
910.000000	83.259332
909.000000	83.459123
908.000000	83.678137
907.000000	83.929600
906.000000	84.216188
905.000000	84.524529
904.000000	84.844225
903.000000	85.177566
902.000000	85.526980
901.000000	85.888224
900.000000	86.258592
899.000000	86.636791
898.000000	87.013186
897.000000	87.375688
896.000000	87.726446
895.000000	88.077063
894.000000	88.426716
893.000000	88.761296
892.000000	89.074801
891.000000	89.374037
890.000000	89.660626
889.000000	89.927111
888.000000	90.175653
887.000000	90.422959
886.000000	90.678786
885.000000	90.932745
884.000000	91.169139
883.000000	91.383973
882.000000	91.584385
881.000000	91.784509
880.000000	92.005065
879.000000	92.261477
878.000000	92.545023
877.000000	92.827432
876.000000	93.089168
875.000000	93.333600
874.000000	93.574514
873.000000	93.824588
872.000000	94.096249
871.000000	94.395789
870.000000	94.710813
869.000000	95.016533
868.000000	95.298525
867.000000	95.559930
866.000000	95.808589
865.000000	96.050805
864.000000	96.296701
863.000000	96.554644
862.000000	96.815941
861.000000	97.059354
860.000000	97.275959
859.000000	97.477815
858.000000	97.678512
857.000000	97.877806
856.000000	98.070285
855.000000	98.255473
854.000000	98.431042
853.000000	98.586741
852.000000	98.714257
851.000000	98.816506
850.000000	98.901331
849.000000	98.973146
848.000000	99.035456
847.000000	99.091924
846.000000	99.137291
845.000000	99.155421
844.000000	99.134740
843.000000	99.080583
842.000000	99.007088
841.000000	98.922114
840.000000	98.823346
839.000000	98.700365
838.000000	98.535751
837.000000	98.316780
836.000000	98.058368
835.000000	97.808351
834.000000	97.617405
833.000000	97.503485
832.000000	97.448961
831.000000	97.423862
830.000000	97.406102
829.000000	97.390623
828.000000	97.392075
827.000000	97.434466
826.000000	97.526271
825.000000	97.645380
824.000000	97.754459
823.000000	97.828919
822.000000	97.867849
821.000000	97.886538
820.000000	97.905026
819.000000	97.935794
818.000000	97.971426
817.000000	97.984028
816.000000	97.941215
815.000000	97.823736
814.000000	97.630586
813.000000	97.373302
812.000000	97.065968
811.000000	96.712893
810.000000	96.300893
809.000000	95.808417
808.000000	95.225859
807.000000	94.563150
806.000000	93.839273
805.000000	93.077118
804.000000	92.312785
803.000000	91.593264
802.000000	90.951218
801.000000	90.391567
800.000000	89.913218
799.000000	89.533566
798.000000	89.281953
797.000000	89.178123
796.000000	89.221352
795.000000	89.385195
794.000000	89.615745
793.000000	89.851314
792.000000	90.056009
791.000000	90.228814
790.000000	90.379298
789.000000	90.504743
788.000000	90.589967
787.000000	90.613647
786.000000	90.550896
785.000000	90.385932
784.000000	90.133354
783.000000	89.839524
782.000000	89.556186
781.000000	89.318206
780.000000	89.145483
779.000000	89.049021
778.000000	89.027964
777.000000	89.075409
776.000000	89.194744
775.000000	89.397010
774.000000	89.675892
773.000000	89.998289
772.000000	90.325276
771.000000	90.630382
770.000000	90.894098
769.000000	91.097799
768.000000	91.235526
767.000000	91.322880
766.000000	91.383163
765.000000	91.428375
764.000000	91.459463
763.000000	91.477946
762.000000	91.489376
761.000000	91.501047
760.000000	91.523773
759.000000	91.570958
758.000000	91.647937
757.000000	91.744011
756.000000	91.840044
755.000000	91.923472
754.000000	91.995775
753.000000	92.069806
752.000000	92.161327
751.000000	92.278310
750.000000	92.414962
