4000.000000	100.125413
3999.000000	100.121094
3998.000000	100.117386
3997.000000	100.115071
3996.000000	100.113779
3995.000000	100.112452
3994.000000	100.110239
3993.000000	100.106942
3992.000000	100.102869
3991.000000	100.098523
3990.000000	100.094568
3989.000000	100.091982
3988.000000	100.091781
3987.000000	100.094263
3986.000000	100.098406
3985.000000	100.102111
3984.000000	100.103657
3983.000000	100.102701
3982.000000	100.099948
3981.000000	100.096445
3980.000000	100.093089
3979.000000	100.090601
3978.000000	100.089391
3977.000000	100.089111
3976.000000	100.088597
3975.000000	100.086764
3974.000000	100.083706
3973.000000	100.080778
3972.000000	100.079430
3971.000000	100.079962
3970.000000	100.081240
3969.000000	100.081686
3968.000000	100.080598
3967.000000	100.078368
3966.000000	100.075639
3965.000000	100.072615
3964.000000	100.069488
3963.000000	100.067089
3962.000000	100.066521
3961.000000	100.068073
3960.000000	100.070741
3959.000000	100.073093
3958.000000	100.074452
3957.000000	100.075027
3956.000000	100.075293
3955.000000	100.075520
3954.000000	100.075740
3953.000000	100.075994
3952.000000	100.076434
3951.000000	100.077070
3950.000000	100.077627
3949.000000	100.077848
3948.000000	100.077833
3947.000000	100.077854
3946.000000	100.077975
3945.000000	100.078066
3944.000000	100.078108
3943.000000	100.078286
3942.000000	100.078726
3941.000000	100.079264
3940.000000	100.079574
3939.000000	100.079490
3938.000000	100.079076
3937.000000	100.078537
3936.000000	100.078100
3935.000000	100.077934
3934.000000	100.078113
3933.000000	100.078606
3932.000000	100.079311
3931.000000	100.080093
3930.000000	100.080795
3929.000000	100.081264
3928.000000	100.081451
3927.000000	100.081462
3926.000000	100.081499
3925.000000	100.081693
3924.000000	100.082007
3923.000000	100.082336
3922.000000	100.082610
3921.000000	100.082822
3920.000000	100.082996
3919.000000	100.083152
3918.000000	100.083296
3917.000000	100.083418
3916.000000	100.083492
3915.000000	100.083489
3914.000000	100.083413
3913.000000	100.083292
3912.000000	100.083170
3911.000000	100.083071
3910.000000	100.083003
3909.000000	100.082959
3908.000000	100.082931
3907.000000	100.082920
3906.000000	100.082938
3905.000000	100.082996
3904.000000	100.083091
3903.000000	100.083207
3902.000000	100.083331
3901.000000	100.083466
3900.000000	100.083635
3899.000000	100.083864
3898.000000	100.084169
3897.000000	100.084548
3896.000000	100.084979
3895.000000	100.085432
3894.000000	100.085872
3893.000000	100.086272
3892.000000	100.086625
3891.000000	100.086950
3890.000000	100.087262
3889.000000	100.087570
3888.000000	100.087880
3887.000000	100.088198
3886.000000	100.088529
3885.000000	100.088873
3884.000000	100.089223
3883.000000	100.089573
3882.000000	100.089908
3881.000000	100.090206
3880.000000	100.090444
3879.000000	100.090617
3878.000000	100.090748
3877.000000	100.090876
3876.000000	100.091037
3875.000000	100.091252
3874.000000	100.091522
3873.000000	100.091845
3872.000000	100.092223
3871.000000	100.092657
3870.000000	100.093129
3869.000000	100.093600
3868.000000	100.094032
3867.000000	100.094417
3866.000000	100.094772
3865.000000	100.095112
3864.000000	100.095444
3863.000000	100.095775
3862.000000	100.096114
3861.000000	100.096467
3860.000000	100.096834
3859.000000	100.097219
3858.000000	100.097622
3857.000000	100.098029
3856.000000	100.098412
3855.000000	100.098746
3854.000000	100.099031
3853.000000	100.099288
3852.000000	100.099538
3851.000000	100.099807
3850.000000	100.100119
3849.000000	100.100478
3848.000000	100.100872
3847.000000	100.101270
3846.000000	100.101647
3845.000000	100.101998
3844.000000	100.102326
3843.000000	100.102628
3842.000000	100.102880
3841.000000	100.103054
3840.000000	100.103165
3839.000000	100.103331
3838.000000	100.103707
3837.000000	100.104345
3836.000000	100.105137
3835.000000	100.105923
3834.000000	100.106620
3833.000000	100.107218
3832.000000	100.107729
3831.000000	100.108164
3830.000000	100.108540
3829.000000	100.108896
3828.000000	100.109263
3827.000000	100.109652
3826.000000	100.110063
3825.000000	100.110490
3824.000000	100.110928
3823.000000	100.111369
3822.000000	100.111809
3821.000000	100.112233
3820.000000	100.112610
3819.000000	100.112916
3818.000000	100.113154
3817.000000	100.113343
3816.000000	100.113489
3815.000000	100.113585
3814.000000	100.113632
3813.000000	100.113650
3812.000000	100.113661
3811.000000	100.113665
3810.000000	100.113643
3809.000000	100.113582
3808.000000	100.113482
3807.000000	100.113354
3806.000000	100.113206
3805.000000	100.113046
3804.000000	100.112885
3803.000000	100.112731
3802.000000	100.112579
3801.000000	100.112409
3800.000000	100.112202
3799.000000	100.111954
3798.000000	100.111670
3797.000000	100.111337
3796.000000	100.110918
3795.000000	100.110385
3794.000000	100.109739
3793.000000	100.108990
3792.000000	100.108185
3791.000000	100.107402
3790.000000	100.106669
3789.000000	100.105961
3788.000000	100.105214
3787.000000	100.104312
3786.000000	100.103185
3785.000000	100.101821
3784.000000	100.100276
3783.000000	100.098566
3782.000000	100.096740
3781.000000	100.094886
3780.000000	100.093029
3779.000000	100.091122
3778.000000	100.089118
3777.000000	100.087053
3776.000000	100.085042
3775.000000	100.083175
3774.000000	100.081414
3773.000000	100.079586
3772.000000	100.077491
3771.000000	100.075054
3770.000000	100.072384
3769.000000	100.069522
3768.000000	100.066453
3767.000000	100.063580
3766.000000	100.061600
3765.000000	100.060586
3764.000000	100.059545
3763.000000	100.057400
3762.000000	100.054201
3761.000000	100.050720
3760.000000	100.047090
3759.000000	100.042983
3758.000000	100.038756
3757.000000	100.035215
3756.000000	100.031970
3755.000000	100.027612
3754.000000	100.021540
3753.000000	100.014704
3752.000000	100.008875
3751.000000	100.005333
3750.000000	100.003412
3749.000000	99.999597
3748.000000	99.990049
3747.000000	99.975723
3746.000000	99.963121
3745.000000	99.959491
3744.000000	99.964799
3743.000000	99.966186
3742.000000	99.956407
3741.000000	99.946196
3740.000000	99.944122
3739.000000	99.946370
3738.000000	99.946696
3737.000000	99.943357
3736.000000	99.936760
3735.000000	99.926849
3734.000000	99.916660
3733.000000	99.912379
3732.000000	99.914885
3731.000000	99.915793
3730.000000	99.906774
3729.000000	99.888429
3728.000000	99.867547
3727.000000	99.849773
3726.000000	99.836799
3725.000000	99.827740
3724.000000	99.821936
3723.000000	99.818164
3722.000000	99.813176
3721.000000	99.804792
3720.000000	99.794376
3719.000000	99.784674
3718.000000	99.775679
3717.000000	99.764470
3716.000000	99.748360
3715.000000	99.728085
3714.000000	99.705867
3713.000000	99.681157
3712.000000	99.652207
3711.000000	99.621210
3710.000000	99.594038
3709.000000	99.574819
3708.000000	99.562028
3707.000000	99.550431
3706.000000	99.535243
3705.000000	99.514673
3704.000000	99.490423
3703.000000	99.466412
3702.000000	99.446214
3701.000000	99.429631
3700.000000	99.412374
3699.000000	99.391629
3698.000000	99.370027
3697.000000	99.351989
3696.000000	99.338333
3695.000000	99.327396
3694.000000	99.319550
3693.000000	99.316374
3692.000000	99.315959
3691.000000	99.313032
3690.000000	99.304279
3689.000000	99.291680
3688.000000	99.277997
3687.000000	99.262699
3686.000000	99.246630
3685.000000	99.233623
3684.000000	99.224098
3683.000000	99.214125
3682.000000	99.201170
3681.000000	99.186230
3680.000000	99.169678
3679.000000	99.147700
3678.000000	99.117478
3677.000000	99.084556
3676.000000	99.061186
3675.000000	99.051211
3674.000000	99.043524
3673.000000	99.029197
3672.000000	99.012266
3671.000000	98.998629
3670.000000	98.988245
3669.000000	98.976052
3668.000000	98.957470
3667.000000	98.934137
3666.000000	98.910637
3665.000000	98.889091
3664.000000	98.869235
3663.000000	98.850396
3662.000000	98.832341
3661.000000	98.814949
3660.000000	98.797834
3659.000000	98.780818
3658.000000	98.765169
3657.000000	98.752985
3656.000000	98.744511
3655.000000	98.735311
3654.000000	98.721578
3653.000000	98.705598
3652.000000	98.690804
3651.000000	98.677798
3650.000000	98.667333
3649.000000	98.660199
3648.000000	98.654179
3647.000000	98.645135
3646.000000	98.630118
3645.000000	98.611261
3644.000000	98.595701
3643.000000	98.589607
3642.000000	98.591841
3641.000000	98.594196
3640.000000	98.588207
3639.000000	98.571443
3638.000000	98.546345
3637.000000	98.515904
3636.000000	98.484030
3635.000000	98.456638
3634.000000	98.437041
3633.000000	98.420410
3632.000000	98.398085
3631.000000	98.367797
3630.000000	98.338685
3629.000000	98.324663
3628.000000	98.325039
3627.000000	98.323616
3626.000000	98.315789
3625.000000	98.309802
3624.000000	98.307912
3623.000000	98.306869
3622.000000	98.306726
3621.000000	98.311407
3620.000000	98.321441
3619.000000	98.329708
3618.000000	98.327215
3617.000000	98.312681
3616.000000	98.294863
3615.000000	98.285248
3614.000000	98.289187
3613.000000	98.302835
3612.000000	98.317735
3611.000000	98.328919
3610.000000	98.338182
3609.000000	98.349381
3608.000000	98.361976
3607.000000	98.371076
3606.000000	98.373525
3605.000000	98.371359
3604.000000	98.369520
3603.000000	98.372423
3602.000000	98.381736
3601.000000	98.394745
3600.000000	98.405103
3599.000000	98.407321
3598.000000	98.401633
3597.000000	98.392625
3596.000000	98.384998
3595.000000	98.381095
3594.000000	98.381569
3593.000000	98.386034
3592.000000	98.393416
3591.000000	98.401660
3590.000000	98.407967
3589.000000	98.409948
3588.000000	98.406687
3587.000000	98.399142
3586.000000	98.390223
3585.000000	98.384205
3584.000000	98.384325
3583.000000	98.389881
3582.000000	98.395952
3581.000000	98.397276
3580.000000	98.392844
3579.000000	98.385830
3578.000000	98.379746
3577.000000	98.375390
3576.000000	98.371859
3575.000000	98.369004
3574.000000	98.367417
3573.000000	98.366611
3572.000000	98.364601
3571.000000	98.359796
3570.000000	98.352639
3569.000000	98.345624
3568.000000	98.341527
3567.000000	98.340967
3566.000000	98.341655
3565.000000	98.340171
3564.000000	98.334344
3563.000000	98.324588
3562.000000	98.313377
3561.000000	98.303168
3560.000000	98.294913
3559.000000	98.288438
3558.000000	98.283632
3557.000000	98.280652
3556.000000	98.278919
3555.000000	98.277022
3554.000000	98.274023
3553.000000	98.270279
3552.000000	98.266363
3551.000000	98.261787
3550.000000	98.255596
3549.000000	98.247922
3548.000000	98.240049
3547.000000	98.233096
3546.000000	98.227498
3545.000000	98.223292
3544.000000	98.220018
3543.000000	98.216608
3542.000000	98.212160
3541.000000	98.206969
3540.000000	98.202198
3539.000000	98.198388
3538.000000	98.194722
3537.000000	98.190004
3536.000000	98.184116
3535.000000	98.178073
3534.000000	98.172868
3533.000000	98.168484
3532.000000	98.164022
3531.000000	98.158327
3530.000000	98.150709
3529.000000	98.141523
3528.000000	98.132266
3527.000000	98.124670
3526.000000	98.119491
3525.000000	98.116090
3524.000000	98.113113
3523.000000	98.109734
3522.000000	98.106184
3521.000000	98.103218
3520.000000	98.101309
3519.000000	98.100304
3518.000000	98.099460
3517.000000	98.097727
3516.000000	98.094332
3515.000000	98.089162
3514.000000	98.082612
3513.000000	98.075041
3512.000000	98.066657
3511.000000	98.057992
3510.000000	98.050237
3509.000000	98.044504
3508.000000	98.040389
3507.000000	98.035635
3506.000000	98.028084
3505.000000	98.018007
3504.000000	98.008348
3503.000000	98.001914
3502.000000	97.998698
3501.000000	97.996276
3500.000000	97.992508
3499.000000	97.987506
3498.000000	97.982779
3497.000000	97.979260
3496.000000	97.976487
3495.000000	97.973421
3494.000000	97.969491
3493.000000	97.964690
3492.000000	97.959011
3491.000000	97.952145
3490.000000	97.943823
3489.000000	97.934469
3488.000000	97.925418
3487.000000	97.918047
3486.000000	97.912578
3485.000000	97.907896
3484.000000	97.902517
3483.000000	97.895857
3482.000000	97.888571
3481.000000	97.881749
3480.000000	97.875856
3479.000000	97.870500
3478.000000	97.865035
3477.000000	97.859235
3476.000000	97.853351
3475.000000	97.847632
3474.000000	97.841963
3473.000000	97.836018
3472.000000	97.829671
3471.000000	97.823142
3470.000000	97.816799
3469.000000	97.810815
3468.000000	97.805090
3467.000000	97.799476
3466.000000	97.793986
3465.000000	97.788669
3464.000000	97.783420
3463.000000	97.778049
3462.000000	97.772500
3461.000000	97.766880
3460.000000	97.761293
3459.000000	97.755763
3458.000000	97.750258
3457.000000	97.744761
3456.000000	97.739271
3455.000000	97.733793
3454.000000	97.728325
3453.000000	97.722869
3452.000000	97.717431
3451.000000	97.712023
3450.000000	97.706659
3449.000000	97.701349
3448.000000	97.696094
3447.000000	97.690884
3446.000000	97.685706
3445.000000	97.680550
3444.000000	97.675411
3443.000000	97.670295
3442.000000	97.665211
3441.000000	97.660172
3440.000000	97.655186
3439.000000	97.650256
3438.000000	97.645374
3437.000000	97.640527
3436.000000	97.635702
3435.000000	97.630896
3434.000000	97.626111
3433.000000	97.621364
3432.000000	97.616697
3431.000000	97.612155
3430.000000	97.607762
3429.000000	97.603481
3428.000000	97.599248
3427.000000	97.595018
3426.000000	97.590776
3425.000000	97.586515
3424.000000	97.582232
3423.000000	97.577960
3422.000000	97.573799
3421.000000	97.569849
3420.000000	97.566088
3419.000000	97.562336
3418.000000	97.558422
3417.000000	97.554367
3416.000000	97.550433
3415.000000	97.546917
3414.000000	97.543899
3413.000000	97.541131
3412.000000	97.538184
3411.000000	97.534756
3410.000000	97.530893
3409.000000	97.527010
3408.000000	97.523644
3407.000000	97.521138
3406.000000	97.519468
3405.000000	97.518219
3404.000000	97.516738
3403.000000	97.514474
3402.000000	97.511335
3401.000000	97.507875
3400.000000	97.504989
3399.000000	97.503253
3398.000000	97.502596
3397.000000	97.502395
3396.000000	97.501875
3395.000000	97.500594
3394.000000	97.498713
3393.000000	97.496870
3392.000000	97.495609
3391.000000	97.494833
3390.000000	97.494026
3389.000000	97.492962
3388.000000	97.491921
3387.000000	97.491184
3386.000000	97.490665
3385.000000	97.490161
3384.000000	97.489683
3383.000000	97.489302
3382.000000	97.488863
3381.000000	97.488175
3380.000000	97.487390
3379.000000	97.486849
3378.000000	97.486561
3377.000000	97.486231
3376.000000	97.485832
3375.000000	97.485712
3374.000000	97.486061
3373.000000	97.486778
3372.000000	97.488012
3371.000000	97.490301
3370.000000	97.493740
3369.000000	97.497225
3368.000000	97.499139
3367.000000	97.498804
3366.000000	97.496790
3365.000000	97.494108
3364.000000	97.491528
3363.000000	97.489765
3362.000000	97.489761
3361.000000	97.492129
3360.000000	97.496196
3359.000000	97.499998
3358.000000	97.501843
3357.000000	97.501697
3356.000000	97.501033
3355.000000	97.501440
3354.000000	97.503405
3353.000000	97.506411
3352.000000	97.509732
3351.000000	97.512868
3350.000000	97.515369
3349.000000	97.516755
3348.000000	97.516958
3347.000000	97.516725
3346.000000	97.517231
3345.000000	97.519045
3344.000000	97.521551
3343.000000	97.523500
3342.000000	97.524399
3341.000000	97.525308
3340.000000	97.527983
3339.000000	97.533174
3338.000000	97.539956
3337.000000	97.546506
3336.000000	97.551503
3335.000000	97.554762
3334.000000	97.556918
3333.000000	97.558950
3332.000000	97.561702
3331.000000	97.565374
3330.000000	97.569346
3329.000000	97.572723
3328.000000	97.575209
3327.000000	97.577329
3326.000000	97.579788
3325.000000	97.582748
3324.000000	97.585875
3323.000000	97.588941
3322.000000	97.592174
3321.000000	97.595970
3320.000000	97.600363
3319.000000	97.604807
3318.000000	97.608528
3317.000000	97.611211
3316.000000	97.613250
3315.000000	97.615393
3314.000000	97.618139
3313.000000	97.621538
3312.000000	97.625453
3311.000000	97.629713
3310.000000	97.633996
3309.000000	97.637829
3308.000000	97.640909
3307.000000	97.643384
3306.000000	97.645809
3305.000000	97.648798
3304.000000	97.652646
3303.000000	97.657163
3302.000000	97.661702
3301.000000	97.665569
3300.000000	97.668619
3299.000000	97.671416
3298.000000	97.674686
3297.000000	97.678567
3296.000000	97.682586
3295.000000	97.686364
3294.000000	97.690057
3293.000000	97.693903
3292.000000	97.697724
3291.000000	97.701231
3290.000000	97.704526
3289.000000	97.707912
3288.000000	97.711363
3287.000000	97.714644
3286.000000	97.717952
3285.000000	97.721997
3284.000000	97.727309
3283.000000	97.733759
3282.000000	97.740724
3281.000000	97.747373
3280.000000	97.752879
3279.000000	97.756760
3278.000000	97.759346
3277.000000	97.761803
3276.000000	97.765335
3275.000000	97.770331
3274.000000	97.776402
3273.000000	97.782909
3272.000000	97.789278
3271.000000	97.794898
3270.000000	97.799217
3269.000000	97.802219
3268.000000	97.804668
3267.000000	97.807547
3266.000000	97.811216
3265.000000	97.815301
3264.000000	97.819348
3263.000000	97.823381
3262.000000	97.827702
3261.000000	97.832351
3260.000000	97.837060
3259.000000	97.841731
3258.000000	97.846668
3257.000000	97.852152
3256.000000	97.857887
3255.000000	97.863034
3254.000000	97.866922
3253.000000	97.869724
3252.000000	97.872473
3251.000000	97.876264
3250.000000	97.881336
3249.000000	97.886912
3248.000000	97.891999
3247.000000	97.896481
3246.000000	97.901306
3245.000000	97.907491
3244.000000	97.914992
3243.000000	97.922555
3242.000000	97.928842
3241.000000	97.933765
3240.000000	97.938570
3239.000000	97.944375
3238.000000	97.950629
3237.000000	97.955562
3236.000000	97.958333
3235.000000	97.960211
3234.000000	97.963345
3233.000000	97.968464
3232.000000	97.974414
3231.000000	97.979818
3230.000000	97.984639
3229.000000	97.989693
3228.000000	97.995249
3227.000000	98.000788
3226.000000	98.005974
3225.000000	98.011246
3224.000000	98.017245
3223.000000	98.024069
3222.000000	98.031399
3221.000000	98.039130
3220.000000	98.047434
3219.000000	98.056151
3218.000000	98.064365
3217.000000	98.071019
3216.000000	98.075964
3215.000000	98.080295
3214.000000	98.085465
3213.000000	98.091934
3212.000000	98.098917
3211.000000	98.105332
3210.000000	98.110844
3209.000000	98.115923
3208.000000	98.121220
3207.000000	98.127022
3206.000000	98.133196
3205.000000	98.139431
3204.000000	98.145502
3203.000000	98.151454
3202.000000	98.157565
3201.000000	98.164075
3200.000000	98.170977
3199.000000	98.178071
3198.000000	98.185117
3197.000000	98.191940
3196.000000	98.198460
3195.000000	98.204733
3194.000000	98.210933
3193.000000	98.217254
3192.000000	98.223766
3191.000000	98.230389
3190.000000	98.237019
3189.000000	98.243619
3188.000000	98.250207
3187.000000	98.256795
3186.000000	98.263373
3185.000000	98.269922
3184.000000	98.276433
3183.000000	98.282903
3182.000000	98.289338
3181.000000	98.295759
3180.000000	98.302187
3179.000000	98.308603
3178.000000	98.314963
3177.000000	98.321274
3176.000000	98.327655
3175.000000	98.334222
3174.000000	98.340898
3173.000000	98.347411
3172.000000	98.353657
3171.000000	98.359940
3170.000000	98.366660
3169.000000	98.373901
3168.000000	98.381366
3167.000000	98.388677
3166.000000	98.395627
3165.000000	98.402159
3164.000000	98.408359
3163.000000	98.414495
3162.000000	98.420861
3161.000000	98.427472
3160.000000	98.434009
3159.000000	98.440187
3158.000000	98.446139
3157.000000	98.452379
3156.000000	98.459422
3155.000000	98.467475
3154.000000	98.476318
3153.000000	98.485248
3152.000000	98.493244
3151.000000	98.499464
3150.000000	98.503790
3149.000000	98.507090
3148.000000	98.510807
3147.000000	98.515962
3146.000000	98.522514
3145.000000	98.529485
3144.000000	98.535785
3143.000000	98.541078
3142.000000	98.545962
3141.000000	98.551481
3140.000000	98.558455
3139.000000	98.567043
3138.000000	98.576718
3137.000000	98.586654
3136.000000	98.596248
3135.000000	98.605115
3134.000000	98.612661
3133.000000	98.618159
3132.000000	98.621714
3131.000000	98.624900
3130.000000	98.629704
3129.000000	98.636617
3128.000000	98.644256
3127.000000	98.651005
3126.000000	98.656764
3125.000000	98.662617
3124.000000	98.669055
3123.000000	98.675240
3122.000000	98.680225
3121.000000	98.684308
3120.000000	98.688784
3119.000000	98.694569
3118.000000	98.701385
3117.000000	98.708201
3116.000000	98.714205
3115.000000	98.719272
3114.000000	98.723772
3113.000000	98.728171
3112.000000	98.732736
3111.000000	98.737415
3110.000000	98.741989
3109.000000	98.746498
3108.000000	98.751530
3107.000000	98.757818
3106.000000	98.765361
3105.000000	98.772979
3104.000000	98.779128
3103.000000	98.783313
3102.000000	98.786473
3101.000000	98.789995
3100.000000	98.794312
3099.000000	98.798654
3098.000000	98.802096
3097.000000	98.804682
3096.000000	98.807532
3095.000000	98.811842
3094.000000	98.817756
3093.000000	98.824180
3092.000000	98.829792
3091.000000	98.834450
3090.000000	98.839326
3089.000000	98.845429
3088.000000	98.852239
3087.000000	98.858227
3086.000000	98.862494
3085.000000	98.865302
3084.000000	98.867152
3083.000000	98.868197
3082.000000	98.868911
3081.000000	98.870748
3080.000000	98.875453
3079.000000	98.883625
3078.000000	98.894001
3077.000000	98.904140
3076.000000	98.912046
3075.000000	98.917596
3074.000000	98.922596
3073.000000	98.929012
3072.000000	98.936707
3071.000000	98.943405
3070.000000	98.947335
3069.000000	98.949210
3068.000000	98.950865
3067.000000	98.952363
3066.000000	98.951906
3065.000000	98.948897
3064.000000	98.945753
3063.000000	98.945613
3062.000000	98.948801
3061.000000	98.952644
3060.000000	98.954681
3059.000000	98.955329
3058.000000	98.957146
3057.000000	98.962024
3056.000000	98.969585
3055.000000	98.978226
3054.000000	98.987183
3053.000000	98.996824
3052.000000	99.006580
3051.000000	99.013228
3050.000000	99.012631
3049.000000	99.004029
3048.000000	98.992316
3047.000000	98.984834
3046.000000	98.985348
3045.000000	98.991799
3044.000000	98.999694
3043.000000	99.006533
3042.000000	99.012195
3041.000000	99.016187
3040.000000	99.016673
3039.000000	99.012688
3038.000000	99.005860
3037.000000	98.998815
3036.000000	98.992499
3035.000000	98.986316
3034.000000	98.980623
3033.000000	98.977569
3032.000000	98.978719
3031.000000	98.982551
3030.000000	98.985217
3029.000000	98.983785
3028.000000	98.978304
3027.000000	98.970953
3026.000000	98.963650
3025.000000	98.956400
3024.000000	98.947659
3023.000000	98.936451
3022.000000	98.924429
3021.000000	98.915462
3020.000000	98.912334
3019.000000	98.913739
3018.000000	98.915229
3017.000000	98.913052
3016.000000	98.906100
3015.000000	98.894193
3014.000000	98.876576
3013.000000	98.853780
3012.000000	98.829828
3011.000000	98.810127
3010.000000	98.796646
3009.000000	98.786641
3008.000000	98.776333
3007.000000	98.764253
3006.000000	98.750472
3005.000000	98.734593
3004.000000	98.716425
3003.000000	98.697682
3002.000000	98.680850
3001.000000	98.666314
3000.000000	98.652262
2999.000000	98.637680
2998.000000	98.623811
2997.000000	98.611817
2996.000000	98.600060
2995.000000	98.584573
2994.000000	98.561870
2993.000000	98.531158
2992.000000	98.494916
2991.000000	98.458100
2990.000000	98.425909
2989.000000	98.400898
2988.000000	98.382037
2987.000000	98.366893
2986.000000	98.354185
2985.000000	98.343449
2984.000000	98.332633
2983.000000	98.317543
2982.000000	98.294813
2981.000000	98.265747
2980.000000	98.236945
2979.000000	98.216378
2978.000000	98.207881
2977.000000	98.208617
2976.000000	98.211733
2975.000000	98.212036
2974.000000	98.209740
2973.000000	98.209761
2972.000000	98.218449
2971.000000	98.240332
2970.000000	98.275459
2969.000000	98.318135
2968.000000	98.359408
2967.000000	98.393207
2966.000000	98.420620
2965.000000	98.447387
2964.000000	98.477432
2963.000000	98.509507
2962.000000	98.539444
2961.000000	98.564022
2960.000000	98.582326
2959.000000	98.595209
2958.000000	98.604971
2957.000000	98.614971
2956.000000	98.627885
2955.000000	98.643458
2954.000000	98.658239
2953.000000	98.668225
2952.000000	98.672089
2951.000000	98.671791
2950.000000	98.670123
2949.000000	98.668261
2948.000000	98.666253
2947.000000	98.664984
2946.000000	98.665701
2945.000000	98.667123
2944.000000	98.665153
2943.000000	98.657544
2942.000000	98.648022
2941.000000	98.643428
2940.000000	98.646455
2939.000000	98.652694
2938.000000	98.655518
2937.000000	98.652443
2936.000000	98.645906
2935.000000	98.639220
2934.000000	98.633404
2933.000000	98.627810
2932.000000	98.622259
2931.000000	98.617693
2930.000000	98.615046
2929.000000	98.614211
2928.000000	98.614593
2927.000000	98.616548
2926.000000	98.621537
2925.000000	98.630289
2924.000000	98.641361
2923.000000	98.652695
2922.000000	98.664768
2921.000000	98.680864
2920.000000	98.703096
2919.000000	98.728350
2918.000000	98.749050
2917.000000	98.758597
2916.000000	98.755981
2915.000000	98.745495
2914.000000	98.732774
2913.000000	98.721499
2912.000000	98.713348
2911.000000	98.709467
2910.000000	98.710312
2909.000000	98.714225
2908.000000	98.717686
2907.000000	98.717701
2906.000000	98.713242
2905.000000	98.704404
2904.000000	98.691994
2903.000000	98.679267
2902.000000	98.672407
2901.000000	98.676347
2900.000000	98.689933
2899.000000	98.706702
2898.000000	98.721017
2897.000000	98.732229
2896.000000	98.742052
2895.000000	98.750303
2894.000000	98.755384
2893.000000	98.758061
2892.000000	98.762244
2891.000000	98.771191
2890.000000	98.784014
2889.000000	98.796623
2888.000000	98.805763
2887.000000	98.811670
2886.000000	98.816859
2885.000000	98.823131
2884.000000	98.830615
2883.000000	98.839561
2882.000000	98.851605
2881.000000	98.867963
2880.000000	98.886897
2879.000000	98.904499
2878.000000	98.918279
2877.000000	98.928997
2876.000000	98.938977
2875.000000	98.949925
2874.000000	98.962434
2873.000000	98.975827
2872.000000	98.987846
2871.000000	98.996328
2870.000000	99.002468
2869.000000	99.010972
2868.000000	99.025111
2867.000000	99.042608
2866.000000	99.058252
2865.000000	99.070169
2864.000000	99.081402
2863.000000	99.095399
2862.000000	99.112143
2861.000000	99.129198
2860.000000	99.144430
2859.000000	99.156585
2858.000000	99.164999
2857.000000	99.170580
2856.000000	99.176589
2855.000000	99.187148
2854.000000	99.204789
2853.000000	99.229476
2852.000000	99.258908
2851.000000	99.288868
2850.000000	99.314455
2849.000000	99.332758
2848.000000	99.344707
2847.000000	99.353869
2846.000000	99.363196
2845.000000	99.373262
2844.000000	99.383285
2843.000000	99.392453
2842.000000	99.399864
2841.000000	99.404531
2840.000000	99.406757
2839.000000	99.409211
2838.000000	99.415435
2837.000000	99.426785
2836.000000	99.441241
2835.000000	99.455290
2834.000000	99.466674
2833.000000	99.475472
2832.000000	99.483364
2831.000000	99.492145
2830.000000	99.502209
2829.000000	99.511964
2828.000000	99.519162
2827.000000	99.523216
2826.000000	99.525749
2825.000000	99.528591
2824.000000	99.531947
2823.000000	99.535241
2822.000000	99.539039
2821.000000	99.544742
2820.000000	99.552484
2819.000000	99.560546
2818.000000	99.566998
2817.000000	99.570920
2816.000000	99.572062
2815.000000	99.570775
2814.000000	99.568972
2813.000000	99.569974
2812.000000	99.576107
2811.000000	99.586588
2810.000000	99.598073
2809.000000	99.607074
2808.000000	99.611877
2807.000000	99.613017
2806.000000	99.612890
2805.000000	99.614332
2804.000000	99.618518
2803.000000	99.624281
2802.000000	99.629708
2801.000000	99.634245
2800.000000	99.638822
2799.000000	99.644222
2798.000000	99.649989
2797.000000	99.655030
2796.000000	99.658839
2795.000000	99.661848
2794.000000	99.664792
2793.000000	99.668043
2792.000000	99.671656
2791.000000	99.675868
2790.000000	99.681153
2789.000000	99.687539
2788.000000	99.693979
2787.000000	99.698843
2786.000000	99.701301
2785.000000	99.701916
2784.000000	99.702114
2783.000000	99.703199
2782.000000	99.705754
2781.000000	99.709667
2780.000000	99.714305
2779.000000	99.718818
2778.000000	99.722703
2777.000000	99.726049
2776.000000	99.729123
2775.000000	99.731964
2774.000000	99.734625
2773.000000	99.737477
2772.000000	99.740702
2771.000000	99.743661
2770.000000	99.745438
2769.000000	99.746082
2768.000000	99.746743
2767.000000	99.748337
2766.000000	99.750544
2765.000000	99.752446
2764.000000	99.753803
2763.000000	99.755324
2762.000000	99.757755
2761.000000	99.760952
2760.000000	99.763934
2759.000000	99.765771
2758.000000	99.766370
2757.000000	99.766379
2756.000000	99.766523
2755.000000	99.767147
2754.000000	99.768293
2753.000000	99.769867
2752.000000	99.771551
2751.000000	99.772927
2750.000000	99.773987
2749.000000	99.775328
2748.000000	99.777528
2747.000000	99.780454
2746.000000	99.783325
2745.000000	99.785431
2744.000000	99.786633
2743.000000	99.787225
2742.000000	99.787691
2741.000000	99.788498
2740.000000	99.789897
2739.000000	99.791785
2738.000000	99.793718
2737.000000	99.795263
2736.000000	99.796312
2735.000000	99.797028
2734.000000	99.797632
2733.000000	99.798249
2732.000000	99.798915
2731.000000	99.799641
2730.000000	99.800459
2729.000000	99.801426
2728.000000	99.802576
2727.000000	99.803852
2726.000000	99.805130
2725.000000	99.806303
2724.000000	99.807334
2723.000000	99.808237
2722.000000	99.809046
2721.000000	99.809835
2720.000000	99.810697
2719.000000	99.811661
2718.000000	99.812653
2717.000000	99.813547
2716.000000	99.814308
2715.000000	99.815020
2714.000000	99.815803
2713.000000	99.816695
2712.000000	99.817629
2711.000000	99.818502
2710.000000	99.819281
2709.000000	99.820015
2708.000000	99.820756
2707.000000	99.821486
2706.000000	99.822121
2705.000000	99.822610
2704.000000	99.822995
2703.000000	99.823357
2702.000000	99.823757
2701.000000	99.824201
2700.000000	99.824666
2699.000000	99.825127
2698.000000	99.825566
2697.000000	99.825977
2696.000000	99.826364
2695.000000	99.826733
2694.000000	99.827101
2693.000000	99.827489
2692.000000	99.827907
2691.000000	99.828349
2690.000000	99.828798
2689.000000	99.829235
2688.000000	99.829645
2687.000000	99.830024
2686.000000	99.830373
2685.000000	99.830702
2684.000000	99.831023
2683.000000	99.831343
2682.000000	99.831663
2681.000000	99.831981
2680.000000	99.832300
2679.000000	99.832627
2678.000000	99.832966
2677.000000	99.833314
2676.000000	99.833664
2675.000000	99.834008
2674.000000	99.834348
2673.000000	99.834684
2672.000000	99.835015
2671.000000	99.835335
2670.000000	99.835636
2669.000000	99.835914
2668.000000	99.836169
2667.000000	99.836411
2666.000000	99.836646
2665.000000	99.836885
2664.000000	99.837135
2663.000000	99.837398
2662.000000	99.837664
2661.000000	99.837917
2660.000000	99.838143
2659.000000	99.838340
2658.000000	99.838515
2657.000000	99.838679
2656.000000	99.838835
2655.000000	99.838985
2654.000000	99.839128
2653.000000	99.839266
2652.000000	99.839398
2651.000000	99.839516
2650.000000	99.839613
2649.000000	99.839683
2648.000000	99.839727
2647.000000	99.839759
2646.000000	99.839800
2645.000000	99.839867
2644.000000	99.839970
2643.000000	99.840100
2642.000000	99.840238
2641.000000	99.840364
2640.000000	99.840471
2639.000000	99.840568
2638.000000	99.840666
2637.000000	99.840774
2636.000000	99.840888
2635.000000	99.840997
2634.000000	99.841099
2633.000000	99.841195
2632.000000	99.841295
2631.000000	99.841408
2630.000000	99.841538
2629.000000	99.841688
2628.000000	99.841865
2627.000000	99.842072
2626.000000	99.842310
2625.000000	99.842577
2624.000000	99.842864
2623.000000	99.843162
2622.000000	99.843470
2621.000000	99.843791
2620.000000	99.844126
2619.000000	99.844471
2618.000000	99.844836
2617.000000	99.845245
2616.000000	99.845713
2615.000000	99.846227
2614.000000	99.846759
2613.000000	99.847298
2612.000000	99.847861
2611.000000	99.848457
2610.000000	99.849073
2609.000000	99.849690
2608.000000	99.850300
2607.000000	99.850911
2606.000000	99.851534
2605.000000	99.852175
2604.000000	99.852827
2603.000000	99.853477
2602.000000	99.854110
2601.000000	99.854722
2600.000000	99.855325
2599.000000	99.855936
2598.000000	99.856572
2597.000000	99.857235
2596.000000	99.857920
2595.000000	99.858614
2594.000000	99.859310
2593.000000	99.860008
2592.000000	99.860711
2591.000000	99.861417
2590.000000	99.862117
2589.000000	99.862800
2588.000000	99.863458
2587.000000	99.864093
2586.000000	99.864712
2585.000000	99.865328
2584.000000	99.865953
2583.000000	99.866595
2582.000000	99.867253
2581.000000	99.867923
2580.000000	99.868601
2579.000000	99.869286
2578.000000	99.869981
2577.000000	99.870682
2576.000000	99.871382
2575.000000	99.872068
2574.000000	99.872740
2573.000000	99.873408
2572.000000	99.874092
2571.000000	99.874802
2570.000000	99.875539
2569.000000	99.876293
2568.000000	99.877060
2567.000000	99.877848
2566.000000	99.878665
2565.000000	99.879516
2564.000000	99.880395
2563.000000	99.881289
2562.000000	99.882194
2561.000000	99.883116
2560.000000	99.884067
2559.000000	99.885053
2558.000000	99.886073
2557.000000	99.887121
2556.000000	99.888202
2555.000000	99.889317
2554.000000	99.890459
2553.000000	99.891604
2552.000000	99.892727
2551.000000	99.893833
2550.000000	99.894970
2549.000000	99.896195
2548.000000	99.897530
2547.000000	99.898947
2546.000000	99.900427
2545.000000	99.901973
2544.000000	99.903570
2543.000000	99.905181
2542.000000	99.906762
2541.000000	99.908297
2540.000000	99.909804
2539.000000	99.911313
2538.000000	99.912854
2537.000000	99.914441
2536.000000	99.916079
2535.000000	99.917764
2534.000000	99.919487
2533.000000	99.921248
2532.000000	99.923041
2531.000000	99.924857
2530.000000	99.926678
2529.000000	99.928492
2528.000000	99.930299
2527.000000	99.932111
2526.000000	99.933942
2525.000000	99.935804
2524.000000	99.937702
2523.000000	99.939632
2522.000000	99.941588
2521.000000	99.943562
2520.000000	99.945550
2519.000000	99.947553
2518.000000	99.949574
2517.000000	99.951620
2516.000000	99.953692
2515.000000	99.955785
2514.000000	99.957885
2513.000000	99.959977
2512.000000	99.962056
2511.000000	99.964131
2510.000000	99.966219
2509.000000	99.968334
2508.000000	99.970471
2507.000000	99.972613
2506.000000	99.974739
2505.000000	99.976839
2504.000000	99.978920
2503.000000	99.980998
2502.000000	99.983089
2501.000000	99.985203
2500.000000	99.987348
2499.000000	99.989530
2498.000000	99.991746
2497.000000	99.993990
2496.000000	99.996248
2495.000000	99.998508
2494.000000	100.000760
2493.000000	100.002995
2492.000000	100.005211
2491.000000	100.007408
2490.000000	100.009595
2489.000000	100.011782
2488.000000	100.013985
2487.000000	100.016219
2486.000000	100.018484
2485.000000	100.020768
2484.000000	100.023048
2483.000000	100.025306
2482.000000	100.027530
2481.000000	100.029717
2480.000000	100.031876
2479.000000	100.034016
2478.000000	100.036146
2477.000000	100.038270
2476.000000	100.040382
2475.000000	100.042472
2474.000000	100.044528
2473.000000	100.046550
2472.000000	100.048553
2471.000000	100.050554
2470.000000	100.052563
2469.000000	100.054580
2468.000000	100.056593
2467.000000	100.058589
2466.000000	100.060554
2465.000000	100.062491
2464.000000	100.064415
2463.000000	100.066354
2462.000000	100.068308
2461.000000	100.070231
2460.000000	100.072073
2459.000000	100.073824
2458.000000	100.075527
2457.000000	100.077220
2456.000000	100.078903
2455.000000	100.080554
2454.000000	100.082176
2453.000000	100.083796
2452.000000	100.085408
2451.000000	100.086927
2450.000000	100.088280
2449.000000	100.089522
2448.000000	100.090848
2447.000000	100.092407
2446.000000	100.094117
2445.000000	100.095681
2444.000000	100.096876
2443.000000	100.097760
2442.000000	100.098540
2441.000000	100.099311
2440.000000	100.100053
2439.000000	100.100808
2438.000000	100.101764
2437.000000	100.103120
2436.000000	100.104810
2435.000000	100.106382
2434.000000	100.107380
2433.000000	100.107879
2432.000000	100.108489
2431.000000	100.109724
2430.000000	100.111470
2429.000000	100.113212
2428.000000	100.114571
2427.000000	100.115403
2426.000000	100.115601
2425.000000	100.115206
2424.000000	100.114687
2423.000000	100.114662
2422.000000	100.115268
2421.000000	100.116062
2420.000000	100.116519
2419.000000	100.116439
2418.000000	100.115942
2417.000000	100.115338
2416.000000	100.114941
2415.000000	100.114855
2414.000000	100.114979
2413.000000	100.115245
2412.000000	100.115675
2411.000000	100.116213
2410.000000	100.116894
2409.000000	100.118187
2408.000000	100.120587
2407.000000	100.123559
2406.000000	100.125454
2405.000000	100.125065
2404.000000	100.122916
2403.000000	100.120633
2402.000000	100.119275
2401.000000	100.118734
2400.000000	100.118500
2399.000000	100.118275
2398.000000	100.117892
2397.000000	100.117167
2396.000000	100.116058
2395.000000	100.114733
2394.000000	100.113454
2393.000000	100.112581
2392.000000	100.112553
2391.000000	100.113484
2390.000000	100.114723
2389.000000	100.115049
2388.000000	100.113575
2387.000000	100.110412
2386.000000	100.106557
2385.000000	100.103279
2384.000000	100.101287
2383.000000	100.100175
2382.000000	100.098778
2381.000000	100.096354
2380.000000	100.093336
2379.000000	100.090746
2378.000000	100.089118
2377.000000	100.088358
2376.000000	100.088233
2375.000000	100.088389
2374.000000	100.088004
2373.000000	100.086123
2372.000000	100.082601
2371.000000	100.078419
2370.000000	100.074894
2369.000000	100.072705
2368.000000	100.071528
2367.000000	100.070260
2366.000000	100.067752
2365.000000	100.063755
2364.000000	100.059318
2363.000000	100.055816
2362.000000	100.053661
2361.000000	100.051972
2360.000000	100.048749
2359.000000	100.043177
2358.000000	100.036949
2357.000000	100.032802
2356.000000	100.031780
2355.000000	100.032660
2354.000000	100.035077
2353.000000	100.038754
2352.000000	100.042234
2351.000000	100.043768
2350.000000	100.042003
2349.000000	100.036910
2348.000000	100.028965
2347.000000	100.020505
2346.000000	100.014010
2345.000000	100.009829
2344.000000	100.007137
2343.000000	100.004221
2342.000000	100.000693
2341.000000	99.996836
2340.000000	99.993712
2339.000000	99.991793
2338.000000	99.990321
2337.000000	99.988007
2336.000000	99.984258
2335.000000	99.980106
2334.000000	99.977633
2333.000000	99.977193
2332.000000	99.976740
2331.000000	99.974950
2330.000000	99.972450
2329.000000	99.971116
2328.000000	99.969911
2327.000000	99.967215
2326.000000	99.962741
2325.000000	99.957914
2324.000000	99.954594
2323.000000	99.952692
2322.000000	99.951527
2321.000000	99.949767
2320.000000	99.947431
2319.000000	99.945684
2318.000000	99.945567
2317.000000	99.946600
2316.000000	99.946655
2315.000000	99.944590
2314.000000	99.941036
2313.000000	99.937913
2312.000000	99.935990
2311.000000	99.935075
2310.000000	99.934653
2309.000000	99.934632
2308.000000	99.934841
2307.000000	99.934990
2306.000000	99.934988
2305.000000	99.934837
2304.000000	99.934191
2303.000000	99.932198
2302.000000	99.928537
2301.000000	99.924333
2300.000000	99.921375
2299.000000	99.920364
2298.000000	99.919895
2297.000000	99.918295
2296.000000	99.915560
2295.000000	99.913537
2294.000000	99.913527
2293.000000	99.914823
2292.000000	99.915542
2291.000000	99.914685
2290.000000	99.912853
2289.000000	99.911110
2288.000000	99.909982
2287.000000	99.909324
2286.000000	99.908720
2285.000000	99.907420
2284.000000	99.904532
2283.000000	99.899628
2282.000000	99.893473
2281.000000	99.887766
2280.000000	99.883917
2279.000000	99.881810
2278.000000	99.879935
2277.000000	99.876804
2276.000000	99.872368
2275.000000	99.868106
2274.000000	99.865593
2273.000000	99.865025
2272.000000	99.864926
2271.000000	99.863423
2270.000000	99.860016
2269.000000	99.856016
2268.000000	99.853225
2267.000000	99.852233
2266.000000	99.852159
2265.000000	99.851936
2264.000000	99.851412
2263.000000	99.850914
2262.000000	99.850125
2261.000000	99.848041
2260.000000	99.844260
2259.000000	99.839786
2258.000000	99.836262
2257.000000	99.834413
2256.000000	99.833664
2255.000000	99.832985
2254.000000	99.831815
2253.000000	99.830169
2252.000000	99.828319
2251.000000	99.826765
2250.000000	99.826145
2249.000000	99.826747
2248.000000	99.827861
2247.000000	99.827956
2246.000000	99.825883
2245.000000	99.821965
2244.000000	99.817881
2243.000000	99.815240
2242.000000	99.814331
2241.000000	99.814363
2240.000000	99.814677
2239.000000	99.815333
2238.000000	99.816348
2237.000000	99.816842
2236.000000	99.815655
2235.000000	99.812858
2234.000000	99.810106
2233.000000	99.809093
2232.000000	99.809979
2231.000000	99.811682
2230.000000	99.813374
2229.000000	99.815203
2228.000000	99.817500
2227.000000	99.819887
2226.000000	99.821570
2225.000000	99.822159
2224.000000	99.821890
2223.000000	99.821362
2222.000000	99.821400
2221.000000	99.822897
2220.000000	99.826136
2219.000000	99.830140
2218.000000	99.833114
2217.000000	99.834020
2216.000000	99.833537
2215.000000	99.833360
2214.000000	99.834638
2213.000000	99.837347
2212.000000	99.840923
2211.000000	99.844900
2210.000000	99.848769
2209.000000	99.851689
2208.000000	99.852945
2207.000000	99.852718
2206.000000	99.852204
2205.000000	99.852759
2204.000000	99.854882
2203.000000	99.858024
2202.000000	99.861158
2201.000000	99.863592
2200.000000	99.865365
2199.000000	99.867030
2198.000000	99.869089
2197.000000	99.871599
2196.000000	99.874233
2195.000000	99.876578
2194.000000	99.878326
2193.000000	99.879365
2192.000000	99.879912
2191.000000	99.880480
2190.000000	99.881452
2189.000000	99.882623
2188.000000	99.883365
2187.000000	99.883472
2186.000000	99.883708
2185.000000	99.885170
2184.000000	99.888148
2183.000000	99.891860
2182.000000	99.895293
2181.000000	99.898161
2180.000000	99.900751
2179.000000	99.903162
2178.000000	99.905102
2177.000000	99.906410
2176.000000	99.907412
2175.000000	99.908558
2174.000000	99.909848
2173.000000	99.910861
2172.000000	99.911384
2171.000000	99.911855
2170.000000	99.912968
2169.000000	99.914845
2168.000000	99.916774
2167.000000	99.917964
2166.000000	99.918413
2165.000000	99.918821
2164.000000	99.919748
2163.000000	99.921288
2162.000000	99.923548
2161.000000	99.926789
2160.000000	99.930765
2159.000000	99.934342
2158.000000	99.936338
2157.000000	99.936647
2156.000000	99.936327
2155.000000	99.936646
2154.000000	99.938113
2153.000000	99.940449
2152.000000	99.943081
2151.000000	99.945590
2150.000000	99.947921
2149.000000	99.950296
2148.000000	99.952838
2147.000000	99.955342
2146.000000	99.957560
2145.000000	99.959628
2144.000000	99.961885
2143.000000	99.964340
2142.000000	99.966681
2141.000000	99.968880
2140.000000	99.971414
2139.000000	99.974663
2138.000000	99.978426
2137.000000	99.982240
2136.000000	99.985915
2135.000000	99.989418
2134.000000	99.992471
2133.000000	99.994734
2132.000000	99.996466
2131.000000	99.998696
2130.000000	100.002345
2129.000000	100.007304
2128.000000	100.012334
2127.000000	100.016165
2126.000000	100.018589
2125.000000	100.020351
2124.000000	100.022230
2123.000000	100.024355
2122.000000	100.026556
2121.000000	100.028901
2120.000000	100.031517
2119.000000	100.034163
2118.000000	100.036448
2117.000000	100.038523
2116.000000	100.041136
2115.000000	100.044862
2114.000000	100.049485
2113.000000	100.054172
2112.000000	100.058100
2111.000000	100.060910
2110.000000	100.062895
2109.000000	100.064870
2108.000000	100.067503
2107.000000	100.070640
2106.000000	100.073584
2105.000000	100.076099
2104.000000	100.078662
2103.000000	100.081514
2102.000000	100.084121
2101.000000	100.085996
2100.000000	100.087463
2099.000000	100.089092
2098.000000	100.090893
2097.000000	100.092569
2096.000000	100.094024
2095.000000	100.095119
2094.000000	100.095639
2093.000000	100.096161
2092.000000	100.098062
2091.000000	100.101581
2090.000000	100.104665
2089.000000	100.105231
2088.000000	100.104230
2087.000000	100.104894
2086.000000	100.108759
2085.000000	100.113841
2084.000000	100.117070
2083.000000	100.117430
2082.000000	100.116077
2081.000000	100.114426
2080.000000	100.112953
2079.000000	100.111613
2078.000000	100.110890
2077.000000	100.112052
2076.000000	100.115846
2075.000000	100.120795
2074.000000	100.123801
2073.000000	100.123314
2072.000000	100.121286
2071.000000	100.120890
2070.000000	100.122713
2069.000000	100.124736
2068.000000	100.125590
2067.000000	100.125752
2066.000000	100.125281
2065.000000	100.122621
2064.000000	100.117015
2063.000000	100.110790
2062.000000	100.107685
2061.000000	100.109167
2060.000000	100.113236
2059.000000	100.116451
2058.000000	100.116452
2057.000000	100.112812
2056.000000	100.106611
2055.000000	100.099697
2054.000000	100.093859
2053.000000	100.090096
2052.000000	100.088314
2051.000000	100.087482
2050.000000	100.086237
2049.000000	100.083901
2048.000000	100.081116
2047.000000	100.079041
2046.000000	100.077752
2045.000000	100.075913
2044.000000	100.072181
2043.000000	100.066501
2042.000000	100.059766
2041.000000	100.052648
2040.000000	100.045285
2039.000000	100.037951
2038.000000	100.031425
2037.000000	100.026399
2036.000000	100.022630
2035.000000	100.018876
2034.000000	100.013950
2033.000000	100.008011
2032.000000	100.002691
2031.000000	99.999631
2030.000000	99.998829
2029.000000	99.998511
2028.000000	99.996790
2027.000000	99.993225
2026.000000	99.988724
2025.000000	99.984236
2024.000000	99.979920
2023.000000	99.975426
2022.000000	99.970378
2021.000000	99.964519
2020.000000	99.957740
2019.000000	99.950445
2018.000000	99.943804
2017.000000	99.939110
2016.000000	99.936713
2015.000000	99.935742
2014.000000	99.934922
2013.000000	99.933395
2012.000000	99.930639
2011.000000	99.926142
2010.000000	99.919715
2009.000000	99.912064
2008.000000	99.904554
2007.000000	99.898227
2006.000000	99.893364
2005.000000	99.889876
2004.000000	99.887719
2003.000000	99.886719
2002.000000	99.886079
2001.000000	99.884470
2000.000000	99.880628
1999.000000	99.874367
1998.000000	99.867123
1997.000000	99.861035
1996.000000	99.857228
1995.000000	99.855020
1994.000000	99.852923
1993.000000	99.850291
1992.000000	99.847667
1991.000000	99.845540
1990.000000	99.843645
1989.000000	99.841766
1988.000000	99.840408
1987.000000	99.840058
1986.000000	99.840235
1985.000000	99.839836
1984.000000	99.838278
1983.000000	99.835922
1982.000000	99.833512
1981.000000	99.831736
1980.000000	99.831115
1979.000000	99.831812
1978.000000	99.833081
1977.000000	99.833249
1976.000000	99.831059
1975.000000	99.826985
1974.000000	99.823016
1973.000000	99.820768
1972.000000	99.819903
1971.000000	99.818613
1970.000000	99.815595
1969.000000	99.811401
1968.000000	99.807914
1967.000000	99.806525
1966.000000	99.806910
1965.000000	99.807573
1964.000000	99.807233
1963.000000	99.805489
1962.000000	99.802576
1961.000000	99.798971
1960.000000	99.795180
1959.000000	99.791670
1958.000000	99.788795
1957.000000	99.786656
1956.000000	99.784986
1955.000000	99.783291
1954.000000	99.781356
1953.000000	99.779416
1952.000000	99.777700
1951.000000	99.775812
1950.000000	99.773168
1949.000000	99.770114
1948.000000	99.767706
1947.000000	99.766332
1946.000000	99.765157
1945.000000	99.763142
1944.000000	99.760016
1943.000000	99.756006
1942.000000	99.751355
1941.000000	99.746583
1940.000000	99.742536
1939.000000	99.739330
1938.000000	99.735785
1937.000000	99.730861
1936.000000	99.725288
1935.000000	99.720787
1934.000000	99.717842
1933.000000	99.715330
1932.000000	99.712458
1931.000000	99.709569
1930.000000	99.707178
1929.000000	99.705372
1928.000000	99.703872
1927.000000	99.702663
1926.000000	99.701585
1925.000000	99.700398
1924.000000	99.699181
1923.000000	99.697919
1922.000000	99.696087
1921.000000	99.692704
1920.000000	99.687149
1919.000000	99.679799
1918.000000	99.672249
1917.000000	99.666658
1916.000000	99.664195
1915.000000	99.664010
1914.000000	99.663381
1913.000000	99.659273
1912.000000	99.650872
1911.000000	99.640359
1910.000000	99.631138
1909.000000	99.624978
1908.000000	99.620668
1907.000000	99.615859
1906.000000	99.608698
1905.000000	99.598822
1904.000000	99.587618
1903.000000	99.577397
1902.000000	99.570282
1901.000000	99.566237
1900.000000	99.562889
1899.000000	99.558565
1898.000000	99.553904
1897.000000	99.549875
1896.000000	99.545498
1895.000000	99.539179
1894.000000	99.532374
1893.000000	99.528857
1892.000000	99.529957
1891.000000	99.532520
1890.000000	99.532087
1889.000000	99.527151
1888.000000	99.519653
1887.000000	99.512529
1886.000000	99.508044
1885.000000	99.507322
1884.000000	99.509833
1883.000000	99.513539
1882.000000	99.516820
1881.000000	99.519486
1880.000000	99.521374
1879.000000	99.521583
1878.000000	99.519270
1877.000000	99.514922
1876.000000	99.510502
1875.000000	99.507694
1874.000000	99.506768
1873.000000	99.507097
1872.000000	99.507826
1871.000000	99.508676
1870.000000	99.511112
1869.000000	99.517822
1868.000000	99.529111
1867.000000	99.541654
1866.000000	99.552224
1865.000000	99.559885
1864.000000	99.564886
1863.000000	99.567903
1862.000000	99.570747
1861.000000	99.576480
1860.000000	99.586939
1859.000000	99.600302
1858.000000	99.612327
1857.000000	99.620336
1856.000000	99.625571
1855.000000	99.631607
1854.000000	99.640841
1853.000000	99.652702
1852.000000	99.663964
1851.000000	99.672028
1850.000000	99.676866
1849.000000	99.680629
1848.000000	99.686655
1847.000000	99.696900
1846.000000	99.709918
1845.000000	99.721245
1844.000000	99.727617
1843.000000	99.730840
1842.000000	99.735617
1841.000000	99.743452
1840.000000	99.751508
1839.000000	99.757349
1838.000000	99.761487
1837.000000	99.765856
1836.000000	99.770690
1835.000000	99.774069
1834.000000	99.774452
1833.000000	99.771829
1832.000000	99.767270
1831.000000	99.763334
1830.000000	99.763481
1829.000000	99.769070
1828.000000	99.778093
1827.000000	99.787038
1826.000000	99.792897
1825.000000	99.795003
1824.000000	99.795648
1823.000000	99.797238
1822.000000	99.799667
1821.000000	99.801229
1820.000000	99.801364
1819.000000	99.801287
1818.000000	99.801568
1817.000000	99.801390
1816.000000	99.800226
1815.000000	99.799348
1814.000000	99.801398
1813.000000	99.807304
1812.000000	99.814846
1811.000000	99.820149
1810.000000	99.821466
1809.000000	99.821372
1808.000000	99.823210
1807.000000	99.827366
1806.000000	99.832203
1805.000000	99.836527
1804.000000	99.840011
1803.000000	99.842322
1802.000000	99.843740
1801.000000	99.844988
1800.000000	99.846311
1799.000000	99.847005
1798.000000	99.847106
1797.000000	99.848806
1796.000000	99.853818
1795.000000	99.860751
1794.000000	99.866004
1793.000000	99.867187
1792.000000	99.866385
1791.000000	99.867869
1790.000000	99.873711
1789.000000	99.883559
1788.000000	99.895723
1787.000000	99.907929
1786.000000	99.918165
1785.000000	99.925748
1784.000000	99.931550
1783.000000	99.937050
1782.000000	99.943715
1781.000000	99.951362
1780.000000	99.959393
1779.000000	99.968047
1778.000000	99.977388
1777.000000	99.986381
1776.000000	99.992625
1775.000000	99.995099
1774.000000	99.995427
1773.000000	99.996884
1772.000000	100.002279
1771.000000	100.011507
1770.000000	100.022312
1769.000000	100.032590
1768.000000	100.041004
1767.000000	100.047295
1766.000000	100.053269
1765.000000	100.061476
1764.000000	100.072145
1763.000000	100.081652
1762.000000	100.085796
1761.000000	100.085311
1760.000000	100.086654
1759.000000	100.093924
1758.000000	100.104181
1757.000000	100.111745
1756.000000	100.114636
1755.000000	100.116476
1754.000000	100.119929
1753.000000	100.122359
1752.000000	100.119616
1751.000000	100.112105
1750.000000	100.104769
1749.000000	100.102757
1748.000000	100.107492
1747.000000	100.116002
1746.000000	100.123361
1745.000000	100.125790
1744.000000	100.124405
1743.000000	100.123482
1742.000000	100.124475
1741.000000	100.124504
1740.000000	100.121708
1739.000000	100.118789
1738.000000	100.119365
1737.000000	100.122986
1736.000000	100.125002
1735.000000	100.120904
1734.000000	100.111261
1733.000000	100.100119
1732.000000	100.091784
1731.000000	100.088632
1730.000000	100.089869
1729.000000	100.093386
1728.000000	100.096399
1727.000000	100.096965
1726.000000	100.094990
1725.000000	100.091176
1724.000000	100.087150
1723.000000	100.083966
1722.000000	100.081255
1721.000000	100.077862
1720.000000	100.071847
1719.000000	100.061601
1718.000000	100.048917
1717.000000	100.039239
1716.000000	100.034995
1715.000000	100.033204
1714.000000	100.030627
1713.000000	100.026788
1712.000000	100.022097
1711.000000	100.015537
1710.000000	100.005868
1709.000000	99.993900
1708.000000	99.982067
1707.000000	99.971949
1706.000000	99.963033
1705.000000	99.955122
1704.000000	99.949409
1703.000000	99.946127
1702.000000	99.941983
1701.000000	99.931142
1700.000000	99.912153
1699.000000	99.891861
1698.000000	99.877408
1697.000000	99.868236
1696.000000	99.860415
1695.000000	99.851630
1694.000000	99.842661
1693.000000	99.835135
1692.000000	99.828139
1691.000000	99.819623
1690.000000	99.809053
1689.000000	99.797584
1688.000000	99.786488
1687.000000	99.776169
1686.000000	99.765324
1685.000000	99.751927
1684.000000	99.736254
1683.000000	99.721184
1682.000000	99.709219
1681.000000	99.699847
1680.000000	99.690880
1679.000000	99.681420
1678.000000	99.671864
1677.000000	99.661994
1676.000000	99.650803
1675.000000	99.638117
1674.000000	99.625262
1673.000000	99.613412
1672.000000	99.602423
1671.000000	99.590942
1670.000000	99.578552
1669.000000	99.566484
1668.000000	99.555907
1667.000000	99.547456
1666.000000	99.540384
1665.000000	99.532493
1664.000000	99.521985
1663.000000	99.509102
1662.000000	99.496519
1661.000000	99.486169
1660.000000	99.477622
1659.000000	99.469862
1658.000000	99.462559
1657.000000	99.456495
1656.000000	99.452093
1655.000000	99.446995
1654.000000	99.433245
1653.000000	99.406809
1652.000000	99.377914
1651.000000	99.360588
1650.000000	99.355701
1649.000000	99.353852
1648.000000	99.350181
1647.000000	99.348391
1646.000000	99.348645
1645.000000	99.344701
1644.000000	99.336443
1643.000000	99.329115
1642.000000	99.326244
1641.000000	99.327000
1640.000000	99.327862
1639.000000	99.326801
1638.000000	99.322986
1637.000000	99.315444
1636.000000	99.304556
1635.000000	99.294066
1634.000000	99.286832
1633.000000	99.283674
1632.000000	99.283191
1631.000000	99.283005
1630.000000	99.283340
1629.000000	99.285234
1628.000000	99.288267
1627.000000	99.291006
1626.000000	99.293176
1625.000000	99.295204
1624.000000	99.298027
1623.000000	99.302459
1622.000000	99.307077
1621.000000	99.309133
1620.000000	99.307909
1619.000000	99.305386
1618.000000	99.304778
1617.000000	99.308132
1616.000000	99.312772
1615.000000	99.317081
1614.000000	99.324038
1613.000000	99.333979
1612.000000	99.343481
1611.000000	99.350584
1610.000000	99.357343
1609.000000	99.366538
1608.000000	99.378181
1607.000000	99.389699
1606.000000	99.398513
1605.000000	99.403273
1604.000000	99.405621
1603.000000	99.410382
1602.000000	99.420652
1601.000000	99.434385
1600.000000	99.446901
1599.000000	99.455901
1598.000000	99.462584
1597.000000	99.469317
1596.000000	99.477918
1595.000000	99.489006
1594.000000	99.501574
1593.000000	99.513129
1592.000000	99.521552
1591.000000	99.527111
1590.000000	99.532164
1589.000000	99.538647
1588.000000	99.546563
1587.000000	99.555126
1586.000000	99.564204
1585.000000	99.574092
1584.000000	99.583935
1583.000000	99.592484
1582.000000	99.598915
1581.000000	99.603364
1580.000000	99.607193
1579.000000	99.611794
1578.000000	99.616607
1577.000000	99.619961
1576.000000	99.622780
1575.000000	99.628337
1574.000000	99.638674
1573.000000	99.651907
1572.000000	99.663951
1571.000000	99.672108
1570.000000	99.676549
1569.000000	99.679136
1568.000000	99.681769
1567.000000	99.686849
1566.000000	99.694759
1565.000000	99.702402
1564.000000	99.705739
1563.000000	99.703896
1562.000000	99.698525
1561.000000	99.690665
1560.000000	99.681332
1559.000000	99.679150
1558.000000	99.685937
1557.000000	99.694357
1556.000000	99.704675
1555.000000	99.716036
1554.000000	99.725677
1553.000000	99.733772
1552.000000	99.742856
1551.000000	99.754071
1550.000000	99.763180
1549.000000	99.766532
1548.000000	99.765514
1547.000000	99.764934
1546.000000	99.767898
1545.000000	99.774580
1544.000000	99.783752
1543.000000	99.793469
1542.000000	99.800722
1541.000000	99.804181
1540.000000	99.806219
1539.000000	99.807015
1538.000000	99.805045
1537.000000	99.801864
1536.000000	99.796881
1535.000000	99.786980
1534.000000	99.773556
1533.000000	99.762515
1532.000000	99.757899
1531.000000	99.758039
1530.000000	99.758650
1529.000000	99.757521
1528.000000	99.755555
1527.000000	99.754452
1526.000000	99.753932
1525.000000	99.751679
1524.000000	99.747031
1523.000000	99.741593
1522.000000	99.738177
1521.000000	99.738976
1520.000000	99.742503
1519.000000	99.747509
1518.000000	99.753490
1517.000000	99.758956
1516.000000	99.763161
1515.000000	99.765988
1514.000000	99.768283
1513.000000	99.770431
1512.000000	99.772724
1511.000000	99.775276
1510.000000	99.777727
1509.000000	99.780021
1508.000000	99.783431
1507.000000	99.789570
1506.000000	99.793344
1505.000000	99.791180
1504.000000	99.790728
1503.000000	99.796549
1502.000000	99.805308
1501.000000	99.813036
1500.000000	99.818151
1499.000000	99.821709
1498.000000	99.824433
1497.000000	99.825774
1496.000000	99.825530
1495.000000	99.824244
1494.000000	99.823377
1493.000000	99.823930
1492.000000	99.825873
1491.000000	99.828481
1490.000000	99.829743
1489.000000	99.827763
1488.000000	99.823961
1487.000000	99.821280
1486.000000	99.820820
1485.000000	99.821692
1484.000000	99.822355
1483.000000	99.823504
1482.000000	99.826151
1481.000000	99.828808
1480.000000	99.828648
1479.000000	99.825109
1478.000000	99.820856
1477.000000	99.819151
1476.000000	99.820848
1475.000000	99.823504
1474.000000	99.824890
1473.000000	99.825082
1472.000000	99.825631
1471.000000	99.827359
1470.000000	99.830299
1469.000000	99.833872
1468.000000	99.836572
1467.000000	99.837067
1466.000000	99.835694
1465.000000	99.833900
1464.000000	99.831784
1463.000000	99.828132
1462.000000	99.822206
1461.000000	99.814879
1460.000000	99.807753
1459.000000	99.802245
1458.000000	99.798445
1457.000000	99.795611
1456.000000	99.793109
1455.000000	99.792279
1454.000000	99.793729
1453.000000	99.793807
1452.000000	99.789730
1451.000000	99.783294
1450.000000	99.778626
1449.000000	99.778579
1448.000000	99.783389
1447.000000	99.790752
1446.000000	99.797989
1445.000000	99.803085
1444.000000	99.805610
1443.000000	99.806811
1442.000000	99.807932
1441.000000	99.809257
1440.000000	99.809870
1439.000000	99.808600
1438.000000	99.803907
1437.000000	99.795808
1436.000000	99.787032
1435.000000	99.780804
1434.000000	99.778153
1433.000000	99.777815
1432.000000	99.778089
1431.000000	99.778228
1430.000000	99.777506
1429.000000	99.774599
1428.000000	99.768892
1427.000000	99.761493
1426.000000	99.755172
1425.000000	99.751962
1424.000000	99.752123
1423.000000	99.754004
1422.000000	99.754805
1421.000000	99.752527
1420.000000	99.747125
1419.000000	99.741535
1418.000000	99.738767
1417.000000	99.738953
1416.000000	99.740106
1415.000000	99.739727
1414.000000	99.736926
1413.000000	99.733270
1412.000000	99.731355
1411.000000	99.732453
1410.000000	99.735543
1409.000000	99.738842
1408.000000	99.741070
1407.000000	99.741268
1406.000000	99.740275
1405.000000	99.741439
1404.000000	99.747834
1403.000000	99.758537
1402.000000	99.769859
1401.000000	99.780003
1400.000000	99.789703
1399.000000	99.798578
1398.000000	99.802808
1397.000000	99.798930
1396.000000	99.788529
1395.000000	99.779327
1394.000000	99.780248
1393.000000	99.793274
1392.000000	99.813036
1391.000000	99.831858
1390.000000	99.844075
1389.000000	99.848137
1388.000000	99.846185
1387.000000	99.841379
1386.000000	99.835729
1385.000000	99.830755
1384.000000	99.828429
1383.000000	99.829957
1382.000000	99.834278
1381.000000	99.839407
1380.000000	99.844602
1379.000000	99.850510
1378.000000	99.857875
1377.000000	99.866990
1376.000000	99.878055
1375.000000	99.891111
1374.000000	99.905622
1373.000000	99.920344
1372.000000	99.934342
1371.000000	99.947331
1370.000000	99.960023
1369.000000	99.974145
1368.000000	99.990992
1367.000000	100.008871
1366.000000	100.023595
1365.000000	100.032986
1364.000000	100.039555
1363.000000	100.048079
1362.000000	100.060478
1361.000000	100.074743
1360.000000	100.088422
1359.000000	100.099878
1358.000000	100.107443
1357.000000	100.110455
1356.000000	100.110676
1355.000000	100.110706
1354.000000	100.111366
1353.000000	100.112273
1352.000000	100.113781
1351.000000	100.115803
1350.000000	100.116966
1349.000000	100.116015
1348.000000	100.114708
1347.000000	100.116834
1346.000000	100.123302
1345.000000	100.130420
1344.000000	100.133661
1343.000000	100.131689
1342.000000	100.126344
1341.000000	100.120588
1340.000000	100.116777
1339.000000	100.115206
1338.000000	100.114092
1337.000000	100.112591
1336.000000	100.113040
1335.000000	100.118224
1334.000000	100.126976
1333.000000	100.134344
1332.000000	100.136327
1331.000000	100.133100
1330.000000	100.127621
1329.000000	100.122539
1328.000000	100.119222
1327.000000	100.118172
1326.000000	100.119080
1325.000000	100.120687
1324.000000	100.121813
1323.000000	100.122251
1322.000000	100.122395
1321.000000	100.122853
1320.000000	100.124184
1319.000000	100.125813
1318.000000	100.125484
1317.000000	100.121679
1316.000000	100.116395
1315.000000	100.113624
1314.000000	100.114825
1313.000000	100.117647
1312.000000	100.119522
1311.000000	100.120539
1310.000000	100.121843
1309.000000	100.123079
1308.000000	100.123112
1307.000000	100.122205
1306.000000	100.122255
1305.000000	100.124595
1304.000000	100.128172
1303.000000	100.129792
1302.000000	100.126726
1301.000000	100.119940
1300.000000	100.113983
1299.000000	100.112110
1298.000000	100.111933
1297.000000	100.108145
1296.000000	100.099266
1295.000000	100.089409
1294.000000	100.083065
1293.000000	100.080376
1292.000000	100.078553
1291.000000	100.075608
1290.000000	100.070928
1289.000000	100.063687
1288.000000	100.052695
1287.000000	100.037962
1286.000000	100.021827
1285.000000	100.008223
1284.000000	99.999859
1283.000000	99.994907
1282.000000	99.987525
1281.000000	99.973794
1280.000000	99.956494
1279.000000	99.941977
1278.000000	99.932568
1277.000000	99.924586
1276.000000	99.913720
1275.000000	99.899375
1274.000000	99.883499
1273.000000	99.868259
1272.000000	99.855872
1271.000000	99.847713
1270.000000	99.842235
1269.000000	99.836340
1268.000000	99.829416
1267.000000	99.822768
1266.000000	99.814766
1265.000000	99.801491
1264.000000	99.784014
1263.000000	99.769705
1262.000000	99.762799
1261.000000	99.758151
1260.000000	99.748576
1259.000000	99.734524
1258.000000	99.721486
1257.000000	99.711170
1256.000000	99.700776
1255.000000	99.688680
1254.000000	99.675269
1253.000000	99.659390
1252.000000	99.639493
1251.000000	99.618502
1250.000000	99.603050
1249.000000	99.596851
1248.000000	99.597355
1247.000000	99.598322
1246.000000	99.592909
1245.000000	99.576089
1244.000000	99.548968
1243.000000	99.520984
1242.000000	99.502950
1241.000000	99.495985
1240.000000	99.490487
1239.000000	99.477077
1238.000000	99.455590
1237.000000	99.432446
1236.000000	99.412508
1235.000000	99.395705
1234.000000	99.378944
1233.000000	99.358180
1232.000000	99.329712
1231.000000	99.292726
1230.000000	99.251472
1229.000000	99.213045
1228.000000	99.181455
1227.000000	99.154076
1226.000000	99.124574
1225.000000	99.089001
1224.000000	99.048144
1223.000000	99.004373
1222.000000	98.958306
1221.000000	98.909670
1220.000000	98.859402
1219.000000	98.808437
1218.000000	98.755412
1217.000000	98.698307
1216.000000	98.637758
1215.000000	98.575462
1214.000000	98.509649
1213.000000	98.436263
1212.000000	98.355763
1211.000000	98.274929
1210.000000	98.199676
1209.000000	98.128903
1208.000000	98.057432
1207.000000	97.981935
1206.000000	97.902029
1205.000000	97.818662
1204.000000	97.734179
1203.000000	97.652303
1202.000000	97.575407
1201.000000	97.502073
1200.000000	97.428099
1199.000000	97.349110
1198.000000	97.262797
1197.000000	97.171306
1196.000000	97.081694
1195.000000	97.000858
1194.000000	96.928493
1193.000000	96.856957
1192.000000	96.778427
1191.000000	96.690352
1190.000000	96.595164
1189.000000	96.498368
1188.000000	96.406545
1187.000000	96.322734
1186.000000	96.242433
1185.000000	96.157419
1184.000000	96.064173
1183.000000	95.965618
1182.000000	95.865020
1181.000000	95.762041
1180.000000	95.654925
1179.000000	95.542530
1178.000000	95.423658
1177.000000	95.297893
1176.000000	95.167384
1175.000000	95.034826
1174.000000	94.900542
1173.000000	94.764882
1172.000000	94.631153
1171.000000	94.500815
1170.000000	94.367811
1169.000000	94.224398
1168.000000	94.072137
1167.000000	93.921731
1166.000000	93.784439
1165.000000	93.670724
1164.000000	93.593755
1163.000000	93.562934
1162.000000	93.573091
1161.000000	93.608344
1160.000000	93.656033
1159.000000	93.708070
1158.000000	93.751503
1157.000000	93.771145
1156.000000	93.762742
1155.000000	93.732951
1154.000000	93.685654
1153.000000	93.618987
1152.000000	93.537060
1151.000000	93.452401
1150.000000	93.372400
1149.000000	93.292985
1148.000000	93.209255
1147.000000	93.122189
1146.000000	93.030914
1145.000000	92.929240
1144.000000	92.816235
1143.000000	92.702166
1142.000000	92.597957
1141.000000	92.504695
1140.000000	92.417011
1139.000000	92.329368
1138.000000	92.235812
1137.000000	92.131944
1136.000000	92.021812
1135.000000	91.916275
1134.000000	91.820612
1133.000000	91.729193
1132.000000	91.633848
1131.000000	91.530783
1130.000000	91.419216
1129.000000	91.302180
1128.000000	91.189727
1127.000000	91.091684
1126.000000	91.005126
1125.000000	90.917957
1124.000000	90.825761
1123.000000	90.734604
1122.000000	90.646163
1121.000000	90.552423
1120.000000	90.448925
1119.000000	90.342183
1118.000000	90.239197
1117.000000	90.138916
1116.000000	90.037663
1115.000000	89.933734
1114.000000	89.823881
1113.000000	89.705795
1112.000000	89.587985
1111.000000	89.486351
1110.000000	89.405491
1109.000000	89.332136
1108.000000	89.250359
1107.000000	89.153811
1106.000000	89.041253
1105.000000	88.913416
1104.000000	88.779654
1103.000000	88.655548
1102.000000	88.546900
1101.000000	88.444942
1100.000000	88.340884
1099.000000	88.234874
1098.000000	88.128297
1097.000000	88.019464
1096.000000	87.910620
1095.000000	87.807437
1094.000000	87.708172
1093.000000	87.604939
1092.000000	87.498005
1091.000000	87.396308
1090.000000	87.302394
1089.000000	87.210881
1088.000000	87.123146
1087.000000	87.047592
1086.000000	86.982646
1085.000000	86.916004
1084.000000	86.844694
1083.000000	86.779847
1082.000000	86.727290
1081.000000	86.678964
1080.000000	86.627734
1079.000000	86.575178
1078.000000	86.521366
1077.000000	86.463385
1076.000000	86.407356
1075.000000	86.364313
1074.000000	86.329232
1073.000000	86.280957
1072.000000	86.206426
1071.000000	86.107259
1070.000000	85.980432
1069.000000	85.814021
1068.000000	85.610466
1067.000000	85.395906
1066.000000	85.195168
1065.000000	85.010610
1064.000000	84.833027
1063.000000	84.655945
1062.000000	84.470599
1061.000000	84.264668
1060.000000	84.038000
1059.000000	83.807387
1058.000000	83.587058
1057.000000	83.376230
1056.000000	83.171692
1055.000000	82.977954
1054.000000	82.798158
1053.000000	82.629251
1052.000000	82.472704
1051.000000	82.335352
1050.000000	82.213916
1049.000000	82.095274
1048.000000	81.976288
1047.000000	81.864800
1046.000000	81.759555
1045.000000	81.649671
1044.000000	81.534670
1043.000000	81.423701
1042.000000	81.313075
1041.000000	81.187134
1040.000000	81.047126
1039.000000	80.917761
1038.000000	80.817096
1037.000000	80.738384
1036.000000	80.666842
1035.000000	80.594921
1034.000000	80.515740
1033.000000	80.423050
1032.000000	80.326428
1031.000000	80.247573
1030.000000	80.193484
1029.000000	80.149713
1028.000000	80.105352
1027.000000	80.066256
1026.000000	80.037430
1025.000000	80.012490
1024.000000	79.988540
1023.000000	79.972764
1022.000000	79.965406
1021.000000	79.952415
1020.000000	79.922802
1019.000000	79.879645
1018.000000	79.829744
1017.000000	79.777504
1016.000000	79.731603
1015.000000	79.699794
1014.000000	79.672724
1013.000000	79.630472
1012.000000	79.570091
1011.000000	79.510308
1010.000000	79.465746
1009.000000	79.433908
1008.000000	79.410212
1007.000000	79.396597
1006.000000	79.390077
1005.000000	79.380753
1004.000000	79.367599
1003.000000	79.361400
1002.000000	79.368252
1001.000000	79.384579
1000.000000	79.409612
999.000000	79.446364
998.000000	79.488671
997.000000	79.524154
996.000000	79.552351
995.000000	79.584710
994.000000	79.626888
993.000000	79.676839
992.000000	79.737203
991.000000	79.810387
990.000000	79.884005
989.000000	79.943304
988.000000	79.997682
987.000000	80.071859
986.000000	80.170455
985.000000	80.274150
984.000000	80.372176
983.000000	80.474630
982.000000	80.588716
981.000000	80.708169
980.000000	80.833047
979.000000	80.976548
978.000000	81.142579
977.000000	81.315974
976.000000	81.484097
975.000000	81.651735
974.000000	81.827118
973.000000	82.009577
972.000000	82.197924
971.000000	82.395509
970.000000	82.600316
969.000000	82.804142
968.000000	83.007011
967.000000	83.218597
966.000000	83.440835
965.000000	83.662877
964.000000	83.877154
963.000000	84.086846
962.000000	84.293937
961.000000	84.493511
960.000000	84.683853
959.000000	84.869793
958.000000	85.052913
957.000000	85.230176
956.000000	85.403627
955.000000	85.578627
954.000000	85.751650
953.000000	85.914018
952.000000	86.068891
951.000000	86.229544
950.000000	86.397766
949.000000	86.557929
948.000000	86.695737
947.000000	86.810240
946.000000	86.906984
945.000000	86.994120
944.000000	87.086928
943.000000	87.199518
942.000000	87.325902
941.000000	87.442753
940.000000	87.535768
939.000000	87.611722
938.000000	87.683229
937.000000	87.756010
936.000000	87.834985
935.000000	87.927259
934.000000	88.031276
933.000000	88.134701
932.000000	88.229099
931.000000	88.316837
930.000000	88.401104
929.000000	88.481740
928.000000	88.564077
927.000000	88.657357
926.000000	88.758114
925.000000	88.848052
924.000000	88.915788
923.000000	88.970531
922.000000	89.028433
921.000000	89.095090
920.000000	89.166480
919.000000	89.236431
918.000000	89.297165
917.000000	89.342414
916.000000	89.376957
915.000000	89.416508
914.000000	89.474101
913.000000	89.552596
912.000000	89.650558
911.000000	89.765365
910.000000	89.889852
909.000000	90.018091
908.000000	90.156902
907.000000	90.319755
906.000000	90.506621
905.000000	90.701226
904.000000	90.891331
903.000000	91.080592
902.000000	91.276555
901.000000	91.478110
900.000000	91.679095
899.000000	91.875009
898.000000	92.062653
897.000000	92.241200
896.000000	92.416008
895.000000	92.593626
894.000000	92.771842
893.000000	92.942443
892.000000	93.103465
891.000000	93.259746
890.000000	93.412275
889.000000	93.557941
888.000000	93.700128
887.000000	93.847502
886.000000	93.999512
885.000000	94.143496
884.000000	94.269611
883.000000	94.380780
882.000000	94.487592
881.000000	94.602951
880.000000	94.741177
879.000000	94.909031
878.000000	95.094040
877.000000	95.272935
876.000000	95.435049
875.000000	95.588500
874.000000	95.744692
873.000000	95.909202
872.000000	96.086328
871.000000	96.276399
870.000000	96.466334
869.000000	96.637844
868.000000	96.788627
867.000000	96.933160
866.000000	97.080837
865.000000	97.227126
864.000000	97.369252
863.000000	97.514611
862.000000	97.666018
861.000000	97.811968
860.000000	97.941637
859.000000	98.060245
858.000000	98.180819
857.000000	98.308138
856.000000	98.438201
855.000000	98.565184
854.000000	98.680414
853.000000	98.772588
852.000000	98.839799
851.000000	98.897331
850.000000	98.964101
849.000000	99.043103
848.000000	99.121889
847.000000	99.188598
846.000000	99.240196
845.000000	99.278381
844.000000	99.306093
843.000000	99.328714
842.000000	99.353247
841.000000	99.383482
840.000000	99.415186
839.000000	99.433609
838.000000	99.417436
837.000000	99.354550
836.000000	99.259944
835.000000	99.173238
834.000000	99.130631
833.000000	99.138356
832.000000	99.173991
831.000000	99.207544
830.000000	99.218847
829.000000	99.204076
828.000000	99.176154
827.000000	99.157469
826.000000	99.162117
825.000000	99.180433
824.000000	99.183977
823.000000	99.148330
822.000000	99.072336
821.000000	98.977948
820.000000	98.892888
819.000000	98.830133
818.000000	98.778986
817.000000	98.713506
816.000000	98.608323
815.000000	98.447251
814.000000	98.225127
813.000000	97.950490
812.000000	97.643389
811.000000	97.318317
810.000000	96.965503
809.000000	96.557397
808.000000	96.076293
807.000000	95.528306
806.000000	94.932512
805.000000	94.312465
804.000000	93.702526
803.000000	93.142077
802.000000	92.648390
801.000000	92.208594
800.000000	91.812573
799.000000	91.481806
798.000000	91.251402
797.000000	91.133698
796.000000	91.111221
795.000000	91.153614
794.000000	91.228412
793.000000	91.305323
792.000000	91.366094
791.000000	91.409872
790.000000	91.441944
789.000000	91.459099
788.000000	91.448627
787.000000	91.395710
786.000000	91.288377
785.000000	91.123164
784.000000	90.913204
783.000000	90.686885
782.000000	90.473479
781.000000	90.292389
780.000000	90.154980
779.000000	90.066257
778.000000	90.021589
777.000000	90.013179
776.000000	90.045900
775.000000	90.137764
774.000000	90.298809
773.000000	90.515800
772.000000	90.760337
771.000000	91.005133
770.000000	91.232305
769.000000	91.436556
768.000000	91.625473
767.000000	91.810845
766.000000	91.995688
765.000000	92.172563
764.000000	92.333701
763.000000	92.476714
762.000000	92.601702
761.000000	92.712597
760.000000	92.823988
759.000000	92.957610
758.000000	93.124642
757.000000	93.312279
756.000000	93.489626
755.000000	93.628157
754.000000	93.722758
753.000000	93.798700
752.000000	93.894396
751.000000	94.029629
750.000000	94.189571
