4000.000000	99.622916
3999.000000	99.622281
3998.000000	99.621508
3997.000000	99.620537
3996.000000	99.619412
3995.000000	99.618216
3994.000000	99.616990
3993.000000	99.615757
3992.000000	99.614572
3991.000000	99.613503
3990.000000	99.612576
3989.000000	99.611758
3988.000000	99.611002
3987.000000	99.610282
3986.000000	99.609562
3985.000000	99.608788
3984.000000	99.607929
3983.000000	99.606983
3982.000000	99.605987
3981.000000	99.605002
3980.000000	99.604073
3979.000000	99.603217
3978.000000	99.602420
3977.000000	99.601626
3976.000000	99.600769
3975.000000	99.599807
3974.000000	99.598753
3973.000000	99.597684
3972.000000	99.596699
3971.000000	99.595870
3970.000000	99.595192
3969.000000	99.594536
3968.000000	99.593750
3967.000000	99.592785
3966.000000	99.591760
3965.000000	99.590896
3964.000000	99.590350
3963.000000	99.590103
3962.000000	99.589987
3961.000000	99.589824
3960.000000	99.589534
3959.000000	99.589133
3958.000000	99.588642
3957.000000	99.588039
3956.000000	99.587343
3955.000000	99.586644
3954.000000	99.586028
3953.000000	99.585505
3952.000000	99.585026
3951.000000	99.584539
3950.000000	99.584025
3949.000000	99.583493
3948.000000	99.582952
3947.000000	99.582410
3946.000000	99.581872
3945.000000	99.581342
3944.000000	99.580803
3943.000000	99.580234
3942.000000	99.579634
3941.000000	99.579054
3940.000000	99.578566
3939.000000	99.578208
3938.000000	99.577940
3937.000000	99.577663
3936.000000	99.577318
3935.000000	99.576939
3934.000000	99.576607
3933.000000	99.576368
3932.000000	99.576211
3931.000000	99.576102
3930.000000	99.575986
3929.000000	99.575761
3928.000000	99.575334
3927.000000	99.574733
3926.000000	99.574153
3925.000000	99.573825
3924.000000	99.573800
3923.000000	99.573935
3922.000000	99.574003
3921.000000	99.573859
3920.000000	99.573519
3919.000000	99.573210
3918.000000	99.573225
3917.000000	99.573650
3916.000000	99.574213
3915.000000	99.574477
3914.000000	99.574224
3913.000000	99.573612
3912.000000	99.573083
3911.000000	99.573032
3910.000000	99.573500
3909.000000	99.574075
3908.000000	99.574161
3907.000000	99.573543
3906.000000	99.572782
3905.000000	99.572873
3904.000000	99.574234
3903.000000	99.576105
3902.000000	99.577239
3901.000000	99.577312
3900.000000	99.577246
3899.000000	99.578155
3898.000000	99.580304
3897.000000	99.583126
3896.000000	99.585808
3895.000000	99.587688
3894.000000	99.588373
3893.000000	99.588025
3892.000000	99.587552
3891.000000	99.587996
3890.000000	99.589419
3889.000000	99.591080
3888.000000	99.592359
3887.000000	99.592965
3886.000000	99.592896
3885.000000	99.592559
3884.000000	99.592592
3883.000000	99.593754
3882.000000	99.596149
3881.000000	99.598507
3880.000000	99.599323
3879.000000	99.598303
3878.000000	99.596375
3877.000000	99.594953
3876.000000	99.594889
3875.000000	99.596151
3874.000000	99.597944
3873.000000	99.599177
3872.000000	99.599528
3871.000000	99.599886
3870.000000	99.601132
3869.000000	99.602503
3868.000000	99.602266
3867.000000	99.600091
3866.000000	99.597033
3865.000000	99.594205
3864.000000	99.592397
3863.000000	99.592062
3862.000000	99.592940
3861.000000	99.594010
3860.000000	99.594287
3859.000000	99.593892
3858.000000	99.593628
3857.000000	99.593891
3856.000000	99.594206
3855.000000	99.593851
3854.000000	99.592998
3853.000000	99.592464
3852.000000	99.592277
3851.000000	99.592632
3850.000000	99.594201
3849.000000	99.596433
3848.000000	99.597956
3847.000000	99.598210
3846.000000	99.597655
3845.000000	99.597039
3844.000000	99.596781
3843.000000	99.596876
3842.000000	99.597110
3841.000000	99.597415
3840.000000	99.597972
3839.000000	99.598981
3838.000000	99.600331
3837.000000	99.601566
3836.000000	99.602254
3835.000000	99.602386
3834.000000	99.602337
3833.000000	99.602533
3832.000000	99.603066
3831.000000	99.603693
3830.000000	99.604148
3829.000000	99.604409
3828.000000	99.604626
3827.000000	99.604954
3826.000000	99.605420
3825.000000	99.605964
3824.000000	99.606542
3823.000000	99.607165
3822.000000	99.607838
3821.000000	99.608508
3820.000000	99.609088
3819.000000	99.609562
3818.000000	99.609984
3817.000000	99.610385
3816.000000	99.610739
3815.000000	99.611022
3814.000000	99.611241
3813.000000	99.611434
3812.000000	99.611628
3811.000000	99.611812
3810.000000	99.611954
3809.000000	99.612023
3808.000000	99.612031
3807.000000	99.612051
3806.000000	99.612146
3805.000000	99.612291
3804.000000	99.612456
3803.000000	99.612643
3802.000000	99.612768
3801.000000	99.612754
3800.000000	99.612471
3799.000000	99.612058
3798.000000	99.612093
3797.000000	99.612448
3796.000000	99.612154
3795.000000	99.610601
3794.000000	99.608309
3793.000000	99.606499
3792.000000	99.605885
3791.000000	99.606242
3790.000000	99.607111
3789.000000	99.608265
3788.000000	99.609306
3787.000000	99.609383
3786.000000	99.607790
3785.000000	99.604649
3784.000000	99.600898
3783.000000	99.597629
3782.000000	99.595543
3781.000000	99.594507
3780.000000	99.593344
3779.000000	99.590675
3778.000000	99.586315
3777.000000	99.581919
3776.000000	99.579811
3775.000000	99.580899
3774.000000	99.583645
3773.000000	99.585332
3772.000000	99.584596
3771.000000	99.582617
3770.000000	99.581409
3769.000000	99.580942
3768.000000	99.579470
3767.000000	99.576768
3766.000000	99.574706
3765.000000	99.574706
3764.000000	99.576219
3763.000000	99.578313
3762.000000	99.580952
3761.000000	99.582627
3760.000000	99.578955
3759.000000	99.567094
3758.000000	99.550130
3757.000000	99.534729
3756.000000	99.524926
3755.000000	99.521106
3754.000000	99.522297
3753.000000	99.526440
3752.000000	99.529748
3751.000000	99.528588
3750.000000	99.521932
3749.000000	99.509473
3748.000000	99.490581
3747.000000	99.468710
3746.000000	99.451934
3745.000000	99.447505
3744.000000	99.452950
3743.000000	99.452864
3742.000000	99.441800
3741.000000	99.433021
3740.000000	99.433695
3739.000000	99.437903
3738.000000	99.439148
3737.000000	99.437187
3736.000000	99.434376
3735.000000	99.431386
3734.000000	99.429173
3733.000000	99.430215
3732.000000	99.434003
3731.000000	99.434779
3730.000000	99.427370
3729.000000	99.411735
3728.000000	99.390107
3727.000000	99.363837
3726.000000	99.334808
3725.000000	99.306899
3724.000000	99.285042
3723.000000	99.271425
3722.000000	99.263638
3721.000000	99.257434
3720.000000	99.249348
3719.000000	99.237051
3718.000000	99.219239
3717.000000	99.196662
3716.000000	99.172271
3715.000000	99.149742
3714.000000	99.129206
3713.000000	99.105232
3712.000000	99.072976
3711.000000	99.036530
3710.000000	99.006101
3709.000000	98.987072
3708.000000	98.975031
3707.000000	98.960990
3706.000000	98.939007
3705.000000	98.909167
3704.000000	98.875838
3703.000000	98.843849
3702.000000	98.816022
3701.000000	98.792262
3700.000000	98.770256
3699.000000	98.748154
3698.000000	98.726482
3697.000000	98.706854
3696.000000	98.690219
3695.000000	98.677526
3694.000000	98.670907
3693.000000	98.672147
3692.000000	98.679979
3691.000000	98.690051
3690.000000	98.696286
3689.000000	98.692959
3688.000000	98.677110
3687.000000	98.650730
3686.000000	98.620977
3685.000000	98.595465
3684.000000	98.576243
3683.000000	98.560690
3682.000000	98.546916
3681.000000	98.534995
3680.000000	98.522882
3679.000000	98.504133
3678.000000	98.474307
3677.000000	98.439056
3676.000000	98.412453
3675.000000	98.399877
3674.000000	98.389654
3673.000000	98.371890
3672.000000	98.349996
3671.000000	98.330912
3670.000000	98.317105
3669.000000	98.304826
3668.000000	98.288178
3667.000000	98.265419
3666.000000	98.237422
3665.000000	98.205215
3664.000000	98.171742
3663.000000	98.142339
3662.000000	98.121134
3661.000000	98.107187
3660.000000	98.094900
3659.000000	98.078664
3658.000000	98.057552
3657.000000	98.035379
3656.000000	98.016330
3655.000000	97.999704
3654.000000	97.982982
3653.000000	97.966414
3652.000000	97.950320
3651.000000	97.933670
3650.000000	97.918208
3649.000000	97.908352
3648.000000	97.904954
3647.000000	97.903246
3646.000000	97.897915
3645.000000	97.888786
3644.000000	97.880042
3643.000000	97.874581
3642.000000	97.869952
3641.000000	97.860336
3640.000000	97.841752
3639.000000	97.814780
3638.000000	97.782205
3637.000000	97.746550
3636.000000	97.711549
3635.000000	97.682247
3634.000000	97.660025
3633.000000	97.638777
3632.000000	97.610345
3631.000000	97.573743
3630.000000	97.539173
3629.000000	97.520651
3628.000000	97.517745
3627.000000	97.515341
3626.000000	97.506569
3625.000000	97.495801
3624.000000	97.486227
3623.000000	97.478896
3622.000000	97.476559
3621.000000	97.483322
3620.000000	97.499794
3619.000000	97.519608
3618.000000	97.532793
3617.000000	97.533889
3616.000000	97.526107
3615.000000	97.518004
3614.000000	97.517504
3613.000000	97.527337
3612.000000	97.544109
3611.000000	97.561696
3610.000000	97.575850
3609.000000	97.586401
3608.000000	97.595844
3607.000000	97.605731
3606.000000	97.614897
3605.000000	97.620903
3604.000000	97.622583
3603.000000	97.621234
3602.000000	97.619697
3601.000000	97.619966
3600.000000	97.622183
3599.000000	97.626155
3598.000000	97.632597
3597.000000	97.641086
3596.000000	97.648969
3595.000000	97.653563
3594.000000	97.654904
3593.000000	97.655421
3592.000000	97.658077
3591.000000	97.664705
3590.000000	97.674744
3589.000000	97.684768
3588.000000	97.690077
3587.000000	97.688917
3586.000000	97.684749
3585.000000	97.682867
3584.000000	97.685250
3583.000000	97.689337
3582.000000	97.691395
3581.000000	97.690264
3580.000000	97.687930
3579.000000	97.686531
3578.000000	97.685736
3577.000000	97.683226
3576.000000	97.677312
3575.000000	97.668422
3574.000000	97.657812
3573.000000	97.645752
3572.000000	97.631855
3571.000000	97.617275
3570.000000	97.605523
3569.000000	97.600816
3568.000000	97.604654
3567.000000	97.613886
3566.000000	97.622707
3565.000000	97.626948
3564.000000	97.625712
3563.000000	97.620342
3562.000000	97.612948
3561.000000	97.605204
3560.000000	97.597817
3559.000000	97.590993
3558.000000	97.585045
3557.000000	97.580082
3556.000000	97.575229
3555.000000	97.569295
3554.000000	97.562435
3553.000000	97.556409
3552.000000	97.552511
3551.000000	97.549919
3550.000000	97.546776
3549.000000	97.542479
3548.000000	97.538267
3547.000000	97.535899
3546.000000	97.536119
3545.000000	97.537904
3544.000000	97.538905
3543.000000	97.537083
3542.000000	97.532308
3541.000000	97.526423
3540.000000	97.521661
3539.000000	97.518710
3538.000000	97.516243
3537.000000	97.512181
3536.000000	97.505508
3535.000000	97.497012
3534.000000	97.488724
3533.000000	97.482430
3532.000000	97.478399
3531.000000	97.475212
3530.000000	97.470855
3529.000000	97.464554
3528.000000	97.457559
3527.000000	97.452001
3526.000000	97.448934
3525.000000	97.447634
3524.000000	97.446419
3523.000000	97.444055
3522.000000	97.440333
3521.000000	97.435517
3520.000000	97.429739
3519.000000	97.423110
3518.000000	97.416153
3517.000000	97.409736
3516.000000	97.404457
3515.000000	97.400199
3514.000000	97.396301
3513.000000	97.392082
3512.000000	97.387205
3511.000000	97.381720
3510.000000	97.375980
3509.000000	97.370425
3508.000000	97.365180
3507.000000	97.359873
3506.000000	97.354051
3505.000000	97.347708
3504.000000	97.341277
3503.000000	97.335116
3502.000000	97.329213
3501.000000	97.323404
3500.000000	97.317661
3499.000000	97.312069
3498.000000	97.306724
3497.000000	97.301784
3496.000000	97.297542
3495.000000	97.294338
3494.000000	97.292285
3493.000000	97.290907
3492.000000	97.288994
3491.000000	97.285126
3490.000000	97.278887
3489.000000	97.271729
3488.000000	97.266152
3487.000000	97.263434
3486.000000	97.262243
3485.000000	97.259715
3484.000000	97.254120
3483.000000	97.246300
3482.000000	97.238822
3481.000000	97.233532
3480.000000	97.230132
3479.000000	97.226901
3478.000000	97.222354
3477.000000	97.216126
3476.000000	97.208741
3475.000000	97.201068
3474.000000	97.193914
3473.000000	97.187697
3472.000000	97.182202
3471.000000	97.176793
3470.000000	97.171004
3469.000000	97.164854
3468.000000	97.158571
3467.000000	97.152287
3466.000000	97.146197
3465.000000	97.140699
3464.000000	97.135896
3463.000000	97.131072
3462.000000	97.125220
3461.000000	97.118256
3460.000000	97.111302
3459.000000	97.105564
3458.000000	97.101300
3457.000000	97.098080
3456.000000	97.095541
3455.000000	97.093392
3454.000000	97.090846
3453.000000	97.086730
3452.000000	97.080416
3451.000000	97.072478
3450.000000	97.064518
3449.000000	97.058052
3448.000000	97.053513
3447.000000	97.050109
3446.000000	97.046449
3445.000000	97.041649
3444.000000	97.035949
3443.000000	97.030439
3442.000000	97.026109
3441.000000	97.022958
3440.000000	97.019943
3439.000000	97.016013
3438.000000	97.011174
3437.000000	97.006369
3436.000000	97.002259
3435.000000	96.998499
3434.000000	96.994487
3433.000000	96.990545
3432.000000	96.987733
3431.000000	96.986404
3430.000000	96.985467
3429.000000	96.983422
3428.000000	96.979934
3427.000000	96.975989
3426.000000	96.972600
3425.000000	96.969701
3424.000000	96.966465
3423.000000	96.962550
3422.000000	96.958719
3421.000000	96.955966
3420.000000	96.954091
3419.000000	96.951621
3418.000000	96.947502
3417.000000	96.942490
3416.000000	96.938339
3415.000000	96.935904
3414.000000	96.934644
3413.000000	96.933802
3412.000000	96.933058
3411.000000	96.931877
3410.000000	96.929456
3409.000000	96.925983
3408.000000	96.922971
3407.000000	96.921343
3406.000000	96.919902
3405.000000	96.916648
3404.000000	96.911167
3403.000000	96.904906
3402.000000	96.899483
3401.000000	96.895598
3400.000000	96.893442
3399.000000	96.893041
3398.000000	96.893874
3397.000000	96.894870
3396.000000	96.895070
3395.000000	96.894043
3394.000000	96.891799
3393.000000	96.888860
3392.000000	96.886387
3391.000000	96.885635
3390.000000	96.887073
3389.000000	96.890150
3388.000000	96.893732
3387.000000	96.896569
3386.000000	96.897601
3385.000000	96.896444
3384.000000	96.893853
3383.000000	96.891381
3382.000000	96.890300
3381.000000	96.890790
3380.000000	96.891972
3379.000000	96.892634
3378.000000	96.892306
3377.000000	96.891995
3376.000000	96.893570
3375.000000	96.897854
3374.000000	96.903349
3373.000000	96.907388
3372.000000	96.908745
3371.000000	96.908722
3370.000000	96.909667
3369.000000	96.912703
3368.000000	96.916914
3367.000000	96.920273
3366.000000	96.921105
3365.000000	96.919023
3364.000000	96.915103
3363.000000	96.911319
3362.000000	96.909347
3361.000000	96.909596
3360.000000	96.911291
3359.000000	96.913281
3358.000000	96.914748
3357.000000	96.915400
3356.000000	96.915353
3355.000000	96.915185
3354.000000	96.915946
3353.000000	96.918612
3352.000000	96.923177
3351.000000	96.928249
3350.000000	96.932015
3349.000000	96.933892
3348.000000	96.934880
3347.000000	96.936390
3346.000000	96.938881
3345.000000	96.941736
3344.000000	96.944162
3343.000000	96.945938
3342.000000	96.947374
3341.000000	96.948923
3340.000000	96.950942
3339.000000	96.953610
3338.000000	96.956896
3337.000000	96.960631
3336.000000	96.964637
3335.000000	96.968683
3334.000000	96.972347
3333.000000	96.975142
3332.000000	96.976957
3331.000000	96.978280
3330.000000	96.979830
3329.000000	96.981927
3328.000000	96.984323
3327.000000	96.986650
3326.000000	96.988896
3325.000000	96.991352
3324.000000	96.994184
3323.000000	96.997225
3322.000000	97.000239
3321.000000	97.003308
3320.000000	97.006768
3319.000000	97.010726
3318.000000	97.014768
3317.000000	97.018244
3316.000000	97.020865
3315.000000	97.022901
3314.000000	97.025066
3313.000000	97.027996
3312.000000	97.031884
3311.000000	97.036506
3310.000000	97.041329
3309.000000	97.045770
3308.000000	97.049474
3307.000000	97.052465
3306.000000	97.055131
3305.000000	97.057936
3304.000000	97.061059
3303.000000	97.064306
3302.000000	97.067301
3301.000000	97.069870
3300.000000	97.072300
3299.000000	97.075156
3298.000000	97.078729
3297.000000	97.082729
3296.000000	97.086572
3295.000000	97.090033
3294.000000	97.093425
3293.000000	97.097153
3292.000000	97.101287
3291.000000	97.105616
3290.000000	97.109914
3289.000000	97.114040
3288.000000	97.117907
3287.000000	97.121513
3286.000000	97.125026
3285.000000	97.128682
3284.000000	97.132562
3283.000000	97.136553
3282.000000	97.140529
3281.000000	97.144466
3280.000000	97.148354
3279.000000	97.152145
3278.000000	97.155863
3277.000000	97.159667
3276.000000	97.163695
3275.000000	97.167906
3274.000000	97.172191
3273.000000	97.176562
3272.000000	97.181068
3271.000000	97.185573
3270.000000	97.189750
3269.000000	97.193413
3268.000000	97.196741
3267.000000	97.200143
3266.000000	97.203965
3265.000000	97.208273
3264.000000	97.212868
3263.000000	97.217437
3262.000000	97.221769
3261.000000	97.225876
3260.000000	97.229917
3259.000000	97.234032
3258.000000	97.238257
3257.000000	97.242556
3256.000000	97.246850
3255.000000	97.251017
3254.000000	97.254976
3253.000000	97.258816
3252.000000	97.262809
3251.000000	97.267181
3250.000000	97.271893
3249.000000	97.276638
3248.000000	97.281121
3247.000000	97.285327
3246.000000	97.289542
3245.000000	97.294127
3244.000000	97.299199
3243.000000	97.304565
3242.000000	97.309888
3241.000000	97.314972
3240.000000	97.319888
3239.000000	97.324840
3238.000000	97.329933
3237.000000	97.335062
3236.000000	97.340078
3235.000000	97.345010
3234.000000	97.350076
3233.000000	97.355439
3232.000000	97.361037
3231.000000	97.366628
3230.000000	97.372019
3229.000000	97.377193
3228.000000	97.382286
3227.000000	97.387504
3226.000000	97.392982
3225.000000	97.398713
3224.000000	97.404562
3223.000000	97.410393
3222.000000	97.416208
3221.000000	97.422134
3220.000000	97.428277
3219.000000	97.434592
3218.000000	97.440908
3217.000000	97.447070
3216.000000	97.453050
3215.000000	97.458946
3214.000000	97.464882
3213.000000	97.470923
3212.000000	97.477059
3211.000000	97.483257
3210.000000	97.489523
3209.000000	97.495882
3208.000000	97.502334
3207.000000	97.508843
3206.000000	97.515382
3205.000000	97.521937
3204.000000	97.528475
3203.000000	97.534937
3202.000000	97.541273
3201.000000	97.547500
3200.000000	97.553724
3199.000000	97.560078
3198.000000	97.566610
3197.000000	97.573223
3196.000000	97.579748
3195.000000	97.586085
3194.000000	97.592269
3193.000000	97.598466
3192.000000	97.604858
3191.000000	97.611528
3190.000000	97.618429
3189.000000	97.625415
3188.000000	97.632317
3187.000000	97.638980
3186.000000	97.645323
3185.000000	97.651383
3184.000000	97.657276
3183.000000	97.663151
3182.000000	97.669142
3181.000000	97.675322
3180.000000	97.681657
3179.000000	97.688066
3178.000000	97.694556
3177.000000	97.701247
3176.000000	97.708163
3175.000000	97.715044
3174.000000	97.721506
3173.000000	97.727432
3172.000000	97.733192
3171.000000	97.739359
3170.000000	97.746142
3169.000000	97.753292
3168.000000	97.760432
3167.000000	97.767438
3166.000000	97.774355
3165.000000	97.781043
3164.000000	97.787146
3163.000000	97.792437
3162.000000	97.797126
3161.000000	97.801833
3160.000000	97.807208
3159.000000	97.813557
3158.000000	97.820762
3157.000000	97.828394
3156.000000	97.835917
3155.000000	97.842894
3154.000000	97.849208
3153.000000	97.855132
3152.000000	97.861082
3151.000000	97.867208
3150.000000	97.873355
3149.000000	97.879488
3148.000000	97.885957
3147.000000	97.893149
3146.000000	97.900956
3145.000000	97.908754
3144.000000	97.915890
3143.000000	97.922123
3142.000000	97.927648
3141.000000	97.932965
3140.000000	97.938721
3139.000000	97.945432
3138.000000	97.953209
3137.000000	97.961749
3136.000000	97.970589
3135.000000	97.979229
3134.000000	97.987042
3133.000000	97.993409
3132.000000	97.998239
3131.000000	98.002373
3130.000000	98.007099
3129.000000	98.013002
3128.000000	98.019581
3127.000000	98.025990
3126.000000	98.031975
3125.000000	98.037821
3124.000000	98.043576
3123.000000	98.048819
3122.000000	98.053402
3121.000000	98.058033
3120.000000	98.063693
3119.000000	98.070593
3118.000000	98.078088
3117.000000	98.085442
3116.000000	98.092268
3115.000000	98.098370
3114.000000	98.103808
3113.000000	98.109278
3112.000000	98.115760
3111.000000	98.123321
3110.000000	98.130731
3109.000000	98.136819
3108.000000	98.141813
3107.000000	98.146773
3106.000000	98.151884
3105.000000	98.156147
3104.000000	98.158916
3103.000000	98.161053
3102.000000	98.164296
3101.000000	98.169558
3100.000000	98.176174
3099.000000	98.182603
3098.000000	98.187875
3097.000000	98.192366
3096.000000	98.197264
3095.000000	98.203283
3094.000000	98.209887
3093.000000	98.215769
3092.000000	98.220122
3091.000000	98.223411
3090.000000	98.226928
3089.000000	98.231513
3088.000000	98.236763
3087.000000	98.241627
3086.000000	98.245559
3085.000000	98.248845
3084.000000	98.251914
3083.000000	98.254789
3082.000000	98.257610
3081.000000	98.261406
3080.000000	98.267591
3079.000000	98.276455
3078.000000	98.286357
3077.000000	98.294762
3076.000000	98.300407
3075.000000	98.304274
3074.000000	98.308579
3073.000000	98.314555
3072.000000	98.321177
3071.000000	98.326377
3070.000000	98.329528
3069.000000	98.332157
3068.000000	98.335850
3067.000000	98.340019
3066.000000	98.342873
3065.000000	98.344243
3064.000000	98.346060
3063.000000	98.349793
3062.000000	98.354711
3061.000000	98.359377
3060.000000	98.363747
3059.000000	98.368686
3058.000000	98.374126
3057.000000	98.379073
3056.000000	98.383298
3055.000000	98.387905
3054.000000	98.394077
3053.000000	98.401753
3052.000000	98.409225
3051.000000	98.413526
3050.000000	98.412128
3049.000000	98.405764
3048.000000	98.399446
3047.000000	98.398943
3046.000000	98.405821
3045.000000	98.416564
3044.000000	98.426027
3043.000000	98.430839
3042.000000	98.429961
3041.000000	98.424291
3040.000000	98.416762
3039.000000	98.411210
3038.000000	98.409604
3037.000000	98.410596
3036.000000	98.411357
3035.000000	98.410478
3034.000000	98.408924
3033.000000	98.408970
3032.000000	98.412274
3031.000000	98.417780
3030.000000	98.421088
3029.000000	98.417496
3028.000000	98.406863
3027.000000	98.394979
3026.000000	98.388919
3025.000000	98.390870
3024.000000	98.396941
3023.000000	98.401261
3022.000000	98.400507
3021.000000	98.395234
3020.000000	98.388575
3019.000000	98.383880
3018.000000	98.382500
3017.000000	98.383096
3016.000000	98.382864
3015.000000	98.379082
3014.000000	98.369524
3013.000000	98.352933
3012.000000	98.330660
3011.000000	98.307285
3010.000000	98.287801
3009.000000	98.273855
3008.000000	98.263756
3007.000000	98.255677
3006.000000	98.249091
3005.000000	98.242931
3004.000000	98.234566
3003.000000	98.222192
3002.000000	98.207231
3001.000000	98.193137
3000.000000	98.182373
2999.000000	98.175435
2998.000000	98.171805
2997.000000	98.169960
2996.000000	98.166157
2995.000000	98.154669
2994.000000	98.130837
2993.000000	98.094991
2992.000000	98.054043
2991.000000	98.018598
2990.000000	97.996498
2989.000000	97.987472
2988.000000	97.984031
2987.000000	97.978508
2986.000000	97.969452
2985.000000	97.960683
2984.000000	97.954972
2983.000000	97.950238
2982.000000	97.942003
2981.000000	97.928334
2980.000000	97.911784
2979.000000	97.896917
2978.000000	97.886369
2977.000000	97.879102
2976.000000	97.872433
2975.000000	97.866071
2974.000000	97.863815
2973.000000	97.870651
2972.000000	97.888467
2971.000000	97.915006
2970.000000	97.946013
2969.000000	97.977182
2968.000000	98.004937
2967.000000	98.027920
2966.000000	98.048639
2965.000000	98.071838
2964.000000	98.099761
2963.000000	98.129592
2962.000000	98.156213
2961.000000	98.176588
2960.000000	98.190761
2959.000000	98.200157
2958.000000	98.206854
2957.000000	98.214210
2956.000000	98.226202
2955.000000	98.244693
2954.000000	98.266983
2953.000000	98.286283
2952.000000	98.295591
2951.000000	98.292753
2950.000000	98.282665
2949.000000	98.273832
2948.000000	98.271746
2947.000000	98.275484
2946.000000	98.280375
2945.000000	98.282767
2944.000000	98.282095
2943.000000	98.280065
2942.000000	98.279080
2941.000000	98.280624
2940.000000	98.284125
2939.000000	98.287863
2938.000000	98.291558
2937.000000	98.296959
2936.000000	98.304929
2935.000000	98.313163
2934.000000	98.318382
2933.000000	98.320167
2932.000000	98.321268
2931.000000	98.324425
2930.000000	98.330076
2929.000000	98.336803
2928.000000	98.342718
2927.000000	98.346534
2926.000000	98.348435
2925.000000	98.350042
2924.000000	98.352849
2923.000000	98.357128
2922.000000	98.363321
2921.000000	98.373667
2920.000000	98.390551
2919.000000	98.412955
2918.000000	98.435600
2917.000000	98.451876
2916.000000	98.457066
2915.000000	98.449674
2914.000000	98.432110
2913.000000	98.410735
2912.000000	98.393051
2911.000000	98.383149
2910.000000	98.379952
2909.000000	98.379423
2908.000000	98.377607
2907.000000	98.371973
2906.000000	98.361736
2905.000000	98.348247
2904.000000	98.334673
2903.000000	98.324580
2902.000000	98.320506
2901.000000	98.322942
2900.000000	98.329781
2899.000000	98.337501
2898.000000	98.344278
2897.000000	98.351653
2896.000000	98.361507
2895.000000	98.372066
2894.000000	98.379144
2893.000000	98.381482
2892.000000	98.382316
2891.000000	98.385067
2890.000000	98.389984
2889.000000	98.396146
2888.000000	98.404106
2887.000000	98.414387
2886.000000	98.425337
2885.000000	98.435072
2884.000000	98.444649
2883.000000	98.456806
2882.000000	98.471958
2881.000000	98.487432
2880.000000	98.500554
2879.000000	98.510706
2878.000000	98.518444
2877.000000	98.524783
2876.000000	98.532049
2875.000000	98.543529
2874.000000	98.560566
2873.000000	98.580115
2872.000000	98.596345
2871.000000	98.605591
2870.000000	98.609988
2869.000000	98.616202
2868.000000	98.629723
2867.000000	98.649852
2866.000000	98.670445
2865.000000	98.685796
2864.000000	98.695243
2863.000000	98.702050
2862.000000	98.709472
2861.000000	98.719061
2860.000000	98.731253
2859.000000	98.745399
2858.000000	98.759601
2857.000000	98.772563
2856.000000	98.785794
2855.000000	98.802428
2854.000000	98.823671
2853.000000	98.847675
2852.000000	98.871908
2851.000000	98.894912
2850.000000	98.915236
2849.000000	98.930541
2848.000000	98.939058
2847.000000	98.941017
2846.000000	98.937819
2845.000000	98.931018
2844.000000	98.923207
2843.000000	98.918449
2842.000000	98.919680
2841.000000	98.925916
2840.000000	98.933624
2839.000000	98.940921
2838.000000	98.948946
2837.000000	98.958902
2836.000000	98.969508
2835.000000	98.978423
2834.000000	98.984996
2833.000000	98.990435
2832.000000	98.995973
2831.000000	99.001965
2830.000000	99.008233
2829.000000	99.014149
2828.000000	99.018711
2827.000000	99.021619
2826.000000	99.023969
2825.000000	99.026905
2824.000000	99.029864
2823.000000	99.031429
2822.000000	99.031989
2821.000000	99.034153
2820.000000	99.040065
2819.000000	99.049296
2818.000000	99.059573
2817.000000	99.068562
2816.000000	99.074734
2815.000000	99.077880
2814.000000	99.079769
2813.000000	99.083390
2812.000000	99.090297
2811.000000	99.098966
2810.000000	99.106383
2809.000000	99.110979
2808.000000	99.113488
2807.000000	99.115548
2806.000000	99.118267
2805.000000	99.121833
2804.000000	99.125867
2803.000000	99.129892
2802.000000	99.133650
2801.000000	99.137225
2800.000000	99.140939
2799.000000	99.145015
2798.000000	99.149363
2797.000000	99.153714
2796.000000	99.157883
2795.000000	99.161884
2794.000000	99.165812
2793.000000	99.169673
2792.000000	99.173377
2791.000000	99.176920
2790.000000	99.180510
2789.000000	99.184402
2788.000000	99.188614
2787.000000	99.192798
2786.000000	99.196522
2785.000000	99.199646
2784.000000	99.202364
2783.000000	99.205063
2782.000000	99.208049
2781.000000	99.211422
2780.000000	99.215083
2779.000000	99.218806
2778.000000	99.222438
2777.000000	99.225989
2776.000000	99.229470
2775.000000	99.232744
2774.000000	99.235686
2773.000000	99.238428
2772.000000	99.241239
2771.000000	99.244179
2770.000000	99.247109
2769.000000	99.250026
2768.000000	99.253092
2767.000000	99.256243
2766.000000	99.259075
2765.000000	99.261316
2764.000000	99.263182
2763.000000	99.265195
2762.000000	99.267687
2761.000000	99.270567
2760.000000	99.273430
2759.000000	99.275831
2758.000000	99.277608
2757.000000	99.278977
2756.000000	99.280360
2755.000000	99.282034
2754.000000	99.284011
2753.000000	99.286220
2752.000000	99.288604
2751.000000	99.291042
2750.000000	99.293345
2749.000000	99.295422
2748.000000	99.297373
2747.000000	99.299349
2746.000000	99.301404
2745.000000	99.303468
2744.000000	99.305391
2743.000000	99.307028
2742.000000	99.308413
2741.000000	99.309831
2740.000000	99.311556
2739.000000	99.313540
2738.000000	99.315453
2737.000000	99.317074
2736.000000	99.318498
2735.000000	99.319922
2734.000000	99.321377
2733.000000	99.322775
2732.000000	99.324095
2731.000000	99.325393
2730.000000	99.326707
2729.000000	99.328058
2728.000000	99.329471
2727.000000	99.330931
2726.000000	99.332384
2725.000000	99.333772
2724.000000	99.335073
2723.000000	99.336305
2722.000000	99.337496
2721.000000	99.338668
2720.000000	99.339830
2719.000000	99.340976
2718.000000	99.342110
2717.000000	99.343233
2716.000000	99.344343
2715.000000	99.345437
2714.000000	99.346510
2713.000000	99.347558
2712.000000	99.348581
2711.000000	99.349579
2710.000000	99.350550
2709.000000	99.351487
2708.000000	99.352383
2707.000000	99.353231
2706.000000	99.354025
2705.000000	99.354765
2704.000000	99.355462
2703.000000	99.356131
2702.000000	99.356787
2701.000000	99.357432
2700.000000	99.358056
2699.000000	99.358647
2698.000000	99.359192
2697.000000	99.359687
2696.000000	99.360139
2695.000000	99.360561
2694.000000	99.360970
2693.000000	99.361375
2692.000000	99.361772
2691.000000	99.362152
2690.000000	99.362498
2689.000000	99.362804
2688.000000	99.363076
2687.000000	99.363329
2686.000000	99.363579
2685.000000	99.363836
2684.000000	99.364094
2683.000000	99.364341
2682.000000	99.364564
2681.000000	99.364763
2680.000000	99.364948
2679.000000	99.365131
2678.000000	99.365313
2677.000000	99.365482
2676.000000	99.365621
2675.000000	99.365722
2674.000000	99.365785
2673.000000	99.365822
2672.000000	99.365850
2671.000000	99.365879
2670.000000	99.365911
2669.000000	99.365936
2668.000000	99.365946
2667.000000	99.365940
2666.000000	99.365920
2665.000000	99.365895
2664.000000	99.365878
2663.000000	99.365875
2662.000000	99.365883
2661.000000	99.365887
2660.000000	99.365871
2659.000000	99.365830
2658.000000	99.365772
2657.000000	99.365706
2656.000000	99.365640
2655.000000	99.365570
2654.000000	99.365492
2653.000000	99.365404
2652.000000	99.365309
2651.000000	99.365214
2650.000000	99.365128
2649.000000	99.365060
2648.000000	99.365018
2647.000000	99.365002
2646.000000	99.365021
2645.000000	99.365105
2644.000000	99.365265
2643.000000	99.365424
2642.000000	99.365418
2641.000000	99.365145
2640.000000	99.364706
2639.000000	99.364334
2638.000000	99.364148
2637.000000	99.364085
2636.000000	99.364143
2635.000000	99.364436
2634.000000	99.364910
2633.000000	99.365266
2632.000000	99.365320
2631.000000	99.365340
2630.000000	99.365773
2629.000000	99.366676
2628.000000	99.367512
2627.000000	99.367538
2626.000000	99.366348
2625.000000	99.364205
2624.000000	99.362017
2623.000000	99.360770
2622.000000	99.360853
2621.000000	99.361916
2620.000000	99.363217
2619.000000	99.364183
2618.000000	99.364730
2617.000000	99.365112
2616.000000	99.365513
2615.000000	99.365754
2614.000000	99.365517
2613.000000	99.365020
2612.000000	99.365267
2611.000000	99.367232
2610.000000	99.370815
2609.000000	99.374706
2608.000000	99.377421
2607.000000	99.378391
2606.000000	99.377995
2605.000000	99.376968
2604.000000	99.375860
2603.000000	99.374872
2602.000000	99.373987
2601.000000	99.373218
2600.000000	99.372822
2599.000000	99.373205
2598.000000	99.374476
2597.000000	99.376106
2596.000000	99.377209
2595.000000	99.377369
2594.000000	99.377114
2593.000000	99.377470
2592.000000	99.378953
2591.000000	99.381070
2590.000000	99.382791
2589.000000	99.383480
2588.000000	99.383198
2587.000000	99.382321
2586.000000	99.381248
2585.000000	99.380462
2584.000000	99.380428
2583.000000	99.381109
2582.000000	99.381820
2581.000000	99.381888
2580.000000	99.381450
2579.000000	99.381352
2578.000000	99.382240
2577.000000	99.383988
2576.000000	99.385887
2575.000000	99.387236
2574.000000	99.387859
2573.000000	99.388110
2572.000000	99.388546
2571.000000	99.389464
2570.000000	99.390709
2569.000000	99.391934
2568.000000	99.392994
2567.000000	99.394012
2566.000000	99.395105
2565.000000	99.396196
2564.000000	99.397126
2563.000000	99.397828
2562.000000	99.398362
2561.000000	99.398849
2560.000000	99.399433
2559.000000	99.400267
2558.000000	99.401418
2557.000000	99.402772
2556.000000	99.404073
2555.000000	99.405125
2554.000000	99.405979
2553.000000	99.406860
2552.000000	99.407917
2551.000000	99.409102
2550.000000	99.410294
2549.000000	99.411475
2548.000000	99.412719
2547.000000	99.414055
2546.000000	99.415446
2545.000000	99.416840
2544.000000	99.418201
2543.000000	99.419493
2542.000000	99.420702
2541.000000	99.421872
2540.000000	99.423076
2539.000000	99.424351
2538.000000	99.425676
2537.000000	99.427013
2536.000000	99.428344
2535.000000	99.429674
2534.000000	99.431025
2533.000000	99.432410
2532.000000	99.433828
2531.000000	99.435258
2530.000000	99.436666
2529.000000	99.438035
2528.000000	99.439368
2527.000000	99.440687
2526.000000	99.442017
2525.000000	99.443384
2524.000000	99.444805
2523.000000	99.446278
2522.000000	99.447794
2521.000000	99.449335
2520.000000	99.450894
2519.000000	99.452472
2518.000000	99.454079
2517.000000	99.455727
2516.000000	99.457425
2515.000000	99.459171
2514.000000	99.460956
2513.000000	99.462767
2512.000000	99.464590
2511.000000	99.466422
2510.000000	99.468267
2509.000000	99.470135
2508.000000	99.472030
2507.000000	99.473943
2506.000000	99.475859
2505.000000	99.477771
2504.000000	99.479685
2503.000000	99.481620
2502.000000	99.483587
2501.000000	99.485592
2500.000000	99.487632
2499.000000	99.489703
2498.000000	99.491798
2497.000000	99.493913
2496.000000	99.496039
2495.000000	99.498171
2494.000000	99.500303
2493.000000	99.502430
2492.000000	99.504548
2491.000000	99.506654
2490.000000	99.508751
2489.000000	99.510848
2488.000000	99.512962
2487.000000	99.515107
2486.000000	99.517290
2485.000000	99.519505
2484.000000	99.521736
2483.000000	99.523963
2482.000000	99.526167
2481.000000	99.528339
2480.000000	99.530487
2479.000000	99.532627
2478.000000	99.534777
2477.000000	99.536942
2476.000000	99.539116
2475.000000	99.541267
2474.000000	99.543362
2473.000000	99.545385
2472.000000	99.547355
2471.000000	99.549304
2470.000000	99.551237
2469.000000	99.553160
2468.000000	99.555113
2467.000000	99.557116
2466.000000	99.559103
2465.000000	99.560997
2464.000000	99.562857
2463.000000	99.564839
2462.000000	99.566983
2461.000000	99.569149
2460.000000	99.571165
2459.000000	99.572991
2458.000000	99.574716
2457.000000	99.576463
2456.000000	99.578280
2455.000000	99.580109
2454.000000	99.581827
2453.000000	99.583369
2452.000000	99.584787
2451.000000	99.586217
2450.000000	99.587761
2449.000000	99.589417
2448.000000	99.591108
2447.000000	99.592735
2446.000000	99.594236
2445.000000	99.595611
2444.000000	99.596903
2443.000000	99.598161
2442.000000	99.599395
2441.000000	99.600604
2440.000000	99.601860
2439.000000	99.603276
2438.000000	99.604849
2437.000000	99.606352
2436.000000	99.607522
2435.000000	99.608333
2434.000000	99.609069
2433.000000	99.610018
2432.000000	99.611202
2431.000000	99.612425
2430.000000	99.613487
2429.000000	99.614332
2428.000000	99.615021
2427.000000	99.615634
2426.000000	99.616201
2425.000000	99.616720
2424.000000	99.617189
2423.000000	99.617618
2422.000000	99.618074
2421.000000	99.618704
2420.000000	99.619590
2419.000000	99.620525
2418.000000	99.621085
2417.000000	99.621069
2416.000000	99.620768
2415.000000	99.620715
2414.000000	99.621143
2413.000000	99.621833
2412.000000	99.622399
2411.000000	99.622588
2410.000000	99.622344
2409.000000	99.621816
2408.000000	99.621318
2407.000000	99.621146
2406.000000	99.621388
2405.000000	99.621966
2404.000000	99.622776
2403.000000	99.623565
2402.000000	99.623792
2401.000000	99.623012
2400.000000	99.621515
2399.000000	99.620267
2398.000000	99.619854
2397.000000	99.619635
2396.000000	99.618258
2395.000000	99.615077
2394.000000	99.611115
2393.000000	99.608491
2392.000000	99.608603
2391.000000	99.611048
2390.000000	99.613869
2389.000000	99.615250
2388.000000	99.614821
2387.000000	99.613162
2386.000000	99.610740
2385.000000	99.607679
2384.000000	99.604280
2383.000000	99.601077
2382.000000	99.598373
2381.000000	99.596117
2380.000000	99.594255
2379.000000	99.592810
2378.000000	99.591615
2377.000000	99.590248
2376.000000	99.588326
2375.000000	99.585816
2374.000000	99.583342
2373.000000	99.582136
2372.000000	99.583009
2371.000000	99.585098
2370.000000	99.586360
2369.000000	99.585825
2368.000000	99.584442
2367.000000	99.583322
2366.000000	99.582095
2365.000000	99.579669
2364.000000	99.575857
2363.000000	99.571441
2362.000000	99.566682
2361.000000	99.561230
2360.000000	99.554896
2359.000000	99.548173
2358.000000	99.542456
2357.000000	99.539098
2356.000000	99.538258
2355.000000	99.539158
2354.000000	99.541207
2353.000000	99.542998
2352.000000	99.542285
2351.000000	99.538529
2350.000000	99.533438
2349.000000	99.529065
2348.000000	99.526052
2347.000000	99.524076
2346.000000	99.522435
2345.000000	99.520409
2344.000000	99.517772
2343.000000	99.514551
2342.000000	99.510760
2341.000000	99.506750
2340.000000	99.503497
2339.000000	99.501566
2338.000000	99.500608
2337.000000	99.499645
2336.000000	99.497924
2335.000000	99.495594
2334.000000	99.493451
2333.000000	99.491898
2332.000000	99.490528
2331.000000	99.488872
2330.000000	99.486897
2329.000000	99.484793
2328.000000	99.482672
2327.000000	99.480694
2326.000000	99.479005
2325.000000	99.477572
2324.000000	99.476209
2323.000000	99.474764
2322.000000	99.473228
2321.000000	99.471658
2320.000000	99.470129
2319.000000	99.468707
2318.000000	99.467405
2317.000000	99.466154
2316.000000	99.464856
2315.000000	99.463487
2314.000000	99.462103
2313.000000	99.460785
2312.000000	99.459556
2311.000000	99.458354
2310.000000	99.457057
2309.000000	99.455595
2308.000000	99.454042
2307.000000	99.452598
2306.000000	99.451405
2305.000000	99.450413
2304.000000	99.449384
2303.000000	99.448126
2302.000000	99.446614
2301.000000	99.444961
2300.000000	99.443336
2299.000000	99.441883
2298.000000	99.440624
2297.000000	99.439428
2296.000000	99.438141
2295.000000	99.436787
2294.000000	99.435498
2293.000000	99.434263
2292.000000	99.432870
2291.000000	99.431236
2290.000000	99.429616
2289.000000	99.428361
2288.000000	99.427491
2287.000000	99.426573
2286.000000	99.425021
2285.000000	99.422494
2284.000000	99.419153
2283.000000	99.415663
2282.000000	99.412751
2281.000000	99.410576
2280.000000	99.408611
2279.000000	99.406203
2278.000000	99.403391
2277.000000	99.400940
2276.000000	99.399500
2275.000000	99.398888
2274.000000	99.398174
2273.000000	99.396490
2272.000000	99.393671
2271.000000	99.390229
2270.000000	99.386887
2269.000000	99.384098
2268.000000	99.381928
2267.000000	99.380274
2266.000000	99.379059
2265.000000	99.378293
2264.000000	99.377911
2263.000000	99.377506
2262.000000	99.376387
2261.000000	99.374036
2260.000000	99.370589
2259.000000	99.366823
2258.000000	99.363563
2257.000000	99.361117
2256.000000	99.359322
2255.000000	99.357908
2254.000000	99.356764
2253.000000	99.355951
2252.000000	99.355514
2251.000000	99.355255
2250.000000	99.354667
2249.000000	99.353341
2248.000000	99.351417
2247.000000	99.349371
2246.000000	99.347204
2245.000000	99.344262
2244.000000	99.340249
2243.000000	99.336245
2242.000000	99.334115
2241.000000	99.334832
2240.000000	99.337794
2239.000000	99.341434
2238.000000	99.344217
2237.000000	99.345137
2236.000000	99.343812
2235.000000	99.340741
2234.000000	99.337310
2233.000000	99.334975
2232.000000	99.334289
2231.000000	99.334897
2230.000000	99.336303
2229.000000	99.338263
2228.000000	99.340507
2227.000000	99.342439
2226.000000	99.343416
2225.000000	99.343221
2224.000000	99.342003
2223.000000	99.339946
2222.000000	99.337441
2221.000000	99.335505
2220.000000	99.335399
2219.000000	99.337444
2218.000000	99.340555
2217.000000	99.343412
2216.000000	99.345934
2215.000000	99.348950
2214.000000	99.352717
2213.000000	99.356532
2212.000000	99.359754
2211.000000	99.362411
2210.000000	99.364544
2209.000000	99.365737
2208.000000	99.365822
2207.000000	99.365591
2206.000000	99.366163
2205.000000	99.367744
2204.000000	99.369508
2203.000000	99.370674
2202.000000	99.371389
2201.000000	99.372523
2200.000000	99.374769
2199.000000	99.377930
2198.000000	99.381023
2197.000000	99.383252
2196.000000	99.384847
2195.000000	99.386606
2194.000000	99.388636
2193.000000	99.390080
2192.000000	99.390427
2191.000000	99.390418
2190.000000	99.391137
2189.000000	99.392613
2188.000000	99.393960
2187.000000	99.394715
2186.000000	99.395403
2185.000000	99.396704
2184.000000	99.398563
2183.000000	99.400374
2182.000000	99.401797
2181.000000	99.403094
2180.000000	99.404735
2179.000000	99.406881
2178.000000	99.409282
2177.000000	99.411506
2176.000000	99.413249
2175.000000	99.414488
2174.000000	99.415380
2173.000000	99.416123
2172.000000	99.416916
2171.000000	99.417938
2170.000000	99.419227
2169.000000	99.420639
2168.000000	99.422016
2167.000000	99.423403
2166.000000	99.424939
2165.000000	99.426531
2164.000000	99.427839
2163.000000	99.428727
2162.000000	99.429625
2161.000000	99.431168
2160.000000	99.433508
2159.000000	99.436147
2158.000000	99.438414
2157.000000	99.440163
2156.000000	99.441745
2155.000000	99.443484
2154.000000	99.445300
2153.000000	99.446928
2152.000000	99.448352
2151.000000	99.449909
2150.000000	99.451938
2149.000000	99.454404
2148.000000	99.456873
2147.000000	99.458903
2146.000000	99.460462
2145.000000	99.461955
2144.000000	99.463814
2143.000000	99.466017
2142.000000	99.468107
2141.000000	99.469746
2140.000000	99.471192
2139.000000	99.473108
2138.000000	99.475934
2137.000000	99.479601
2136.000000	99.483702
2135.000000	99.487757
2134.000000	99.491273
2133.000000	99.493841
2132.000000	99.495492
2131.000000	99.497000
2130.000000	99.499402
2129.000000	99.502968
2128.000000	99.506787
2127.000000	99.509669
2126.000000	99.511419
2125.000000	99.512887
2124.000000	99.514819
2123.000000	99.516984
2122.000000	99.518756
2121.000000	99.520205
2120.000000	99.522080
2119.000000	99.524808
2118.000000	99.528072
2117.000000	99.531482
2116.000000	99.535154
2115.000000	99.539335
2114.000000	99.543841
2113.000000	99.548212
2112.000000	99.552154
2111.000000	99.555554
2110.000000	99.558274
2109.000000	99.560313
2108.000000	99.562099
2107.000000	99.564363
2106.000000	99.567639
2105.000000	99.571893
2104.000000	99.576450
2103.000000	99.580251
2102.000000	99.582429
2101.000000	99.582927
2100.000000	99.582665
2099.000000	99.582978
2098.000000	99.584781
2097.000000	99.588088
2096.000000	99.591926
2095.000000	99.594818
2094.000000	99.596041
2093.000000	99.596628
2092.000000	99.598386
2091.000000	99.601403
2090.000000	99.603396
2089.000000	99.602584
2088.000000	99.600556
2087.000000	99.600903
2086.000000	99.604962
2085.000000	99.610439
2084.000000	99.614544
2083.000000	99.617190
2082.000000	99.619959
2081.000000	99.622930
2080.000000	99.624213
2079.000000	99.622667
2078.000000	99.619901
2077.000000	99.618934
2076.000000	99.621088
2075.000000	99.624698
2074.000000	99.626860
2073.000000	99.626107
2072.000000	99.623273
2071.000000	99.620166
2070.000000	99.617982
2069.000000	99.617098
2068.000000	99.617573
2067.000000	99.619068
2066.000000	99.620482
2065.000000	99.620567
2064.000000	99.619275
2063.000000	99.618087
2062.000000	99.618747
2061.000000	99.621761
2060.000000	99.625914
2059.000000	99.628861
2058.000000	99.628399
2057.000000	99.623900
2056.000000	99.617033
2055.000000	99.610789
2054.000000	99.607082
2053.000000	99.605241
2052.000000	99.603090
2051.000000	99.599340
2050.000000	99.594709
2049.000000	99.590945
2048.000000	99.588896
2047.000000	99.587443
2046.000000	99.584250
2045.000000	99.577651
2044.000000	99.568024
2043.000000	99.557679
2042.000000	99.549304
2041.000000	99.544184
2040.000000	99.541562
2039.000000	99.539448
2038.000000	99.536218
2037.000000	99.531675
2036.000000	99.526720
2035.000000	99.522057
2034.000000	99.517440
2033.000000	99.512387
2032.000000	99.507396
2031.000000	99.503844
2030.000000	99.502379
2029.000000	99.501821
2028.000000	99.500180
2027.000000	99.496685
2026.000000	99.492273
2025.000000	99.488097
2024.000000	99.484199
2023.000000	99.479898
2022.000000	99.474868
2021.000000	99.469239
2020.000000	99.463035
2019.000000	99.456288
2018.000000	99.449620
2017.000000	99.443951
2016.000000	99.439514
2015.000000	99.435843
2014.000000	99.432780
2013.000000	99.430680
2012.000000	99.429223
2011.000000	99.426733
2010.000000	99.421598
2009.000000	99.414097
2008.000000	99.406460
2007.000000	99.400784
2006.000000	99.397350
2005.000000	99.395100
2004.000000	99.393044
2003.000000	99.390921
2002.000000	99.388714
2001.000000	99.386177
2000.000000	99.383078
1999.000000	99.379663
1998.000000	99.376591
1997.000000	99.374248
1996.000000	99.372198
1995.000000	99.369505
1994.000000	99.365756
1993.000000	99.361711
1992.000000	99.358685
1991.000000	99.357229
1990.000000	99.356678
1989.000000	99.355931
1988.000000	99.354229
1987.000000	99.351298
1986.000000	99.347347
1985.000000	99.343097
1984.000000	99.339396
1983.000000	99.336527
1982.000000	99.334134
1981.000000	99.331966
1980.000000	99.330388
1979.000000	99.329899
1978.000000	99.330262
1977.000000	99.330429
1976.000000	99.329411
1975.000000	99.327106
1974.000000	99.324318
1973.000000	99.322027
1972.000000	99.320544
1971.000000	99.319327
1970.000000	99.317619
1969.000000	99.315263
1968.000000	99.312882
1967.000000	99.311297
1966.000000	99.310742
1965.000000	99.310651
1964.000000	99.310153
1963.000000	99.308791
1962.000000	99.306831
1961.000000	99.304805
1960.000000	99.302625
1959.000000	99.299513
1958.000000	99.295202
1957.000000	99.290809
1956.000000	99.287797
1955.000000	99.286212
1954.000000	99.284721
1953.000000	99.282342
1952.000000	99.279314
1951.000000	99.276285
1950.000000	99.273866
1949.000000	99.273127
1948.000000	99.274992
1947.000000	99.278422
1946.000000	99.280367
1945.000000	99.278542
1944.000000	99.273488
1943.000000	99.267616
1942.000000	99.262774
1941.000000	99.259147
1940.000000	99.255932
1939.000000	99.252127
1938.000000	99.247135
1937.000000	99.241732
1936.000000	99.237800
1935.000000	99.236039
1934.000000	99.234687
1933.000000	99.231708
1932.000000	99.227596
1931.000000	99.224648
1930.000000	99.224055
1929.000000	99.224946
1928.000000	99.225721
1927.000000	99.225154
1926.000000	99.222557
1925.000000	99.218437
1924.000000	99.214842
1923.000000	99.213547
1922.000000	99.213558
1921.000000	99.211715
1920.000000	99.205976
1919.000000	99.197129
1918.000000	99.187966
1917.000000	99.181122
1916.000000	99.177099
1915.000000	99.174122
1914.000000	99.169422
1913.000000	99.161162
1912.000000	99.149968
1911.000000	99.138266
1910.000000	99.128166
1909.000000	99.120383
1908.000000	99.114519
1907.000000	99.109258
1906.000000	99.102457
1905.000000	99.092795
1904.000000	99.081651
1903.000000	99.071981
1902.000000	99.064756
1901.000000	99.057520
1900.000000	99.047780
1899.000000	99.036967
1898.000000	99.029067
1897.000000	99.025712
1896.000000	99.024295
1895.000000	99.021454
1894.000000	99.017149
1893.000000	99.013698
1892.000000	99.011832
1891.000000	99.009443
1890.000000	99.004175
1889.000000	98.996433
1888.000000	98.988907
1887.000000	98.983608
1886.000000	98.980466
1885.000000	98.978138
1884.000000	98.975733
1883.000000	98.974002
1882.000000	98.974512
1881.000000	98.977423
1880.000000	98.980711
1879.000000	98.981995
1878.000000	98.980287
1877.000000	98.975665
1876.000000	98.968450
1875.000000	98.959713
1874.000000	98.952040
1873.000000	98.948066
1872.000000	98.948167
1871.000000	98.951196
1870.000000	98.957479
1869.000000	98.968654
1868.000000	98.983156
1867.000000	98.995677
1866.000000	99.003480
1865.000000	99.009403
1864.000000	99.017279
1863.000000	99.027005
1862.000000	99.035610
1861.000000	99.042133
1860.000000	99.048918
1859.000000	99.057825
1858.000000	99.067582
1857.000000	99.076165
1856.000000	99.084234
1855.000000	99.094497
1854.000000	99.108053
1853.000000	99.122495
1852.000000	99.133890
1851.000000	99.140376
1850.000000	99.143420
1849.000000	99.146591
1848.000000	99.153299
1847.000000	99.164497
1846.000000	99.178206
1845.000000	99.191252
1844.000000	99.201714
1843.000000	99.209634
1842.000000	99.215860
1841.000000	99.221016
1840.000000	99.225526
1839.000000	99.230171
1838.000000	99.235943
1837.000000	99.243145
1836.000000	99.250446
1835.000000	99.255037
1834.000000	99.254554
1833.000000	99.249389
1832.000000	99.243232
1831.000000	99.241159
1830.000000	99.245804
1829.000000	99.254714
1828.000000	99.262871
1827.000000	99.267130
1826.000000	99.266990
1825.000000	99.263928
1824.000000	99.260764
1823.000000	99.259509
1822.000000	99.260111
1821.000000	99.261759
1820.000000	99.264463
1819.000000	99.268456
1818.000000	99.272281
1817.000000	99.273086
1816.000000	99.269745
1815.000000	99.265051
1814.000000	99.263648
1813.000000	99.267656
1812.000000	99.274817
1811.000000	99.280776
1810.000000	99.283435
1809.000000	99.284167
1808.000000	99.284744
1807.000000	99.285311
1806.000000	99.285778
1805.000000	99.287279
1804.000000	99.291021
1803.000000	99.296592
1802.000000	99.302446
1801.000000	99.307422
1800.000000	99.310932
1799.000000	99.312302
1798.000000	99.311702
1797.000000	99.311401
1796.000000	99.314122
1795.000000	99.320103
1794.000000	99.326581
1793.000000	99.330767
1792.000000	99.333505
1791.000000	99.337969
1790.000000	99.345157
1789.000000	99.353519
1788.000000	99.361115
1787.000000	99.366538
1786.000000	99.369740
1785.000000	99.372983
1784.000000	99.379359
1783.000000	99.389603
1782.000000	99.401479
1781.000000	99.412244
1780.000000	99.421359
1779.000000	99.429647
1778.000000	99.436585
1777.000000	99.440668
1776.000000	99.441871
1775.000000	99.442375
1774.000000	99.444619
1773.000000	99.450147
1772.000000	99.460127
1771.000000	99.474003
1770.000000	99.488024
1769.000000	99.497669
1768.000000	99.501379
1767.000000	99.502000
1766.000000	99.504409
1765.000000	99.511487
1764.000000	99.522721
1763.000000	99.535052
1762.000000	99.544998
1761.000000	99.551800
1760.000000	99.557979
1759.000000	99.565412
1758.000000	99.572677
1757.000000	99.577490
1756.000000	99.580799
1755.000000	99.585790
1754.000000	99.592504
1753.000000	99.596520
1752.000000	99.593538
1751.000000	99.585075
1750.000000	99.578052
1749.000000	99.578018
1748.000000	99.585253
1747.000000	99.595906
1746.000000	99.604510
1745.000000	99.607617
1744.000000	99.607014
1743.000000	99.608075
1742.000000	99.613501
1741.000000	99.620492
1740.000000	99.625172
1739.000000	99.627584
1738.000000	99.630189
1737.000000	99.632909
1736.000000	99.631752
1735.000000	99.622543
1734.000000	99.607360
1733.000000	99.593644
1732.000000	99.585497
1731.000000	99.582401
1730.000000	99.582047
1729.000000	99.581655
1728.000000	99.579539
1727.000000	99.575826
1726.000000	99.571357
1725.000000	99.566381
1724.000000	99.561596
1723.000000	99.558770
1722.000000	99.559284
1721.000000	99.562052
1720.000000	99.563006
1719.000000	99.557067
1718.000000	99.542908
1717.000000	99.526701
1716.000000	99.515447
1715.000000	99.509411
1714.000000	99.505384
1713.000000	99.501000
1712.000000	99.495362
1711.000000	99.488391
1710.000000	99.480303
1709.000000	99.471641
1708.000000	99.463015
1707.000000	99.454328
1706.000000	99.445083
1705.000000	99.436462
1704.000000	99.430602
1703.000000	99.427106
1702.000000	99.421230
1701.000000	99.406592
1700.000000	99.384047
1699.000000	99.363204
1698.000000	99.349505
1697.000000	99.339803
1696.000000	99.330041
1695.000000	99.319622
1694.000000	99.309326
1693.000000	99.299168
1692.000000	99.288150
1691.000000	99.275507
1690.000000	99.262168
1689.000000	99.249590
1688.000000	99.238007
1687.000000	99.226226
1686.000000	99.212173
1685.000000	99.194865
1684.000000	99.178143
1683.000000	99.166776
1682.000000	99.158805
1681.000000	99.150008
1680.000000	99.139193
1679.000000	99.127327
1678.000000	99.115750
1677.000000	99.104615
1676.000000	99.093862
1675.000000	99.083924
1674.000000	99.074182
1673.000000	99.062988
1672.000000	99.049656
1671.000000	99.034784
1670.000000	99.020458
1669.000000	99.009122
1668.000000	99.001339
1667.000000	98.995999
1666.000000	98.990858
1665.000000	98.982457
1664.000000	98.968008
1663.000000	98.949471
1662.000000	98.933496
1661.000000	98.923304
1660.000000	98.915766
1659.000000	98.907344
1658.000000	98.897947
1657.000000	98.890409
1656.000000	98.886829
1655.000000	98.884815
1654.000000	98.875108
1653.000000	98.852309
1652.000000	98.827551
1651.000000	98.812068
1650.000000	98.806265
1649.000000	98.804175
1648.000000	98.800663
1647.000000	98.798559
1646.000000	98.801257
1645.000000	98.803950
1644.000000	98.801427
1643.000000	98.794412
1642.000000	98.784555
1641.000000	98.772735
1640.000000	98.761215
1639.000000	98.753268
1638.000000	98.749403
1637.000000	98.746164
1636.000000	98.740829
1635.000000	98.735890
1634.000000	98.732908
1633.000000	98.730869
1632.000000	98.730352
1631.000000	98.732488
1630.000000	98.737334
1629.000000	98.742939
1628.000000	98.747275
1627.000000	98.750683
1626.000000	98.753958
1625.000000	98.756159
1624.000000	98.757107
1623.000000	98.759444
1622.000000	98.764210
1621.000000	98.767958
1620.000000	98.768695
1619.000000	98.769370
1618.000000	98.775110
1617.000000	98.787675
1616.000000	98.802400
1615.000000	98.815075
1614.000000	98.826291
1613.000000	98.836486
1612.000000	98.845142
1611.000000	98.854213
1610.000000	98.866226
1609.000000	98.878529
1608.000000	98.884592
1607.000000	98.882860
1606.000000	98.879998
1605.000000	98.883701
1604.000000	98.896154
1603.000000	98.914760
1602.000000	98.935585
1601.000000	98.955411
1600.000000	98.972085
1599.000000	98.984740
1598.000000	98.994116
1597.000000	99.002336
1596.000000	99.012013
1595.000000	99.024982
1594.000000	99.040907
1593.000000	99.056993
1592.000000	99.070043
1591.000000	99.079120
1590.000000	99.086088
1589.000000	99.093607
1588.000000	99.102858
1587.000000	99.113212
1586.000000	99.123368
1585.000000	99.132264
1584.000000	99.139489
1583.000000	99.145508
1582.000000	99.151214
1581.000000	99.157550
1580.000000	99.165313
1579.000000	99.174267
1578.000000	99.182406
1577.000000	99.187718
1576.000000	99.191997
1575.000000	99.199395
1574.000000	99.210115
1573.000000	99.220625
1572.000000	99.227816
1571.000000	99.231493
1570.000000	99.235221
1569.000000	99.242562
1568.000000	99.252714
1567.000000	99.263179
1566.000000	99.272810
1565.000000	99.280034
1564.000000	99.283012
1563.000000	99.281775
1562.000000	99.278514
1561.000000	99.274615
1560.000000	99.271891
1559.000000	99.276524
1558.000000	99.291477
1557.000000	99.305412
1556.000000	99.312435
1555.000000	99.315670
1554.000000	99.317936
1553.000000	99.322708
1552.000000	99.331489
1551.000000	99.342282
1550.000000	99.350334
1549.000000	99.353865
1548.000000	99.355702
1547.000000	99.359340
1546.000000	99.364964
1545.000000	99.370337
1544.000000	99.374875
1543.000000	99.381013
1542.000000	99.390872
1541.000000	99.404148
1540.000000	99.416633
1539.000000	99.421060
1538.000000	99.414080
1537.000000	99.400328
1536.000000	99.384196
1535.000000	99.365496
1534.000000	99.345762
1533.000000	99.331189
1532.000000	99.325324
1531.000000	99.324585
1530.000000	99.324680
1529.000000	99.324408
1528.000000	99.323980
1527.000000	99.323204
1526.000000	99.321180
1525.000000	99.317671
1524.000000	99.314272
1523.000000	99.313261
1522.000000	99.316523
1521.000000	99.324226
1520.000000	99.332679
1519.000000	99.338167
1518.000000	99.340056
1517.000000	99.339672
1516.000000	99.339955
1515.000000	99.342390
1514.000000	99.345604
1513.000000	99.347388
1512.000000	99.346455
1511.000000	99.343254
1510.000000	99.339753
1509.000000	99.338047
1508.000000	99.340482
1507.000000	99.349000
1506.000000	99.359670
1505.000000	99.363902
1504.000000	99.362723
1503.000000	99.362441
1502.000000	99.364272
1501.000000	99.366319
1500.000000	99.366815
1499.000000	99.365966
1498.000000	99.365422
1497.000000	99.366574
1496.000000	99.368765
1495.000000	99.370035
1494.000000	99.370158
1493.000000	99.370913
1492.000000	99.374041
1491.000000	99.379656
1490.000000	99.385491
1489.000000	99.388804
1488.000000	99.389158
1487.000000	99.388023
1486.000000	99.386809
1485.000000	99.385862
1484.000000	99.385063
1483.000000	99.384792
1482.000000	99.385414
1481.000000	99.386496
1480.000000	99.387246
1479.000000	99.387803
1478.000000	99.389545
1477.000000	99.393907
1476.000000	99.400833
1475.000000	99.408363
1474.000000	99.414085
1473.000000	99.416738
1472.000000	99.417069
1471.000000	99.416327
1470.000000	99.415040
1469.000000	99.413911
1468.000000	99.413870
1467.000000	99.415380
1466.000000	99.417777
1465.000000	99.418968
1464.000000	99.416987
1463.000000	99.411905
1462.000000	99.405620
1461.000000	99.400485
1460.000000	99.397730
1459.000000	99.396680
1458.000000	99.394960
1457.000000	99.391914
1456.000000	99.389938
1455.000000	99.390135
1454.000000	99.391272
1453.000000	99.390832
1452.000000	99.387207
1451.000000	99.381874
1450.000000	99.377838
1449.000000	99.377227
1448.000000	99.380430
1447.000000	99.385815
1446.000000	99.390378
1445.000000	99.391944
1444.000000	99.390874
1443.000000	99.388833
1442.000000	99.386363
1441.000000	99.383102
1440.000000	99.380088
1439.000000	99.379543
1438.000000	99.381475
1437.000000	99.382090
1436.000000	99.377770
1435.000000	99.370069
1434.000000	99.362954
1433.000000	99.357912
1432.000000	99.354849
1431.000000	99.354187
1430.000000	99.355271
1429.000000	99.354742
1428.000000	99.349552
1427.000000	99.340877
1426.000000	99.332938
1425.000000	99.328527
1424.000000	99.327484
1423.000000	99.327881
1422.000000	99.327703
1421.000000	99.325885
1420.000000	99.322965
1419.000000	99.321327
1418.000000	99.322137
1417.000000	99.323207
1416.000000	99.322429
1415.000000	99.320386
1414.000000	99.319018
1413.000000	99.319261
1412.000000	99.320388
1411.000000	99.321329
1410.000000	99.321737
1409.000000	99.321754
1408.000000	99.321384
1407.000000	99.320763
1406.000000	99.321000
1405.000000	99.323872
1404.000000	99.330379
1403.000000	99.339672
1402.000000	99.349924
1401.000000	99.359736
1400.000000	99.368222
1399.000000	99.374792
1398.000000	99.378655
1397.000000	99.378352
1396.000000	99.372873
1395.000000	99.364994
1394.000000	99.361870
1393.000000	99.368465
1392.000000	99.383125
1391.000000	99.399927
1390.000000	99.413094
1389.000000	99.419786
1388.000000	99.420266
1387.000000	99.416976
1386.000000	99.413356
1385.000000	99.412250
1384.000000	99.414751
1383.000000	99.419676
1382.000000	99.424198
1381.000000	99.426299
1380.000000	99.426601
1379.000000	99.427524
1378.000000	99.430915
1377.000000	99.436877
1376.000000	99.444702
1375.000000	99.454210
1374.000000	99.465561
1373.000000	99.477822
1372.000000	99.489306
1371.000000	99.499826
1370.000000	99.511086
1369.000000	99.524173
1368.000000	99.537574
1367.000000	99.548463
1366.000000	99.555885
1365.000000	99.561411
1364.000000	99.566404
1363.000000	99.570346
1362.000000	99.573097
1361.000000	99.577188
1360.000000	99.585411
1359.000000	99.596765
1358.000000	99.606714
1357.000000	99.611894
1356.000000	99.613490
1355.000000	99.615144
1354.000000	99.618613
1353.000000	99.622886
1352.000000	99.626249
1351.000000	99.627270
1350.000000	99.625124
1349.000000	99.620905
1348.000000	99.618385
1347.000000	99.621274
1346.000000	99.628839
1345.000000	99.635704
1344.000000	99.636689
1343.000000	99.630837
1342.000000	99.620891
1341.000000	99.610955
1340.000000	99.605181
1339.000000	99.605996
1338.000000	99.611536
1337.000000	99.616962
1336.000000	99.619732
1335.000000	99.621882
1334.000000	99.626414
1333.000000	99.632704
1332.000000	99.636741
1331.000000	99.635411
1330.000000	99.629177
1329.000000	99.621001
1328.000000	99.614473
1327.000000	99.612890
1326.000000	99.617465
1325.000000	99.624955
1324.000000	99.629110
1323.000000	99.626669
1322.000000	99.621294
1321.000000	99.619818
1320.000000	99.624405
1319.000000	99.629845
1318.000000	99.629482
1317.000000	99.622698
1316.000000	99.615102
1315.000000	99.612215
1314.000000	99.614435
1313.000000	99.617972
1312.000000	99.619471
1311.000000	99.619013
1310.000000	99.619083
1309.000000	99.621492
1308.000000	99.625458
1307.000000	99.628388
1306.000000	99.628574
1305.000000	99.626878
1304.000000	99.625450
1303.000000	99.624998
1302.000000	99.624292
1301.000000	99.622574
1300.000000	99.621041
1299.000000	99.620930
1298.000000	99.621138
1297.000000	99.619319
1296.000000	99.614920
1295.000000	99.609843
1294.000000	99.606146
1293.000000	99.604158
1292.000000	99.602873
1291.000000	99.601025
1290.000000	99.597618
1289.000000	99.592119
1288.000000	99.584310
1287.000000	99.573969
1286.000000	99.561535
1285.000000	99.549332
1284.000000	99.540299
1283.000000	99.533948
1282.000000	99.525226
1281.000000	99.509715
1280.000000	99.488962
1279.000000	99.468543
1278.000000	99.451834
1277.000000	99.438567
1276.000000	99.428495
1275.000000	99.422325
1274.000000	99.418599
1273.000000	99.413641
1272.000000	99.406023
1271.000000	99.398006
1270.000000	99.391231
1269.000000	99.384142
1268.000000	99.375165
1267.000000	99.365071
1266.000000	99.354400
1265.000000	99.342067
1264.000000	99.328870
1263.000000	99.318971
1262.000000	99.314586
1261.000000	99.311548
1260.000000	99.303385
1259.000000	99.288478
1258.000000	99.270867
1257.000000	99.255700
1256.000000	99.245822
1255.000000	99.240474
1254.000000	99.234679
1253.000000	99.221912
1252.000000	99.200228
1251.000000	99.174803
1250.000000	99.152635
1249.000000	99.136015
1248.000000	99.122722
1247.000000	99.110016
1246.000000	99.095740
1245.000000	99.077926
1244.000000	99.057033
1243.000000	99.037638
1242.000000	99.024506
1241.000000	99.016880
1240.000000	99.008940
1239.000000	98.995723
1238.000000	98.977036
1237.000000	98.956127
1236.000000	98.935987
1235.000000	98.916594
1234.000000	98.894773
1233.000000	98.867435
1232.000000	98.835492
1231.000000	98.803274
1230.000000	98.773253
1229.000000	98.742945
1228.000000	98.707880
1227.000000	98.665787
1226.000000	98.617107
1225.000000	98.563461
1224.000000	98.507200
1223.000000	98.450873
1222.000000	98.395402
1221.000000	98.339807
1220.000000	98.283222
1219.000000	98.225124
1218.000000	98.163179
1217.000000	98.093957
1216.000000	98.017054
1215.000000	97.935584
1214.000000	97.851314
1213.000000	97.762707
1212.000000	97.669746
1211.000000	97.577097
1210.000000	97.489478
1209.000000	97.406432
1208.000000	97.324166
1207.000000	97.239748
1206.000000	97.151259
1205.000000	97.057000
1204.000000	96.957518
1203.000000	96.856664
1202.000000	96.758516
1201.000000	96.664402
1200.000000	96.573400
1199.000000	96.483134
1198.000000	96.389796
1197.000000	96.291282
1196.000000	96.191452
1195.000000	96.097359
1194.000000	96.010524
1193.000000	95.924057
1192.000000	95.829216
1191.000000	95.721591
1190.000000	95.601865
1189.000000	95.476404
1188.000000	95.357544
1187.000000	95.255781
1186.000000	95.167773
1185.000000	95.077282
1184.000000	94.971093
1183.000000	94.849563
1182.000000	94.720153
1181.000000	94.587067
1180.000000	94.451156
1179.000000	94.314233
1178.000000	94.177273
1177.000000	94.036629
1176.000000	93.886184
1175.000000	93.722435
1174.000000	93.546850
1173.000000	93.365988
1172.000000	93.189264
1171.000000	93.021871
1170.000000	92.858841
1169.000000	92.690579
1168.000000	92.515111
1167.000000	92.341028
1166.000000	92.180611
1165.000000	92.047275
1164.000000	91.957409
1163.000000	91.923047
1162.000000	91.939587
1161.000000	91.988082
1160.000000	92.050543
1159.000000	92.115232
1158.000000	92.168857
1157.000000	92.196513
1156.000000	92.192143
1155.000000	92.159692
1154.000000	92.102238
1153.000000	92.019369
1152.000000	91.917213
1151.000000	91.810152
1150.000000	91.707380
1149.000000	91.605839
1148.000000	91.500367
1147.000000	91.392051
1146.000000	91.282172
1145.000000	91.166638
1144.000000	91.042362
1143.000000	90.913361
1142.000000	90.786747
1141.000000	90.667976
1140.000000	90.560992
1139.000000	90.464676
1138.000000	90.367385
1137.000000	90.254520
1136.000000	90.124980
1135.000000	89.992579
1134.000000	89.869026
1133.000000	89.753311
1132.000000	89.639007
1131.000000	89.522062
1130.000000	89.399414
1129.000000	89.270306
1128.000000	89.141963
1127.000000	89.024499
1126.000000	88.917505
1125.000000	88.810616
1124.000000	88.698349
1123.000000	88.584110
1122.000000	88.469191
1121.000000	88.350294
1120.000000	88.230095
1119.000000	88.117279
1118.000000	88.012347
1117.000000	87.905230
1116.000000	87.790265
1115.000000	87.671852
1114.000000	87.552397
1113.000000	87.428201
1112.000000	87.302258
1111.000000	87.187196
1110.000000	87.088277
1109.000000	86.994748
1108.000000	86.893319
1107.000000	86.779695
1106.000000	86.654256
1105.000000	86.519884
1104.000000	86.387516
1103.000000	86.269115
1102.000000	86.160196
1101.000000	86.043231
1100.000000	85.912645
1099.000000	85.781920
1098.000000	85.662035
1097.000000	85.548555
1096.000000	85.434792
1095.000000	85.321526
1094.000000	85.207602
1093.000000	85.086389
1092.000000	84.958245
1091.000000	84.832995
1090.000000	84.715577
1089.000000	84.603338
1088.000000	84.500026
1087.000000	84.415371
1086.000000	84.346879
1085.000000	84.279553
1084.000000	84.208348
1083.000000	84.143519
1082.000000	84.089235
1081.000000	84.035002
1080.000000	83.973784
1079.000000	83.910983
1078.000000	83.849960
1077.000000	83.785825
1076.000000	83.718500
1075.000000	83.654117
1074.000000	83.588295
1073.000000	83.505498
1072.000000	83.398767
1071.000000	83.271750
1070.000000	83.118754
1069.000000	82.924662
1068.000000	82.691823
1067.000000	82.447220
1066.000000	82.213112
1065.000000	81.986761
1064.000000	81.756915
1063.000000	81.520627
1062.000000	81.274966
1061.000000	81.011829
1060.000000	80.732851
1059.000000	80.454925
1058.000000	80.192094
1057.000000	79.945184
1056.000000	79.713352
1055.000000	79.498259
1054.000000	79.292261
1053.000000	79.082274
1052.000000	78.871760
1051.000000	78.678378
1050.000000	78.503558
1049.000000	78.328364
1048.000000	78.145416
1047.000000	77.967807
1046.000000	77.800950
1045.000000	77.633243
1044.000000	77.459903
1043.000000	77.289867
1042.000000	77.122679
1041.000000	76.943791
1040.000000	76.752040
1039.000000	76.568468
1038.000000	76.407273
1037.000000	76.258993
1036.000000	76.111089
1035.000000	75.964677
1034.000000	75.822905
1033.000000	75.684065
1032.000000	75.554406
1031.000000	75.446845
1030.000000	75.359101
1029.000000	75.273030
1028.000000	75.182384
1027.000000	75.101071
1026.000000	75.038067
1025.000000	74.985829
1024.000000	74.939222
1023.000000	74.903260
1022.000000	74.874564
1021.000000	74.836259
1020.000000	74.779141
1019.000000	74.710207
1018.000000	74.636425
1017.000000	74.559323
1016.000000	74.487259
1015.000000	74.430145
1014.000000	74.378055
1013.000000	74.307790
1012.000000	74.215722
1011.000000	74.122986
1010.000000	74.045232
1009.000000	73.979773
1008.000000	73.924820
1007.000000	73.886389
1006.000000	73.860992
1005.000000	73.834954
1004.000000	73.806538
1003.000000	73.787408
1002.000000	73.779325
1001.000000	73.772767
1000.000000	73.771123
999.000000	73.790468
998.000000	73.830116
997.000000	73.868237
996.000000	73.893525
995.000000	73.918621
994.000000	73.956245
993.000000	74.004762
992.000000	74.062454
991.000000	74.132873
990.000000	74.209669
989.000000	74.278561
988.000000	74.341127
987.000000	74.415810
986.000000	74.510278
985.000000	74.613630
984.000000	74.720039
983.000000	74.838099
982.000000	74.971307
981.000000	75.111425
980.000000	75.257562
979.000000	75.421361
978.000000	75.606881
977.000000	75.804112
976.000000	76.007361
975.000000	76.221525
974.000000	76.445885
973.000000	76.670971
972.000000	76.896307
971.000000	77.133240
970.000000	77.385696
969.000000	77.644702
968.000000	77.905017
967.000000	78.170432
966.000000	78.440150
965.000000	78.706634
964.000000	78.969215
963.000000	79.234292
962.000000	79.501021
961.000000	79.761915
960.000000	80.016821
959.000000	80.270500
958.000000	80.518360
957.000000	80.751558
956.000000	80.973456
955.000000	81.192850
954.000000	81.404619
953.000000	81.598307
952.000000	81.783143
951.000000	81.980499
950.000000	82.189611
949.000000	82.383960
948.000000	82.545998
947.000000	82.684635
946.000000	82.815794
945.000000	82.946304
944.000000	83.081512
943.000000	83.227751
942.000000	83.378986
941.000000	83.517717
940.000000	83.635636
939.000000	83.739824
938.000000	83.837180
937.000000	83.929687
936.000000	84.026942
935.000000	84.143159
934.000000	84.275679
933.000000	84.404102
932.000000	84.516617
931.000000	84.621436
930.000000	84.728657
929.000000	84.837833
928.000000	84.947787
927.000000	85.061056
926.000000	85.172766
925.000000	85.271208
924.000000	85.355235
923.000000	85.436627
922.000000	85.521293
921.000000	85.603098
920.000000	85.678886
919.000000	85.752714
918.000000	85.822004
917.000000	85.877739
916.000000	85.923734
915.000000	85.978941
914.000000	86.055699
913.000000	86.151838
912.000000	86.266886
911.000000	86.406259
910.000000	86.564371
909.000000	86.725137
908.000000	86.888323
907.000000	87.075873
906.000000	87.301931
905.000000	87.553291
904.000000	87.808605
903.000000	88.062120
902.000000	88.318918
901.000000	88.581015
900.000000	88.847833
899.000000	89.118379
898.000000	89.384990
897.000000	89.636185
896.000000	89.872569
895.000000	90.108851
894.000000	90.353456
893.000000	90.595922
892.000000	90.820129
891.000000	91.020902
890.000000	91.204105
889.000000	91.381238
888.000000	91.567888
887.000000	91.774936
886.000000	91.993323
885.000000	92.196291
884.000000	92.363929
883.000000	92.500914
882.000000	92.629689
881.000000	92.774834
880.000000	92.954077
879.000000	93.170148
878.000000	93.404431
877.000000	93.629062
876.000000	93.831302
875.000000	94.019403
874.000000	94.205721
873.000000	94.396233
872.000000	94.596213
871.000000	94.809927
870.000000	95.029765
869.000000	95.238777
868.000000	95.428999
867.000000	95.607319
866.000000	95.781833
865.000000	95.954317
864.000000	96.128347
863.000000	96.311037
862.000000	96.500736
861.000000	96.684393
860.000000	96.853779
859.000000	97.015492
858.000000	97.180192
857.000000	97.350397
856.000000	97.522324
855.000000	97.689860
854.000000	97.842709
853.000000	97.971273
852.000000	98.078699
851.000000	98.178699
850.000000	98.276869
849.000000	98.364674
848.000000	98.436832
847.000000	98.501771
846.000000	98.566513
845.000000	98.623096
844.000000	98.661399
843.000000	98.686890
842.000000	98.714385
841.000000	98.749535
840.000000	98.785088
839.000000	98.808719
838.000000	98.805610
837.000000	98.762176
836.000000	98.681933
835.000000	98.596166
834.000000	98.545681
833.000000	98.547178
832.000000	98.581526
831.000000	98.613445
830.000000	98.619526
829.000000	98.602869
828.000000	98.588515
827.000000	98.602564
826.000000	98.647086
825.000000	98.693758
824.000000	98.705721
823.000000	98.665062
822.000000	98.580338
821.000000	98.476705
820.000000	98.382955
819.000000	98.316401
818.000000	98.266984
817.000000	98.197961
816.000000	98.070594
815.000000	97.869658
814.000000	97.604785
813.000000	97.292924
812.000000	96.944378
811.000000	96.559078
810.000000	96.125170
809.000000	95.621305
808.000000	95.029044
807.000000	94.347960
806.000000	93.600605
805.000000	92.827100
804.000000	92.074438
803.000000	91.379262
802.000000	90.751978
801.000000	90.184413
800.000000	89.678762
799.000000	89.260244
798.000000	88.956792
797.000000	88.776797
796.000000	88.709001
795.000000	88.728961
794.000000	88.800490
793.000000	88.886293
792.000000	88.966458
791.000000	89.039209
790.000000	89.102223
789.000000	89.143301
788.000000	89.148389
787.000000	89.104678
786.000000	88.994688
785.000000	88.803758
784.000000	88.540651
783.000000	88.240324
782.000000	87.942142
781.000000	87.675112
780.000000	87.463020
779.000000	87.324290
778.000000	87.259306
777.000000	87.253681
776.000000	87.301834
775.000000	87.414584
774.000000	87.599201
773.000000	87.845675
772.000000	88.135208
771.000000	88.446513
770.000000	88.750875
769.000000	89.019949
768.000000	89.248273
767.000000	89.456748
766.000000	89.666786
765.000000	89.879161
764.000000	90.080756
763.000000	90.260902
762.000000	90.417925
761.000000	90.561376
760.000000	90.712055
759.000000	90.888693
758.000000	91.089050
757.000000	91.291814
756.000000	91.478877
755.000000	91.647192
754.000000	91.800715
753.000000	91.944756
752.000000	92.089979
751.000000	92.247706
750.000000	92.416137
