4000.000000	100.213126
3999.000000	100.213429
3998.000000	100.213949
3997.000000	100.214379
3996.000000	100.214047
3995.000000	100.212490
3994.000000	100.209976
3993.000000	100.207432
3992.000000	100.205779
3991.000000	100.205271
3990.000000	100.205468
3989.000000	100.205900
3988.000000	100.206752
3987.000000	100.208635
3986.000000	100.211542
3985.000000	100.214225
3984.000000	100.215072
3983.000000	100.213572
3982.000000	100.210700
3981.000000	100.208062
3980.000000	100.206689
3979.000000	100.206541
3978.000000	100.206713
3977.000000	100.205927
3976.000000	100.203281
3975.000000	100.198969
3974.000000	100.194385
3973.000000	100.191137
3972.000000	100.189865
3971.000000	100.189939
3970.000000	100.189980
3969.000000	100.189106
3968.000000	100.187650
3967.000000	100.186660
3966.000000	100.186706
3965.000000	100.187412
3964.000000	100.187961
3963.000000	100.187862
3962.000000	100.187247
3961.000000	100.186455
3960.000000	100.185641
3959.000000	100.184776
3958.000000	100.183798
3957.000000	100.182707
3956.000000	100.181564
3955.000000	100.180474
3954.000000	100.179543
3953.000000	100.178832
3952.000000	100.178322
3951.000000	100.177916
3950.000000	100.177496
3949.000000	100.176992
3948.000000	100.176397
3947.000000	100.175733
3946.000000	100.175028
3945.000000	100.174308
3944.000000	100.173601
3943.000000	100.172923
3942.000000	100.172277
3941.000000	100.171677
3940.000000	100.171123
3939.000000	100.170607
3938.000000	100.170114
3937.000000	100.169637
3936.000000	100.169179
3935.000000	100.168756
3934.000000	100.168386
3933.000000	100.168085
3932.000000	100.167854
3931.000000	100.167673
3930.000000	100.167507
3929.000000	100.167328
3928.000000	100.167125
3927.000000	100.166915
3926.000000	100.166724
3925.000000	100.166568
3924.000000	100.166443
3923.000000	100.166326
3922.000000	100.166192
3921.000000	100.166033
3920.000000	100.165853
3919.000000	100.165672
3918.000000	100.165516
3917.000000	100.165404
3916.000000	100.165340
3915.000000	100.165311
3914.000000	100.165302
3913.000000	100.165305
3912.000000	100.165327
3911.000000	100.165375
3910.000000	100.165446
3909.000000	100.165527
3908.000000	100.165608
3907.000000	100.165690
3906.000000	100.165790
3905.000000	100.165935
3904.000000	100.166144
3903.000000	100.166411
3902.000000	100.166706
3901.000000	100.167011
3900.000000	100.167339
3899.000000	100.167727
3898.000000	100.168199
3897.000000	100.168756
3896.000000	100.169395
3895.000000	100.170098
3894.000000	100.170831
3893.000000	100.171577
3892.000000	100.172377
3891.000000	100.173263
3890.000000	100.174167
3889.000000	100.174994
3888.000000	100.175742
3887.000000	100.176486
3886.000000	100.177289
3885.000000	100.178131
3884.000000	100.178918
3883.000000	100.179653
3882.000000	100.180475
3881.000000	100.181440
3880.000000	100.182422
3879.000000	100.183223
3878.000000	100.183777
3877.000000	100.184244
3876.000000	100.184838
3875.000000	100.185617
3874.000000	100.186435
3873.000000	100.187076
3872.000000	100.187549
3871.000000	100.188156
3870.000000	100.189130
3869.000000	100.190275
3868.000000	100.191115
3867.000000	100.191505
3866.000000	100.191674
3865.000000	100.191965
3864.000000	100.192567
3863.000000	100.193481
3862.000000	100.194577
3861.000000	100.195705
3860.000000	100.196759
3859.000000	100.197794
3858.000000	100.198944
3857.000000	100.200207
3856.000000	100.201297
3855.000000	100.201887
3854.000000	100.202225
3853.000000	100.202882
3852.000000	100.203219
3851.000000	100.202584
3850.000000	100.201934
3849.000000	100.201933
3848.000000	100.201905
3847.000000	100.201108
3846.000000	100.199749
3845.000000	100.198722
3844.000000	100.198709
3843.000000	100.199651
3842.000000	100.200833
3841.000000	100.201772
3840.000000	100.202741
3839.000000	100.204425
3838.000000	100.206960
3837.000000	100.209382
3836.000000	100.210342
3835.000000	100.209615
3834.000000	100.208463
3833.000000	100.208425
3832.000000	100.209754
3831.000000	100.211014
3830.000000	100.210574
3829.000000	100.208629
3828.000000	100.207327
3827.000000	100.208609
3826.000000	100.211801
3825.000000	100.213986
3824.000000	100.213197
3823.000000	100.210636
3822.000000	100.209844
3821.000000	100.213336
3820.000000	100.218195
3819.000000	100.219548
3818.000000	100.217564
3817.000000	100.215101
3816.000000	100.213246
3815.000000	100.210572
3814.000000	100.205589
3813.000000	100.199941
3812.000000	100.196094
3811.000000	100.193449
3810.000000	100.190003
3809.000000	100.185942
3808.000000	100.184459
3807.000000	100.188412
3806.000000	100.196122
3805.000000	100.202879
3804.000000	100.206689
3803.000000	100.208213
3802.000000	100.208334
3801.000000	100.208096
3800.000000	100.206926
3799.000000	100.205047
3798.000000	100.204924
3797.000000	100.206160
3796.000000	100.205456
3795.000000	100.200749
3794.000000	100.193058
3793.000000	100.184881
3792.000000	100.177695
3791.000000	100.171902
3790.000000	100.168518
3789.000000	100.168644
3788.000000	100.171519
3787.000000	100.174203
3786.000000	100.174329
3785.000000	100.172444
3784.000000	100.170691
3783.000000	100.170206
3782.000000	100.170427
3781.000000	100.170078
3780.000000	100.168430
3779.000000	100.166088
3778.000000	100.164154
3777.000000	100.163745
3776.000000	100.165971
3775.000000	100.170795
3774.000000	100.176011
3773.000000	100.178508
3772.000000	100.176549
3771.000000	100.171136
3770.000000	100.165188
3769.000000	100.160884
3768.000000	100.158466
3767.000000	100.158083
3766.000000	100.160215
3765.000000	100.164261
3764.000000	100.168418
3763.000000	100.171388
3762.000000	100.173162
3761.000000	100.173110
3760.000000	100.169525
3759.000000	100.162954
3758.000000	100.156999
3757.000000	100.154857
3756.000000	100.156655
3755.000000	100.161123
3754.000000	100.167467
3753.000000	100.174422
3752.000000	100.179611
3751.000000	100.182162
3750.000000	100.182533
3749.000000	100.177583
3748.000000	100.162958
3747.000000	100.140810
3746.000000	100.120459
3745.000000	100.112909
3744.000000	100.120020
3743.000000	100.125971
3742.000000	100.119768
3741.000000	100.111058
3740.000000	100.108849
3739.000000	100.111225
3738.000000	100.113393
3737.000000	100.113300
3736.000000	100.110196
3735.000000	100.102692
3734.000000	100.091885
3733.000000	100.083015
3732.000000	100.079261
3731.000000	100.076468
3730.000000	100.068413
3729.000000	100.053792
3728.000000	100.034960
3727.000000	100.013677
3726.000000	99.991248
3725.000000	99.970311
3724.000000	99.955042
3723.000000	99.947609
3722.000000	99.945381
3721.000000	99.943273
3720.000000	99.937493
3719.000000	99.927381
3718.000000	99.914373
3717.000000	99.900653
3716.000000	99.888190
3715.000000	99.877622
3714.000000	99.865737
3713.000000	99.846220
3712.000000	99.817074
3711.000000	99.784807
3710.000000	99.755994
3709.000000	99.730667
3708.000000	99.705458
3707.000000	99.678037
3706.000000	99.648627
3705.000000	99.619477
3704.000000	99.594101
3703.000000	99.575703
3702.000000	99.564575
3701.000000	99.555684
3700.000000	99.541553
3699.000000	99.520215
3698.000000	99.497505
3697.000000	99.480211
3696.000000	99.470119
3695.000000	99.465603
3694.000000	99.466046
3693.000000	99.471491
3692.000000	99.478954
3691.000000	99.483438
3690.000000	99.482829
3689.000000	99.479035
3688.000000	99.471459
3687.000000	99.455839
3686.000000	99.432610
3685.000000	99.407737
3684.000000	99.384850
3683.000000	99.363096
3682.000000	99.342244
3681.000000	99.324982
3680.000000	99.312245
3679.000000	99.298232
3678.000000	99.276458
3677.000000	99.250359
3676.000000	99.234195
3675.000000	99.234043
3674.000000	99.234057
3673.000000	99.220976
3672.000000	99.199810
3671.000000	99.177938
3670.000000	99.156763
3669.000000	99.133428
3668.000000	99.104313
3667.000000	99.071846
3666.000000	99.041639
3665.000000	99.016136
3664.000000	98.994994
3663.000000	98.977127
3662.000000	98.961028
3661.000000	98.944783
3660.000000	98.926799
3659.000000	98.906570
3658.000000	98.885233
3657.000000	98.864615
3656.000000	98.845500
3655.000000	98.825861
3654.000000	98.805679
3653.000000	98.790432
3652.000000	98.784932
3651.000000	98.787819
3650.000000	98.793689
3649.000000	98.797256
3648.000000	98.795142
3647.000000	98.786632
3646.000000	98.773076
3645.000000	98.757045
3644.000000	98.741431
3643.000000	98.728191
3642.000000	98.716833
3641.000000	98.704773
3640.000000	98.689489
3639.000000	98.670513
3638.000000	98.648847
3637.000000	98.625468
3636.000000	98.602141
3635.000000	98.581517
3634.000000	98.564205
3633.000000	98.546407
3632.000000	98.523332
3631.000000	98.494617
3630.000000	98.466514
3629.000000	98.449102
3628.000000	98.443963
3627.000000	98.441101
3626.000000	98.436779
3625.000000	98.434125
3624.000000	98.431738
3623.000000	98.427097
3622.000000	98.423563
3621.000000	98.428244
3620.000000	98.442187
3619.000000	98.455238
3618.000000	98.454753
3617.000000	98.439694
3616.000000	98.422460
3615.000000	98.416409
3614.000000	98.424552
3613.000000	98.438980
3612.000000	98.449101
3611.000000	98.450613
3610.000000	98.446811
3609.000000	98.443338
3608.000000	98.443263
3607.000000	98.446351
3606.000000	98.451774
3605.000000	98.459704
3604.000000	98.469538
3603.000000	98.478229
3602.000000	98.482352
3601.000000	98.481250
3600.000000	98.477527
3599.000000	98.474521
3598.000000	98.473765
3597.000000	98.474012
3596.000000	98.473226
3595.000000	98.471127
3594.000000	98.469594
3593.000000	98.470502
3592.000000	98.474004
3591.000000	98.478301
3590.000000	98.480255
3589.000000	98.477164
3588.000000	98.469240
3587.000000	98.459920
3586.000000	98.452993
3585.000000	98.450659
3584.000000	98.453111
3583.000000	98.457727
3582.000000	98.460396
3581.000000	98.458789
3580.000000	98.454125
3579.000000	98.449017
3578.000000	98.444060
3577.000000	98.437214
3576.000000	98.426548
3575.000000	98.412887
3574.000000	98.399318
3573.000000	98.388650
3572.000000	98.382185
3571.000000	98.380150
3570.000000	98.381811
3569.000000	98.385112
3568.000000	98.386790
3567.000000	98.384457
3566.000000	98.378437
3565.000000	98.371079
3564.000000	98.364637
3563.000000	98.359466
3562.000000	98.354130
3561.000000	98.347133
3560.000000	98.338423
3559.000000	98.329399
3558.000000	98.321548
3557.000000	98.315002
3556.000000	98.308429
3555.000000	98.300638
3554.000000	98.292285
3553.000000	98.285557
3552.000000	98.281698
3551.000000	98.279365
3550.000000	98.275884
3549.000000	98.269837
3548.000000	98.261867
3547.000000	98.253556
3546.000000	98.246152
3545.000000	98.240035
3544.000000	98.234969
3543.000000	98.230495
3542.000000	98.226140
3541.000000	98.221621
3540.000000	98.216906
3539.000000	98.212010
3538.000000	98.206776
3537.000000	98.200990
3536.000000	98.194671
3535.000000	98.188111
3534.000000	98.181710
3533.000000	98.175741
3532.000000	98.170201
3531.000000	98.164878
3530.000000	98.159481
3529.000000	98.153833
3528.000000	98.147969
3527.000000	98.142029
3526.000000	98.136127
3525.000000	98.130288
3524.000000	98.124485
3523.000000	98.118703
3522.000000	98.112941
3521.000000	98.107198
3520.000000	98.101465
3519.000000	98.095735
3518.000000	98.090003
3517.000000	98.084271
3516.000000	98.078539
3515.000000	98.072810
3514.000000	98.067080
3513.000000	98.061344
3512.000000	98.055599
3511.000000	98.049843
3510.000000	98.044075
3509.000000	98.038295
3508.000000	98.032504
3507.000000	98.026707
3506.000000	98.020915
3505.000000	98.015143
3504.000000	98.009404
3503.000000	98.003694
3502.000000	97.997999
3501.000000	97.992297
3500.000000	97.986574
3499.000000	97.980829
3498.000000	97.975068
3497.000000	97.969307
3496.000000	97.963560
3495.000000	97.957841
3494.000000	97.952158
3493.000000	97.946508
3492.000000	97.940874
3491.000000	97.935238
3490.000000	97.929586
3489.000000	97.923922
3488.000000	97.918260
3487.000000	97.912623
3486.000000	97.907027
3485.000000	97.901474
3484.000000	97.895952
3483.000000	97.890446
3482.000000	97.884945
3481.000000	97.879442
3480.000000	97.873935
3479.000000	97.868422
3478.000000	97.862895
3477.000000	97.857347
3476.000000	97.851788
3475.000000	97.846262
3474.000000	97.840794
3473.000000	97.835299
3472.000000	97.829666
3471.000000	97.823956
3470.000000	97.818360
3469.000000	97.812930
3468.000000	97.807487
3467.000000	97.801876
3466.000000	97.796277
3465.000000	97.791136
3464.000000	97.786681
3463.000000	97.782443
3462.000000	97.777512
3461.000000	97.771470
3460.000000	97.764992
3459.000000	97.759180
3458.000000	97.754315
3457.000000	97.749775
3456.000000	97.745133
3455.000000	97.740739
3454.000000	97.736921
3453.000000	97.733084
3452.000000	97.728122
3451.000000	97.721504
3450.000000	97.713609
3449.000000	97.705268
3448.000000	97.697376
3447.000000	97.690822
3446.000000	97.686235
3445.000000	97.683516
3444.000000	97.681698
3443.000000	97.679355
3442.000000	97.675268
3441.000000	97.668931
3440.000000	97.660798
3439.000000	97.652145
3438.000000	97.644223
3437.000000	97.637236
3436.000000	97.630347
3435.000000	97.622891
3434.000000	97.615547
3433.000000	97.610056
3432.000000	97.607618
3431.000000	97.607582
3430.000000	97.607718
3429.000000	97.605864
3428.000000	97.601577
3427.000000	97.596297
3426.000000	97.591858
3425.000000	97.588780
3424.000000	97.586196
3423.000000	97.583498
3422.000000	97.581482
3421.000000	97.581144
3420.000000	97.581559
3419.000000	97.579946
3418.000000	97.574423
3417.000000	97.566190
3416.000000	97.558580
3415.000000	97.553967
3414.000000	97.551908
3413.000000	97.550175
3412.000000	97.547204
3411.000000	97.543364
3410.000000	97.540045
3409.000000	97.537887
3408.000000	97.536094
3407.000000	97.533419
3406.000000	97.529427
3405.000000	97.524422
3404.000000	97.518384
3403.000000	97.510757
3402.000000	97.501798
3401.000000	97.493790
3400.000000	97.490002
3399.000000	97.492042
3398.000000	97.498155
3397.000000	97.503969
3396.000000	97.505593
3395.000000	97.502549
3394.000000	97.498022
3393.000000	97.496236
3392.000000	97.498922
3391.000000	97.504121
3390.000000	97.508391
3389.000000	97.510221
3388.000000	97.510783
3387.000000	97.511632
3386.000000	97.512630
3385.000000	97.512469
3384.000000	97.510544
3383.000000	97.507479
3382.000000	97.504237
3381.000000	97.501691
3380.000000	97.501013
3379.000000	97.503260
3378.000000	97.508025
3377.000000	97.513181
3376.000000	97.516743
3375.000000	97.518630
3374.000000	97.520050
3373.000000	97.521634
3372.000000	97.522967
3371.000000	97.523714
3370.000000	97.524214
3369.000000	97.524869
3368.000000	97.525657
3367.000000	97.526392
3366.000000	97.526835
3365.000000	97.526372
3364.000000	97.524303
3363.000000	97.520999
3362.000000	97.518245
3361.000000	97.517662
3360.000000	97.518913
3359.000000	97.520017
3358.000000	97.519583
3357.000000	97.518486
3356.000000	97.519041
3355.000000	97.522622
3354.000000	97.528352
3353.000000	97.533718
3352.000000	97.536575
3351.000000	97.536829
3350.000000	97.536050
3349.000000	97.535795
3348.000000	97.536556
3347.000000	97.538236
3346.000000	97.540931
3345.000000	97.544693
3344.000000	97.548930
3343.000000	97.552777
3342.000000	97.556053
3341.000000	97.559356
3340.000000	97.563202
3339.000000	97.567502
3338.000000	97.571925
3337.000000	97.576310
3336.000000	97.580519
3335.000000	97.584162
3334.000000	97.586747
3333.000000	97.588003
3332.000000	97.588043
3331.000000	97.587444
3330.000000	97.587252
3329.000000	97.588406
3328.000000	97.590858
3327.000000	97.593530
3326.000000	97.595450
3325.000000	97.596888
3324.000000	97.599033
3323.000000	97.602601
3322.000000	97.607216
3321.000000	97.612064
3320.000000	97.616692
3319.000000	97.620953
3318.000000	97.624521
3317.000000	97.627062
3316.000000	97.628907
3315.000000	97.631196
3314.000000	97.635058
3313.000000	97.640699
3312.000000	97.647253
3311.000000	97.653328
3310.000000	97.657806
3309.000000	97.660317
3308.000000	97.661368
3307.000000	97.662148
3306.000000	97.663863
3305.000000	97.666909
3304.000000	97.670602
3303.000000	97.673750
3302.000000	97.675678
3301.000000	97.676788
3300.000000	97.678217
3299.000000	97.680850
3298.000000	97.684643
3297.000000	97.688825
3296.000000	97.692681
3295.000000	97.696136
3294.000000	97.699516
3293.000000	97.702911
3292.000000	97.705981
3291.000000	97.708372
3290.000000	97.710242
3289.000000	97.712326
3288.000000	97.715402
3287.000000	97.719699
3286.000000	97.724660
3285.000000	97.729303
3284.000000	97.733131
3283.000000	97.736542
3282.000000	97.740271
3281.000000	97.744515
3280.000000	97.748790
3279.000000	97.752614
3278.000000	97.756085
3277.000000	97.759681
3276.000000	97.763656
3275.000000	97.767846
3274.000000	97.771996
3273.000000	97.776065
3272.000000	97.780143
3271.000000	97.784247
3270.000000	97.788334
3269.000000	97.792407
3268.000000	97.796518
3267.000000	97.800701
3266.000000	97.804947
3265.000000	97.809225
3264.000000	97.813511
3263.000000	97.817804
3262.000000	97.822118
3261.000000	97.826463
3260.000000	97.830842
3259.000000	97.835254
3258.000000	97.839701
3257.000000	97.844176
3256.000000	97.848675
3255.000000	97.853197
3254.000000	97.857746
3253.000000	97.862329
3252.000000	97.866963
3251.000000	97.871659
3250.000000	97.876416
3249.000000	97.881221
3248.000000	97.886049
3247.000000	97.890882
3246.000000	97.895717
3245.000000	97.900566
3244.000000	97.905445
3243.000000	97.910362
3242.000000	97.915317
3241.000000	97.920304
3240.000000	97.925321
3239.000000	97.930369
3238.000000	97.935449
3237.000000	97.940565
3236.000000	97.945712
3235.000000	97.950886
3234.000000	97.956084
3233.000000	97.961307
3232.000000	97.966557
3231.000000	97.971825
3230.000000	97.977094
3229.000000	97.982369
3228.000000	97.987704
3227.000000	97.993165
3226.000000	97.998763
3225.000000	98.004445
3224.000000	98.010150
3223.000000	98.015860
3222.000000	98.021592
3221.000000	98.027369
3220.000000	98.033189
3219.000000	98.039028
3218.000000	98.044865
3217.000000	98.050708
3216.000000	98.056597
3215.000000	98.062557
3214.000000	98.068574
3213.000000	98.074607
3212.000000	98.080618
3211.000000	98.086601
3210.000000	98.092587
3209.000000	98.098618
3208.000000	98.104713
3207.000000	98.110858
3206.000000	98.117042
3205.000000	98.123304
3204.000000	98.129666
3203.000000	98.136077
3202.000000	98.142477
3201.000000	98.148861
3200.000000	98.155265
3199.000000	98.161712
3198.000000	98.168189
3197.000000	98.174674
3196.000000	98.181160
3195.000000	98.187658
3194.000000	98.194184
3193.000000	98.200756
3192.000000	98.207376
3191.000000	98.214020
3190.000000	98.220656
3189.000000	98.227279
3188.000000	98.233927
3187.000000	98.240630
3186.000000	98.247383
3185.000000	98.254130
3184.000000	98.260805
3183.000000	98.267372
3182.000000	98.273864
3181.000000	98.280378
3180.000000	98.286981
3179.000000	98.293663
3178.000000	98.300408
3177.000000	98.307285
3176.000000	98.314348
3175.000000	98.321437
3174.000000	98.328205
3173.000000	98.334467
3172.000000	98.340547
3171.000000	98.347055
3170.000000	98.354262
3169.000000	98.361925
3168.000000	98.369613
3167.000000	98.377158
3166.000000	98.384644
3165.000000	98.392139
3164.000000	98.399520
3163.000000	98.406508
3162.000000	98.412906
3161.000000	98.418879
3160.000000	98.424969
3159.000000	98.431672
3158.000000	98.439050
3157.000000	98.446831
3156.000000	98.454807
3155.000000	98.462941
3154.000000	98.471158
3153.000000	98.479212
3152.000000	98.486768
3151.000000	98.493424
3150.000000	98.498795
3149.000000	98.502941
3148.000000	98.506785
3147.000000	98.511679
3146.000000	98.518306
3145.000000	98.526205
3144.000000	98.534256
3143.000000	98.541704
3142.000000	98.548620
3141.000000	98.555511
3140.000000	98.562751
3139.000000	98.570316
3138.000000	98.577910
3137.000000	98.585333
3136.000000	98.592705
3135.000000	98.600188
3134.000000	98.607518
3133.000000	98.614081
3132.000000	98.619606
3131.000000	98.624631
3130.000000	98.630112
3129.000000	98.636545
3128.000000	98.643620
3127.000000	98.650610
3126.000000	98.656980
3125.000000	98.662618
3124.000000	98.667679
3123.000000	98.672397
3122.000000	98.677166
3121.000000	98.682601
3120.000000	98.689170
3119.000000	98.696670
3118.000000	98.704144
3117.000000	98.710611
3116.000000	98.715834
3115.000000	98.720327
3114.000000	98.724836
3113.000000	98.729856
3112.000000	98.735456
3111.000000	98.741251
3110.000000	98.746639
3109.000000	98.751395
3108.000000	98.756053
3107.000000	98.761457
3106.000000	98.767819
3105.000000	98.774433
3104.000000	98.780388
3103.000000	98.785397
3102.000000	98.789824
3101.000000	98.794134
3100.000000	98.798540
3099.000000	98.802914
3098.000000	98.806902
3097.000000	98.810435
3096.000000	98.814193
3095.000000	98.819137
3094.000000	98.825410
3093.000000	98.832013
3092.000000	98.837905
3091.000000	98.843335
3090.000000	98.849435
3089.000000	98.856500
3088.000000	98.863396
3087.000000	98.868914
3086.000000	98.873062
3085.000000	98.876733
3084.000000	98.880519
3083.000000	98.884241
3082.000000	98.887384
3081.000000	98.889691
3080.000000	98.891550
3079.000000	98.893963
3078.000000	98.897844
3077.000000	98.903167
3076.000000	98.909095
3075.000000	98.915068
3074.000000	98.921289
3073.000000	98.927857
3072.000000	98.933961
3071.000000	98.938660
3070.000000	98.942286
3069.000000	98.946331
3068.000000	98.951654
3067.000000	98.957249
3066.000000	98.961294
3065.000000	98.963267
3064.000000	98.964570
3063.000000	98.966784
3062.000000	98.969449
3061.000000	98.970185
3060.000000	98.967576
3059.000000	98.963820
3058.000000	98.963635
3057.000000	98.969852
3056.000000	98.980678
3055.000000	98.991917
3054.000000	99.001638
3053.000000	99.010955
3052.000000	99.020080
3051.000000	99.025798
3050.000000	99.024591
3049.000000	99.017381
3048.000000	99.009698
3047.000000	99.006698
3046.000000	99.008957
3045.000000	99.013285
3044.000000	99.016368
3043.000000	99.017125
3042.000000	99.016303
3041.000000	99.014875
3040.000000	99.013134
3039.000000	99.011001
3038.000000	99.008633
3037.000000	99.006287
3036.000000	99.003861
3035.000000	99.001481
3034.000000	99.000837
3033.000000	99.004789
3032.000000	99.014280
3031.000000	99.025661
3030.000000	99.032340
3029.000000	99.029832
3028.000000	99.019099
3027.000000	99.005589
3026.000000	98.995318
3025.000000	98.990891
3024.000000	98.990024
3023.000000	98.987786
3022.000000	98.981462
3021.000000	98.973586
3020.000000	98.969500
3019.000000	98.971594
3018.000000	98.976812
3017.000000	98.979894
3016.000000	98.977604
3015.000000	98.969295
3014.000000	98.955517
3013.000000	98.937965
3012.000000	98.919705
3011.000000	98.903294
3010.000000	98.888430
3009.000000	98.872858
3008.000000	98.855851
3007.000000	98.839626
3006.000000	98.826809
3005.000000	98.817271
3004.000000	98.808052
3003.000000	98.796165
3002.000000	98.781357
3001.000000	98.766518
3000.000000	98.755510
2999.000000	98.750125
2998.000000	98.748573
2997.000000	98.746534
2996.000000	98.739352
2995.000000	98.723475
2994.000000	98.697260
2993.000000	98.662135
2992.000000	98.623186
2991.000000	98.587203
2990.000000	98.558821
2989.000000	98.538075
2988.000000	98.521576
2987.000000	98.506084
2986.000000	98.491229
2985.000000	98.479029
2984.000000	98.470558
2983.000000	98.462938
2982.000000	98.450447
2981.000000	98.429773
2980.000000	98.404238
2979.000000	98.381739
2978.000000	98.368091
2977.000000	98.362682
2976.000000	98.360306
2975.000000	98.356661
2974.000000	98.352492
2973.000000	98.353514
2972.000000	98.366416
2971.000000	98.393298
2970.000000	98.428653
2969.000000	98.462475
2968.000000	98.487972
2967.000000	98.506592
2966.000000	98.525302
2965.000000	98.549781
2964.000000	98.580566
2963.000000	98.613946
2962.000000	98.644545
2961.000000	98.667742
2960.000000	98.682247
2959.000000	98.691656
2958.000000	98.702340
2957.000000	98.718387
2956.000000	98.738434
2955.000000	98.757269
2954.000000	98.769816
2953.000000	98.773931
2952.000000	98.771161
2951.000000	98.765830
2950.000000	98.762389
2949.000000	98.762491
2948.000000	98.764779
2947.000000	98.767414
2946.000000	98.769464
2945.000000	98.769622
2944.000000	98.766021
2943.000000	98.759390
2942.000000	98.754686
2941.000000	98.756416
2940.000000	98.762555
2939.000000	98.765905
2938.000000	98.762258
2937.000000	98.754835
2936.000000	98.749782
2935.000000	98.749579
2934.000000	98.752484
2933.000000	98.756313
2932.000000	98.760280
2931.000000	98.763995
2930.000000	98.766903
2929.000000	98.768830
2928.000000	98.769846
2927.000000	98.769769
2926.000000	98.768846
2925.000000	98.768402
2924.000000	98.769504
2923.000000	98.771524
2922.000000	98.773770
2921.000000	98.778294
2920.000000	98.788764
2919.000000	98.805605
2918.000000	98.823538
2917.000000	98.835229
2916.000000	98.836737
2915.000000	98.828873
2914.000000	98.815186
2913.000000	98.800236
2912.000000	98.788725
2911.000000	98.783825
2910.000000	98.784956
2909.000000	98.787874
2908.000000	98.788093
2907.000000	98.784227
2906.000000	98.777585
2905.000000	98.769329
2904.000000	98.759743
2903.000000	98.750585
2902.000000	98.746114
2901.000000	98.749662
2900.000000	98.759841
2899.000000	98.772000
2898.000000	98.783590
2897.000000	98.795830
2896.000000	98.809088
2895.000000	98.819368
2894.000000	98.822137
2893.000000	98.818710
2892.000000	98.815886
2891.000000	98.818907
2890.000000	98.826977
2889.000000	98.836002
2888.000000	98.843645
2887.000000	98.850643
2886.000000	98.858701
2885.000000	98.868837
2884.000000	98.881383
2883.000000	98.896331
2882.000000	98.913375
2881.000000	98.931497
2880.000000	98.948201
2879.000000	98.959878
2878.000000	98.964642
2877.000000	98.965337
2876.000000	98.968079
2875.000000	98.976566
2874.000000	98.988851
2873.000000	99.000398
2872.000000	99.009240
2871.000000	99.017230
2870.000000	99.027529
2869.000000	99.042464
2868.000000	99.062545
2867.000000	99.085216
2866.000000	99.105085
2865.000000	99.117970
2864.000000	99.125273
2863.000000	99.132739
2862.000000	99.144364
2861.000000	99.159126
2860.000000	99.174094
2859.000000	99.188520
2858.000000	99.203370
2857.000000	99.218322
2856.000000	99.231492
2855.000000	99.242132
2854.000000	99.252159
2853.000000	99.264549
2852.000000	99.280833
2851.000000	99.300312
2850.000000	99.321097
2849.000000	99.341321
2848.000000	99.359420
2847.000000	99.373960
2846.000000	99.383983
2845.000000	99.389921
2844.000000	99.393640
2843.000000	99.396716
2842.000000	99.398981
2841.000000	99.399882
2840.000000	99.401184
2839.000000	99.406675
2838.000000	99.418176
2837.000000	99.432805
2836.000000	99.445462
2835.000000	99.453725
2834.000000	99.459171
2833.000000	99.464535
2832.000000	99.471260
2831.000000	99.479752
2830.000000	99.489938
2829.000000	99.500400
2828.000000	99.508336
2827.000000	99.512058
2826.000000	99.513087
2825.000000	99.514731
2824.000000	99.518763
2823.000000	99.524558
2822.000000	99.531156
2821.000000	99.538505
2820.000000	99.546469
2819.000000	99.554103
2818.000000	99.560592
2817.000000	99.565951
2816.000000	99.570287
2815.000000	99.573495
2814.000000	99.576418
2813.000000	99.581134
2812.000000	99.588744
2811.000000	99.597452
2810.000000	99.604103
2809.000000	99.607463
2808.000000	99.608929
2807.000000	99.610481
2806.000000	99.613000
2805.000000	99.616512
2804.000000	99.620828
2803.000000	99.625480
2802.000000	99.629827
2801.000000	99.633737
2800.000000	99.637817
2799.000000	99.642727
2798.000000	99.648454
2797.000000	99.654421
2796.000000	99.660028
2795.000000	99.664934
2794.000000	99.669058
2793.000000	99.672592
2792.000000	99.676004
2791.000000	99.679874
2790.000000	99.684600
2789.000000	99.690141
2788.000000	99.695838
2787.000000	99.700604
2786.000000	99.703674
2785.000000	99.705259
2784.000000	99.706494
2783.000000	99.708567
2782.000000	99.711868
2781.000000	99.716052
2780.000000	99.720568
2779.000000	99.725020
2778.000000	99.729203
2777.000000	99.733018
2776.000000	99.736410
2775.000000	99.739302
2774.000000	99.741617
2773.000000	99.743384
2772.000000	99.744793
2771.000000	99.746154
2770.000000	99.747881
2769.000000	99.750431
2768.000000	99.754012
2767.000000	99.758277
2766.000000	99.762390
2765.000000	99.765654
2764.000000	99.768060
2763.000000	99.770175
2762.000000	99.772626
2761.000000	99.775623
2760.000000	99.778935
2759.000000	99.782131
2758.000000	99.784877
2757.000000	99.787097
2756.000000	99.788948
2755.000000	99.790680
2754.000000	99.792521
2753.000000	99.794682
2752.000000	99.797327
2751.000000	99.800449
2750.000000	99.803776
2749.000000	99.806900
2748.000000	99.809572
2747.000000	99.811836
2746.000000	99.813908
2745.000000	99.815966
2744.000000	99.818034
2743.000000	99.820075
2742.000000	99.822105
2741.000000	99.824214
2740.000000	99.826471
2739.000000	99.828838
2738.000000	99.831188
2737.000000	99.833434
2736.000000	99.835586
2735.000000	99.837702
2734.000000	99.839810
2733.000000	99.841908
2732.000000	99.843995
2731.000000	99.846076
2730.000000	99.848146
2729.000000	99.850193
2728.000000	99.852224
2727.000000	99.854255
2726.000000	99.856283
2725.000000	99.858286
2724.000000	99.860238
2723.000000	99.862134
2722.000000	99.863982
2721.000000	99.865796
2720.000000	99.867578
2719.000000	99.869330
2718.000000	99.871054
2717.000000	99.872750
2716.000000	99.874413
2715.000000	99.876042
2714.000000	99.877634
2713.000000	99.879185
2712.000000	99.880694
2711.000000	99.882162
2710.000000	99.883587
2709.000000	99.884963
2708.000000	99.886283
2707.000000	99.887541
2706.000000	99.888744
2705.000000	99.889907
2704.000000	99.891044
2703.000000	99.892164
2702.000000	99.893271
2701.000000	99.894364
2700.000000	99.895442
2699.000000	99.896501
2698.000000	99.897532
2697.000000	99.898522
2696.000000	99.899465
2695.000000	99.900365
2694.000000	99.901235
2693.000000	99.902090
2692.000000	99.902939
2691.000000	99.903781
2690.000000	99.904605
2689.000000	99.905400
2688.000000	99.906168
2687.000000	99.906918
2686.000000	99.907661
2685.000000	99.908399
2684.000000	99.909120
2683.000000	99.909809
2682.000000	99.910460
2681.000000	99.911078
2680.000000	99.911679
2679.000000	99.912274
2678.000000	99.912864
2677.000000	99.913440
2676.000000	99.913986
2675.000000	99.914492
2674.000000	99.914958
2673.000000	99.915400
2672.000000	99.915842
2671.000000	99.916303
2670.000000	99.916787
2669.000000	99.917287
2668.000000	99.917795
2667.000000	99.918308
2666.000000	99.918837
2665.000000	99.919389
2664.000000	99.919969
2663.000000	99.920574
2662.000000	99.921190
2661.000000	99.921799
2660.000000	99.922381
2659.000000	99.922925
2658.000000	99.923435
2657.000000	99.923940
2656.000000	99.924468
2655.000000	99.925023
2654.000000	99.925569
2653.000000	99.926056
2652.000000	99.926486
2651.000000	99.926939
2650.000000	99.927489
2649.000000	99.928061
2648.000000	99.928469
2647.000000	99.928599
2646.000000	99.928568
2645.000000	99.928654
2644.000000	99.929034
2643.000000	99.929650
2642.000000	99.930246
2641.000000	99.930568
2640.000000	99.930523
2639.000000	99.930268
2638.000000	99.930128
2637.000000	99.930313
2636.000000	99.930701
2635.000000	99.930928
2634.000000	99.930771
2633.000000	99.930402
2632.000000	99.930268
2631.000000	99.930678
2630.000000	99.931584
2629.000000	99.932713
2628.000000	99.933746
2627.000000	99.934488
2626.000000	99.934889
2625.000000	99.934992
2624.000000	99.934916
2623.000000	99.934833
2622.000000	99.934936
2621.000000	99.935308
2620.000000	99.935796
2619.000000	99.936121
2618.000000	99.936181
2617.000000	99.936130
2616.000000	99.936129
2615.000000	99.936174
2614.000000	99.936321
2613.000000	99.936825
2612.000000	99.937879
2611.000000	99.939337
2610.000000	99.940746
2609.000000	99.941780
2608.000000	99.942464
2607.000000	99.943023
2606.000000	99.943653
2605.000000	99.944395
2604.000000	99.945172
2603.000000	99.945879
2602.000000	99.946479
2601.000000	99.947026
2600.000000	99.947621
2599.000000	99.948334
2598.000000	99.949148
2597.000000	99.949972
2596.000000	99.950714
2595.000000	99.951365
2594.000000	99.952006
2593.000000	99.952730
2592.000000	99.953544
2591.000000	99.954392
2590.000000	99.955218
2589.000000	99.956003
2588.000000	99.956734
2587.000000	99.957374
2586.000000	99.957914
2585.000000	99.958403
2584.000000	99.958917
2583.000000	99.959476
2582.000000	99.960059
2581.000000	99.960643
2580.000000	99.961223
2579.000000	99.961808
2578.000000	99.962404
2577.000000	99.963008
2576.000000	99.963609
2575.000000	99.964187
2574.000000	99.964729
2573.000000	99.965238
2572.000000	99.965723
2571.000000	99.966193
2570.000000	99.966649
2569.000000	99.967086
2568.000000	99.967503
2567.000000	99.967910
2566.000000	99.968328
2565.000000	99.968772
2564.000000	99.969247
2563.000000	99.969745
2562.000000	99.970253
2561.000000	99.970760
2560.000000	99.971262
2559.000000	99.971763
2558.000000	99.972278
2557.000000	99.972819
2556.000000	99.973391
2555.000000	99.973997
2554.000000	99.974631
2553.000000	99.975285
2552.000000	99.975932
2551.000000	99.976549
2550.000000	99.977136
2549.000000	99.977742
2548.000000	99.978434
2547.000000	99.979229
2546.000000	99.980095
2545.000000	99.980992
2544.000000	99.981896
2543.000000	99.982797
2542.000000	99.983694
2541.000000	99.984593
2540.000000	99.985503
2539.000000	99.986432
2538.000000	99.987382
2537.000000	99.988350
2536.000000	99.989335
2535.000000	99.990335
2534.000000	99.991352
2533.000000	99.992390
2532.000000	99.993456
2531.000000	99.994551
2530.000000	99.995671
2529.000000	99.996811
2528.000000	99.997965
2527.000000	99.999138
2526.000000	100.000336
2525.000000	100.001569
2524.000000	100.002841
2523.000000	100.004145
2522.000000	100.005469
2521.000000	100.006805
2520.000000	100.008149
2519.000000	100.009504
2518.000000	100.010875
2517.000000	100.012266
2516.000000	100.013682
2515.000000	100.015121
2514.000000	100.016576
2513.000000	100.018033
2512.000000	100.019485
2511.000000	100.020934
2510.000000	100.022391
2509.000000	100.023869
2508.000000	100.025365
2507.000000	100.026865
2506.000000	100.028350
2505.000000	100.029812
2504.000000	100.031266
2503.000000	100.032735
2502.000000	100.034243
2501.000000	100.035799
2500.000000	100.037402
2499.000000	100.039045
2498.000000	100.040720
2497.000000	100.042415
2496.000000	100.044127
2495.000000	100.045860
2494.000000	100.047600
2493.000000	100.049327
2492.000000	100.051028
2491.000000	100.052697
2490.000000	100.054331
2489.000000	100.055944
2488.000000	100.057594
2487.000000	100.059380
2486.000000	100.061374
2485.000000	100.063540
2484.000000	100.065764
2483.000000	100.067944
2482.000000	100.069973
2481.000000	100.071715
2480.000000	100.073177
2479.000000	100.074645
2478.000000	100.076454
2477.000000	100.078635
2476.000000	100.080966
2475.000000	100.083327
2474.000000	100.085644
2473.000000	100.087503
2472.000000	100.088297
2471.000000	100.088001
2470.000000	100.087503
2469.000000	100.087812
2468.000000	100.089043
2467.000000	100.090414
2466.000000	100.091275
2465.000000	100.091959
2464.000000	100.093603
2463.000000	100.097190
2462.000000	100.102637
2461.000000	100.108814
2460.000000	100.114412
2459.000000	100.118694
2458.000000	100.121650
2457.000000	100.123636
2456.000000	100.125068
2455.000000	100.126209
2454.000000	100.126953
2453.000000	100.127003
2452.000000	100.126570
2451.000000	100.126771
2450.000000	100.128839
2449.000000	100.132730
2448.000000	100.136788
2447.000000	100.139168
2446.000000	100.139478
2445.000000	100.138791
2444.000000	100.138241
2443.000000	100.137964
2442.000000	100.137503
2441.000000	100.136766
2440.000000	100.136280
2439.000000	100.136659
2438.000000	100.138116
2437.000000	100.140437
2436.000000	100.143197
2435.000000	100.145991
2434.000000	100.148563
2433.000000	100.150745
2432.000000	100.152371
2431.000000	100.153459
2430.000000	100.154541
2429.000000	100.156453
2428.000000	100.159476
2427.000000	100.162794
2426.000000	100.165089
2425.000000	100.165790
2424.000000	100.165519
2423.000000	100.165528
2422.000000	100.166742
2421.000000	100.169284
2420.000000	100.172498
2419.000000	100.175255
2418.000000	100.176706
2417.000000	100.176895
2416.000000	100.176611
2415.000000	100.176607
2414.000000	100.177060
2413.000000	100.177823
2412.000000	100.178798
2411.000000	100.179868
2410.000000	100.180790
2409.000000	100.181521
2408.000000	100.182504
2407.000000	100.184223
2406.000000	100.186445
2405.000000	100.188215
2404.000000	100.188724
2403.000000	100.188022
2402.000000	100.186944
2401.000000	100.186429
2400.000000	100.186844
2399.000000	100.187844
2398.000000	100.188767
2397.000000	100.189162
2396.000000	100.188900
2395.000000	100.187966
2394.000000	100.186553
2393.000000	100.185348
2392.000000	100.185212
2391.000000	100.186366
2390.000000	100.187996
2389.000000	100.188906
2388.000000	100.188539
2387.000000	100.187037
2386.000000	100.184840
2385.000000	100.182394
2384.000000	100.180038
2383.000000	100.177967
2382.000000	100.176242
2381.000000	100.174924
2380.000000	100.174129
2379.000000	100.173814
2378.000000	100.173625
2377.000000	100.173120
2376.000000	100.172083
2375.000000	100.170597
2374.000000	100.168949
2373.000000	100.167448
2372.000000	100.166201
2371.000000	100.165058
2370.000000	100.163810
2369.000000	100.162426
2368.000000	100.160961
2367.000000	100.159371
2366.000000	100.157599
2365.000000	100.155717
2364.000000	100.153866
2363.000000	100.152115
2362.000000	100.150421
2361.000000	100.148718
2360.000000	100.146964
2359.000000	100.145162
2358.000000	100.143384
2357.000000	100.141721
2356.000000	100.140178
2355.000000	100.138694
2354.000000	100.137215
2353.000000	100.135700
2352.000000	100.134118
2351.000000	100.132474
2350.000000	100.130803
2349.000000	100.129141
2348.000000	100.127515
2347.000000	100.125939
2346.000000	100.124421
2345.000000	100.122955
2344.000000	100.121527
2343.000000	100.120137
2342.000000	100.118795
2341.000000	100.117508
2340.000000	100.116274
2339.000000	100.115081
2338.000000	100.113911
2337.000000	100.112750
2336.000000	100.111599
2335.000000	100.110471
2334.000000	100.109389
2333.000000	100.108374
2332.000000	100.107438
2331.000000	100.106579
2330.000000	100.105790
2329.000000	100.105060
2328.000000	100.104373
2327.000000	100.103711
2326.000000	100.103052
2325.000000	100.102421
2324.000000	100.101894
2323.000000	100.101532
2322.000000	100.101282
2321.000000	100.100985
2320.000000	100.100552
2319.000000	100.100094
2318.000000	100.099802
2317.000000	100.099679
2316.000000	100.099491
2315.000000	100.099117
2314.000000	100.098775
2313.000000	100.098846
2312.000000	100.099410
2311.000000	100.100098
2310.000000	100.100338
2309.000000	100.099853
2308.000000	100.099053
2307.000000	100.098824
2306.000000	100.099629
2305.000000	100.100914
2304.000000	100.101717
2303.000000	100.101807
2302.000000	100.101704
2301.000000	100.101774
2300.000000	100.101822
2299.000000	100.101442
2298.000000	100.100283
2297.000000	100.098465
2296.000000	100.096905
2295.000000	100.097027
2294.000000	100.099202
2293.000000	100.101857
2292.000000	100.102907
2291.000000	100.102137
2290.000000	100.101299
2289.000000	100.101996
2288.000000	100.104237
2287.000000	100.106936
2286.000000	100.108799
2285.000000	100.108466
2284.000000	100.105194
2283.000000	100.099759
2282.000000	100.094018
2281.000000	100.089289
2280.000000	100.085581
2279.000000	100.082424
2278.000000	100.079837
2277.000000	100.078068
2276.000000	100.076928
2275.000000	100.075850
2274.000000	100.074301
2273.000000	100.072060
2272.000000	100.069375
2271.000000	100.066994
2270.000000	100.065590
2269.000000	100.065071
2268.000000	100.064871
2267.000000	100.065012
2266.000000	100.066202
2265.000000	100.068628
2264.000000	100.071098
2263.000000	100.071814
2262.000000	100.069845
2261.000000	100.065588
2260.000000	100.060333
2259.000000	100.055532
2258.000000	100.052127
2257.000000	100.050228
2256.000000	100.049421
2255.000000	100.049360
2254.000000	100.049904
2253.000000	100.050665
2252.000000	100.050849
2251.000000	100.049894
2250.000000	100.048003
2249.000000	100.045898
2248.000000	100.044149
2247.000000	100.042835
2246.000000	100.041573
2245.000000	100.039768
2244.000000	100.037187
2243.000000	100.034527
2242.000000	100.033104
2241.000000	100.033640
2240.000000	100.035488
2239.000000	100.037167
2238.000000	100.037620
2237.000000	100.036643
2236.000000	100.034431
2235.000000	100.031346
2234.000000	100.028185
2233.000000	100.026013
2232.000000	100.025337
2231.000000	100.025678
2230.000000	100.026149
2229.000000	100.026311
2228.000000	100.026277
2227.000000	100.026181
2226.000000	100.025815
2225.000000	100.024852
2224.000000	100.023303
2223.000000	100.021680
2222.000000	100.020573
2221.000000	100.020062
2220.000000	100.019754
2219.000000	100.019561
2218.000000	100.020209
2217.000000	100.022577
2216.000000	100.026500
2215.000000	100.030487
2214.000000	100.032928
2213.000000	100.033602
2212.000000	100.033882
2211.000000	100.035397
2210.000000	100.038328
2209.000000	100.041062
2208.000000	100.041719
2207.000000	100.039939
2206.000000	100.037040
2205.000000	100.034632
2204.000000	100.033436
2203.000000	100.033567
2202.000000	100.035184
2201.000000	100.038177
2200.000000	100.041491
2199.000000	100.043578
2198.000000	100.043746
2197.000000	100.042698
2196.000000	100.041724
2195.000000	100.041607
2194.000000	100.042298
2193.000000	100.043208
2192.000000	100.043589
2191.000000	100.042834
2190.000000	100.040723
2189.000000	100.037564
2188.000000	100.034207
2187.000000	100.031794
2186.000000	100.031134
2185.000000	100.032103
2184.000000	100.033783
2183.000000	100.035413
2182.000000	100.037035
2181.000000	100.038972
2180.000000	100.041082
2179.000000	100.042958
2178.000000	100.044596
2177.000000	100.046338
2176.000000	100.048208
2175.000000	100.049732
2174.000000	100.050379
2173.000000	100.049855
2172.000000	100.048152
2171.000000	100.045750
2170.000000	100.043694
2169.000000	100.042938
2168.000000	100.043548
2167.000000	100.044840
2166.000000	100.046154
2165.000000	100.047149
2164.000000	100.047585
2163.000000	100.047565
2162.000000	100.047971
2161.000000	100.049817
2160.000000	100.052937
2159.000000	100.055835
2158.000000	100.057203
2157.000000	100.057132
2156.000000	100.056627
2155.000000	100.056539
2154.000000	100.057264
2153.000000	100.058872
2152.000000	100.060816
2151.000000	100.061920
2150.000000	100.061361
2149.000000	100.059568
2148.000000	100.057756
2147.000000	100.056777
2146.000000	100.056938
2145.000000	100.058544
2144.000000	100.061738
2143.000000	100.065842
2142.000000	100.069589
2141.000000	100.072225
2140.000000	100.073917
2139.000000	100.075205
2138.000000	100.076660
2137.000000	100.078951
2136.000000	100.082448
2135.000000	100.086447
2134.000000	100.089392
2133.000000	100.090404
2132.000000	100.090302
2131.000000	100.090885
2130.000000	100.093196
2129.000000	100.096710
2128.000000	100.100007
2127.000000	100.102096
2126.000000	100.103103
2125.000000	100.103792
2124.000000	100.104515
2123.000000	100.104838
2122.000000	100.104418
2121.000000	100.103973
2120.000000	100.104881
2119.000000	100.107774
2118.000000	100.111988
2117.000000	100.116415
2116.000000	100.120676
2115.000000	100.125179
2114.000000	100.130246
2113.000000	100.135398
2112.000000	100.139474
2111.000000	100.141589
2110.000000	100.142068
2109.000000	100.142363
2108.000000	100.143826
2107.000000	100.146621
2106.000000	100.149936
2105.000000	100.152863
2104.000000	100.154846
2103.000000	100.155674
2102.000000	100.155596
2101.000000	100.155383
2100.000000	100.155820
2099.000000	100.157124
2098.000000	100.159063
2097.000000	100.161410
2096.000000	100.163863
2095.000000	100.165855
2094.000000	100.167244
2093.000000	100.169035
2092.000000	100.172363
2091.000000	100.176621
2090.000000	100.179653
2089.000000	100.180399
2088.000000	100.180261
2087.000000	100.181217
2086.000000	100.183377
2085.000000	100.185499
2084.000000	100.187167
2083.000000	100.189098
2082.000000	100.191476
2081.000000	100.193306
2080.000000	100.193742
2079.000000	100.193244
2078.000000	100.193132
2077.000000	100.194436
2076.000000	100.197282
2075.000000	100.200857
2074.000000	100.203806
2073.000000	100.205034
2072.000000	100.204428
2071.000000	100.202826
2070.000000	100.201436
2069.000000	100.201394
2068.000000	100.203430
2067.000000	100.207346
2066.000000	100.211768
2065.000000	100.214908
2064.000000	100.215842
2063.000000	100.215012
2062.000000	100.213772
2061.000000	100.213594
2060.000000	100.215100
2059.000000	100.217349
2058.000000	100.218381
2057.000000	100.216970
2056.000000	100.213738
2055.000000	100.210380
2054.000000	100.208068
2053.000000	100.206923
2052.000000	100.206696
2051.000000	100.207271
2050.000000	100.208377
2049.000000	100.209229
2048.000000	100.208810
2047.000000	100.206629
2046.000000	100.203340
2045.000000	100.200556
2044.000000	100.199523
2043.000000	100.199917
2042.000000	100.200189
2041.000000	100.199167
2040.000000	100.196998
2039.000000	100.194533
2038.000000	100.192300
2037.000000	100.190281
2036.000000	100.188285
2035.000000	100.186186
2034.000000	100.183993
2033.000000	100.181894
2032.000000	100.180136
2031.000000	100.178806
2030.000000	100.177796
2029.000000	100.176937
2028.000000	100.176016
2027.000000	100.174756
2026.000000	100.173051
2025.000000	100.171182
2024.000000	100.169550
2023.000000	100.168192
2022.000000	100.166716
2021.000000	100.164710
2020.000000	100.162050
2019.000000	100.158907
2018.000000	100.155732
2017.000000	100.153142
2016.000000	100.151542
2015.000000	100.150848
2014.000000	100.150582
2013.000000	100.150180
2012.000000	100.149196
2011.000000	100.147366
2010.000000	100.144817
2009.000000	100.142173
2008.000000	100.140038
2007.000000	100.138268
2006.000000	100.136168
2005.000000	100.133572
2004.000000	100.131359
2003.000000	100.130487
2002.000000	100.130805
2001.000000	100.131064
2000.000000	100.130138
1999.000000	100.127915
1998.000000	100.125124
1997.000000	100.122582
1996.000000	100.120538
1995.000000	100.118584
1994.000000	100.116223
1993.000000	100.113712
1992.000000	100.112095
1991.000000	100.112015
1990.000000	100.112812
1989.000000	100.113179
1988.000000	100.112558
1987.000000	100.111456
1986.000000	100.110578
1985.000000	100.110047
1984.000000	100.109466
1983.000000	100.108464
1982.000000	100.107139
1981.000000	100.106155
1980.000000	100.106326
1979.000000	100.107918
1978.000000	100.110289
1977.000000	100.112228
1976.000000	100.112788
1975.000000	100.111809
1974.000000	100.109806
1973.000000	100.107574
1972.000000	100.105699
1971.000000	100.104287
1970.000000	100.103198
1969.000000	100.102449
1968.000000	100.102225
1967.000000	100.102464
1966.000000	100.102747
1965.000000	100.102777
1964.000000	100.102676
1963.000000	100.102590
1962.000000	100.102216
1961.000000	100.101010
1960.000000	100.098772
1959.000000	100.095908
1958.000000	100.093221
1957.000000	100.091590
1956.000000	100.091508
1955.000000	100.092524
1954.000000	100.093383
1953.000000	100.093159
1952.000000	100.092160
1951.000000	100.091319
1950.000000	100.090962
1949.000000	100.090715
1948.000000	100.090318
1947.000000	100.089848
1946.000000	100.089148
1945.000000	100.087658
1944.000000	100.085101
1943.000000	100.082032
1942.000000	100.079557
1941.000000	100.078496
1940.000000	100.078820
1939.000000	100.079517
1938.000000	100.078916
1937.000000	100.075833
1936.000000	100.070759
1935.000000	100.065656
1934.000000	100.062242
1933.000000	100.060727
1932.000000	100.060259
1931.000000	100.059981
1930.000000	100.059443
1929.000000	100.058569
1928.000000	100.057529
1927.000000	100.056736
1926.000000	100.056619
1925.000000	100.057332
1924.000000	100.058521
1923.000000	100.059007
1922.000000	100.057332
1921.000000	100.053002
1920.000000	100.046870
1919.000000	100.040464
1918.000000	100.035348
1917.000000	100.032577
1916.000000	100.031895
1915.000000	100.031461
1914.000000	100.028734
1913.000000	100.022284
1912.000000	100.013346
1911.000000	100.005024
1910.000000	99.999590
1909.000000	99.996974
1908.000000	99.995569
1907.000000	99.994007
1906.000000	99.991556
1905.000000	99.987781
1904.000000	99.982841
1903.000000	99.977474
1902.000000	99.972402
1901.000000	99.967476
1900.000000	99.961631
1899.000000	99.954294
1898.000000	99.946462
1897.000000	99.940017
1896.000000	99.936177
1895.000000	99.934759
1894.000000	99.935058
1893.000000	99.936520
1892.000000	99.937832
1891.000000	99.936123
1890.000000	99.928853
1889.000000	99.917345
1888.000000	99.906566
1887.000000	99.900315
1886.000000	99.898417
1885.000000	99.898614
1884.000000	99.899810
1883.000000	99.902782
1882.000000	99.908018
1881.000000	99.913858
1880.000000	99.917344
1879.000000	99.916946
1878.000000	99.913694
1877.000000	99.909531
1876.000000	99.905437
1875.000000	99.901139
1874.000000	99.896233
1873.000000	99.891189
1872.000000	99.886975
1871.000000	99.884531
1870.000000	99.885222
1869.000000	99.890588
1868.000000	99.899955
1867.000000	99.909887
1866.000000	99.917833
1865.000000	99.924333
1864.000000	99.931073
1863.000000	99.938429
1862.000000	99.945533
1861.000000	99.952075
1860.000000	99.958627
1859.000000	99.965109
1858.000000	99.970332
1857.000000	99.973755
1856.000000	99.976695
1855.000000	99.981020
1854.000000	99.987128
1853.000000	99.993961
1852.000000	100.000070
1851.000000	100.004808
1850.000000	100.008807
1849.000000	100.013520
1848.000000	100.020590
1847.000000	100.030420
1846.000000	100.041135
1845.000000	100.049551
1844.000000	100.054480
1843.000000	100.057864
1842.000000	100.061647
1841.000000	100.065856
1840.000000	100.069404
1839.000000	100.071794
1838.000000	100.074162
1837.000000	100.078490
1836.000000	100.085254
1835.000000	100.091889
1834.000000	100.094582
1833.000000	100.091841
1832.000000	100.086109
1831.000000	100.082604
1830.000000	100.085336
1829.000000	100.092758
1828.000000	100.099464
1827.000000	100.101891
1826.000000	100.100058
1825.000000	100.096455
1824.000000	100.094229
1823.000000	100.094523
1822.000000	100.096132
1821.000000	100.097557
1820.000000	100.098550
1819.000000	100.099781
1818.000000	100.101314
1817.000000	100.102362
1816.000000	100.102569
1815.000000	100.102572
1814.000000	100.103248
1813.000000	100.104512
1812.000000	100.105239
1811.000000	100.104377
1810.000000	100.102168
1809.000000	100.100431
1808.000000	100.101018
1807.000000	100.104066
1806.000000	100.108118
1805.000000	100.111603
1804.000000	100.114077
1803.000000	100.116014
1802.000000	100.117792
1801.000000	100.118747
1800.000000	100.117597
1799.000000	100.114187
1798.000000	100.110528
1797.000000	100.109643
1796.000000	100.112917
1795.000000	100.118739
1794.000000	100.123455
1793.000000	100.124539
1792.000000	100.123467
1791.000000	100.123893
1790.000000	100.127231
1789.000000	100.132553
1788.000000	100.138473
1787.000000	100.143552
1786.000000	100.146640
1785.000000	100.147848
1784.000000	100.148699
1783.000000	100.150339
1782.000000	100.152600
1781.000000	100.154719
1780.000000	100.156868
1779.000000	100.160269
1778.000000	100.165246
1777.000000	100.170615
1776.000000	100.174791
1775.000000	100.177256
1774.000000	100.178591
1773.000000	100.179904
1772.000000	100.182812
1771.000000	100.187710
1770.000000	100.192907
1769.000000	100.196587
1768.000000	100.198138
1767.000000	100.198409
1766.000000	100.199376
1765.000000	100.202708
1764.000000	100.208254
1763.000000	100.213171
1762.000000	100.214215
1761.000000	100.211797
1760.000000	100.209703
1759.000000	100.210036
1758.000000	100.211247
1757.000000	100.211741
1756.000000	100.212923
1755.000000	100.216947
1754.000000	100.222379
1753.000000	100.224515
1752.000000	100.219489
1751.000000	100.208685
1750.000000	100.197993
1749.000000	100.192285
1748.000000	100.192849
1747.000000	100.197340
1746.000000	100.200893
1745.000000	100.199784
1744.000000	100.195802
1743.000000	100.194846
1742.000000	100.199444
1741.000000	100.205569
1740.000000	100.207877
1739.000000	100.205462
1738.000000	100.200712
1737.000000	100.195403
1736.000000	100.189317
1735.000000	100.181394
1734.000000	100.172807
1733.000000	100.163877
1732.000000	100.152895
1731.000000	100.142454
1730.000000	100.137035
1729.000000	100.136770
1728.000000	100.137364
1727.000000	100.134882
1726.000000	100.129081
1725.000000	100.121782
1724.000000	100.115560
1723.000000	100.112019
1722.000000	100.110195
1721.000000	100.108031
1720.000000	100.104193
1719.000000	100.097880
1718.000000	100.088755
1717.000000	100.077777
1716.000000	100.066479
1715.000000	100.056389
1714.000000	100.048741
1713.000000	100.043343
1712.000000	100.038535
1711.000000	100.032173
1710.000000	100.022584
1709.000000	100.009447
1708.000000	99.994357
1707.000000	99.980627
1706.000000	99.971202
1705.000000	99.966243
1704.000000	99.963372
1703.000000	99.960360
1702.000000	99.953972
1701.000000	99.937698
1700.000000	99.912004
1699.000000	99.887144
1698.000000	99.869243
1697.000000	99.857616
1696.000000	99.848898
1695.000000	99.838453
1694.000000	99.823504
1693.000000	99.805620
1692.000000	99.788322
1691.000000	99.772784
1690.000000	99.757939
1689.000000	99.743392
1688.000000	99.730823
1687.000000	99.722016
1686.000000	99.714129
1685.000000	99.698757
1684.000000	99.673719
1683.000000	99.647803
1682.000000	99.627197
1681.000000	99.610602
1680.000000	99.594679
1679.000000	99.578070
1678.000000	99.562482
1677.000000	99.549503
1676.000000	99.538548
1675.000000	99.527546
1674.000000	99.514502
1673.000000	99.498494
1672.000000	99.480280
1671.000000	99.460232
1670.000000	99.438063
1669.000000	99.415866
1668.000000	99.397343
1667.000000	99.384105
1666.000000	99.374039
1665.000000	99.362919
1664.000000	99.348033
1663.000000	99.330818
1662.000000	99.314900
1661.000000	99.301036
1660.000000	99.288685
1659.000000	99.279564
1658.000000	99.274575
1657.000000	99.271400
1656.000000	99.267949
1655.000000	99.263741
1654.000000	99.256568
1653.000000	99.246127
1652.000000	99.230696
1651.000000	99.206968
1650.000000	99.181162
1649.000000	99.162812
1648.000000	99.156992
1647.000000	99.163964
1646.000000	99.174478
1645.000000	99.175283
1644.000000	99.164366
1643.000000	99.150108
1642.000000	99.140650
1641.000000	99.137447
1640.000000	99.136267
1639.000000	99.134424
1638.000000	99.132457
1637.000000	99.130340
1636.000000	99.127237
1635.000000	99.125311
1634.000000	99.126421
1633.000000	99.130327
1632.000000	99.137552
1631.000000	99.147753
1630.000000	99.158574
1629.000000	99.166824
1628.000000	99.170927
1627.000000	99.172349
1626.000000	99.174662
1625.000000	99.180950
1624.000000	99.192315
1623.000000	99.206653
1622.000000	99.218289
1621.000000	99.223092
1620.000000	99.223491
1619.000000	99.226218
1618.000000	99.236186
1617.000000	99.251834
1616.000000	99.265282
1615.000000	99.271594
1614.000000	99.274549
1613.000000	99.279413
1612.000000	99.286952
1611.000000	99.295482
1610.000000	99.304471
1609.000000	99.313652
1608.000000	99.321226
1607.000000	99.325901
1606.000000	99.329251
1605.000000	99.333825
1604.000000	99.341262
1603.000000	99.353561
1602.000000	99.372350
1601.000000	99.395474
1600.000000	99.416842
1599.000000	99.431318
1598.000000	99.439157
1597.000000	99.444947
1596.000000	99.452886
1595.000000	99.463804
1594.000000	99.476105
1593.000000	99.487839
1592.000000	99.497491
1591.000000	99.504387
1590.000000	99.509666
1589.000000	99.516009
1588.000000	99.525180
1587.000000	99.536366
1586.000000	99.547564
1585.000000	99.558172
1584.000000	99.568725
1583.000000	99.579208
1582.000000	99.588396
1581.000000	99.595325
1580.000000	99.601338
1579.000000	99.609238
1578.000000	99.620052
1577.000000	99.631533
1576.000000	99.641191
1575.000000	99.648134
1574.000000	99.652482
1573.000000	99.655771
1572.000000	99.659797
1571.000000	99.664778
1570.000000	99.669821
1569.000000	99.674149
1568.000000	99.677736
1567.000000	99.682053
1566.000000	99.688139
1565.000000	99.694293
1564.000000	99.697690
1563.000000	99.698095
1562.000000	99.697741
1561.000000	99.697648
1560.000000	99.697811
1559.000000	99.705669
1558.000000	99.721899
1557.000000	99.733654
1556.000000	99.738202
1555.000000	99.740483
1554.000000	99.743410
1553.000000	99.747191
1552.000000	99.750549
1551.000000	99.753578
1550.000000	99.756372
1549.000000	99.759414
1548.000000	99.763807
1547.000000	99.770742
1546.000000	99.780315
1545.000000	99.790953
1544.000000	99.800977
1543.000000	99.811167
1542.000000	99.824175
1541.000000	99.841510
1540.000000	99.859084
1539.000000	99.867810
1538.000000	99.864415
1537.000000	99.854347
1536.000000	99.844160
1535.000000	99.836193
1534.000000	99.830082
1533.000000	99.826483
1532.000000	99.826444
1531.000000	99.829242
1530.000000	99.832997
1529.000000	99.836265
1528.000000	99.839098
1527.000000	99.842360
1526.000000	99.846131
1525.000000	99.849531
1524.000000	99.852575
1523.000000	99.856219
1522.000000	99.859904
1521.000000	99.861596
1520.000000	99.860595
1519.000000	99.859521
1518.000000	99.861854
1517.000000	99.867560
1516.000000	99.873511
1515.000000	99.878171
1514.000000	99.883534
1513.000000	99.890810
1512.000000	99.897745
1511.000000	99.901409
1510.000000	99.902588
1509.000000	99.905765
1508.000000	99.915431
1507.000000	99.932873
1506.000000	99.950964
1505.000000	99.960014
1504.000000	99.960040
1503.000000	99.957795
1502.000000	99.958813
1501.000000	99.964422
1500.000000	99.972829
1499.000000	99.982083
1498.000000	99.991157
1497.000000	99.999748
1496.000000	100.007442
1495.000000	100.012493
1494.000000	100.014194
1493.000000	100.014909
1492.000000	100.017716
1491.000000	100.023470
1490.000000	100.030166
1489.000000	100.034890
1488.000000	100.037084
1487.000000	100.038132
1486.000000	100.038524
1485.000000	100.038068
1484.000000	100.036963
1483.000000	100.037148
1482.000000	100.040577
1481.000000	100.046098
1480.000000	100.050113
1479.000000	100.050258
1478.000000	100.047322
1477.000000	100.044167
1476.000000	100.043905
1475.000000	100.046939
1474.000000	100.050233
1473.000000	100.049773
1472.000000	100.045259
1471.000000	100.040086
1470.000000	100.036516
1469.000000	100.034171
1468.000000	100.031187
1467.000000	100.025440
1466.000000	100.016260
1465.000000	100.005019
1464.000000	99.993417
1463.000000	99.981796
1462.000000	99.969451
1461.000000	99.956680
1460.000000	99.944696
1459.000000	99.934123
1458.000000	99.924095
1457.000000	99.915806
1456.000000	99.911528
1455.000000	99.909311
1454.000000	99.907484
1453.000000	99.906180
1452.000000	99.904313
1451.000000	99.901048
1450.000000	99.898077
1449.000000	99.898681
1448.000000	99.904519
1447.000000	99.913077
1446.000000	99.920147
1445.000000	99.923075
1444.000000	99.921875
1443.000000	99.918613
1442.000000	99.914892
1441.000000	99.911203
1440.000000	99.907998
1439.000000	99.906075
1438.000000	99.904524
1437.000000	99.901206
1436.000000	99.895734
1435.000000	99.889309
1434.000000	99.883047
1433.000000	99.877813
1432.000000	99.874132
1431.000000	99.872371
1430.000000	99.871882
1429.000000	99.869745
1428.000000	99.862969
1427.000000	99.851936
1426.000000	99.840781
1425.000000	99.832968
1424.000000	99.827967
1423.000000	99.822919
1422.000000	99.816366
1421.000000	99.809246
1420.000000	99.803011
1419.000000	99.799243
1418.000000	99.798483
1417.000000	99.800242
1416.000000	99.804247
1415.000000	99.808608
1414.000000	99.809828
1413.000000	99.806330
1412.000000	99.800241
1411.000000	99.795035
1410.000000	99.792476
1409.000000	99.792655
1408.000000	99.795009
1407.000000	99.798057
1406.000000	99.800941
1405.000000	99.805553
1404.000000	99.814633
1403.000000	99.827077
1402.000000	99.838120
1401.000000	99.844917
1400.000000	99.849269
1399.000000	99.854450
1398.000000	99.859514
1397.000000	99.859618
1396.000000	99.852444
1395.000000	99.842844
1394.000000	99.840474
1393.000000	99.850308
1392.000000	99.868674
1391.000000	99.887824
1390.000000	99.901174
1389.000000	99.906127
1388.000000	99.904498
1387.000000	99.900226
1386.000000	99.895953
1385.000000	99.892413
1384.000000	99.890236
1383.000000	99.890175
1382.000000	99.892076
1381.000000	99.895563
1380.000000	99.901236
1379.000000	99.910002
1378.000000	99.921579
1377.000000	99.934595
1376.000000	99.947885
1375.000000	99.960816
1374.000000	99.972857
1373.000000	99.983540
1372.000000	99.993288
1371.000000	100.003816
1370.000000	100.017847
1369.000000	100.037448
1368.000000	100.061173
1367.000000	100.083407
1366.000000	100.098524
1365.000000	100.105841
1364.000000	100.109818
1363.000000	100.115668
1362.000000	100.124710
1361.000000	100.135019
1360.000000	100.145392
1359.000000	100.155709
1358.000000	100.165006
1357.000000	100.172049
1356.000000	100.177310
1355.000000	100.182478
1354.000000	100.187973
1353.000000	100.192552
1352.000000	100.195376
1351.000000	100.196553
1350.000000	100.196484
1349.000000	100.195756
1348.000000	100.195887
1347.000000	100.198949
1346.000000	100.205429
1345.000000	100.213340
1344.000000	100.219820
1343.000000	100.223024
1342.000000	100.222497
1341.000000	100.218984
1340.000000	100.214434
1339.000000	100.210924
1338.000000	100.208680
1337.000000	100.206375
1336.000000	100.203894
1335.000000	100.203394
1334.000000	100.206849
1333.000000	100.213091
1332.000000	100.218139
1331.000000	100.218745
1330.000000	100.215442
1329.000000	100.211844
1328.000000	100.211156
1327.000000	100.213670
1326.000000	100.217461
1325.000000	100.220459
1324.000000	100.221380
1323.000000	100.219723
1322.000000	100.216210
1321.000000	100.212971
1320.000000	100.211690
1319.000000	100.211256
1318.000000	100.208908
1317.000000	100.204420
1316.000000	100.201023
1315.000000	100.201140
1314.000000	100.203274
1313.000000	100.204792
1312.000000	100.206147
1311.000000	100.209837
1310.000000	100.216072
1309.000000	100.222015
1308.000000	100.225059
1307.000000	100.224865
1306.000000	100.222655
1305.000000	100.220102
1304.000000	100.218740
1303.000000	100.218665
1302.000000	100.218044
1301.000000	100.215638
1300.000000	100.213166
1299.000000	100.212945
1298.000000	100.213690
1297.000000	100.211754
1296.000000	100.206652
1295.000000	100.202257
1294.000000	100.201534
1293.000000	100.202924
1292.000000	100.203362
1291.000000	100.202130
1290.000000	100.199872
1289.000000	100.195845
1288.000000	100.188464
1287.000000	100.177946
1286.000000	100.166885
1285.000000	100.158265
1284.000000	100.153149
1283.000000	100.149428
1282.000000	100.142830
1281.000000	100.130794
1280.000000	100.115845
1279.000000	100.103780
1278.000000	100.097775
1277.000000	100.095484
1276.000000	100.092149
1275.000000	100.085038
1274.000000	100.074654
1273.000000	100.063465
1272.000000	100.054031
1271.000000	100.046728
1270.000000	100.039130
1269.000000	100.029653
1268.000000	100.021370
1267.000000	100.018807
1266.000000	100.020513
1265.000000	100.019102
1264.000000	100.010543
1263.000000	99.999060
1262.000000	99.989966
1261.000000	99.981702
1260.000000	99.969389
1259.000000	99.953589
1258.000000	99.940605
1257.000000	99.934982
1256.000000	99.935205
1255.000000	99.935597
1254.000000	99.929889
1253.000000	99.914941
1252.000000	99.894281
1251.000000	99.876825
1250.000000	99.868803
1249.000000	99.867863
1248.000000	99.867396
1247.000000	99.864250
1246.000000	99.858834
1245.000000	99.850499
1244.000000	99.838217
1243.000000	99.824869
1242.000000	99.815268
1241.000000	99.809219
1240.000000	99.801073
1239.000000	99.787153
1238.000000	99.769692
1237.000000	99.752389
1236.000000	99.735679
1235.000000	99.718058
1234.000000	99.698968
1233.000000	99.678444
1232.000000	99.656356
1231.000000	99.633773
1230.000000	99.612963
1229.000000	99.594374
1228.000000	99.575177
1227.000000	99.552035
1226.000000	99.523886
1225.000000	99.491163
1224.000000	99.454303
1223.000000	99.414731
1222.000000	99.375837
1221.000000	99.340755
1220.000000	99.308987
1219.000000	99.276040
1218.000000	99.236618
1217.000000	99.188160
1216.000000	99.131805
1215.000000	99.070485
1214.000000	99.006207
1213.000000	98.939414
1212.000000	98.871119
1211.000000	98.804625
1210.000000	98.743506
1209.000000	98.687778
1208.000000	98.633022
1207.000000	98.573624
1206.000000	98.506874
1205.000000	98.434336
1204.000000	98.359522
1203.000000	98.284705
1202.000000	98.210495
1201.000000	98.137584
1200.000000	98.066508
1199.000000	97.994942
1198.000000	97.918451
1197.000000	97.837014
1196.000000	97.758503
1195.000000	97.691014
1194.000000	97.632009
1193.000000	97.569480
1192.000000	97.494411
1191.000000	97.408408
1190.000000	97.319119
1189.000000	97.232599
1188.000000	97.151198
1187.000000	97.074020
1186.000000	96.996491
1185.000000	96.912689
1184.000000	96.820697
1183.000000	96.723681
1182.000000	96.624658
1181.000000	96.523236
1180.000000	96.418949
1179.000000	96.314121
1178.000000	96.210426
1177.000000	96.104760
1176.000000	95.991279
1175.000000	95.867014
1174.000000	95.734911
1173.000000	95.602276
1172.000000	95.475510
1171.000000	95.354068
1170.000000	95.230092
1169.000000	95.096819
1168.000000	94.956725
1167.000000	94.819052
1166.000000	94.692469
1165.000000	94.585550
1164.000000	94.511354
1163.000000	94.482117
1162.000000	94.497112
1161.000000	94.540737
1160.000000	94.593017
1159.000000	94.637783
1158.000000	94.663387
1157.000000	94.664396
1156.000000	94.644068
1155.000000	94.609164
1154.000000	94.561248
1153.000000	94.497622
1152.000000	94.419716
1151.000000	94.333805
1150.000000	94.243691
1149.000000	94.149841
1148.000000	94.055721
1147.000000	93.966581
1146.000000	93.880309
1145.000000	93.787457
1144.000000	93.683131
1143.000000	93.572855
1142.000000	93.465430
1141.000000	93.366037
1140.000000	93.276512
1139.000000	93.194260
1138.000000	93.109409
1137.000000	93.011429
1136.000000	92.901220
1135.000000	92.790175
1134.000000	92.685828
1133.000000	92.585385
1132.000000	92.484266
1131.000000	92.382513
1130.000000	92.280746
1129.000000	92.177764
1128.000000	92.074457
1127.000000	91.973109
1126.000000	91.871831
1125.000000	91.767245
1124.000000	91.662820
1123.000000	91.565453
1122.000000	91.472906
1121.000000	91.374423
1120.000000	91.265822
1119.000000	91.154791
1118.000000	91.049309
1117.000000	90.950098
1116.000000	90.855734
1115.000000	90.764600
1114.000000	90.669649
1113.000000	90.562516
1112.000000	90.446848
1111.000000	90.337925
1110.000000	90.244836
1109.000000	90.161346
1108.000000	90.076404
1107.000000	89.983560
1106.000000	89.877964
1105.000000	89.756272
1104.000000	89.624594
1103.000000	89.496830
1102.000000	89.380590
1101.000000	89.272701
1100.000000	89.169520
1099.000000	89.070555
1098.000000	88.970574
1097.000000	88.860735
1096.000000	88.740745
1095.000000	88.619152
1094.000000	88.500083
1093.000000	88.381437
1092.000000	88.266632
1091.000000	88.163955
1090.000000	88.072462
1089.000000	87.982976
1088.000000	87.894965
1087.000000	87.817159
1086.000000	87.749345
1085.000000	87.680423
1084.000000	87.608646
1083.000000	87.547030
1082.000000	87.502320
1081.000000	87.462991
1080.000000	87.414460
1079.000000	87.353668
1078.000000	87.284563
1077.000000	87.212372
1076.000000	87.146351
1075.000000	87.094577
1074.000000	87.050574
1073.000000	86.995892
1072.000000	86.917595
1071.000000	86.812180
1070.000000	86.675097
1069.000000	86.502864
1068.000000	86.306937
1067.000000	86.109084
1066.000000	85.918249
1065.000000	85.725824
1064.000000	85.525741
1063.000000	85.322558
1062.000000	85.117529
1061.000000	84.904421
1060.000000	84.683328
1059.000000	84.462327
1058.000000	84.242218
1057.000000	84.016532
1056.000000	83.789415
1055.000000	83.575097
1054.000000	83.375886
1053.000000	83.179798
1052.000000	82.984946
1051.000000	82.805231
1050.000000	82.644650
1049.000000	82.488744
1048.000000	82.329515
1047.000000	82.175515
1046.000000	82.030282
1045.000000	81.883234
1044.000000	81.727578
1043.000000	81.567030
1042.000000	81.400564
1041.000000	81.221291
1040.000000	81.036793
1039.000000	80.870323
1038.000000	80.733258
1037.000000	80.612714
1036.000000	80.491277
1035.000000	80.362646
1034.000000	80.225520
1033.000000	80.082460
1032.000000	79.949446
1031.000000	79.846124
1030.000000	79.770968
1029.000000	79.703794
1028.000000	79.635868
1027.000000	79.577408
1026.000000	79.532447
1025.000000	79.489784
1024.000000	79.444438
1023.000000	79.405417
1022.000000	79.374697
1021.000000	79.338881
1020.000000	79.289077
1019.000000	79.230675
1018.000000	79.167764
1017.000000	79.096717
1016.000000	79.020549
1015.000000	78.950567
1014.000000	78.887938
1013.000000	78.821466
1012.000000	78.748364
1011.000000	78.679280
1010.000000	78.619007
1009.000000	78.560836
1008.000000	78.503704
1007.000000	78.456444
1006.000000	78.421272
1005.000000	78.390948
1004.000000	78.365034
1003.000000	78.351183
1002.000000	78.348802
1001.000000	78.350069
1000.000000	78.357578
999.000000	78.380852
998.000000	78.414640
997.000000	78.441633
996.000000	78.458288
995.000000	78.477419
994.000000	78.504906
993.000000	78.535996
992.000000	78.574837
991.000000	78.633374
990.000000	78.707849
989.000000	78.780042
988.000000	78.846042
987.000000	78.920967
986.000000	79.011345
985.000000	79.106425
984.000000	79.202111
983.000000	79.310673
982.000000	79.439253
981.000000	79.579514
980.000000	79.725311
979.000000	79.881466
978.000000	80.049274
977.000000	80.222423
976.000000	80.402804
975.000000	80.601708
974.000000	80.819945
973.000000	81.044581
972.000000	81.269594
971.000000	81.501707
970.000000	81.741784
969.000000	81.979367
968.000000	82.210963
967.000000	82.445819
966.000000	82.687829
965.000000	82.928484
964.000000	83.163385
963.000000	83.399795
962.000000	83.641992
961.000000	83.883702
960.000000	84.120223
959.000000	84.354211
958.000000	84.584983
957.000000	84.805246
956.000000	85.012152
955.000000	85.209247
954.000000	85.395902
953.000000	85.568783
952.000000	85.735398
951.000000	85.910414
950.000000	86.093976
949.000000	86.267411
948.000000	86.414699
947.000000	86.535988
946.000000	86.638832
945.000000	86.730997
944.000000	86.825347
943.000000	86.936226
942.000000	87.063150
941.000000	87.188573
940.000000	87.296937
939.000000	87.387493
938.000000	87.468485
937.000000	87.550909
936.000000	87.648579
935.000000	87.769360
934.000000	87.901888
933.000000	88.023289
932.000000	88.123621
931.000000	88.212327
930.000000	88.300816
929.000000	88.392337
928.000000	88.489697
927.000000	88.595987
926.000000	88.702564
925.000000	88.791389
924.000000	88.856411
923.000000	88.911626
922.000000	88.973012
921.000000	89.042743
920.000000	89.114339
919.000000	89.181342
918.000000	89.237386
917.000000	89.280322
916.000000	89.320871
915.000000	89.376129
914.000000	89.451205
913.000000	89.538174
912.000000	89.634552
911.000000	89.748794
910.000000	89.884396
909.000000	90.033924
908.000000	90.194255
907.000000	90.373130
906.000000	90.573351
905.000000	90.783018
904.000000	90.989489
903.000000	91.193882
902.000000	91.405135
901.000000	91.627281
900.000000	91.856490
899.000000	92.083207
898.000000	92.295311
897.000000	92.487840
896.000000	92.671747
895.000000	92.864499
894.000000	93.069622
893.000000	93.272976
892.000000	93.459974
891.000000	93.628346
890.000000	93.784520
889.000000	93.937601
888.000000	94.097505
887.000000	94.267943
886.000000	94.437916
885.000000	94.588776
884.000000	94.712601
883.000000	94.818131
882.000000	94.920893
881.000000	95.036675
880.000000	95.181371
879.000000	95.361404
878.000000	95.560691
877.000000	95.750263
876.000000	95.915688
875.000000	96.065921
874.000000	96.215746
873.000000	96.372289
872.000000	96.538985
871.000000	96.717155
870.000000	96.898843
869.000000	97.070216
868.000000	97.226343
867.000000	97.373621
866.000000	97.517311
865.000000	97.657842
864.000000	97.799500
863.000000	97.948441
862.000000	98.098368
861.000000	98.232334
860.000000	98.345507
859.000000	98.454811
858.000000	98.579034
857.000000	98.718842
856.000000	98.862745
855.000000	99.001518
854.000000	99.127730
853.000000	99.230764
852.000000	99.304414
851.000000	99.356265
850.000000	99.401556
849.000000	99.449943
848.000000	99.502694
847.000000	99.557017
846.000000	99.606565
845.000000	99.642937
844.000000	99.663904
843.000000	99.677585
842.000000	99.694043
841.000000	99.715104
840.000000	99.734029
839.000000	99.739350
838.000000	99.716948
837.000000	99.658178
836.000000	99.574125
835.000000	99.496457
834.000000	99.454683
833.000000	99.452228
832.000000	99.467714
831.000000	99.475536
830.000000	99.463086
829.000000	99.436292
828.000000	99.416272
827.000000	99.425688
826.000000	99.468345
825.000000	99.521696
824.000000	99.554254
823.000000	99.549266
822.000000	99.511139
821.000000	99.457065
820.000000	99.407216
819.000000	99.374243
818.000000	99.351838
817.000000	99.314728
816.000000	99.235464
815.000000	99.101792
814.000000	98.918362
813.000000	98.696555
812.000000	98.444901
811.000000	98.163464
810.000000	97.841513
809.000000	97.463113
808.000000	97.018700
807.000000	96.510123
806.000000	95.946911
805.000000	95.346997
804.000000	94.743210
803.000000	94.176408
802.000000	93.672828
801.000000	93.235161
800.000000	92.860671
799.000000	92.557563
798.000000	92.338557
797.000000	92.210290
796.000000	92.173248
795.000000	92.217093
794.000000	92.309377
793.000000	92.404461
792.000000	92.474704
791.000000	92.524627
790.000000	92.569743
789.000000	92.611803
788.000000	92.637418
787.000000	92.626130
786.000000	92.553471
785.000000	92.402436
784.000000	92.186330
783.000000	91.951998
782.000000	91.747798
781.000000	91.592266
780.000000	91.479089
779.000000	91.400909
778.000000	91.357546
777.000000	91.350530
776.000000	91.383860
775.000000	91.467567
774.000000	91.610615
773.000000	91.809358
772.000000	92.045169
771.000000	92.290705
770.000000	92.519451
769.000000	92.717452
768.000000	92.889450
767.000000	93.049362
766.000000	93.203237
765.000000	93.345374
764.000000	93.469814
763.000000	93.578126
762.000000	93.675733
761.000000	93.769667
760.000000	93.871760
759.000000	93.993929
758.000000	94.134294
757.000000	94.273908
756.000000	94.392596
755.000000	94.485572
754.000000	94.563960
753.000000	94.644698
752.000000	94.741425
751.000000	94.858215
750.000000	94.986742
