4000.000000	101.788335
3999.000000	101.788772
3998.000000	101.788990
3997.000000	101.789010
3996.000000	101.788283
3995.000000	101.786392
3994.000000	101.783826
3993.000000	101.781881
3992.000000	101.781512
3991.000000	101.782332
3990.000000	101.782974
3989.000000	101.782393
3988.000000	101.780802
3987.000000	101.779347
3986.000000	101.779168
3985.000000	101.780877
3984.000000	101.784411
3983.000000	101.788815
3982.000000	101.792238
3981.000000	101.792770
3980.000000	101.789650
3979.000000	101.783826
3978.000000	101.777487
3977.000000	101.772682
3976.000000	101.770241
3975.000000	101.769868
3974.000000	101.770787
3973.000000	101.772204
3972.000000	101.773426
3971.000000	101.773958
3970.000000	101.773677
3969.000000	101.772853
3968.000000	101.771826
3967.000000	101.770542
3966.000000	101.768473
3965.000000	101.765208
3964.000000	101.761237
3963.000000	101.758149
3962.000000	101.757707
3961.000000	101.760385
3960.000000	101.764840
3959.000000	101.768858
3958.000000	101.770917
3957.000000	101.771045
3956.000000	101.770610
3955.000000	101.771430
3954.000000	101.774833
3953.000000	101.780959
3952.000000	101.788274
3951.000000	101.793848
3950.000000	101.794993
3949.000000	101.791241
3948.000000	101.784823
3947.000000	101.778950
3946.000000	101.775341
3945.000000	101.773417
3944.000000	101.771243
3943.000000	101.767276
3942.000000	101.761779
3941.000000	101.756747
3940.000000	101.754347
3939.000000	101.755508
3938.000000	101.759591
3937.000000	101.764955
3936.000000	101.769994
3935.000000	101.773617
3934.000000	101.775032
3933.000000	101.773629
3932.000000	101.769633
3931.000000	101.764859
3930.000000	101.762009
3929.000000	101.762920
3928.000000	101.767293
3927.000000	101.772791
3926.000000	101.776397
3925.000000	101.776263
3924.000000	101.773165
3923.000000	101.770127
3922.000000	101.769816
3921.000000	101.772070
3920.000000	101.774056
3919.000000	101.772989
3918.000000	101.768628
3917.000000	101.762825
3916.000000	101.757406
3915.000000	101.753292
3914.000000	101.750922
3913.000000	101.750313
3912.000000	101.750897
3911.000000	101.752401
3910.000000	101.755857
3909.000000	101.762640
3908.000000	101.772638
3907.000000	101.783246
3906.000000	101.790828
3905.000000	101.793358
3904.000000	101.791830
3903.000000	101.789574
3902.000000	101.789240
3901.000000	101.790596
3900.000000	101.791138
3899.000000	101.788638
3898.000000	101.783241
3897.000000	101.777263
3896.000000	101.772938
3895.000000	101.770765
3894.000000	101.770212
3893.000000	101.771223
3892.000000	101.774355
3891.000000	101.779233
3890.000000	101.784016
3889.000000	101.786924
3888.000000	101.788020
3887.000000	101.788387
3886.000000	101.788003
3885.000000	101.786345
3884.000000	101.784157
3883.000000	101.782951
3882.000000	101.783393
3881.000000	101.784685
3880.000000	101.785473
3879.000000	101.785145
3878.000000	101.784020
3877.000000	101.782926
3876.000000	101.782681
3875.000000	101.783320
3874.000000	101.784003
3873.000000	101.784028
3872.000000	101.783689
3871.000000	101.783750
3870.000000	101.784187
3869.000000	101.784215
3868.000000	101.783408
3867.000000	101.782108
3866.000000	101.780920
3865.000000	101.780040
3864.000000	101.779349
3863.000000	101.778890
3862.000000	101.778683
3861.000000	101.778519
3860.000000	101.778264
3859.000000	101.778042
3858.000000	101.778048
3857.000000	101.778218
3856.000000	101.778347
3855.000000	101.778104
3854.000000	101.776710
3853.000000	101.773949
3852.000000	101.771070
3851.000000	101.769282
3850.000000	101.768715
3849.000000	101.768866
3848.000000	101.768978
3847.000000	101.768687
3846.000000	101.768151
3845.000000	101.767709
3844.000000	101.767545
3843.000000	101.767498
3842.000000	101.767106
3841.000000	101.765957
3840.000000	101.764093
3839.000000	101.762069
3838.000000	101.760672
3837.000000	101.760216
3836.000000	101.760235
3835.000000	101.760038
3834.000000	101.759520
3833.000000	101.759279
3832.000000	101.759830
3831.000000	101.760961
3830.000000	101.762015
3829.000000	101.762615
3828.000000	101.762938
3827.000000	101.763257
3826.000000	101.763296
3825.000000	101.762446
3824.000000	101.760787
3823.000000	101.759491
3822.000000	101.759413
3821.000000	101.759770
3820.000000	101.759428
3819.000000	101.758442
3818.000000	101.758085
3817.000000	101.759625
3816.000000	101.762569
3815.000000	101.765285
3814.000000	101.767365
3813.000000	101.769540
3812.000000	101.771650
3811.000000	101.772066
3810.000000	101.769658
3809.000000	101.765599
3808.000000	101.762821
3807.000000	101.762854
3806.000000	101.764428
3805.000000	101.765269
3804.000000	101.764290
3803.000000	101.762323
3802.000000	101.760785
3801.000000	101.760203
3800.000000	101.760548
3799.000000	101.761493
3798.000000	101.762544
3797.000000	101.763344
3796.000000	101.763888
3795.000000	101.764567
3794.000000	101.765598
3793.000000	101.766650
3792.000000	101.767227
3791.000000	101.767434
3790.000000	101.767953
3789.000000	101.769073
3788.000000	101.770202
3787.000000	101.770633
3786.000000	101.770330
3785.000000	101.769595
3784.000000	101.768300
3783.000000	101.766226
3782.000000	101.763902
3781.000000	101.762415
3780.000000	101.762171
3779.000000	101.762428
3778.000000	101.762155
3777.000000	101.761045
3776.000000	101.759693
3775.000000	101.758718
3774.000000	101.758035
3773.000000	101.757346
3772.000000	101.756971
3771.000000	101.757347
3770.000000	101.757774
3769.000000	101.756788
3768.000000	101.753923
3767.000000	101.750681
3766.000000	101.749475
3765.000000	101.750938
3764.000000	101.752909
3763.000000	101.753368
3762.000000	101.753149
3761.000000	101.754083
3760.000000	101.755086
3759.000000	101.753021
3758.000000	101.746973
3757.000000	101.738529
3756.000000	101.730252
3755.000000	101.724818
3754.000000	101.724159
3753.000000	101.727420
3752.000000	101.729918
3751.000000	101.729108
3750.000000	101.727867
3749.000000	101.726198
3748.000000	101.717846
3747.000000	101.699057
3746.000000	101.677255
3745.000000	101.662718
3744.000000	101.656384
3743.000000	101.657746
3742.000000	101.669264
3741.000000	101.689338
3740.000000	101.708991
3739.000000	101.717006
3738.000000	101.710750
3737.000000	101.696543
3736.000000	101.680266
3735.000000	101.663669
3734.000000	101.649234
3733.000000	101.641796
3732.000000	101.642618
3731.000000	101.647409
3730.000000	101.651368
3729.000000	101.653370
3728.000000	101.654897
3727.000000	101.655101
3726.000000	101.649968
3725.000000	101.637679
3724.000000	101.620627
3723.000000	101.601809
3722.000000	101.581887
3721.000000	101.560619
3720.000000	101.538843
3719.000000	101.519145
3718.000000	101.504789
3717.000000	101.495760
3716.000000	101.487571
3715.000000	101.474252
3714.000000	101.451715
3713.000000	101.419117
3712.000000	101.379681
3711.000000	101.341278
3710.000000	101.310655
3709.000000	101.287984
3708.000000	101.270397
3707.000000	101.255524
3706.000000	101.241215
3705.000000	101.225635
3704.000000	101.208953
3703.000000	101.193621
3702.000000	101.181471
3701.000000	101.170645
3700.000000	101.156644
3699.000000	101.138084
3698.000000	101.120154
3697.000000	101.109182
3696.000000	101.105342
3695.000000	101.103853
3694.000000	101.100733
3693.000000	101.095391
3692.000000	101.089680
3691.000000	101.086349
3690.000000	101.087037
3689.000000	101.088723
3688.000000	101.085456
3687.000000	101.076120
3686.000000	101.066844
3685.000000	101.063708
3684.000000	101.064964
3683.000000	101.062450
3682.000000	101.051674
3681.000000	101.036488
3680.000000	101.021674
3679.000000	101.005315
3678.000000	100.983860
3677.000000	100.960032
3676.000000	100.935586
3675.000000	100.908802
3674.000000	100.880604
3673.000000	100.852474
3672.000000	100.827260
3671.000000	100.807139
3670.000000	100.787688
3669.000000	100.765454
3668.000000	100.743244
3667.000000	100.723792
3666.000000	100.706875
3665.000000	100.690657
3664.000000	100.672933
3663.000000	100.652811
3662.000000	100.632003
3661.000000	100.612690
3660.000000	100.595262
3659.000000	100.579285
3658.000000	100.565456
3657.000000	100.553511
3656.000000	100.538635
3655.000000	100.515290
3654.000000	100.483345
3653.000000	100.449433
3652.000000	100.422317
3651.000000	100.402786
3650.000000	100.381120
3649.000000	100.353249
3648.000000	100.328458
3647.000000	100.315101
3646.000000	100.311416
3645.000000	100.310007
3644.000000	100.303902
3643.000000	100.289286
3642.000000	100.266800
3641.000000	100.241592
3640.000000	100.221024
3639.000000	100.208970
3638.000000	100.202713
3637.000000	100.196564
3636.000000	100.187782
3635.000000	100.177283
3634.000000	100.164529
3633.000000	100.146601
3632.000000	100.123787
3631.000000	100.104528
3630.000000	100.096098
3629.000000	100.090559
3628.000000	100.075555
3627.000000	100.051327
3626.000000	100.027423
3625.000000	100.012294
3624.000000	100.007892
3623.000000	100.010953
3622.000000	100.018852
3621.000000	100.031998
3620.000000	100.049838
3619.000000	100.068108
3618.000000	100.081388
3617.000000	100.086455
3616.000000	100.085245
3615.000000	100.084992
3614.000000	100.092367
3613.000000	100.107363
3612.000000	100.123747
3611.000000	100.135519
3610.000000	100.141948
3609.000000	100.146128
3608.000000	100.151008
3607.000000	100.157737
3606.000000	100.166239
3605.000000	100.176169
3604.000000	100.187510
3603.000000	100.199772
3602.000000	100.211201
3601.000000	100.219276
3600.000000	100.222792
3599.000000	100.224105
3598.000000	100.227890
3597.000000	100.237020
3596.000000	100.250736
3595.000000	100.266465
3594.000000	100.281609
3593.000000	100.294009
3592.000000	100.301263
3591.000000	100.301620
3590.000000	100.296005
3589.000000	100.287356
3588.000000	100.278364
3587.000000	100.271007
3586.000000	100.266397
3585.000000	100.264707
3584.000000	100.266086
3583.000000	100.270164
3582.000000	100.275251
3581.000000	100.279304
3580.000000	100.281549
3579.000000	100.282557
3578.000000	100.282526
3577.000000	100.280452
3576.000000	100.275649
3575.000000	100.269932
3574.000000	100.267089
3573.000000	100.269578
3572.000000	100.276170
3571.000000	100.282714
3570.000000	100.285118
3569.000000	100.281510
3568.000000	100.272858
3567.000000	100.263393
3566.000000	100.258199
3565.000000	100.258581
3564.000000	100.261793
3563.000000	100.264402
3562.000000	100.264973
3561.000000	100.264243
3560.000000	100.263390
3559.000000	100.262445
3558.000000	100.260548
3557.000000	100.257233
3556.000000	100.252894
3555.000000	100.248330
3554.000000	100.244314
3553.000000	100.241457
3552.000000	100.240098
3551.000000	100.240080
3550.000000	100.240809
3549.000000	100.241577
3548.000000	100.241642
3547.000000	100.240262
3546.000000	100.237102
3545.000000	100.232747
3544.000000	100.228632
3543.000000	100.225946
3542.000000	100.224488
3541.000000	100.222747
3540.000000	100.219345
3539.000000	100.214513
3538.000000	100.210045
3537.000000	100.207582
3536.000000	100.207245
3535.000000	100.207968
3534.000000	100.208753
3533.000000	100.209210
3532.000000	100.209092
3531.000000	100.208148
3530.000000	100.206592
3529.000000	100.205122
3528.000000	100.204073
3527.000000	100.202984
3526.000000	100.201434
3525.000000	100.199873
3524.000000	100.199033
3523.000000	100.198742
3522.000000	100.197973
3521.000000	100.196128
3520.000000	100.193656
3519.000000	100.191254
3518.000000	100.188887
3517.000000	100.185931
3516.000000	100.182117
3515.000000	100.178042
3514.000000	100.174762
3513.000000	100.173088
3512.000000	100.173225
3511.000000	100.174739
3510.000000	100.176703
3509.000000	100.178078
3508.000000	100.178273
3507.000000	100.177393
3506.000000	100.175893
3505.000000	100.173950
3504.000000	100.171317
3503.000000	100.168006
3502.000000	100.164808
3501.000000	100.162787
3500.000000	100.162286
3499.000000	100.162607
3498.000000	100.162470
3497.000000	100.161017
3496.000000	100.158394
3495.000000	100.155418
3494.000000	100.152867
3493.000000	100.150925
3492.000000	100.149275
3491.000000	100.147553
3490.000000	100.145736
3489.000000	100.144115
3488.000000	100.142909
3487.000000	100.142012
3486.000000	100.141121
3485.000000	100.140017
3484.000000	100.138629
3483.000000	100.136926
3482.000000	100.134962
3481.000000	100.132947
3480.000000	100.131106
3479.000000	100.129464
3478.000000	100.127868
3477.000000	100.126205
3476.000000	100.124488
3475.000000	100.122744
3474.000000	100.120922
3473.000000	100.118957
3472.000000	100.116898
3471.000000	100.114886
3470.000000	100.113023
3469.000000	100.111284
3468.000000	100.109527
3467.000000	100.107623
3466.000000	100.105596
3465.000000	100.103617
3464.000000	100.101820
3463.000000	100.100146
3462.000000	100.098390
3461.000000	100.096412
3460.000000	100.094301
3459.000000	100.092327
3458.000000	100.090695
3457.000000	100.089390
3456.000000	100.088214
3455.000000	100.086934
3454.000000	100.085424
3453.000000	100.083741
3452.000000	100.082080
3451.000000	100.080572
3450.000000	100.079173
3449.000000	100.077724
3448.000000	100.076085
3447.000000	100.074245
3446.000000	100.072315
3445.000000	100.070428
3444.000000	100.068641
3443.000000	100.066909
3442.000000	100.065171
3441.000000	100.063392
3440.000000	100.061574
3439.000000	100.059743
3438.000000	100.057936
3437.000000	100.056173
3436.000000	100.054448
3435.000000	100.052748
3434.000000	100.051057
3433.000000	100.049361
3432.000000	100.047661
3431.000000	100.045985
3430.000000	100.044371
3429.000000	100.042834
3428.000000	100.041347
3427.000000	100.039869
3426.000000	100.038377
3425.000000	100.036880
3424.000000	100.035404
3423.000000	100.033974
3422.000000	100.032592
3421.000000	100.031229
3420.000000	100.029846
3419.000000	100.028421
3418.000000	100.026978
3417.000000	100.025568
3416.000000	100.024224
3415.000000	100.022917
3414.000000	100.021576
3413.000000	100.020175
3412.000000	100.018810
3411.000000	100.017635
3410.000000	100.016703
3409.000000	100.015832
3408.000000	100.014727
3407.000000	100.013285
3406.000000	100.011707
3405.000000	100.010289
3404.000000	100.009057
3403.000000	100.007744
3402.000000	100.006104
3401.000000	100.004309
3400.000000	100.002913
3399.000000	100.002292
3398.000000	100.002293
3397.000000	100.002300
3396.000000	100.001830
3395.000000	100.000865
3394.000000	99.999696
3393.000000	99.998644
3392.000000	99.997896
3391.000000	99.997553
3390.000000	99.997654
3389.000000	99.998068
3388.000000	99.998502
3387.000000	99.998697
3386.000000	99.998585
3385.000000	99.998195
3384.000000	99.997497
3383.000000	99.996489
3382.000000	99.995410
3381.000000	99.994690
3380.000000	99.994594
3379.000000	99.994961
3378.000000	99.995334
3377.000000	99.995385
3376.000000	99.995159
3375.000000	99.994946
3374.000000	99.994960
3373.000000	99.995133
3372.000000	99.995158
3371.000000	99.994782
3370.000000	99.994077
3369.000000	99.993427
3368.000000	99.993191
3367.000000	99.993352
3366.000000	99.993601
3365.000000	99.993771
3364.000000	99.994086
3363.000000	99.994926
3362.000000	99.996380
3361.000000	99.997985
3360.000000	99.998956
3359.000000	99.998835
3358.000000	99.997803
3357.000000	99.996541
3356.000000	99.995747
3355.000000	99.995621
3354.000000	99.995955
3353.000000	99.996473
3352.000000	99.997099
3351.000000	99.997854
3350.000000	99.998643
3349.000000	99.999314
3348.000000	99.999848
3347.000000	100.000336
3346.000000	100.000788
3345.000000	100.001114
3344.000000	100.001299
3343.000000	100.001458
3342.000000	100.001696
3341.000000	100.002083
3340.000000	100.002780
3339.000000	100.003996
3338.000000	100.005652
3337.000000	100.007194
3336.000000	100.008009
3335.000000	100.008031
3334.000000	100.007878
3333.000000	100.008361
3332.000000	100.009791
3331.000000	100.011784
3330.000000	100.013563
3329.000000	100.014613
3328.000000	100.015012
3327.000000	100.015215
3326.000000	100.015528
3325.000000	100.015891
3324.000000	100.016202
3323.000000	100.016651
3322.000000	100.017587
3321.000000	100.019140
3320.000000	100.021058
3319.000000	100.022900
3318.000000	100.024303
3317.000000	100.025088
3316.000000	100.025389
3315.000000	100.025643
3314.000000	100.026067
3313.000000	100.026312
3312.000000	100.025885
3311.000000	100.024829
3310.000000	100.023783
3309.000000	100.023354
3308.000000	100.023605
3307.000000	100.024330
3306.000000	100.025572
3305.000000	100.027494
3304.000000	100.029819
3303.000000	100.031732
3302.000000	100.032572
3301.000000	100.032432
3300.000000	100.032040
3299.000000	100.032108
3298.000000	100.032756
3297.000000	100.033575
3296.000000	100.034098
3295.000000	100.034302
3294.000000	100.034667
3293.000000	100.035724
3292.000000	100.037485
3291.000000	100.039348
3290.000000	100.040647
3289.000000	100.041309
3288.000000	100.041793
3287.000000	100.042403
3286.000000	100.042887
3285.000000	100.042881
3284.000000	100.042548
3283.000000	100.042516
3282.000000	100.043125
3281.000000	100.043988
3280.000000	100.044501
3279.000000	100.044669
3278.000000	100.045153
3277.000000	100.046494
3276.000000	100.048473
3275.000000	100.050274
3274.000000	100.051238
3273.000000	100.051416
3272.000000	100.051478
3271.000000	100.052092
3270.000000	100.053348
3269.000000	100.054859
3268.000000	100.056346
3267.000000	100.057961
3266.000000	100.059843
3265.000000	100.061547
3264.000000	100.062291
3263.000000	100.061865
3262.000000	100.061086
3261.000000	100.061057
3260.000000	100.062038
3259.000000	100.063291
3258.000000	100.064044
3257.000000	100.064402
3256.000000	100.065133
3255.000000	100.066803
3254.000000	100.069430
3253.000000	100.072852
3252.000000	100.076996
3251.000000	100.081606
3250.000000	100.085817
3249.000000	100.088507
3248.000000	100.089197
3247.000000	100.088529
3246.000000	100.087985
3245.000000	100.088653
3244.000000	100.090523
3243.000000	100.092922
3242.000000	100.095375
3241.000000	100.097919
3240.000000	100.100604
3239.000000	100.103138
3238.000000	100.105206
3237.000000	100.106892
3236.000000	100.108610
3235.000000	100.110608
3234.000000	100.112716
3233.000000	100.114616
3232.000000	100.116269
3231.000000	100.117982
3230.000000	100.120095
3229.000000	100.122651
3228.000000	100.125361
3227.000000	100.127842
3226.000000	100.129967
3225.000000	100.131964
3224.000000	100.134146
3223.000000	100.136569
3222.000000	100.138999
3221.000000	100.141208
3220.000000	100.143195
3219.000000	100.145104
3218.000000	100.147053
3217.000000	100.149116
3216.000000	100.151361
3215.000000	100.153805
3214.000000	100.156354
3213.000000	100.158877
3212.000000	100.161357
3211.000000	100.163896
3210.000000	100.166560
3209.000000	100.169262
3208.000000	100.171822
3207.000000	100.174155
3206.000000	100.176412
3205.000000	100.178944
3204.000000	100.181995
3203.000000	100.185464
3202.000000	100.188835
3201.000000	100.191642
3200.000000	100.193828
3199.000000	100.195823
3198.000000	100.198166
3197.000000	100.200994
3196.000000	100.204076
3195.000000	100.207206
3194.000000	100.210449
3193.000000	100.213960
3192.000000	100.217714
3191.000000	100.221394
3190.000000	100.224578
3189.000000	100.227214
3188.000000	100.229964
3187.000000	100.233724
3186.000000	100.238690
3185.000000	100.244097
3184.000000	100.248982
3183.000000	100.253030
3182.000000	100.256555
3181.000000	100.260051
3180.000000	100.263994
3179.000000	100.268701
3178.000000	100.273980
3177.000000	100.279088
3176.000000	100.283368
3175.000000	100.286753
3174.000000	100.289505
3173.000000	100.291856
3172.000000	100.294248
3171.000000	100.297397
3170.000000	100.301446
3169.000000	100.305338
3168.000000	100.307761
3167.000000	100.308700
3166.000000	100.309556
3165.000000	100.311832
3164.000000	100.316265
3163.000000	100.323021
3162.000000	100.331679
3161.000000	100.340714
3160.000000	100.348109
3159.000000	100.353021
3158.000000	100.356466
3157.000000	100.360219
3156.000000	100.364924
3155.000000	100.369630
3154.000000	100.373024
3153.000000	100.374878
3152.000000	100.376483
3151.000000	100.379574
3150.000000	100.384484
3149.000000	100.389639
3148.000000	100.393164
3147.000000	100.394735
3146.000000	100.395485
3145.000000	100.396602
3144.000000	100.398575
3143.000000	100.401496
3142.000000	100.405145
3141.000000	100.408841
3140.000000	100.412092
3139.000000	100.415525
3138.000000	100.420262
3137.000000	100.426288
3136.000000	100.432238
3135.000000	100.437028
3134.000000	100.440836
3133.000000	100.444199
3132.000000	100.447099
3131.000000	100.449507
3130.000000	100.452084
3129.000000	100.455495
3128.000000	100.459377
3127.000000	100.462736
3126.000000	100.465238
3125.000000	100.467582
3124.000000	100.470608
3123.000000	100.474512
3122.000000	100.478968
3121.000000	100.483554
3120.000000	100.487956
3119.000000	100.492028
3118.000000	100.495807
3117.000000	100.499380
3116.000000	100.502747
3115.000000	100.505926
3114.000000	100.509123
3113.000000	100.512612
3112.000000	100.516398
3111.000000	100.520091
3110.000000	100.523262
3109.000000	100.525854
3108.000000	100.528218
3107.000000	100.530848
3106.000000	100.533962
3105.000000	100.537446
3104.000000	100.540992
3103.000000	100.544361
3102.000000	100.547552
3101.000000	100.550725
3100.000000	100.554008
3099.000000	100.557395
3098.000000	100.560789
3097.000000	100.564080
3096.000000	100.567182
3095.000000	100.570046
3094.000000	100.572705
3093.000000	100.575309
3092.000000	100.578072
3091.000000	100.581122
3090.000000	100.584431
3089.000000	100.587852
3088.000000	100.591209
3087.000000	100.594375
3086.000000	100.597294
3085.000000	100.599997
3084.000000	100.602612
3083.000000	100.605280
3082.000000	100.608027
3081.000000	100.610745
3080.000000	100.613331
3079.000000	100.615818
3078.000000	100.618382
3077.000000	100.621181
3076.000000	100.624257
3075.000000	100.627509
3074.000000	100.630759
3073.000000	100.633865
3072.000000	100.636803
3071.000000	100.639662
3070.000000	100.642498
3069.000000	100.645216
3068.000000	100.647675
3067.000000	100.649975
3066.000000	100.652554
3065.000000	100.655767
3064.000000	100.659469
3063.000000	100.663046
3062.000000	100.666055
3061.000000	100.668671
3060.000000	100.671450
3059.000000	100.674698
3058.000000	100.678173
3057.000000	100.681392
3056.000000	100.684182
3055.000000	100.686834
3054.000000	100.689757
3053.000000	100.693065
3052.000000	100.696525
3051.000000	100.699852
3050.000000	100.702937
3049.000000	100.705811
3048.000000	100.708564
3047.000000	100.711355
3046.000000	100.714352
3045.000000	100.717527
3044.000000	100.720587
3043.000000	100.723314
3042.000000	100.726015
3041.000000	100.729481
3040.000000	100.734335
3039.000000	100.740397
3038.000000	100.746702
3037.000000	100.752257
3036.000000	100.756760
3035.000000	100.760462
3034.000000	100.763458
3033.000000	100.765574
3032.000000	100.767008
3031.000000	100.768602
3030.000000	100.771077
3029.000000	100.774269
3028.000000	100.777520
3027.000000	100.780599
3026.000000	100.783777
3025.000000	100.787055
3024.000000	100.789862
3023.000000	100.791802
3022.000000	100.793392
3021.000000	100.795712
3020.000000	100.799416
3019.000000	100.804312
3018.000000	100.809585
3017.000000	100.814331
3016.000000	100.817977
3015.000000	100.820448
3014.000000	100.822156
3013.000000	100.823824
3012.000000	100.826197
3011.000000	100.829730
3010.000000	100.834282
3009.000000	100.839019
3008.000000	100.842985
3007.000000	100.845956
3006.000000	100.848590
3005.000000	100.851682
3004.000000	100.855489
3003.000000	100.859765
3002.000000	100.863961
3001.000000	100.867317
3000.000000	100.869347
2999.000000	100.870443
2998.000000	100.871435
2997.000000	100.872389
2996.000000	100.872655
2995.000000	100.872558
2994.000000	100.873971
2993.000000	100.878305
2992.000000	100.884727
2991.000000	100.891257
2990.000000	100.897071
2989.000000	100.902533
2988.000000	100.907370
2987.000000	100.910360
2986.000000	100.911043
2985.000000	100.910525
2984.000000	100.910249
2983.000000	100.910821
2982.000000	100.912416
2981.000000	100.915406
2980.000000	100.920015
2979.000000	100.925742
2978.000000	100.931364
2977.000000	100.935228
2976.000000	100.935981
2975.000000	100.934010
2974.000000	100.932014
2973.000000	100.932886
2972.000000	100.936685
2971.000000	100.940916
2970.000000	100.943880
2969.000000	100.946031
2968.000000	100.947492
2967.000000	100.946194
2966.000000	100.940420
2965.000000	100.932347
2964.000000	100.927072
2963.000000	100.927512
2962.000000	100.931600
2961.000000	100.934839
2960.000000	100.934836
2959.000000	100.932797
2958.000000	100.931146
2957.000000	100.930566
2956.000000	100.929481
2955.000000	100.925898
2954.000000	100.919499
2953.000000	100.912140
2952.000000	100.906650
2951.000000	100.905090
2950.000000	100.907614
2949.000000	100.912284
2948.000000	100.915977
2947.000000	100.916179
2946.000000	100.912511
2945.000000	100.906758
2944.000000	100.901542
2943.000000	100.898975
2942.000000	100.900075
2941.000000	100.904658
2940.000000	100.911532
2939.000000	100.919349
2938.000000	100.927583
2937.000000	100.936303
2936.000000	100.944824
2935.000000	100.951118
2934.000000	100.953027
2933.000000	100.949929
2932.000000	100.943397
2931.000000	100.936782
2930.000000	100.933850
2929.000000	100.936485
2928.000000	100.942843
2927.000000	100.948314
2926.000000	100.949377
2925.000000	100.946439
2924.000000	100.942559
2923.000000	100.940468
2922.000000	100.941823
2921.000000	100.947973
2920.000000	100.958970
2919.000000	100.971752
2918.000000	100.981725
2917.000000	100.987277
2916.000000	100.991404
2915.000000	100.997993
2914.000000	101.007514
2913.000000	101.017291
2912.000000	101.024908
2911.000000	101.029987
2910.000000	101.033263
2909.000000	101.035616
2908.000000	101.038210
2907.000000	101.042226
2906.000000	101.047854
2905.000000	101.054255
2904.000000	101.060795
2903.000000	101.067655
2902.000000	101.074690
2901.000000	101.080340
2900.000000	101.082597
2899.000000	101.080912
2898.000000	101.076922
2897.000000	101.073470
2896.000000	101.072999
2895.000000	101.076308
2894.000000	101.082179
2893.000000	101.088219
2892.000000	101.092616
2891.000000	101.095364
2890.000000	101.097608
2889.000000	101.100011
2888.000000	101.102347
2887.000000	101.104533
2886.000000	101.107187
2885.000000	101.110618
2884.000000	101.113730
2883.000000	101.114804
2882.000000	101.113480
2881.000000	101.111396
2880.000000	101.110635
2879.000000	101.111846
2878.000000	101.114161
2877.000000	101.116487
2876.000000	101.118430
2875.000000	101.120113
2874.000000	101.121762
2873.000000	101.123736
2872.000000	101.126454
2871.000000	101.129783
2870.000000	101.132864
2869.000000	101.135110
2868.000000	101.137259
2867.000000	101.140696
2866.000000	101.145513
2865.000000	101.149805
2864.000000	101.151476
2863.000000	101.150421
2862.000000	101.148593
2861.000000	101.148020
2860.000000	101.149126
2859.000000	101.150996
2858.000000	101.152450
2857.000000	101.152663
2856.000000	101.151498
2855.000000	101.150048
2854.000000	101.150576
2853.000000	101.154904
2852.000000	101.162668
2851.000000	101.171136
2850.000000	101.177238
2849.000000	101.179862
2848.000000	101.179998
2847.000000	101.179577
2846.000000	101.180179
2845.000000	101.182507
2844.000000	101.186540
2843.000000	101.191859
2842.000000	101.197962
2841.000000	101.204313
2840.000000	101.210201
2839.000000	101.214890
2838.000000	101.218206
2837.000000	101.220819
2836.000000	101.223652
2835.000000	101.226981
2834.000000	101.230407
2833.000000	101.233629
2832.000000	101.236800
2831.000000	101.240036
2830.000000	101.243038
2829.000000	101.245550
2828.000000	101.247921
2827.000000	101.250807
2826.000000	101.254363
2825.000000	101.257989
2824.000000	101.260935
2823.000000	101.263027
2822.000000	101.264823
2821.000000	101.267203
2820.000000	101.270702
2819.000000	101.275143
2818.000000	101.279765
2817.000000	101.283756
2816.000000	101.286836
2815.000000	101.289284
2814.000000	101.291599
2813.000000	101.294138
2812.000000	101.296964
2811.000000	101.299903
2810.000000	101.302671
2809.000000	101.305047
2808.000000	101.307047
2807.000000	101.309021
2806.000000	101.311473
2805.000000	101.314569
2804.000000	101.318060
2803.000000	101.321500
2802.000000	101.324575
2801.000000	101.327288
2800.000000	101.329813
2799.000000	101.332324
2798.000000	101.334884
2797.000000	101.337472
2796.000000	101.340080
2795.000000	101.342703
2794.000000	101.345280
2793.000000	101.347729
2792.000000	101.350053
2791.000000	101.352370
2790.000000	101.354805
2789.000000	101.357389
2788.000000	101.360071
2787.000000	101.362788
2786.000000	101.365501
2785.000000	101.368180
2784.000000	101.370797
2783.000000	101.373335
2782.000000	101.375816
2781.000000	101.378326
2780.000000	101.380983
2779.000000	101.383820
2778.000000	101.386732
2777.000000	101.389567
2776.000000	101.392281
2775.000000	101.394927
2774.000000	101.397502
2773.000000	101.399934
2772.000000	101.402224
2771.000000	101.404470
2770.000000	101.406755
2769.000000	101.409086
2768.000000	101.411473
2767.000000	101.414002
2766.000000	101.416721
2765.000000	101.419472
2764.000000	101.421982
2763.000000	101.424115
2762.000000	101.425985
2761.000000	101.427895
2760.000000	101.430057
2759.000000	101.432458
2758.000000	101.434879
2757.000000	101.437111
2756.000000	101.439127
2755.000000	101.441023
2754.000000	101.442862
2753.000000	101.444640
2752.000000	101.446417
2751.000000	101.448335
2750.000000	101.450436
2749.000000	101.452564
2748.000000	101.454540
2747.000000	101.456365
2746.000000	101.458149
2745.000000	101.459955
2744.000000	101.461796
2743.000000	101.463690
2742.000000	101.465542
2741.000000	101.467080
2740.000000	101.468120
2739.000000	101.468822
2738.000000	101.469615
2737.000000	101.470798
2736.000000	101.472359
2735.000000	101.474105
2734.000000	101.475876
2733.000000	101.477540
2732.000000	101.478999
2731.000000	101.480300
2730.000000	101.481592
2729.000000	101.482867
2728.000000	101.483913
2727.000000	101.484620
2726.000000	101.485140
2725.000000	101.485699
2724.000000	101.486506
2723.000000	101.487846
2722.000000	101.489879
2721.000000	101.492143
2720.000000	101.493732
2719.000000	101.494276
2718.000000	101.494358
2717.000000	101.494825
2716.000000	101.495902
2715.000000	101.497268
2714.000000	101.498556
2713.000000	101.499361
2712.000000	101.499211
2711.000000	101.498080
2710.000000	101.496820
2709.000000	101.496562
2708.000000	101.497625
2707.000000	101.499319
2706.000000	101.500795
2705.000000	101.501815
2704.000000	101.502635
2703.000000	101.503429
2702.000000	101.504016
2701.000000	101.504044
2700.000000	101.503348
2699.000000	101.502106
2698.000000	101.500628
2697.000000	101.499119
2696.000000	101.497946
2695.000000	101.498091
2694.000000	101.500588
2693.000000	101.505063
2692.000000	101.509263
2691.000000	101.510962
2690.000000	101.510266
2689.000000	101.509329
2688.000000	101.509649
2687.000000	101.510390
2686.000000	101.509961
2685.000000	101.508588
2684.000000	101.508278
2683.000000	101.510300
2682.000000	101.513826
2681.000000	101.517219
2680.000000	101.519880
2679.000000	101.522291
2678.000000	101.524864
2677.000000	101.527561
2676.000000	101.530254
2675.000000	101.532521
2674.000000	101.533246
2673.000000	101.531521
2672.000000	101.528207
2671.000000	101.525858
2670.000000	101.526378
2669.000000	101.529210
2668.000000	101.532258
2667.000000	101.534108
2666.000000	101.534785
2665.000000	101.534756
2664.000000	101.534050
2663.000000	101.532554
2662.000000	101.530570
2661.000000	101.528691
2660.000000	101.527383
2659.000000	101.526761
2658.000000	101.526570
2657.000000	101.526403
2656.000000	101.526016
2655.000000	101.525406
2654.000000	101.524564
2653.000000	101.523440
2652.000000	101.522318
2651.000000	101.521874
2650.000000	101.522486
2649.000000	101.523603
2648.000000	101.524164
2647.000000	101.523753
2646.000000	101.523071
2645.000000	101.523120
2644.000000	101.524127
2643.000000	101.525366
2642.000000	101.525922
2641.000000	101.525548
2640.000000	101.524740
2639.000000	101.524164
2638.000000	101.524084
2637.000000	101.524399
2636.000000	101.525028
2635.000000	101.525987
2634.000000	101.527090
2633.000000	101.527882
2632.000000	101.528033
2631.000000	101.527637
2630.000000	101.527072
2629.000000	101.526659
2628.000000	101.526548
2627.000000	101.526825
2626.000000	101.527446
2625.000000	101.528102
2624.000000	101.528369
2623.000000	101.528102
2622.000000	101.527624
2621.000000	101.527490
2620.000000	101.528009
2619.000000	101.528990
2618.000000	101.529821
2617.000000	101.529899
2616.000000	101.529157
2615.000000	101.528306
2614.000000	101.528314
2613.000000	101.529569
2612.000000	101.531691
2611.000000	101.533994
2610.000000	101.536020
2609.000000	101.537556
2608.000000	101.538554
2607.000000	101.539292
2606.000000	101.540272
2605.000000	101.541622
2604.000000	101.542834
2603.000000	101.543447
2602.000000	101.543715
2601.000000	101.544232
2600.000000	101.545063
2599.000000	101.545650
2598.000000	101.545550
2597.000000	101.544944
2596.000000	101.544439
2595.000000	101.544556
2594.000000	101.545290
2593.000000	101.545965
2592.000000	101.545769
2591.000000	101.544723
2590.000000	101.543946
2589.000000	101.544583
2588.000000	101.546588
2587.000000	101.548885
2586.000000	101.550564
2585.000000	101.551525
2584.000000	101.552062
2583.000000	101.552387
2582.000000	101.552684
2581.000000	101.553208
2580.000000	101.553986
2579.000000	101.554641
2578.000000	101.554800
2577.000000	101.554638
2576.000000	101.554836
2575.000000	101.555962
2574.000000	101.557921
2573.000000	101.560045
2572.000000	101.561799
2571.000000	101.563268
2570.000000	101.564865
2569.000000	101.566686
2568.000000	101.568288
2567.000000	101.569164
2566.000000	101.569200
2565.000000	101.568593
2564.000000	101.567605
2563.000000	101.566618
2562.000000	101.566194
2561.000000	101.566738
2560.000000	101.568068
2559.000000	101.569438
2558.000000	101.570173
2557.000000	101.570287
2556.000000	101.570466
2555.000000	101.571415
2554.000000	101.573213
2553.000000	101.575236
2552.000000	101.576736
2551.000000	101.577553
2550.000000	101.578166
2549.000000	101.579104
2548.000000	101.580350
2547.000000	101.581416
2546.000000	101.581876
2545.000000	101.581744
2544.000000	101.581478
2543.000000	101.581749
2542.000000	101.583049
2541.000000	101.585390
2540.000000	101.588244
2539.000000	101.590847
2538.000000	101.592705
2537.000000	101.593791
2536.000000	101.594402
2535.000000	101.594934
2534.000000	101.595673
2533.000000	101.596722
2532.000000	101.598091
2531.000000	101.599820
2530.000000	101.601948
2529.000000	101.604304
2528.000000	101.606441
2527.000000	101.607928
2526.000000	101.608684
2525.000000	101.608961
2524.000000	101.609082
2523.000000	101.609281
2522.000000	101.609713
2521.000000	101.610497
2520.000000	101.611732
2519.000000	101.613579
2518.000000	101.616186
2517.000000	101.619362
2516.000000	101.622423
2515.000000	101.624630
2514.000000	101.625838
2513.000000	101.626581
2512.000000	101.627532
2511.000000	101.628961
2510.000000	101.630768
2509.000000	101.632758
2508.000000	101.634718
2507.000000	101.636409
2506.000000	101.637704
2505.000000	101.638708
2504.000000	101.639638
2503.000000	101.640622
2502.000000	101.641723
2501.000000	101.643069
2500.000000	101.644830
2499.000000	101.647020
2498.000000	101.649412
2497.000000	101.651663
2496.000000	101.653551
2495.000000	101.655141
2494.000000	101.656769
2493.000000	101.658745
2492.000000	101.661038
2491.000000	101.663290
2490.000000	101.665147
2489.000000	101.666523
2488.000000	101.667543
2487.000000	101.668419
2486.000000	101.669440
2485.000000	101.670935
2484.000000	101.673035
2483.000000	101.675486
2482.000000	101.677857
2481.000000	101.679983
2480.000000	101.682074
2479.000000	101.684356
2478.000000	101.686732
2477.000000	101.688859
2476.000000	101.690489
2475.000000	101.691669
2474.000000	101.692684
2473.000000	101.693910
2472.000000	101.695662
2471.000000	101.698064
2470.000000	101.700956
2469.000000	101.703940
2468.000000	101.706640
2467.000000	101.708908
2466.000000	101.710736
2465.000000	101.712113
2464.000000	101.713118
2463.000000	101.714080
2462.000000	101.715391
2461.000000	101.717109
2460.000000	101.718920
2459.000000	101.720491
2458.000000	101.721790
2457.000000	101.723021
2456.000000	101.724415
2455.000000	101.726145
2454.000000	101.728305
2453.000000	101.730792
2452.000000	101.733217
2451.000000	101.735151
2450.000000	101.736488
2449.000000	101.737504
2448.000000	101.738574
2447.000000	101.739820
2446.000000	101.741124
2445.000000	101.742392
2444.000000	101.743730
2443.000000	101.745326
2442.000000	101.747217
2441.000000	101.749194
2440.000000	101.750983
2439.000000	101.752555
2438.000000	101.754177
2437.000000	101.756070
2436.000000	101.758006
2435.000000	101.759463
2434.000000	101.760227
2433.000000	101.760611
2432.000000	101.761197
2431.000000	101.762255
2430.000000	101.763644
2429.000000	101.765067
2428.000000	101.766366
2427.000000	101.767585
2426.000000	101.768779
2425.000000	101.769869
2424.000000	101.770736
2423.000000	101.771389
2422.000000	101.771999
2421.000000	101.772757
2420.000000	101.773712
2419.000000	101.774761
2418.000000	101.775783
2417.000000	101.776736
2416.000000	101.777625
2415.000000	101.778420
2414.000000	101.779043
2413.000000	101.779454
2412.000000	101.779731
2411.000000	101.780064
2410.000000	101.780639
2409.000000	101.781509
2408.000000	101.782547
2407.000000	101.783510
2406.000000	101.784233
2405.000000	101.784735
2404.000000	101.785215
2403.000000	101.785904
2402.000000	101.786892
2401.000000	101.788031
2400.000000	101.788937
2399.000000	101.789268
2398.000000	101.789029
2397.000000	101.788478
2396.000000	101.787953
2395.000000	101.787653
2394.000000	101.787627
2393.000000	101.787821
2392.000000	101.788090
2391.000000	101.788307
2390.000000	101.788470
2389.000000	101.788638
2388.000000	101.788754
2387.000000	101.788681
2386.000000	101.788401
2385.000000	101.788080
2384.000000	101.787912
2383.000000	101.787978
2382.000000	101.788262
2381.000000	101.788708
2380.000000	101.789159
2379.000000	101.789323
2378.000000	101.788999
2377.000000	101.788365
2376.000000	101.787852
2375.000000	101.787662
2374.000000	101.787516
2373.000000	101.787048
2372.000000	101.786360
2371.000000	101.785997
2370.000000	101.786352
2369.000000	101.787270
2368.000000	101.788192
2367.000000	101.788587
2366.000000	101.788164
2365.000000	101.786877
2364.000000	101.784997
2363.000000	101.783147
2362.000000	101.781857
2361.000000	101.780957
2360.000000	101.779709
2359.000000	101.777892
2358.000000	101.776478
2357.000000	101.776554
2356.000000	101.777982
2355.000000	101.779376
2354.000000	101.779542
2353.000000	101.778552
2352.000000	101.777322
2351.000000	101.776575
2350.000000	101.776297
2349.000000	101.776065
2348.000000	101.775576
2347.000000	101.774928
2346.000000	101.774521
2345.000000	101.774682
2344.000000	101.775308
2343.000000	101.775921
2342.000000	101.776199
2341.000000	101.776062
2340.000000	101.775172
2339.000000	101.772932
2338.000000	101.769470
2337.000000	101.766098
2336.000000	101.764067
2335.000000	101.763157
2334.000000	101.762176
2333.000000	101.760663
2332.000000	101.759467
2331.000000	101.759477
2330.000000	101.760427
2329.000000	101.761182
2328.000000	101.760742
2327.000000	101.758788
2326.000000	101.755585
2325.000000	101.751878
2324.000000	101.748613
2323.000000	101.746413
2322.000000	101.745347
2321.000000	101.745077
2320.000000	101.745031
2319.000000	101.744487
2318.000000	101.742970
2317.000000	101.740790
2316.000000	101.738932
2315.000000	101.738189
2314.000000	101.738488
2313.000000	101.739103
2312.000000	101.739398
2311.000000	101.739160
2310.000000	101.738445
2309.000000	101.737416
2308.000000	101.736150
2307.000000	101.734535
2306.000000	101.732372
2305.000000	101.729726
2304.000000	101.727028
2303.000000	101.724701
2302.000000	101.722776
2301.000000	101.721000
2300.000000	101.719150
2299.000000	101.717215
2298.000000	101.715362
2297.000000	101.713825
2296.000000	101.712696
2295.000000	101.711754
2294.000000	101.710572
2293.000000	101.708894
2292.000000	101.706833
2291.000000	101.704677
2290.000000	101.702645
2289.000000	101.700874
2288.000000	101.699425
2287.000000	101.698146
2286.000000	101.696690
2285.000000	101.694834
2284.000000	101.692759
2283.000000	101.690909
2282.000000	101.689540
2281.000000	101.688509
2280.000000	101.687395
2279.000000	101.685854
2278.000000	101.683837
2277.000000	101.681568
2276.000000	101.679385
2275.000000	101.677485
2274.000000	101.675817
2273.000000	101.674152
2272.000000	101.672242
2271.000000	101.669969
2270.000000	101.667414
2269.000000	101.664842
2268.000000	101.662530
2267.000000	101.660562
2266.000000	101.658840
2265.000000	101.657226
2264.000000	101.655634
2263.000000	101.653966
2262.000000	101.652062
2261.000000	101.649844
2260.000000	101.647513
2259.000000	101.645451
2258.000000	101.643854
2257.000000	101.642578
2256.000000	101.641273
2255.000000	101.639663
2254.000000	101.637670
2253.000000	101.635470
2252.000000	101.633471
2251.000000	101.632048
2250.000000	101.631222
2249.000000	101.630648
2248.000000	101.629956
2247.000000	101.629014
2246.000000	101.627823
2245.000000	101.626389
2244.000000	101.624760
2243.000000	101.623046
2242.000000	101.621326
2241.000000	101.619631
2240.000000	101.618015
2239.000000	101.616475
2238.000000	101.614868
2237.000000	101.613258
2236.000000	101.612256
2235.000000	101.612412
2234.000000	101.613232
2233.000000	101.613401
2232.000000	101.612342
2231.000000	101.611039
2230.000000	101.610784
2229.000000	101.611525
2228.000000	101.612060
2227.000000	101.611697
2226.000000	101.610940
2225.000000	101.610429
2224.000000	101.609951
2223.000000	101.608962
2222.000000	101.607692
2221.000000	101.607072
2220.000000	101.607509
2219.000000	101.608147
2218.000000	101.607723
2217.000000	101.606118
2216.000000	101.604737
2215.000000	101.605032
2214.000000	101.606898
2213.000000	101.608775
2212.000000	101.609320
2211.000000	101.608768
2210.000000	101.608406
2209.000000	101.609097
2208.000000	101.610668
2207.000000	101.612468
2206.000000	101.614133
2205.000000	101.615698
2204.000000	101.617270
2203.000000	101.618791
2202.000000	101.620098
2201.000000	101.621112
2200.000000	101.621888
2199.000000	101.622485
2198.000000	101.622905
2197.000000	101.623285
2196.000000	101.623950
2195.000000	101.625001
2194.000000	101.625927
2193.000000	101.626032
2192.000000	101.625265
2191.000000	101.624426
2190.000000	101.624416
2189.000000	101.625360
2188.000000	101.626643
2187.000000	101.627654
2186.000000	101.628252
2185.000000	101.628547
2184.000000	101.628633
2183.000000	101.628730
2182.000000	101.629279
2181.000000	101.630628
2180.000000	101.632628
2179.000000	101.634639
2178.000000	101.636009
2177.000000	101.636544
2176.000000	101.636613
2175.000000	101.636876
2174.000000	101.637779
2173.000000	101.639269
2172.000000	101.640893
2171.000000	101.642136
2170.000000	101.642720
2169.000000	101.642756
2168.000000	101.642716
2167.000000	101.643080
2166.000000	101.643883
2165.000000	101.644686
2164.000000	101.645138
2163.000000	101.645484
2162.000000	101.646323
2161.000000	101.647884
2160.000000	101.649813
2159.000000	101.651673
2158.000000	101.653320
2157.000000	101.654697
2156.000000	101.655467
2155.000000	101.655122
2154.000000	101.653492
2153.000000	101.651119
2152.000000	101.649156
2151.000000	101.648703
2150.000000	101.650156
2149.000000	101.653075
2148.000000	101.656603
2147.000000	101.660008
2146.000000	101.662873
2145.000000	101.665084
2144.000000	101.666803
2143.000000	101.668241
2142.000000	101.669291
2141.000000	101.669623
2140.000000	101.669320
2139.000000	101.669157
2138.000000	101.669876
2137.000000	101.671373
2136.000000	101.673029
2135.000000	101.674724
2134.000000	101.676935
2133.000000	101.679799
2132.000000	101.682686
2131.000000	101.684898
2130.000000	101.686420
2129.000000	101.687759
2128.000000	101.689330
2127.000000	101.691156
2126.000000	101.693028
2125.000000	101.694768
2124.000000	101.696426
2123.000000	101.698278
2122.000000	101.700528
2121.000000	101.703032
2120.000000	101.705356
2119.000000	101.707257
2118.000000	101.708900
2117.000000	101.710601
2116.000000	101.712530
2115.000000	101.714648
2114.000000	101.716844
2113.000000	101.719022
2112.000000	101.721138
2111.000000	101.723216
2110.000000	101.725305
2109.000000	101.727436
2108.000000	101.729602
2107.000000	101.731775
2106.000000	101.733927
2105.000000	101.736033
2104.000000	101.738038
2103.000000	101.739874
2102.000000	101.741571
2101.000000	101.743320
2100.000000	101.745324
2099.000000	101.747615
2098.000000	101.750062
2097.000000	101.752515
2096.000000	101.754820
2095.000000	101.756722
2094.000000	101.757998
2093.000000	101.758749
2092.000000	101.759419
2091.000000	101.760396
2090.000000	101.761736
2089.000000	101.763297
2088.000000	101.764959
2087.000000	101.766648
2086.000000	101.768356
2085.000000	101.770252
2084.000000	101.772528
2083.000000	101.774917
2082.000000	101.776574
2081.000000	101.776738
2080.000000	101.775609
2079.000000	101.774599
2078.000000	101.775470
2077.000000	101.779002
2076.000000	101.784088
2075.000000	101.788182
2074.000000	101.789479
2073.000000	101.788394
2072.000000	101.786991
2071.000000	101.786807
2070.000000	101.787725
2069.000000	101.788995
2068.000000	101.790285
2067.000000	101.791328
2066.000000	101.791403
2065.000000	101.790058
2064.000000	101.788016
2063.000000	101.786648
2062.000000	101.786717
2061.000000	101.788038
2060.000000	101.789940
2059.000000	101.791453
2058.000000	101.791450
2057.000000	101.789495
2056.000000	101.786694
2055.000000	101.785110
2054.000000	101.786013
2053.000000	101.788800
2052.000000	101.791412
2051.000000	101.791747
2050.000000	101.789064
2049.000000	101.784613
2048.000000	101.780800
2047.000000	101.779000
2046.000000	101.778338
2045.000000	101.777057
2044.000000	101.774725
2043.000000	101.772356
2042.000000	101.770545
2041.000000	101.768454
2040.000000	101.764984
2039.000000	101.760159
2038.000000	101.754995
2037.000000	101.750613
2036.000000	101.747868
2035.000000	101.747260
2034.000000	101.748520
2033.000000	101.750524
2032.000000	101.751964
2031.000000	101.751962
2030.000000	101.750109
2029.000000	101.746351
2028.000000	101.741256
2027.000000	101.736017
2026.000000	101.731604
2025.000000	101.728080
2024.000000	101.725048
2023.000000	101.722515
2022.000000	101.720893
2021.000000	101.720202
2020.000000	101.719713
2019.000000	101.718545
2018.000000	101.716443
2017.000000	101.713834
2016.000000	101.711206
2015.000000	101.708521
2014.000000	101.705341
2013.000000	101.701499
2012.000000	101.697587
2011.000000	101.694585
2010.000000	101.692857
2009.000000	101.691728
2008.000000	101.690107
2007.000000	101.687518
2006.000000	101.684494
2005.000000	101.682039
2004.000000	101.680763
2003.000000	101.680476
2002.000000	101.680432
2001.000000	101.679878
2000.000000	101.678480
1999.000000	101.676422
1998.000000	101.674202
1997.000000	101.672314
1996.000000	101.670955
1995.000000	101.669891
1994.000000	101.668593
1993.000000	101.666717
1992.000000	101.664653
1991.000000	101.663317
1990.000000	101.663151
1989.000000	101.663570
1988.000000	101.663546
1987.000000	101.662579
1986.000000	101.660902
1985.000000	101.658981
1984.000000	101.657275
1983.000000	101.656387
1982.000000	101.656826
1981.000000	101.658340
1980.000000	101.659781
1979.000000	101.660105
1978.000000	101.659281
1977.000000	101.657943
1976.000000	101.656462
1975.000000	101.654868
1974.000000	101.653476
1973.000000	101.652803
1972.000000	101.652731
1971.000000	101.652374
1970.000000	101.651243
1969.000000	101.650161
1968.000000	101.650450
1967.000000	101.652371
1966.000000	101.654855
1965.000000	101.656837
1964.000000	101.658234
1963.000000	101.659314
1962.000000	101.659792
1961.000000	101.659111
1960.000000	101.657368
1959.000000	101.655346
1958.000000	101.653678
1957.000000	101.652486
1956.000000	101.651817
1955.000000	101.651809
1954.000000	101.652262
1953.000000	101.652720
1952.000000	101.653253
1951.000000	101.654410
1950.000000	101.655927
1949.000000	101.656210
1948.000000	101.653875
1947.000000	101.649594
1946.000000	101.645745
1945.000000	101.644136
1944.000000	101.644816
1943.000000	101.646894
1942.000000	101.649428
1941.000000	101.651118
1940.000000	101.650149
1939.000000	101.645519
1938.000000	101.638449
1937.000000	101.631948
1936.000000	101.628565
1935.000000	101.628675
1934.000000	101.630716
1933.000000	101.632512
1932.000000	101.632627
1931.000000	101.630975
1930.000000	101.628616
1929.000000	101.626642
1928.000000	101.624828
1927.000000	101.622079
1926.000000	101.618177
1925.000000	101.614628
1924.000000	101.612945
1923.000000	101.612352
1922.000000	101.610600
1921.000000	101.606798
1920.000000	101.601989
1919.000000	101.597079
1918.000000	101.591519
1917.000000	101.584963
1916.000000	101.578420
1915.000000	101.572833
1914.000000	101.567962
1913.000000	101.563083
1912.000000	101.558259
1911.000000	101.554164
1910.000000	101.550585
1909.000000	101.545911
1908.000000	101.538755
1907.000000	101.529774
1906.000000	101.520823
1905.000000	101.512948
1904.000000	101.505639
1903.000000	101.498228
1902.000000	101.491652
1901.000000	101.487616
1900.000000	101.486097
1899.000000	101.485016
1898.000000	101.482163
1897.000000	101.476763
1896.000000	101.469042
1895.000000	101.459336
1894.000000	101.448612
1893.000000	101.439000
1892.000000	101.432747
1891.000000	101.430616
1890.000000	101.430831
1889.000000	101.429747
1888.000000	101.424965
1887.000000	101.418042
1886.000000	101.413357
1885.000000	101.413555
1884.000000	101.416090
1883.000000	101.415601
1882.000000	101.410211
1881.000000	101.403527
1880.000000	101.400052
1879.000000	101.400837
1878.000000	101.403934
1877.000000	101.406989
1876.000000	101.408309
1875.000000	101.406815
1874.000000	101.403205
1873.000000	101.400811
1872.000000	101.403156
1871.000000	101.410403
1870.000000	101.418515
1869.000000	101.422750
1868.000000	101.422870
1867.000000	101.422717
1866.000000	101.425201
1865.000000	101.430080
1864.000000	101.435201
1863.000000	101.439190
1862.000000	101.443566
1861.000000	101.451505
1860.000000	101.463620
1859.000000	101.476044
1858.000000	101.484127
1857.000000	101.487513
1856.000000	101.490100
1855.000000	101.495480
1854.000000	101.504132
1853.000000	101.514866
1852.000000	101.526701
1851.000000	101.539346
1850.000000	101.552204
1849.000000	101.564075
1848.000000	101.574508
1847.000000	101.584325
1846.000000	101.593941
1845.000000	101.601027
1844.000000	101.602831
1843.000000	101.601430
1842.000000	101.600673
1841.000000	101.600744
1840.000000	101.600213
1839.000000	101.599989
1838.000000	101.603216
1837.000000	101.611475
1836.000000	101.621611
1835.000000	101.628435
1834.000000	101.630423
1833.000000	101.630561
1832.000000	101.632070
1831.000000	101.635005
1830.000000	101.637224
1829.000000	101.638483
1828.000000	101.640196
1827.000000	101.641639
1826.000000	101.640035
1825.000000	101.634216
1824.000000	101.627210
1823.000000	101.622579
1822.000000	101.620231
1821.000000	101.618551
1820.000000	101.617869
1819.000000	101.619688
1818.000000	101.623465
1817.000000	101.626579
1816.000000	101.627305
1815.000000	101.626426
1814.000000	101.626068
1813.000000	101.627742
1812.000000	101.631420
1811.000000	101.635112
1810.000000	101.636120
1809.000000	101.633936
1808.000000	101.630838
1807.000000	101.629328
1806.000000	101.629992
1805.000000	101.631711
1804.000000	101.632976
1803.000000	101.633018
1802.000000	101.632709
1801.000000	101.634148
1800.000000	101.638639
1799.000000	101.644657
1798.000000	101.649217
1797.000000	101.651356
1796.000000	101.652803
1795.000000	101.655419
1794.000000	101.658823
1793.000000	101.660454
1792.000000	101.659201
1791.000000	101.657714
1790.000000	101.658872
1789.000000	101.662995
1788.000000	101.668838
1787.000000	101.674445
1786.000000	101.677779
1785.000000	101.678690
1784.000000	101.680135
1783.000000	101.685458
1782.000000	101.694879
1781.000000	101.704681
1780.000000	101.710857
1779.000000	101.713082
1778.000000	101.713579
1777.000000	101.713785
1776.000000	101.713977
1775.000000	101.715376
1774.000000	101.719827
1773.000000	101.726019
1772.000000	101.730247
1771.000000	101.732468
1770.000000	101.735276
1769.000000	101.739712
1768.000000	101.744952
1767.000000	101.749533
1766.000000	101.752620
1765.000000	101.754270
1764.000000	101.755782
1763.000000	101.758709
1762.000000	101.762608
1761.000000	101.765425
1760.000000	101.766805
1759.000000	101.768858
1758.000000	101.773917
1757.000000	101.781277
1756.000000	101.787721
1755.000000	101.791931
1754.000000	101.794831
1753.000000	101.796782
1752.000000	101.795813
1751.000000	101.790048
1750.000000	101.781648
1749.000000	101.774930
1748.000000	101.772089
1747.000000	101.773283
1746.000000	101.777541
1745.000000	101.782541
1744.000000	101.786292
1743.000000	101.788350
1742.000000	101.788551
1741.000000	101.785654
1740.000000	101.779361
1739.000000	101.773097
1738.000000	101.770545
1737.000000	101.770794
1736.000000	101.771605
1735.000000	101.768446
1734.000000	101.755671
1733.000000	101.740336
1732.000000	101.731979
1731.000000	101.729332
1730.000000	101.728302
1729.000000	101.726470
1728.000000	101.723010
1727.000000	101.718921
1726.000000	101.715417
1725.000000	101.712135
1724.000000	101.708442
1723.000000	101.704603
1722.000000	101.700924
1721.000000	101.697363
1720.000000	101.694757
1719.000000	101.693827
1718.000000	101.691196
1717.000000	101.684259
1716.000000	101.677486
1715.000000	101.674778
1714.000000	101.674062
1713.000000	101.671024
1712.000000	101.663278
1711.000000	101.651908
1710.000000	101.640578
1709.000000	101.632661
1708.000000	101.628102
1707.000000	101.623053
1706.000000	101.612350
1705.000000	101.595007
1704.000000	101.576133
1703.000000	101.560951
1702.000000	101.552306
1701.000000	101.542919
1700.000000	101.521621
1699.000000	101.495817
1698.000000	101.475496
1697.000000	101.460957
1696.000000	101.447897
1695.000000	101.433364
1694.000000	101.420464
1693.000000	101.410588
1692.000000	101.402114
1691.000000	101.393183
1690.000000	101.381611
1689.000000	101.366165
1688.000000	101.347791
1687.000000	101.329493
1686.000000	101.314275
1685.000000	101.298358
1684.000000	101.275057
1683.000000	101.250538
1682.000000	101.232482
1681.000000	101.220108
1680.000000	101.211231
1679.000000	101.204221
1678.000000	101.197131
1677.000000	101.187769
1676.000000	101.173644
1675.000000	101.154915
1674.000000	101.136591
1673.000000	101.121441
1672.000000	101.107968
1671.000000	101.094353
1670.000000	101.079363
1669.000000	101.063025
1668.000000	101.047065
1667.000000	101.033141
1666.000000	101.021514
1665.000000	101.011227
1664.000000	101.000333
1663.000000	100.987071
1662.000000	100.973192
1661.000000	100.962354
1660.000000	100.955485
1659.000000	100.951460
1658.000000	100.948196
1657.000000	100.943409
1656.000000	100.936562
1655.000000	100.930597
1654.000000	100.921335
1653.000000	100.896197
1652.000000	100.868551
1651.000000	100.855374
1650.000000	100.851388
1649.000000	100.849775
1648.000000	100.847873
1647.000000	100.842400
1646.000000	100.832917
1645.000000	100.823826
1644.000000	100.817392
1643.000000	100.812091
1642.000000	100.806643
1641.000000	100.800435
1640.000000	100.792994
1639.000000	100.785245
1638.000000	100.779602
1637.000000	100.776850
1636.000000	100.771563
1635.000000	100.760810
1634.000000	100.751538
1633.000000	100.748333
1632.000000	100.749571
1631.000000	100.752915
1630.000000	100.756680
1629.000000	100.758977
1628.000000	100.757819
1627.000000	100.752920
1626.000000	100.746856
1625.000000	100.743198
1624.000000	100.743464
1623.000000	100.745847
1622.000000	100.747723
1621.000000	100.747567
1620.000000	100.745562
1619.000000	100.744906
1618.000000	100.749119
1617.000000	100.755376
1616.000000	100.757706
1615.000000	100.756467
1614.000000	100.755171
1613.000000	100.756074
1612.000000	100.761159
1611.000000	100.771821
1610.000000	100.787386
1609.000000	100.804053
1608.000000	100.817472
1607.000000	100.826761
1606.000000	100.834649
1605.000000	100.842187
1604.000000	100.847361
1603.000000	100.849887
1602.000000	100.853337
1601.000000	100.860950
1600.000000	100.871747
1599.000000	100.882192
1598.000000	100.889522
1597.000000	100.892847
1596.000000	100.893478
1595.000000	100.895474
1594.000000	100.903771
1593.000000	100.919666
1592.000000	100.939175
1591.000000	100.956857
1590.000000	100.970570
1589.000000	100.981778
1588.000000	100.992502
1587.000000	101.003582
1586.000000	101.015304
1585.000000	101.027707
1584.000000	101.039869
1583.000000	101.051137
1582.000000	101.062001
1581.000000	101.072246
1580.000000	101.080034
1579.000000	101.084895
1578.000000	101.090456
1577.000000	101.101270
1576.000000	101.116795
1575.000000	101.132955
1574.000000	101.147378
1573.000000	101.160254
1572.000000	101.173642
1571.000000	101.188259
1570.000000	101.200475
1569.000000	101.207174
1568.000000	101.210722
1567.000000	101.215795
1566.000000	101.224445
1565.000000	101.235120
1564.000000	101.243826
1563.000000	101.248619
1562.000000	101.252087
1561.000000	101.261222
1560.000000	101.276560
1559.000000	101.285920
1558.000000	101.288527
1557.000000	101.295370
1556.000000	101.307530
1555.000000	101.321987
1554.000000	101.335852
1553.000000	101.346171
1552.000000	101.353414
1551.000000	101.360709
1550.000000	101.369546
1549.000000	101.377791
1548.000000	101.382748
1547.000000	101.384685
1546.000000	101.386295
1545.000000	101.389392
1544.000000	101.393274
1543.000000	101.396603
1542.000000	101.399546
1541.000000	101.403285
1540.000000	101.406772
1539.000000	101.409241
1538.000000	101.412404
1537.000000	101.415728
1536.000000	101.418034
1535.000000	101.420066
1534.000000	101.421409
1533.000000	101.420705
1532.000000	101.419420
1531.000000	101.419850
1530.000000	101.422768
1529.000000	101.428221
1528.000000	101.435794
1527.000000	101.444335
1526.000000	101.452018
1525.000000	101.457256
1524.000000	101.460058
1523.000000	101.462435
1522.000000	101.466173
1521.000000	101.470826
1520.000000	101.475126
1519.000000	101.478258
1518.000000	101.480476
1517.000000	101.483021
1516.000000	101.486870
1515.000000	101.492086
1514.000000	101.498486
1513.000000	101.506038
1512.000000	101.513900
1511.000000	101.519718
1510.000000	101.521401
1509.000000	101.519428
1508.000000	101.517194
1507.000000	101.517921
1506.000000	101.522073
1505.000000	101.529220
1504.000000	101.537980
1503.000000	101.546861
1502.000000	101.555338
1501.000000	101.562650
1500.000000	101.567457
1499.000000	101.569278
1498.000000	101.568956
1497.000000	101.567782
1496.000000	101.567851
1495.000000	101.571325
1494.000000	101.578386
1493.000000	101.587626
1492.000000	101.597386
1491.000000	101.605046
1490.000000	101.608022
1489.000000	101.607666
1488.000000	101.608638
1487.000000	101.612774
1486.000000	101.617619
1485.000000	101.620428
1484.000000	101.620754
1483.000000	101.620527
1482.000000	101.621692
1481.000000	101.624528
1480.000000	101.628643
1479.000000	101.634279
1478.000000	101.641393
1477.000000	101.647976
1476.000000	101.651679
1475.000000	101.652860
1474.000000	101.653499
1473.000000	101.651620
1472.000000	101.643330
1471.000000	101.631008
1470.000000	101.620905
1469.000000	101.616151
1468.000000	101.616237
1467.000000	101.618567
1466.000000	101.620028
1465.000000	101.618604
1464.000000	101.615340
1463.000000	101.613330
1462.000000	101.613228
1461.000000	101.612931
1460.000000	101.610692
1459.000000	101.607947
1458.000000	101.607395
1457.000000	101.607101
1456.000000	101.604167
1455.000000	101.599900
1454.000000	101.595695
1453.000000	101.591894
1452.000000	101.588987
1451.000000	101.586873
1450.000000	101.584580
1449.000000	101.580683
1448.000000	101.574874
1447.000000	101.569428
1446.000000	101.567883
1445.000000	101.570584
1444.000000	101.574111
1443.000000	101.574816
1442.000000	101.571425
1441.000000	101.564989
1440.000000	101.557164
1439.000000	101.549944
1438.000000	101.545588
1437.000000	101.545192
1436.000000	101.548223
1435.000000	101.552490
1434.000000	101.553981
1433.000000	101.549959
1432.000000	101.541256
1431.000000	101.531912
1430.000000	101.526620
1429.000000	101.527054
1428.000000	101.531163
1427.000000	101.535572
1426.000000	101.538300
1425.000000	101.538452
1424.000000	101.536202
1423.000000	101.534068
1422.000000	101.534754
1421.000000	101.538672
1420.000000	101.542659
1419.000000	101.543007
1418.000000	101.541888
1417.000000	101.543656
1416.000000	101.548479
1415.000000	101.554559
1414.000000	101.560791
1413.000000	101.566605
1412.000000	101.571766
1411.000000	101.577011
1410.000000	101.583886
1409.000000	101.593276
1408.000000	101.604177
1407.000000	101.613847
1406.000000	101.620044
1405.000000	101.622765
1404.000000	101.624450
1403.000000	101.628525
1402.000000	101.636565
1401.000000	101.647088
1400.000000	101.656233
1399.000000	101.661168
1398.000000	101.663767
1397.000000	101.668141
1396.000000	101.675340
1395.000000	101.682668
1394.000000	101.687824
1393.000000	101.691469
1392.000000	101.695177
1391.000000	101.699614
1390.000000	101.704960
1389.000000	101.710731
1388.000000	101.714792
1387.000000	101.714952
1386.000000	101.712618
1385.000000	101.712161
1384.000000	101.716197
1383.000000	101.723407
1382.000000	101.729989
1381.000000	101.733113
1380.000000	101.733094
1379.000000	101.732666
1378.000000	101.734581
1377.000000	101.739380
1376.000000	101.745196
1375.000000	101.749503
1374.000000	101.751661
1373.000000	101.753366
1372.000000	101.756176
1371.000000	101.759623
1370.000000	101.762445
1369.000000	101.764258
1368.000000	101.765553
1367.000000	101.766670
1366.000000	101.767437
1365.000000	101.767925
1364.000000	101.768885
1363.000000	101.771195
1362.000000	101.775019
1361.000000	101.779502
1360.000000	101.783059
1359.000000	101.784191
1358.000000	101.782819
1357.000000	101.780910
1356.000000	101.781092
1355.000000	101.784258
1354.000000	101.788864
1353.000000	101.792650
1352.000000	101.794466
1351.000000	101.794095
1350.000000	101.791570
1349.000000	101.787131
1348.000000	101.781862
1347.000000	101.778146
1346.000000	101.778710
1345.000000	101.784358
1344.000000	101.792414
1343.000000	101.798340
1342.000000	101.799327
1341.000000	101.795980
1340.000000	101.791005
1339.000000	101.786960
1338.000000	101.785440
1337.000000	101.786960
1336.000000	101.790233
1335.000000	101.792305
1334.000000	101.790792
1333.000000	101.786023
1332.000000	101.780606
1331.000000	101.777582
1330.000000	101.779248
1329.000000	101.786279
1328.000000	101.796370
1327.000000	101.804445
1326.000000	101.806319
1325.000000	101.802123
1324.000000	101.795338
1323.000000	101.789090
1322.000000	101.784396
1321.000000	101.781568
1320.000000	101.781282
1319.000000	101.783460
1318.000000	101.786342
1317.000000	101.787743
1316.000000	101.786852
1315.000000	101.784718
1314.000000	101.783692
1313.000000	101.786001
1312.000000	101.791396
1311.000000	101.796171
1310.000000	101.796160
1309.000000	101.791172
1308.000000	101.785501
1307.000000	101.783572
1306.000000	101.786061
1305.000000	101.790648
1304.000000	101.794807
1303.000000	101.796751
1302.000000	101.795410
1301.000000	101.791392
1300.000000	101.787061
1299.000000	101.784068
1298.000000	101.781304
1297.000000	101.776904
1296.000000	101.771494
1295.000000	101.767464
1294.000000	101.765410
1293.000000	101.763461
1292.000000	101.760035
1291.000000	101.755044
1290.000000	101.748190
1289.000000	101.738487
1288.000000	101.726508
1287.000000	101.715255
1286.000000	101.707474
1285.000000	101.703444
1284.000000	101.702100
1283.000000	101.702343
1282.000000	101.702190
1281.000000	101.698913
1280.000000	101.691941
1279.000000	101.684207
1278.000000	101.678474
1277.000000	101.673463
1276.000000	101.665998
1275.000000	101.656467
1274.000000	101.649710
1273.000000	101.649964
1272.000000	101.656206
1271.000000	101.662675
1270.000000	101.663455
1269.000000	101.657049
1268.000000	101.647369
1267.000000	101.640154
1266.000000	101.637618
1265.000000	101.637087
1264.000000	101.635409
1263.000000	101.632926
1262.000000	101.631249
1261.000000	101.628817
1260.000000	101.621897
1259.000000	101.610132
1258.000000	101.598069
1257.000000	101.589831
1256.000000	101.584056
1255.000000	101.575391
1254.000000	101.560303
1253.000000	101.540849
1252.000000	101.523162
1251.000000	101.512225
1250.000000	101.507278
1249.000000	101.502329
1248.000000	101.491985
1247.000000	101.476680
1246.000000	101.461368
1245.000000	101.449263
1244.000000	101.438228
1243.000000	101.423518
1242.000000	101.402734
1241.000000	101.377342
1240.000000	101.350672
1239.000000	101.325881
1238.000000	101.305282
1237.000000	101.289692
1236.000000	101.277176
1235.000000	101.262905
1234.000000	101.242036
1233.000000	101.213987
1232.000000	101.183474
1231.000000	101.156141
1230.000000	101.132607
1229.000000	101.107437
1228.000000	101.074243
1227.000000	101.031188
1226.000000	100.981568
1225.000000	100.929959
1224.000000	100.878408
1223.000000	100.825886
1222.000000	100.770402
1221.000000	100.711289
1220.000000	100.649582
1219.000000	100.586296
1218.000000	100.520371
1217.000000	100.448294
1216.000000	100.365858
1215.000000	100.271306
1214.000000	100.168430
1213.000000	100.066324
1212.000000	99.973292
1211.000000	99.889478
1210.000000	99.807571
1209.000000	99.722088
1208.000000	99.634741
1207.000000	99.548524
1206.000000	99.461218
1205.000000	99.370058
1204.000000	99.279340
1203.000000	99.196294
1202.000000	99.120647
1201.000000	99.044921
1200.000000	98.964407
1199.000000	98.880303
1198.000000	98.793456
1197.000000	98.702662
1196.000000	98.610499
1195.000000	98.523374
1194.000000	98.442632
1193.000000	98.361202
1192.000000	98.271908
1191.000000	98.174564
1190.000000	98.073157
1189.000000	97.971066
1188.000000	97.871270
1187.000000	97.776348
1186.000000	97.685409
1185.000000	97.594545
1184.000000	97.501529
1183.000000	97.406045
1182.000000	97.305440
1181.000000	97.196157
1180.000000	97.080033
1179.000000	96.962707
1178.000000	96.844487
1177.000000	96.719730
1176.000000	96.587183
1175.000000	96.453511
1174.000000	96.323396
1173.000000	96.193067
1172.000000	96.057487
1171.000000	95.917696
1170.000000	95.777347
1169.000000	95.638003
1168.000000	95.501903
1167.000000	95.374337
1166.000000	95.260212
1165.000000	95.163545
1164.000000	95.092371
1163.000000	95.057349
1162.000000	95.061991
1161.000000	95.098650
1160.000000	95.154615
1159.000000	95.216105
1158.000000	95.266877
1157.000000	95.291896
1156.000000	95.285301
1155.000000	95.250019
1154.000000	95.189806
1153.000000	95.107577
1152.000000	95.010730
1151.000000	94.909721
1150.000000	94.809565
1149.000000	94.709214
1148.000000	94.608986
1147.000000	94.509942
1146.000000	94.406368
1145.000000	94.290019
1144.000000	94.163850
1143.000000	94.041281
1142.000000	93.929159
1141.000000	93.821574
1140.000000	93.713003
1139.000000	93.606077
1138.000000	93.502603
1137.000000	93.398235
1136.000000	93.290887
1135.000000	93.184052
1134.000000	93.076966
1133.000000	92.961996
1132.000000	92.837246
1131.000000	92.712124
1130.000000	92.595014
1129.000000	92.484318
1128.000000	92.376051
1127.000000	92.270293
1126.000000	92.165204
1125.000000	92.054649
1124.000000	91.937242
1123.000000	91.819263
1122.000000	91.704916
1121.000000	91.593030
1120.000000	91.485919
1119.000000	91.389376
1118.000000	91.299701
1117.000000	91.203443
1116.000000	91.095358
1115.000000	90.984578
1114.000000	90.878081
1113.000000	90.771899
1112.000000	90.665209
1111.000000	90.567680
1110.000000	90.482788
1109.000000	90.397175
1108.000000	90.297357
1107.000000	90.186391
1106.000000	90.074918
1105.000000	89.966663
1104.000000	89.861509
1103.000000	89.761399
1102.000000	89.663791
1101.000000	89.560015
1100.000000	89.449072
1099.000000	89.342486
1098.000000	89.247059
1097.000000	89.153774
1096.000000	89.052078
1095.000000	88.944504
1094.000000	88.838738
1093.000000	88.736144
1092.000000	88.637126
1091.000000	88.547468
1090.000000	88.469701
1089.000000	88.396683
1088.000000	88.321788
1087.000000	88.247576
1086.000000	88.178104
1085.000000	88.111019
1084.000000	88.042899
1083.000000	87.974533
1082.000000	87.906932
1081.000000	87.840189
1080.000000	87.778043
1079.000000	87.723423
1078.000000	87.668376
1077.000000	87.600655
1076.000000	87.521459
1075.000000	87.442966
1074.000000	87.366316
1073.000000	87.276791
1072.000000	87.163571
1071.000000	87.029149
1070.000000	86.876436
1069.000000	86.701981
1068.000000	86.506794
1067.000000	86.299216
1066.000000	86.081513
1065.000000	85.847570
1064.000000	85.598879
1063.000000	85.348514
1062.000000	85.104932
1061.000000	84.867342
1060.000000	84.640990
1059.000000	84.438288
1058.000000	84.257395
1057.000000	84.077245
1056.000000	83.882638
1055.000000	83.679862
1054.000000	83.481392
1053.000000	83.290762
1052.000000	83.109137
1051.000000	82.938700
1050.000000	82.769460
1049.000000	82.580097
1048.000000	82.361945
1047.000000	82.126857
1046.000000	81.886653
1045.000000	81.642322
1044.000000	81.396765
1043.000000	81.158713
1042.000000	80.927873
1041.000000	80.692855
1040.000000	80.449907
1039.000000	80.208885
1038.000000	79.977211
1037.000000	79.754647
1036.000000	79.546583
1035.000000	79.363484
1034.000000	79.203226
1033.000000	79.052516
1032.000000	78.909021
1031.000000	78.782620
1030.000000	78.672167
1029.000000	78.562427
1028.000000	78.448554
1027.000000	78.343087
1026.000000	78.253686
1025.000000	78.173548
1024.000000	78.097442
1023.000000	78.027325
1022.000000	77.959025
1021.000000	77.883713
1020.000000	77.805133
1019.000000	77.734912
1018.000000	77.669424
1017.000000	77.593091
1016.000000	77.505558
1015.000000	77.421724
1014.000000	77.343103
1013.000000	77.254535
1012.000000	77.153202
1011.000000	77.055555
1010.000000	76.969795
1009.000000	76.886064
1008.000000	76.800432
1007.000000	76.724956
1006.000000	76.666262
1005.000000	76.615970
1004.000000	76.569603
1003.000000	76.534657
1002.000000	76.513773
1001.000000	76.499694
1000.000000	76.491527
999.000000	76.495839
998.000000	76.507947
997.000000	76.513374
996.000000	76.512165
995.000000	76.520926
994.000000	76.546873
993.000000	76.580688
992.000000	76.617957
991.000000	76.665463
990.000000	76.722191
989.000000	76.776534
988.000000	76.827635
987.000000	76.888454
986.000000	76.963061
985.000000	77.042103
984.000000	77.125405
983.000000	77.227295
982.000000	77.353409
981.000000	77.492862
980.000000	77.639428
979.000000	77.800994
978.000000	77.981830
977.000000	78.174459
976.000000	78.375694
975.000000	78.593616
974.000000	78.832466
973.000000	79.085610
972.000000	79.347584
971.000000	79.618617
970.000000	79.894659
969.000000	80.167766
968.000000	80.438492
967.000000	80.714192
966.000000	80.994826
965.000000	81.274443
964.000000	81.554979
963.000000	81.842703
962.000000	82.132748
961.000000	82.414237
960.000000	82.689231
959.000000	82.968217
958.000000	83.246814
957.000000	83.505885
956.000000	83.737292
955.000000	83.953083
954.000000	84.167041
953.000000	84.382055
952.000000	84.596889
951.000000	84.809333
950.000000	85.010115
949.000000	85.188178
948.000000	85.344307
947.000000	85.487541
946.000000	85.619280
945.000000	85.735378
944.000000	85.842458
943.000000	85.954938
942.000000	86.074539
941.000000	86.189345
940.000000	86.295010
939.000000	86.400057
938.000000	86.507481
937.000000	86.608456
936.000000	86.699584
935.000000	86.791165
934.000000	86.892476
933.000000	87.001719
932.000000	87.115403
931.000000	87.234850
930.000000	87.358188
929.000000	87.477240
928.000000	87.587619
927.000000	87.693573
926.000000	87.800322
925.000000	87.908975
924.000000	88.018267
923.000000	88.122192
922.000000	88.208379
921.000000	88.270176
920.000000	88.318435
919.000000	88.369838
918.000000	88.426401
917.000000	88.479344
916.000000	88.529525
915.000000	88.588311
914.000000	88.660684
913.000000	88.745116
912.000000	88.849827
911.000000	88.990221
910.000000	89.167215
909.000000	89.364835
908.000000	89.572722
907.000000	89.795376
906.000000	90.035486
905.000000	90.283989
904.000000	90.532194
903.000000	90.781923
902.000000	91.039954
901.000000	91.311749
900.000000	91.600067
899.000000	91.898691
898.000000	92.189209
897.000000	92.456656
896.000000	92.706759
895.000000	92.955426
894.000000	93.204228
893.000000	93.440895
892.000000	93.662314
891.000000	93.880413
890.000000	94.103198
889.000000	94.324203
888.000000	94.534098
887.000000	94.730827
886.000000	94.915921
885.000000	95.092021
884.000000	95.266454
883.000000	95.447091
882.000000	95.632672
881.000000	95.816053
880.000000	95.996334
879.000000	96.177458
878.000000	96.356681
877.000000	96.527014
876.000000	96.690554
875.000000	96.857309
874.000000	97.031556
873.000000	97.210980
872.000000	97.396533
871.000000	97.589582
870.000000	97.782152
869.000000	97.964880
868.000000	98.142650
867.000000	98.327262
866.000000	98.515728
865.000000	98.692183
864.000000	98.852422
863.000000	99.009909
862.000000	99.172975
861.000000	99.331323
860.000000	99.473465
859.000000	99.606057
858.000000	99.746578
857.000000	99.902897
856.000000	100.066235
855.000000	100.218944
854.000000	100.345359
853.000000	100.441559
852.000000	100.519199
851.000000	100.595446
850.000000	100.675918
849.000000	100.751826
848.000000	100.814710
847.000000	100.866407
846.000000	100.911583
845.000000	100.948094
844.000000	100.970712
843.000000	100.979946
842.000000	100.980925
841.000000	100.974257
840.000000	100.951785
839.000000	100.903333
838.000000	100.829112
837.000000	100.745577
836.000000	100.675098
835.000000	100.626130
834.000000	100.586479
833.000000	100.540992
832.000000	100.492146
831.000000	100.456344
830.000000	100.443569
829.000000	100.450365
828.000000	100.471093
827.000000	100.503798
826.000000	100.542620
825.000000	100.575391
824.000000	100.593163
823.000000	100.595205
822.000000	100.583875
821.000000	100.561628
820.000000	100.531071
819.000000	100.488954
818.000000	100.421608
817.000000	100.315181
816.000000	100.169887
815.000000	99.996631
814.000000	99.799822
813.000000	99.569855
812.000000	99.290323
811.000000	98.943841
810.000000	98.513013
809.000000	97.988514
808.000000	97.380658
807.000000	96.715746
806.000000	96.018798
805.000000	95.307275
804.000000	94.600997
803.000000	93.924889
802.000000	93.298882
801.000000	92.738126
800.000000	92.265258
799.000000	91.906841
798.000000	91.674086
797.000000	91.560913
796.000000	91.558984
795.000000	91.654040
794.000000	91.807736
793.000000	91.968163
792.000000	92.105375
791.000000	92.219097
790.000000	92.309810
789.000000	92.362992
788.000000	92.365889
787.000000	92.318519
786.000000	92.219726
785.000000	92.060155
784.000000	91.839471
783.000000	91.578051
782.000000	91.304491
781.000000	91.043929
780.000000	90.823411
779.000000	90.672006
778.000000	90.605767
777.000000	90.623642
776.000000	90.722056
775.000000	90.898945
774.000000	91.140140
773.000000	91.418565
772.000000	91.712453
771.000000	92.010148
770.000000	92.294225
769.000000	92.539213
768.000000	92.734451
767.000000	92.897466
766.000000	93.056416
765.000000	93.225821
764.000000	93.401423
763.000000	93.568745
762.000000	93.714199
761.000000	93.837583
760.000000	93.955709
759.000000	94.085503
758.000000	94.224946
757.000000	94.361061
756.000000	94.492838
755.000000	94.630892
754.000000	94.775880
753.000000	94.914670
752.000000	95.040192
751.000000	95.159339
750.000000	95.278271
