4000.000000	98.301561
3999.000000	98.300103
3998.000000	98.298639
3997.000000	98.297172
3996.000000	98.295716
3995.000000	98.294293
3994.000000	98.292923
3993.000000	98.291602
3992.000000	98.290312
3991.000000	98.289032
3990.000000	98.287747
3989.000000	98.286458
3988.000000	98.285185
3987.000000	98.283962
3986.000000	98.282794
3985.000000	98.281667
3984.000000	98.280558
3983.000000	98.279448
3982.000000	98.278326
3981.000000	98.277197
3980.000000	98.276071
3979.000000	98.274959
3978.000000	98.273858
3977.000000	98.272757
3976.000000	98.271643
3975.000000	98.270510
3974.000000	98.269367
3973.000000	98.268237
3972.000000	98.267149
3971.000000	98.266124
3970.000000	98.265166
3969.000000	98.264255
3968.000000	98.263361
3967.000000	98.262469
3966.000000	98.261585
3965.000000	98.260731
3964.000000	98.259935
3963.000000	98.259214
3962.000000	98.258565
3961.000000	98.257971
3960.000000	98.257414
3959.000000	98.256885
3958.000000	98.256392
3957.000000	98.255941
3956.000000	98.255536
3955.000000	98.255165
3954.000000	98.254813
3953.000000	98.254468
3952.000000	98.254126
3951.000000	98.253787
3950.000000	98.253454
3949.000000	98.253129
3948.000000	98.252813
3947.000000	98.252505
3946.000000	98.252203
3945.000000	98.251903
3944.000000	98.251605
3943.000000	98.251312
3942.000000	98.251035
3941.000000	98.250792
3940.000000	98.250600
3939.000000	98.250453
3938.000000	98.250320
3937.000000	98.250152
3936.000000	98.249918
3935.000000	98.249662
3934.000000	98.249513
3933.000000	98.249582
3932.000000	98.249894
3931.000000	98.250351
3930.000000	98.250789
3929.000000	98.251052
3928.000000	98.251058
3927.000000	98.250907
3926.000000	98.250880
3925.000000	98.251247
3924.000000	98.252027
3923.000000	98.252911
3922.000000	98.253495
3921.000000	98.253558
3920.000000	98.253191
3919.000000	98.252783
3918.000000	98.252799
3917.000000	98.253372
3916.000000	98.254098
3915.000000	98.254408
3914.000000	98.254166
3913.000000	98.253708
3912.000000	98.253454
3911.000000	98.253539
3910.000000	98.253805
3909.000000	98.254013
3908.000000	98.253987
3907.000000	98.253725
3906.000000	98.253483
3905.000000	98.253654
3904.000000	98.254370
3903.000000	98.255346
3902.000000	98.256195
3901.000000	98.256864
3900.000000	98.257561
3899.000000	98.258387
3898.000000	98.259268
3897.000000	98.260102
3896.000000	98.260847
3895.000000	98.261507
3894.000000	98.262104
3893.000000	98.262668
3892.000000	98.263209
3891.000000	98.263722
3890.000000	98.264206
3889.000000	98.264665
3888.000000	98.265105
3887.000000	98.265542
3886.000000	98.265989
3885.000000	98.266457
3884.000000	98.266944
3883.000000	98.267447
3882.000000	98.267960
3881.000000	98.268467
3880.000000	98.268955
3879.000000	98.269421
3878.000000	98.269878
3877.000000	98.270350
3876.000000	98.270853
3875.000000	98.271389
3874.000000	98.271951
3873.000000	98.272532
3872.000000	98.273138
3871.000000	98.273779
3870.000000	98.274454
3869.000000	98.275136
3868.000000	98.275787
3867.000000	98.276383
3866.000000	98.276926
3865.000000	98.277432
3864.000000	98.277929
3863.000000	98.278449
3862.000000	98.279002
3861.000000	98.279575
3860.000000	98.280138
3859.000000	98.280672
3858.000000	98.281165
3857.000000	98.281609
3856.000000	98.281990
3855.000000	98.282300
3854.000000	98.282552
3853.000000	98.282778
3852.000000	98.283018
3851.000000	98.283300
3850.000000	98.283634
3849.000000	98.284031
3848.000000	98.284486
3847.000000	98.284974
3846.000000	98.285470
3845.000000	98.285955
3844.000000	98.286389
3843.000000	98.286719
3842.000000	98.286901
3841.000000	98.286947
3840.000000	98.286947
3839.000000	98.287040
3838.000000	98.287329
3837.000000	98.287801
3836.000000	98.288334
3835.000000	98.288840
3834.000000	98.289342
3833.000000	98.289911
3832.000000	98.290533
3831.000000	98.291035
3830.000000	98.291221
3829.000000	98.291113
3828.000000	98.290935
3827.000000	98.290877
3826.000000	98.290894
3825.000000	98.290838
3824.000000	98.290694
3823.000000	98.290605
3822.000000	98.290681
3821.000000	98.290875
3820.000000	98.290981
3819.000000	98.290860
3818.000000	98.290567
3817.000000	98.290215
3816.000000	98.289883
3815.000000	98.289583
3814.000000	98.289314
3813.000000	98.289104
3812.000000	98.288958
3811.000000	98.288844
3810.000000	98.288729
3809.000000	98.288597
3808.000000	98.288435
3807.000000	98.288239
3806.000000	98.288009
3805.000000	98.287743
3804.000000	98.287444
3803.000000	98.287120
3802.000000	98.286785
3801.000000	98.286460
3800.000000	98.286162
3799.000000	98.285897
3798.000000	98.285657
3797.000000	98.285416
3796.000000	98.285142
3795.000000	98.284823
3794.000000	98.284472
3793.000000	98.284113
3792.000000	98.283762
3791.000000	98.283412
3790.000000	98.283039
3789.000000	98.282614
3788.000000	98.282117
3787.000000	98.281547
3786.000000	98.280921
3785.000000	98.280255
3784.000000	98.279558
3783.000000	98.278837
3782.000000	98.278089
3781.000000	98.277311
3780.000000	98.276462
3779.000000	98.275445
3778.000000	98.274163
3777.000000	98.272738
3776.000000	98.271683
3775.000000	98.271468
3774.000000	98.271664
3773.000000	98.271160
3772.000000	98.269700
3771.000000	98.268808
3770.000000	98.269832
3769.000000	98.271239
3768.000000	98.269984
3767.000000	98.265945
3766.000000	98.262582
3765.000000	98.262880
3764.000000	98.266132
3763.000000	98.269715
3762.000000	98.272470
3761.000000	98.274050
3760.000000	98.273124
3759.000000	98.269195
3758.000000	98.264317
3757.000000	98.261106
3756.000000	98.259658
3755.000000	98.258641
3754.000000	98.257443
3753.000000	98.255867
3752.000000	98.253225
3751.000000	98.249337
3750.000000	98.244126
3749.000000	98.234073
3748.000000	98.214774
3747.000000	98.189339
3746.000000	98.169044
3745.000000	98.166008
3744.000000	98.179783
3743.000000	98.190522
3742.000000	98.189225
3741.000000	98.190808
3740.000000	98.202982
3739.000000	98.218032
3738.000000	98.228119
3737.000000	98.232328
3736.000000	98.231448
3735.000000	98.224508
3734.000000	98.213665
3733.000000	98.205230
3732.000000	98.201026
3731.000000	98.194581
3730.000000	98.180239
3729.000000	98.160648
3728.000000	98.142745
3727.000000	98.130195
3726.000000	98.120974
3725.000000	98.110394
3724.000000	98.096846
3723.000000	98.082176
3722.000000	98.068524
3721.000000	98.057346
3720.000000	98.049339
3719.000000	98.044168
3718.000000	98.039776
3717.000000	98.033342
3716.000000	98.023243
3715.000000	98.010132
3714.000000	97.993926
3713.000000	97.971240
3712.000000	97.939154
3711.000000	97.900973
3710.000000	97.864472
3709.000000	97.835259
3708.000000	97.812985
3707.000000	97.793292
3706.000000	97.771675
3705.000000	97.746268
3704.000000	97.719252
3703.000000	97.695431
3702.000000	97.678234
3701.000000	97.665339
3700.000000	97.650356
3699.000000	97.630728
3698.000000	97.610817
3697.000000	97.595407
3696.000000	97.583798
3695.000000	97.572623
3694.000000	97.561682
3693.000000	97.553354
3692.000000	97.547652
3691.000000	97.542311
3690.000000	97.536641
3689.000000	97.531978
3688.000000	97.525955
3687.000000	97.512994
3686.000000	97.493291
3685.000000	97.472634
3684.000000	97.453585
3683.000000	97.434478
3682.000000	97.415717
3681.000000	97.400945
3680.000000	97.390602
3679.000000	97.377016
3678.000000	97.351986
3677.000000	97.317924
3676.000000	97.288837
3675.000000	97.272400
3674.000000	97.257669
3673.000000	97.235429
3672.000000	97.211106
3671.000000	97.191311
3670.000000	97.176050
3669.000000	97.160266
3668.000000	97.138991
3667.000000	97.113229
3666.000000	97.086274
3665.000000	97.059027
3664.000000	97.031500
3663.000000	97.005154
3662.000000	96.982400
3661.000000	96.964547
3660.000000	96.950883
3659.000000	96.939744
3658.000000	96.930246
3657.000000	96.921732
3656.000000	96.912122
3655.000000	96.897424
3654.000000	96.878138
3653.000000	96.861515
3652.000000	96.853042
3651.000000	96.850567
3650.000000	96.847465
3649.000000	96.838743
3648.000000	96.825293
3647.000000	96.811125
3646.000000	96.797617
3645.000000	96.784792
3644.000000	96.774240
3643.000000	96.768375
3642.000000	96.766979
3641.000000	96.765458
3640.000000	96.756792
3639.000000	96.736406
3638.000000	96.705081
3637.000000	96.668521
3636.000000	96.635250
3635.000000	96.611877
3634.000000	96.597506
3633.000000	96.583031
3632.000000	96.558821
3631.000000	96.522490
3630.000000	96.481709
3629.000000	96.450749
3628.000000	96.434752
3627.000000	96.424980
3626.000000	96.417926
3625.000000	96.416899
3624.000000	96.419948
3623.000000	96.422828
3622.000000	96.426172
3621.000000	96.434739
3620.000000	96.450426
3619.000000	96.467798
3618.000000	96.477857
3617.000000	96.477011
3616.000000	96.470895
3615.000000	96.468114
3614.000000	96.472069
3613.000000	96.479321
3612.000000	96.484956
3611.000000	96.488650
3610.000000	96.494231
3609.000000	96.503720
3608.000000	96.513963
3607.000000	96.520722
3606.000000	96.524309
3605.000000	96.528536
3604.000000	96.535563
3603.000000	96.543688
3602.000000	96.549894
3601.000000	96.552578
3600.000000	96.551942
3599.000000	96.549124
3598.000000	96.545705
3597.000000	96.542327
3596.000000	96.538813
3595.000000	96.535602
3594.000000	96.534521
3593.000000	96.537171
3592.000000	96.543801
3591.000000	96.553299
3590.000000	96.563153
3589.000000	96.569390
3588.000000	96.568337
3587.000000	96.560091
3586.000000	96.549507
3585.000000	96.542512
3584.000000	96.541449
3583.000000	96.543734
3582.000000	96.545053
3581.000000	96.543467
3580.000000	96.540144
3579.000000	96.536341
3578.000000	96.531374
3577.000000	96.523593
3576.000000	96.512514
3575.000000	96.499580
3574.000000	96.487192
3573.000000	96.477506
3572.000000	96.471618
3571.000000	96.469344
3570.000000	96.469297
3569.000000	96.469721
3568.000000	96.469285
3567.000000	96.467321
3566.000000	96.463370
3565.000000	96.457169
3564.000000	96.449497
3563.000000	96.442271
3562.000000	96.436833
3561.000000	96.432424
3560.000000	96.426886
3559.000000	96.418931
3558.000000	96.409170
3557.000000	96.398969
3556.000000	96.389066
3555.000000	96.380199
3554.000000	96.374098
3553.000000	96.372246
3552.000000	96.373334
3551.000000	96.373340
3550.000000	96.369232
3549.000000	96.361617
3548.000000	96.353328
3547.000000	96.346383
3546.000000	96.340850
3545.000000	96.335882
3544.000000	96.330757
3543.000000	96.325084
3542.000000	96.318911
3541.000000	96.312938
3540.000000	96.308103
3539.000000	96.304680
3538.000000	96.301837
3537.000000	96.298195
3536.000000	96.292952
3535.000000	96.286414
3534.000000	96.279679
3533.000000	96.273747
3532.000000	96.268782
3531.000000	96.264021
3530.000000	96.258449
3529.000000	96.251687
3528.000000	96.244235
3527.000000	96.236868
3526.000000	96.229988
3525.000000	96.223570
3524.000000	96.217488
3523.000000	96.211766
3522.000000	96.206606
3521.000000	96.202277
3520.000000	96.198916
3519.000000	96.196339
3518.000000	96.193987
3517.000000	96.191136
3516.000000	96.187281
3515.000000	96.182352
3514.000000	96.176598
3513.000000	96.170312
3512.000000	96.163707
3511.000000	96.157020
3510.000000	96.150671
3509.000000	96.144952
3508.000000	96.139338
3507.000000	96.132495
3506.000000	96.123546
3505.000000	96.113320
3504.000000	96.104231
3503.000000	96.098222
3502.000000	96.095134
3501.000000	96.092986
3500.000000	96.089698
3499.000000	96.084735
3498.000000	96.079035
3497.000000	96.073904
3496.000000	96.069859
3495.000000	96.066312
3494.000000	96.062185
3493.000000	96.056849
3492.000000	96.050393
3491.000000	96.043174
3490.000000	96.035535
3489.000000	96.027981
3488.000000	96.021239
3487.000000	96.015742
3486.000000	96.011157
3485.000000	96.006645
3484.000000	96.001635
3483.000000	95.996161
3482.000000	95.990484
3481.000000	95.984651
3480.000000	95.978571
3479.000000	95.972324
3478.000000	95.966171
3477.000000	95.960273
3476.000000	95.954571
3475.000000	95.948957
3474.000000	95.943436
3473.000000	95.938005
3472.000000	95.932444
3471.000000	95.926438
3470.000000	95.919943
3469.000000	95.913276
3468.000000	95.906788
3467.000000	95.900552
3466.000000	95.894507
3465.000000	95.888753
3464.000000	95.883424
3463.000000	95.878254
3462.000000	95.872623
3461.000000	95.866252
3460.000000	95.859583
3459.000000	95.853244
3458.000000	95.847334
3457.000000	95.841511
3456.000000	95.835657
3455.000000	95.830116
3454.000000	95.825104
3453.000000	95.820195
3452.000000	95.814698
3451.000000	95.808401
3450.000000	95.801767
3449.000000	95.795487
3448.000000	95.789904
3447.000000	95.784884
3446.000000	95.780076
3445.000000	95.775214
3444.000000	95.770191
3443.000000	95.764987
3442.000000	95.759595
3441.000000	95.753973
3440.000000	95.747987
3439.000000	95.741490
3438.000000	95.734606
3437.000000	95.727905
3436.000000	95.722025
3435.000000	95.717118
3434.000000	95.712835
3433.000000	95.708933
3432.000000	95.705619
3431.000000	95.703024
3430.000000	95.700594
3429.000000	95.697381
3428.000000	95.692906
3427.000000	95.687444
3426.000000	95.681501
3425.000000	95.675357
3424.000000	95.669399
3423.000000	95.664593
3422.000000	95.661891
3421.000000	95.660953
3420.000000	95.659779
3419.000000	95.656302
3418.000000	95.650383
3417.000000	95.644042
3416.000000	95.639629
3415.000000	95.637856
3414.000000	95.637739
3413.000000	95.637833
3412.000000	95.637202
3411.000000	95.635307
3410.000000	95.631768
3409.000000	95.626785
3408.000000	95.621493
3407.000000	95.617220
3406.000000	95.614305
3405.000000	95.611999
3404.000000	95.609540
3403.000000	95.606966
3402.000000	95.604699
3401.000000	95.602865
3400.000000	95.601500
3399.000000	95.601013
3398.000000	95.601748
3397.000000	95.603004
3396.000000	95.603148
3395.000000	95.601130
3394.000000	95.597634
3393.000000	95.594578
3392.000000	95.593524
3391.000000	95.594672
3390.000000	95.597080
3389.000000	95.599383
3388.000000	95.600447
3387.000000	95.599890
3386.000000	95.598371
3385.000000	95.597279
3384.000000	95.597747
3383.000000	95.599845
3382.000000	95.602608
3381.000000	95.604694
3380.000000	95.605219
3379.000000	95.604202
3378.000000	95.602396
3377.000000	95.600644
3376.000000	95.599402
3375.000000	95.598880
3374.000000	95.599431
3373.000000	95.601468
3372.000000	95.604872
3371.000000	95.608738
3370.000000	95.611896
3369.000000	95.613672
3368.000000	95.614266
3367.000000	95.614501
3366.000000	95.615063
3365.000000	95.615737
3364.000000	95.615565
3363.000000	95.614105
3362.000000	95.612481
3361.000000	95.612638
3360.000000	95.615278
3359.000000	95.618922
3358.000000	95.621238
3357.000000	95.621264
3356.000000	95.619985
3355.000000	95.619098
3354.000000	95.619660
3353.000000	95.621860
3352.000000	95.625314
3351.000000	95.629142
3350.000000	95.632148
3349.000000	95.633488
3348.000000	95.633437
3347.000000	95.633468
3346.000000	95.635263
3345.000000	95.639264
3344.000000	95.643944
3343.000000	95.646823
3342.000000	95.646756
3341.000000	95.645239
3340.000000	95.645236
3339.000000	95.648611
3338.000000	95.655012
3337.000000	95.662796
3336.000000	95.670595
3335.000000	95.677889
3334.000000	95.684464
3333.000000	95.689828
3332.000000	95.693363
3331.000000	95.695020
3330.000000	95.695753
3329.000000	95.696919
3328.000000	95.699082
3327.000000	95.701689
3326.000000	95.704163
3325.000000	95.706908
3324.000000	95.710714
3323.000000	95.715321
3322.000000	95.719263
3321.000000	95.721332
3320.000000	95.721722
3319.000000	95.721601
3318.000000	95.722049
3317.000000	95.723609
3316.000000	95.726443
3315.000000	95.730472
3314.000000	95.735374
3313.000000	95.740808
3312.000000	95.746577
3311.000000	95.752366
3310.000000	95.757533
3309.000000	95.761434
3308.000000	95.763960
3307.000000	95.765758
3306.000000	95.767977
3305.000000	95.771673
3304.000000	95.777074
3303.000000	95.783088
3302.000000	95.787852
3301.000000	95.790300
3300.000000	95.791139
3299.000000	95.792016
3298.000000	95.793624
3297.000000	95.795065
3296.000000	95.795286
3295.000000	95.794709
3294.000000	95.795064
3293.000000	95.797759
3292.000000	95.802769
3291.000000	95.808903
3290.000000	95.814626
3289.000000	95.818703
3288.000000	95.820850
3287.000000	95.822246
3286.000000	95.824928
3285.000000	95.829997
3284.000000	95.836629
3283.000000	95.843102
3282.000000	95.848608
3281.000000	95.853404
3280.000000	95.857507
3279.000000	95.860355
3278.000000	95.862063
3277.000000	95.864238
3276.000000	95.868704
3275.000000	95.875712
3274.000000	95.883854
3273.000000	95.891500
3272.000000	95.898039
3271.000000	95.903661
3270.000000	95.908518
3269.000000	95.912445
3268.000000	95.915389
3267.000000	95.917929
3266.000000	95.921185
3265.000000	95.926026
3264.000000	95.932288
3263.000000	95.938833
3262.000000	95.944552
3261.000000	95.949365
3260.000000	95.954141
3259.000000	95.959716
3258.000000	95.966056
3257.000000	95.972279
3256.000000	95.977362
3255.000000	95.980852
3254.000000	95.983055
3253.000000	95.984754
3252.000000	95.986858
3251.000000	95.990240
3250.000000	95.995504
3249.000000	96.002374
3248.000000	96.009377
3247.000000	96.014912
3246.000000	96.019039
3245.000000	96.023641
3244.000000	96.030296
3243.000000	96.038389
3242.000000	96.045801
3241.000000	96.051217
3240.000000	96.055091
3239.000000	96.058611
3238.000000	96.062478
3237.000000	96.066858
3236.000000	96.071761
3235.000000	96.076975
3234.000000	96.082065
3233.000000	96.086807
3232.000000	96.091419
3231.000000	96.096198
3230.000000	96.101110
3229.000000	96.105787
3228.000000	96.109759
3227.000000	96.112904
3226.000000	96.116030
3225.000000	96.120635
3224.000000	96.127426
3223.000000	96.135336
3222.000000	96.142831
3221.000000	96.150087
3220.000000	96.158712
3219.000000	96.169242
3218.000000	96.179988
3217.000000	96.188842
3216.000000	96.195510
3215.000000	96.201427
3214.000000	96.208027
3213.000000	96.215528
3212.000000	96.223111
3211.000000	96.229788
3210.000000	96.235149
3209.000000	96.239504
3208.000000	96.243438
3207.000000	96.247419
3206.000000	96.251961
3205.000000	96.257765
3204.000000	96.265027
3203.000000	96.272617
3202.000000	96.278783
3201.000000	96.283019
3200.000000	96.286799
3199.000000	96.292167
3198.000000	96.299910
3197.000000	96.309307
3196.000000	96.319024
3195.000000	96.327898
3194.000000	96.335330
3193.000000	96.341537
3192.000000	96.347469
3191.000000	96.354076
3190.000000	96.361613
3189.000000	96.369730
3188.000000	96.377967
3187.000000	96.385882
3186.000000	96.392870
3185.000000	96.398395
3184.000000	96.402560
3183.000000	96.406336
3182.000000	96.411105
3181.000000	96.417731
3180.000000	96.425937
3179.000000	96.434428
3178.000000	96.441939
3177.000000	96.448347
3176.000000	96.454574
3175.000000	96.461420
3174.000000	96.468862
3173.000000	96.476657
3172.000000	96.485154
3171.000000	96.494865
3170.000000	96.505300
3169.000000	96.514877
3168.000000	96.522341
3167.000000	96.527908
3166.000000	96.532915
3165.000000	96.538490
3164.000000	96.544678
3163.000000	96.550720
3162.000000	96.555917
3161.000000	96.560252
3160.000000	96.564384
3159.000000	96.569202
3158.000000	96.575316
3157.000000	96.582823
3156.000000	96.591360
3155.000000	96.600274
3154.000000	96.608945
3153.000000	96.617001
3152.000000	96.624169
3151.000000	96.630071
3150.000000	96.634561
3149.000000	96.638370
3148.000000	96.643057
3147.000000	96.649856
3146.000000	96.658607
3145.000000	96.667941
3144.000000	96.676380
3143.000000	96.683289
3142.000000	96.688994
3141.000000	96.694451
3140.000000	96.700753
3139.000000	96.708545
3138.000000	96.717693
3137.000000	96.727516
3136.000000	96.737260
3135.000000	96.746174
3134.000000	96.753459
3133.000000	96.758684
3132.000000	96.762466
3131.000000	96.766392
3130.000000	96.771714
3129.000000	96.778298
3128.000000	96.785061
3127.000000	96.791260
3126.000000	96.797114
3125.000000	96.803134
3124.000000	96.809192
3123.000000	96.814641
3122.000000	96.819299
3121.000000	96.823920
3120.000000	96.829439
3119.000000	96.835914
3118.000000	96.842488
3117.000000	96.848351
3116.000000	96.853510
3115.000000	96.858544
3114.000000	96.863939
3113.000000	96.869788
3112.000000	96.875933
3111.000000	96.882117
3110.000000	96.888088
3109.000000	96.893786
3108.000000	96.899410
3107.000000	96.905126
3106.000000	96.910692
3105.000000	96.915624
3104.000000	96.919780
3103.000000	96.923667
3102.000000	96.928060
3101.000000	96.933294
3100.000000	96.939050
3099.000000	96.944724
3098.000000	96.950037
3097.000000	96.955189
3096.000000	96.960493
3095.000000	96.965933
3094.000000	96.971068
3093.000000	96.975411
3092.000000	96.978920
3091.000000	96.982219
3090.000000	96.986233
3089.000000	96.991447
3088.000000	96.997513
3087.000000	97.003569
3086.000000	97.008925
3085.000000	97.013266
3084.000000	97.016511
3083.000000	97.018959
3082.000000	97.021524
3081.000000	97.025382
3080.000000	97.031148
3079.000000	97.038452
3078.000000	97.046246
3077.000000	97.053401
3076.000000	97.059086
3075.000000	97.063073
3074.000000	97.066035
3073.000000	97.069281
3072.000000	97.073785
3071.000000	97.079551
3070.000000	97.086051
3069.000000	97.092996
3068.000000	97.100267
3067.000000	97.107247
3066.000000	97.112818
3065.000000	97.116313
3064.000000	97.118214
3063.000000	97.119658
3062.000000	97.121261
3061.000000	97.122580
3060.000000	97.122922
3059.000000	97.122666
3058.000000	97.123384
3057.000000	97.126204
3056.000000	97.130427
3055.000000	97.134636
3054.000000	97.139152
3053.000000	97.146121
3052.000000	97.156186
3051.000000	97.165820
3050.000000	97.169589
3049.000000	97.165453
3048.000000	97.157319
3047.000000	97.152059
3046.000000	97.153797
3045.000000	97.161016
3044.000000	97.168551
3043.000000	97.172063
3042.000000	97.170915
3041.000000	97.167462
3040.000000	97.164346
3039.000000	97.162771
3038.000000	97.162689
3037.000000	97.163272
3036.000000	97.162948
3035.000000	97.160335
3034.000000	97.156211
3033.000000	97.153804
3032.000000	97.155761
3031.000000	97.160834
3030.000000	97.164568
3029.000000	97.163468
3028.000000	97.157814
3027.000000	97.150583
3026.000000	97.144368
3025.000000	97.139210
3024.000000	97.132774
3023.000000	97.122734
3022.000000	97.109883
3021.000000	97.098834
3020.000000	97.094409
3019.000000	97.096834
3018.000000	97.101462
3017.000000	97.103486
3016.000000	97.101664
3015.000000	97.096684
3014.000000	97.087807
3013.000000	97.073542
3012.000000	97.055316
3011.000000	97.037833
3010.000000	97.024230
3009.000000	97.012281
3008.000000	96.997295
3007.000000	96.978278
3006.000000	96.959375
3005.000000	96.944684
3004.000000	96.933328
3003.000000	96.921156
3002.000000	96.906319
3001.000000	96.891309
3000.000000	96.879495
2999.000000	96.871327
2998.000000	96.864474
2997.000000	96.856254
2996.000000	96.844805
2995.000000	96.828603
2994.000000	96.806322
2993.000000	96.777688
2992.000000	96.744270
2991.000000	96.709250
2990.000000	96.675994
2989.000000	96.646164
2988.000000	96.619278
2987.000000	96.594790
2986.000000	96.574276
2985.000000	96.560180
2984.000000	96.551903
2983.000000	96.544470
2982.000000	96.532363
2981.000000	96.514537
2980.000000	96.495288
2979.000000	96.480657
2978.000000	96.474225
2977.000000	96.475137
2976.000000	96.479156
2975.000000	96.482484
2974.000000	96.485583
2973.000000	96.492849
2972.000000	96.508212
2971.000000	96.531781
2970.000000	96.560725
2969.000000	96.591674
2968.000000	96.621532
2967.000000	96.648296
2966.000000	96.673356
2965.000000	96.701488
2964.000000	96.735842
2963.000000	96.773279
2962.000000	96.806985
2961.000000	96.833460
2960.000000	96.854356
2959.000000	96.871833
2958.000000	96.885715
2957.000000	96.896687
2956.000000	96.909007
2955.000000	96.926548
2954.000000	96.946835
2953.000000	96.961934
2952.000000	96.966086
2951.000000	96.961323
2950.000000	96.955352
2949.000000	96.954699
2948.000000	96.960281
2947.000000	96.968506
2946.000000	96.975089
2945.000000	96.977434
2944.000000	96.974912
2943.000000	96.968801
2942.000000	96.962102
2941.000000	96.957857
2940.000000	96.956729
2939.000000	96.957017
2938.000000	96.957773
2937.000000	96.960732
2936.000000	96.967975
2935.000000	96.978525
2934.000000	96.988774
2933.000000	96.995993
2932.000000	97.000365
2931.000000	97.004026
2930.000000	97.009445
2929.000000	97.018225
2928.000000	97.029598
2927.000000	97.039869
2926.000000	97.044987
2925.000000	97.044582
2924.000000	97.042666
2923.000000	97.044095
2922.000000	97.051261
2921.000000	97.064135
2920.000000	97.081572
2919.000000	97.101199
2918.000000	97.118747
2917.000000	97.128812
2916.000000	97.126784
2915.000000	97.110819
2914.000000	97.083495
2913.000000	97.052031
2912.000000	97.025139
2911.000000	97.007923
2910.000000	96.999608
2909.000000	96.995862
2908.000000	96.992428
2907.000000	96.986489
2906.000000	96.976221
2905.000000	96.961206
2904.000000	96.943870
2903.000000	96.929676
2902.000000	96.924627
2901.000000	96.931325
2900.000000	96.946551
2899.000000	96.962873
2898.000000	96.974055
2897.000000	96.979715
2896.000000	96.984131
2895.000000	96.990540
2894.000000	96.997774
2893.000000	97.002774
2892.000000	97.004874
2891.000000	97.006236
2890.000000	97.008912
2889.000000	97.013147
2888.000000	97.018330
2887.000000	97.023911
2886.000000	97.029096
2885.000000	97.033345
2884.000000	97.038323
2883.000000	97.048142
2882.000000	97.065856
2881.000000	97.089347
2880.000000	97.111752
2879.000000	97.126875
2878.000000	97.134026
2877.000000	97.137510
2876.000000	97.142161
2875.000000	97.150018
2874.000000	97.160576
2873.000000	97.172678
2872.000000	97.185627
2871.000000	97.199466
2870.000000	97.215016
2869.000000	97.233165
2868.000000	97.253258
2867.000000	97.272499
2866.000000	97.288023
2865.000000	97.299966
2864.000000	97.311953
2863.000000	97.328097
2862.000000	97.349366
2861.000000	97.372708
2860.000000	97.393431
2859.000000	97.408500
2858.000000	97.418207
2857.000000	97.425210
2856.000000	97.432228
2855.000000	97.440885
2854.000000	97.452424
2853.000000	97.468414
2852.000000	97.489753
2851.000000	97.515013
2850.000000	97.540569
2849.000000	97.562744
2848.000000	97.579517
2847.000000	97.590221
2846.000000	97.594560
2845.000000	97.592828
2844.000000	97.586917
2843.000000	97.580099
2842.000000	97.575111
2841.000000	97.572727
2840.000000	97.572763
2839.000000	97.576016
2838.000000	97.584002
2837.000000	97.596307
2836.000000	97.609256
2835.000000	97.618479
2834.000000	97.622752
2833.000000	97.624639
2832.000000	97.627735
2831.000000	97.633994
2830.000000	97.643247
2829.000000	97.653865
2828.000000	97.663604
2827.000000	97.670982
2826.000000	97.676320
2825.000000	97.680767
2824.000000	97.684237
2823.000000	97.685417
2822.000000	97.684220
2821.000000	97.683189
2820.000000	97.685770
2819.000000	97.693610
2818.000000	97.705592
2817.000000	97.718411
2816.000000	97.728104
2815.000000	97.732603
2814.000000	97.733531
2813.000000	97.734826
2812.000000	97.738829
2811.000000	97.744441
2810.000000	97.749417
2809.000000	97.753092
2808.000000	97.756105
2807.000000	97.758894
2806.000000	97.761642
2805.000000	97.764808
2804.000000	97.768683
2803.000000	97.772967
2802.000000	97.777183
2801.000000	97.781148
2800.000000	97.784883
2799.000000	97.788329
2798.000000	97.791436
2797.000000	97.794520
2796.000000	97.798154
2795.000000	97.802530
2794.000000	97.807207
2793.000000	97.811624
2792.000000	97.815678
2791.000000	97.819675
2790.000000	97.823953
2789.000000	97.828618
2788.000000	97.833413
2787.000000	97.837729
2786.000000	97.840941
2785.000000	97.842898
2784.000000	97.844097
2783.000000	97.845440
2782.000000	97.847692
2781.000000	97.851047
2780.000000	97.855073
2779.000000	97.859021
2778.000000	97.862487
2777.000000	97.865649
2776.000000	97.868775
2775.000000	97.871736
2774.000000	97.874269
2773.000000	97.876504
2772.000000	97.878895
2771.000000	97.881679
2770.000000	97.884800
2769.000000	97.888254
2768.000000	97.892090
2767.000000	97.895990
2766.000000	97.899279
2765.000000	97.901598
2764.000000	97.903267
2763.000000	97.904943
2762.000000	97.907006
2761.000000	97.909478
2760.000000	97.912284
2759.000000	97.915270
2758.000000	97.918105
2757.000000	97.920485
2756.000000	97.922436
2755.000000	97.924266
2754.000000	97.926233
2753.000000	97.928381
2752.000000	97.930667
2751.000000	97.933103
2750.000000	97.935741
2749.000000	97.938582
2748.000000	97.941530
2747.000000	97.944422
2746.000000	97.947132
2745.000000	97.949640
2744.000000	97.951931
2743.000000	97.953873
2742.000000	97.955383
2741.000000	97.956739
2740.000000	97.958489
2739.000000	97.960883
2738.000000	97.963532
2737.000000	97.965789
2736.000000	97.967443
2735.000000	97.968807
2734.000000	97.970249
2733.000000	97.971810
2732.000000	97.973365
2731.000000	97.974891
2730.000000	97.976484
2729.000000	97.978241
2728.000000	97.980157
2727.000000	97.982109
2726.000000	97.983953
2725.000000	97.985618
2724.000000	97.987126
2723.000000	97.988528
2722.000000	97.989879
2721.000000	97.991242
2720.000000	97.992667
2719.000000	97.994145
2718.000000	97.995633
2717.000000	97.997096
2716.000000	97.998522
2715.000000	97.999911
2714.000000	98.001262
2713.000000	98.002571
2712.000000	98.003834
2711.000000	98.005046
2710.000000	98.006202
2709.000000	98.007302
2708.000000	98.008345
2707.000000	98.009332
2706.000000	98.010268
2705.000000	98.011161
2704.000000	98.012026
2703.000000	98.012877
2702.000000	98.013723
2701.000000	98.014571
2700.000000	98.015419
2699.000000	98.016262
2698.000000	98.017091
2697.000000	98.017897
2696.000000	98.018680
2695.000000	98.019451
2694.000000	98.020227
2693.000000	98.021019
2692.000000	98.021824
2691.000000	98.022623
2690.000000	98.023401
2689.000000	98.024149
2688.000000	98.024873
2687.000000	98.025585
2686.000000	98.026297
2685.000000	98.027015
2684.000000	98.027731
2683.000000	98.028447
2682.000000	98.029147
2681.000000	98.029811
2680.000000	98.030449
2679.000000	98.031105
2678.000000	98.031831
2677.000000	98.032636
2676.000000	98.033388
2675.000000	98.033817
2674.000000	98.033723
2673.000000	98.033264
2672.000000	98.032944
2671.000000	98.033099
2670.000000	98.033554
2669.000000	98.033845
2668.000000	98.033827
2667.000000	98.033782
2666.000000	98.034007
2665.000000	98.034562
2664.000000	98.035387
2663.000000	98.036417
2662.000000	98.037557
2661.000000	98.038718
2660.000000	98.039906
2659.000000	98.041135
2658.000000	98.042279
2657.000000	98.043143
2656.000000	98.043656
2655.000000	98.043886
2654.000000	98.043928
2653.000000	98.043901
2652.000000	98.044028
2651.000000	98.044633
2650.000000	98.045954
2649.000000	98.047823
2648.000000	98.049492
2647.000000	98.050105
2646.000000	98.049724
2645.000000	98.049393
2644.000000	98.049649
2643.000000	98.049528
2642.000000	98.047774
2641.000000	98.044625
2640.000000	98.041536
2639.000000	98.039337
2638.000000	98.037678
2637.000000	98.036296
2636.000000	98.035692
2635.000000	98.036163
2634.000000	98.037212
2633.000000	98.038596
2632.000000	98.040900
2631.000000	98.044302
2630.000000	98.047641
2629.000000	98.049364
2628.000000	98.049087
2627.000000	98.047728
2626.000000	98.046401
2625.000000	98.045550
2624.000000	98.045036
2623.000000	98.044759
2622.000000	98.044969
2621.000000	98.045912
2620.000000	98.047240
2619.000000	98.048057
2618.000000	98.047832
2617.000000	98.046996
2616.000000	98.046452
2615.000000	98.046554
2614.000000	98.047004
2613.000000	98.047561
2612.000000	98.048365
2611.000000	98.049536
2610.000000	98.050816
2609.000000	98.051769
2608.000000	98.052196
2607.000000	98.052207
2606.000000	98.052030
2605.000000	98.051873
2604.000000	98.051839
2603.000000	98.051894
2602.000000	98.051938
2601.000000	98.051954
2600.000000	98.052053
2599.000000	98.052350
2598.000000	98.052810
2597.000000	98.053273
2596.000000	98.053610
2595.000000	98.053840
2594.000000	98.054088
2593.000000	98.054464
2592.000000	98.054961
2591.000000	98.055504
2590.000000	98.055995
2589.000000	98.056387
2588.000000	98.056684
2587.000000	98.056918
2586.000000	98.057130
2585.000000	98.057366
2584.000000	98.057656
2583.000000	98.057998
2582.000000	98.058362
2581.000000	98.058711
2580.000000	98.059032
2579.000000	98.059341
2578.000000	98.059662
2577.000000	98.060004
2576.000000	98.060349
2575.000000	98.060654
2574.000000	98.060892
2573.000000	98.061070
2572.000000	98.061229
2571.000000	98.061420
2570.000000	98.061670
2569.000000	98.061978
2568.000000	98.062311
2567.000000	98.062652
2566.000000	98.063012
2565.000000	98.063414
2564.000000	98.063862
2563.000000	98.064345
2562.000000	98.064845
2561.000000	98.065362
2560.000000	98.065911
2559.000000	98.066502
2558.000000	98.067126
2557.000000	98.067761
2556.000000	98.068398
2555.000000	98.069038
2554.000000	98.069688
2553.000000	98.070351
2552.000000	98.071020
2551.000000	98.071688
2550.000000	98.072355
2549.000000	98.073031
2548.000000	98.073732
2547.000000	98.074465
2546.000000	98.075230
2545.000000	98.076024
2544.000000	98.076839
2543.000000	98.077668
2542.000000	98.078504
2541.000000	98.079346
2540.000000	98.080199
2539.000000	98.081073
2538.000000	98.081977
2537.000000	98.082917
2536.000000	98.083897
2535.000000	98.084919
2534.000000	98.085985
2533.000000	98.087100
2532.000000	98.088266
2531.000000	98.089480
2530.000000	98.090731
2529.000000	98.092005
2528.000000	98.093293
2527.000000	98.094590
2526.000000	98.095901
2525.000000	98.097239
2524.000000	98.098615
2523.000000	98.100034
2522.000000	98.101488
2521.000000	98.102963
2520.000000	98.104445
2519.000000	98.105932
2518.000000	98.107427
2517.000000	98.108940
2516.000000	98.110478
2515.000000	98.112040
2514.000000	98.113617
2513.000000	98.115200
2512.000000	98.116789
2511.000000	98.118392
2510.000000	98.120025
2509.000000	98.121695
2508.000000	98.123400
2507.000000	98.125127
2506.000000	98.126862
2505.000000	98.128598
2504.000000	98.130345
2503.000000	98.132119
2502.000000	98.133936
2501.000000	98.135803
2500.000000	98.137719
2499.000000	98.139678
2498.000000	98.141671
2497.000000	98.143685
2496.000000	98.145714
2495.000000	98.147750
2494.000000	98.149788
2493.000000	98.151825
2492.000000	98.153862
2491.000000	98.155902
2490.000000	98.157954
2489.000000	98.160026
2488.000000	98.162124
2487.000000	98.164243
2486.000000	98.166377
2485.000000	98.168519
2484.000000	98.170664
2483.000000	98.172793
2482.000000	98.174881
2481.000000	98.176916
2480.000000	98.178930
2479.000000	98.180987
2478.000000	98.183126
2477.000000	98.185301
2476.000000	98.187414
2475.000000	98.189383
2474.000000	98.191147
2473.000000	98.192726
2472.000000	98.194329
2471.000000	98.196271
2470.000000	98.198711
2469.000000	98.201461
2468.000000	98.204094
2467.000000	98.206237
2466.000000	98.207745
2465.000000	98.208836
2464.000000	98.210078
2463.000000	98.212044
2462.000000	98.214865
2461.000000	98.218207
2460.000000	98.221651
2459.000000	98.224915
2458.000000	98.227800
2457.000000	98.230164
2456.000000	98.232022
2455.000000	98.233489
2454.000000	98.234613
2453.000000	98.235527
2452.000000	98.236788
2451.000000	98.239169
2450.000000	98.242901
2449.000000	98.247192
2448.000000	98.250722
2447.000000	98.252656
2446.000000	98.253064
2445.000000	98.252648
2444.000000	98.252192
2443.000000	98.252112
2442.000000	98.252371
2441.000000	98.252757
2440.000000	98.253210
2439.000000	98.253891
2438.000000	98.254935
2437.000000	98.256306
2436.000000	98.257974
2435.000000	98.260154
2434.000000	98.263126
2433.000000	98.266734
2432.000000	98.270212
2431.000000	98.272785
2430.000000	98.274501
2429.000000	98.276236
2428.000000	98.278663
2427.000000	98.281361
2426.000000	98.283188
2425.000000	98.283437
2424.000000	98.282413
2423.000000	98.281126
2422.000000	98.280672
2421.000000	98.281751
2420.000000	98.284268
2419.000000	98.287185
2418.000000	98.289165
2417.000000	98.289634
2416.000000	98.289097
2415.000000	98.288559
2414.000000	98.288752
2413.000000	98.289750
2412.000000	98.290928
2411.000000	98.291351
2410.000000	98.290647
2409.000000	98.289488
2408.000000	98.288847
2407.000000	98.288872
2406.000000	98.289042
2405.000000	98.289246
2404.000000	98.289949
2403.000000	98.291221
2402.000000	98.292445
2401.000000	98.293326
2400.000000	98.294414
2399.000000	98.296126
2398.000000	98.297794
2397.000000	98.298295
2396.000000	98.297233
2395.000000	98.295057
2394.000000	98.292567
2393.000000	98.290760
2392.000000	98.290562
2391.000000	98.292040
2390.000000	98.293978
2389.000000	98.294817
2388.000000	98.294037
2387.000000	98.292291
2386.000000	98.290523
2385.000000	98.289325
2384.000000	98.288744
2383.000000	98.288188
2382.000000	98.286849
2381.000000	98.284634
2380.000000	98.282331
2379.000000	98.280471
2378.000000	98.278541
2377.000000	98.275884
2376.000000	98.272938
2375.000000	98.270877
2374.000000	98.270248
2373.000000	98.270632
2372.000000	98.271282
2371.000000	98.271554
2370.000000	98.271042
2369.000000	98.270007
2368.000000	98.269420
2367.000000	98.269985
2366.000000	98.271224
2365.000000	98.271685
2364.000000	98.270118
2363.000000	98.266583
2362.000000	98.262016
2361.000000	98.257485
2360.000000	98.253582
2359.000000	98.250171
2358.000000	98.247517
2357.000000	98.246242
2356.000000	98.246078
2355.000000	98.246206
2354.000000	98.246712
2353.000000	98.247675
2352.000000	98.247755
2351.000000	98.245938
2350.000000	98.242886
2349.000000	98.239598
2348.000000	98.236571
2347.000000	98.234355
2346.000000	98.233685
2345.000000	98.234549
2344.000000	98.235888
2343.000000	98.236473
2342.000000	98.235257
2341.000000	98.232174
2340.000000	98.228421
2339.000000	98.225162
2338.000000	98.222853
2337.000000	98.221164
2336.000000	98.219255
2335.000000	98.216783
2334.000000	98.214759
2333.000000	98.214412
2332.000000	98.215248
2331.000000	98.215804
2330.000000	98.215690
2329.000000	98.215495
2328.000000	98.215685
2327.000000	98.216008
2326.000000	98.216029
2325.000000	98.215494
2324.000000	98.214447
2323.000000	98.213429
2322.000000	98.212665
2321.000000	98.211778
2320.000000	98.210368
2319.000000	98.208944
2318.000000	98.208400
2317.000000	98.208750
2316.000000	98.208957
2315.000000	98.208222
2314.000000	98.207040
2313.000000	98.206653
2312.000000	98.207659
2311.000000	98.209401
2310.000000	98.210584
2309.000000	98.210224
2308.000000	98.208320
2307.000000	98.205883
2306.000000	98.204251
2305.000000	98.203934
2304.000000	98.204021
2303.000000	98.202871
2302.000000	98.199721
2301.000000	98.195645
2300.000000	98.192765
2299.000000	98.192092
2298.000000	98.192452
2297.000000	98.191910
2296.000000	98.189920
2295.000000	98.187595
2294.000000	98.186038
2293.000000	98.185220
2292.000000	98.184509
2291.000000	98.183721
2290.000000	98.183199
2289.000000	98.183259
2288.000000	98.183806
2287.000000	98.184157
2286.000000	98.183137
2285.000000	98.179783
2284.000000	98.174461
2283.000000	98.168971
2282.000000	98.164882
2281.000000	98.162085
2280.000000	98.159517
2279.000000	98.156848
2278.000000	98.154755
2277.000000	98.153606
2276.000000	98.152658
2275.000000	98.150897
2274.000000	98.148192
2273.000000	98.145247
2272.000000	98.142782
2271.000000	98.141087
2270.000000	98.140052
2269.000000	98.139165
2268.000000	98.137705
2267.000000	98.135468
2266.000000	98.133215
2265.000000	98.131937
2264.000000	98.131722
2263.000000	98.131637
2262.000000	98.130802
2261.000000	98.129301
2260.000000	98.127798
2259.000000	98.126598
2258.000000	98.125368
2257.000000	98.123683
2256.000000	98.121623
2255.000000	98.119755
2254.000000	98.118652
2253.000000	98.118414
2252.000000	98.118568
2251.000000	98.118410
2250.000000	98.117546
2249.000000	98.116125
2248.000000	98.114563
2247.000000	98.113082
2246.000000	98.111555
2245.000000	98.109766
2244.000000	98.107752
2243.000000	98.105906
2242.000000	98.104721
2241.000000	98.104373
2240.000000	98.104572
2239.000000	98.104728
2238.000000	98.104406
2237.000000	98.103554
2236.000000	98.102365
2235.000000	98.101129
2234.000000	98.100151
2233.000000	98.099640
2232.000000	98.099559
2231.000000	98.099621
2230.000000	98.099556
2229.000000	98.099353
2228.000000	98.099140
2227.000000	98.098919
2226.000000	98.098521
2225.000000	98.097787
2224.000000	98.096716
2223.000000	98.095496
2222.000000	98.094513
2221.000000	98.094227
2220.000000	98.094796
2219.000000	98.095758
2218.000000	98.096279
2217.000000	98.095967
2216.000000	98.095232
2215.000000	98.094807
2214.000000	98.094986
2213.000000	98.095522
2212.000000	98.096128
2211.000000	98.096792
2210.000000	98.097605
2209.000000	98.098503
2208.000000	98.099213
2207.000000	98.099393
2206.000000	98.098955
2205.000000	98.098372
2204.000000	98.098478
2203.000000	98.099690
2202.000000	98.101535
2201.000000	98.103199
2200.000000	98.104427
2199.000000	98.105510
2198.000000	98.106546
2197.000000	98.107282
2196.000000	98.107710
2195.000000	98.108270
2194.000000	98.109153
2193.000000	98.109825
2192.000000	98.109643
2191.000000	98.108659
2190.000000	98.107521
2189.000000	98.106684
2188.000000	98.106125
2187.000000	98.105783
2186.000000	98.105781
2185.000000	98.106238
2184.000000	98.107209
2183.000000	98.108881
2182.000000	98.111565
2181.000000	98.115185
2180.000000	98.118938
2179.000000	98.121778
2178.000000	98.123218
2177.000000	98.123503
2176.000000	98.123115
2175.000000	98.122354
2174.000000	98.121376
2173.000000	98.120341
2172.000000	98.119451
2171.000000	98.118961
2170.000000	98.119125
2169.000000	98.119916
2168.000000	98.120894
2167.000000	98.121655
2166.000000	98.122256
2165.000000	98.122908
2164.000000	98.123405
2163.000000	98.123386
2162.000000	98.123147
2161.000000	98.123598
2160.000000	98.125144
2159.000000	98.127141
2158.000000	98.128681
2157.000000	98.129636
2156.000000	98.130491
2155.000000	98.131503
2154.000000	98.132506
2153.000000	98.133443
2152.000000	98.134602
2151.000000	98.136215
2150.000000	98.138096
2149.000000	98.139792
2148.000000	98.140980
2147.000000	98.141694
2146.000000	98.142316
2145.000000	98.143359
2144.000000	98.145043
2143.000000	98.147109
2142.000000	98.149071
2141.000000	98.150721
2140.000000	98.152276
2139.000000	98.154020
2138.000000	98.156002
2137.000000	98.158118
2136.000000	98.160289
2135.000000	98.162444
2134.000000	98.164466
2133.000000	98.166300
2132.000000	98.168100
2131.000000	98.170146
2130.000000	98.172564
2129.000000	98.175221
2128.000000	98.177808
2127.000000	98.180131
2126.000000	98.182214
2125.000000	98.184200
2124.000000	98.186182
2123.000000	98.188182
2122.000000	98.190231
2121.000000	98.192387
2120.000000	98.194646
2119.000000	98.196907
2118.000000	98.199081
2117.000000	98.201201
2116.000000	98.203403
2115.000000	98.205783
2114.000000	98.208319
2113.000000	98.210908
2112.000000	98.213423
2111.000000	98.215783
2110.000000	98.217994
2109.000000	98.220143
2108.000000	98.222338
2107.000000	98.224634
2106.000000	98.227058
2105.000000	98.229636
2104.000000	98.232336
2103.000000	98.234968
2102.000000	98.237290
2101.000000	98.239235
2100.000000	98.241000
2099.000000	98.242872
2098.000000	98.244947
2097.000000	98.247107
2096.000000	98.249162
2095.000000	98.250967
2094.000000	98.252529
2093.000000	98.254184
2092.000000	98.256429
2091.000000	98.259212
2090.000000	98.261565
2089.000000	98.262617
2088.000000	98.262847
2087.000000	98.263739
2086.000000	98.265918
2085.000000	98.268473
2084.000000	98.270300
2083.000000	98.271481
2082.000000	98.272819
2081.000000	98.274554
2080.000000	98.276149
2079.000000	98.277180
2078.000000	98.278026
2077.000000	98.279596
2076.000000	98.282369
2075.000000	98.285562
2074.000000	98.287452
2073.000000	98.286957
2072.000000	98.284968
2071.000000	98.283842
2070.000000	98.285286
2069.000000	98.289098
2068.000000	98.293742
2067.000000	98.297658
2066.000000	98.299921
2065.000000	98.300235
2064.000000	98.298987
2063.000000	98.297320
2062.000000	98.296737
2061.000000	98.298245
2060.000000	98.301474
2059.000000	98.304545
2058.000000	98.305363
2057.000000	98.303359
2056.000000	98.299913
2055.000000	98.297091
2054.000000	98.295960
2053.000000	98.296064
2052.000000	98.296035
2051.000000	98.294560
2050.000000	98.291390
2049.000000	98.287870
2048.000000	98.285912
2047.000000	98.285862
2046.000000	98.285868
2045.000000	98.283946
2044.000000	98.280184
2043.000000	98.276419
2042.000000	98.274055
2041.000000	98.272842
2040.000000	98.271574
2039.000000	98.269332
2038.000000	98.266174
2037.000000	98.263100
2036.000000	98.261271
2035.000000	98.260863
2034.000000	98.260824
2033.000000	98.260107
2032.000000	98.258815
2031.000000	98.257619
2030.000000	98.256334
2029.000000	98.253812
2028.000000	98.249395
2027.000000	98.243973
2026.000000	98.239385
2025.000000	98.236846
2024.000000	98.236166
2023.000000	98.236179
2022.000000	98.235653
2021.000000	98.234092
2020.000000	98.231805
2019.000000	98.229354
2018.000000	98.227002
2017.000000	98.224613
2016.000000	98.221982
2015.000000	98.219173
2014.000000	98.216549
2013.000000	98.214419
2012.000000	98.212619
2011.000000	98.210481
2010.000000	98.207446
2009.000000	98.203694
2008.000000	98.200074
2007.000000	98.197295
2006.000000	98.195387
2005.000000	98.193995
2004.000000	98.192881
2003.000000	98.191989
2002.000000	98.191130
2001.000000	98.190021
2000.000000	98.188521
1999.000000	98.186652
1998.000000	98.184414
1997.000000	98.181673
1996.000000	98.178386
1995.000000	98.174893
1994.000000	98.171906
1993.000000	98.170119
1992.000000	98.169715
1991.000000	98.170103
1990.000000	98.170268
1989.000000	98.169501
1988.000000	98.167726
1987.000000	98.165367
1986.000000	98.163144
1985.000000	98.161740
1984.000000	98.161299
1983.000000	98.161209
1982.000000	98.160570
1981.000000	98.159148
1980.000000	98.157591
1979.000000	98.156655
1978.000000	98.156390
1977.000000	98.156072
1976.000000	98.154959
1975.000000	98.153011
1974.000000	98.150946
1973.000000	98.149561
1972.000000	98.148923
1971.000000	98.148342
1970.000000	98.147223
1969.000000	98.145808
1968.000000	98.144824
1967.000000	98.144466
1966.000000	98.144134
1965.000000	98.143311
1964.000000	98.142197
1963.000000	98.141229
1962.000000	98.140413
1961.000000	98.139426
1960.000000	98.138034
1959.000000	98.136073
1958.000000	98.133419
1957.000000	98.130484
1956.000000	98.128364
1955.000000	98.127767
1954.000000	98.127943
1953.000000	98.127232
1952.000000	98.124829
1951.000000	98.121398
1950.000000	98.118174
1949.000000	98.116131
1948.000000	98.115603
1947.000000	98.116077
1946.000000	98.116355
1945.000000	98.115378
1944.000000	98.112890
1943.000000	98.109234
1942.000000	98.104935
1941.000000	98.100612
1940.000000	98.096861
1939.000000	98.093740
1938.000000	98.090582
1937.000000	98.086947
1936.000000	98.083460
1935.000000	98.081027
1934.000000	98.079637
1933.000000	98.078624
1932.000000	98.077930
1931.000000	98.077886
1930.000000	98.078007
1929.000000	98.077383
1928.000000	98.075503
1927.000000	98.072814
1926.000000	98.070264
1925.000000	98.068846
1924.000000	98.069093
1923.000000	98.069785
1922.000000	98.068508
1921.000000	98.064101
1920.000000	98.057599
1919.000000	98.050619
1918.000000	98.044175
1917.000000	98.039358
1916.000000	98.037274
1915.000000	98.037249
1914.000000	98.036232
1913.000000	98.031454
1912.000000	98.023876
1911.000000	98.017186
1910.000000	98.013243
1909.000000	98.010526
1908.000000	98.006809
1907.000000	98.001813
1906.000000	97.995792
1905.000000	97.988348
1904.000000	97.980200
1903.000000	97.973245
1902.000000	97.968152
1901.000000	97.962868
1900.000000	97.955199
1899.000000	97.946864
1898.000000	97.941969
1897.000000	97.941297
1896.000000	97.940526
1895.000000	97.935009
1894.000000	97.925733
1893.000000	97.918323
1892.000000	97.916567
1891.000000	97.918656
1890.000000	97.919256
1889.000000	97.914773
1888.000000	97.906509
1887.000000	97.898689
1886.000000	97.894310
1885.000000	97.893003
1884.000000	97.892597
1883.000000	97.892360
1882.000000	97.893822
1881.000000	97.897674
1880.000000	97.900939
1879.000000	97.899768
1878.000000	97.893978
1877.000000	97.886688
1876.000000	97.880596
1875.000000	97.876067
1874.000000	97.872796
1873.000000	97.871335
1872.000000	97.871450
1871.000000	97.871145
1870.000000	97.869570
1869.000000	97.870027
1868.000000	97.876365
1867.000000	97.887201
1866.000000	97.898045
1865.000000	97.906686
1864.000000	97.913550
1863.000000	97.919326
1862.000000	97.924393
1861.000000	97.929937
1860.000000	97.937367
1859.000000	97.946290
1858.000000	97.954584
1857.000000	97.960850
1856.000000	97.965800
1855.000000	97.971228
1854.000000	97.978211
1853.000000	97.986894
1852.000000	97.996042
1851.000000	98.004106
1850.000000	98.010558
1849.000000	98.015385
1848.000000	98.018886
1847.000000	98.021510
1846.000000	98.024174
1845.000000	98.028332
1844.000000	98.034976
1843.000000	98.042596
1842.000000	98.048778
1841.000000	98.053570
1840.000000	98.058177
1839.000000	98.063321
1838.000000	98.069131
1837.000000	98.075774
1836.000000	98.083139
1835.000000	98.089213
1834.000000	98.090908
1833.000000	98.087095
1832.000000	98.080170
1831.000000	98.075321
1830.000000	98.076712
1829.000000	98.083388
1828.000000	98.091347
1827.000000	98.098165
1826.000000	98.102799
1825.000000	98.103908
1824.000000	98.101275
1823.000000	98.096971
1822.000000	98.093821
1821.000000	98.093184
1820.000000	98.094607
1819.000000	98.096920
1818.000000	98.098583
1817.000000	98.098476
1816.000000	98.097107
1815.000000	98.096209
1814.000000	98.097342
1813.000000	98.099988
1812.000000	98.102021
1811.000000	98.102442
1810.000000	98.102842
1809.000000	98.105948
1808.000000	98.111992
1807.000000	98.117906
1806.000000	98.120925
1805.000000	98.121349
1804.000000	98.121283
1803.000000	98.121718
1802.000000	98.122713
1801.000000	98.124289
1800.000000	98.125926
1799.000000	98.126361
1798.000000	98.125393
1797.000000	98.125430
1796.000000	98.128641
1795.000000	98.133711
1794.000000	98.137107
1793.000000	98.137137
1792.000000	98.136350
1791.000000	98.137578
1790.000000	98.140291
1789.000000	98.143834
1788.000000	98.148936
1787.000000	98.155331
1786.000000	98.161152
1785.000000	98.165353
1784.000000	98.169063
1783.000000	98.173281
1782.000000	98.178258
1781.000000	98.183510
1780.000000	98.188828
1779.000000	98.194620
1778.000000	98.200443
1777.000000	98.205560
1776.000000	98.209017
1775.000000	98.210569
1774.000000	98.211600
1773.000000	98.214900
1772.000000	98.222926
1771.000000	98.234207
1770.000000	98.244106
1769.000000	98.249931
1768.000000	98.252546
1767.000000	98.253768
1766.000000	98.254817
1765.000000	98.257203
1764.000000	98.262867
1763.000000	98.271221
1762.000000	98.278145
1761.000000	98.279965
1760.000000	98.279126
1759.000000	98.281155
1758.000000	98.287261
1757.000000	98.294082
1756.000000	98.298541
1755.000000	98.301997
1754.000000	98.306806
1753.000000	98.311034
1752.000000	98.309483
1751.000000	98.300559
1750.000000	98.288905
1749.000000	98.281503
1748.000000	98.282285
1747.000000	98.289357
1746.000000	98.297524
1745.000000	98.302017
1744.000000	98.302462
1743.000000	98.302024
1742.000000	98.302302
1741.000000	98.302152
1740.000000	98.301415
1739.000000	98.301337
1738.000000	98.301534
1737.000000	98.300500
1736.000000	98.296475
1735.000000	98.287062
1734.000000	98.273066
1733.000000	98.257640
1732.000000	98.244200
1731.000000	98.237389
1730.000000	98.238027
1729.000000	98.241835
1728.000000	98.243819
1727.000000	98.242356
1726.000000	98.239018
1725.000000	98.234359
1724.000000	98.228636
1723.000000	98.222716
1722.000000	98.216961
1721.000000	98.211769
1720.000000	98.206942
1719.000000	98.200495
1718.000000	98.189665
1717.000000	98.175693
1716.000000	98.163789
1715.000000	98.156419
1714.000000	98.151150
1713.000000	98.144717
1712.000000	98.136188
1711.000000	98.125829
1710.000000	98.113677
1709.000000	98.100185
1708.000000	98.086622
1707.000000	98.074556
1706.000000	98.063812
1705.000000	98.053542
1704.000000	98.044319
1703.000000	98.037292
1702.000000	98.030365
1701.000000	98.016149
1700.000000	97.991536
1699.000000	97.963671
1698.000000	97.941836
1697.000000	97.928492
1696.000000	97.919197
1695.000000	97.907854
1694.000000	97.892622
1693.000000	97.877585
1692.000000	97.866119
1691.000000	97.856577
1690.000000	97.845402
1689.000000	97.830893
1688.000000	97.813719
1687.000000	97.795904
1686.000000	97.777519
1685.000000	97.756896
1684.000000	97.737146
1683.000000	97.722036
1682.000000	97.709654
1681.000000	97.696945
1680.000000	97.681956
1679.000000	97.665391
1678.000000	97.650954
1677.000000	97.640759
1676.000000	97.632954
1675.000000	97.623003
1674.000000	97.608462
1673.000000	97.590844
1672.000000	97.572866
1671.000000	97.554249
1670.000000	97.533752
1669.000000	97.514183
1668.000000	97.499609
1667.000000	97.490649
1666.000000	97.483952
1665.000000	97.474253
1664.000000	97.458474
1663.000000	97.438752
1662.000000	97.421525
1661.000000	97.410404
1660.000000	97.403854
1659.000000	97.400040
1658.000000	97.397771
1657.000000	97.396465
1656.000000	97.395197
1655.000000	97.391350
1654.000000	97.374507
1653.000000	97.342379
1652.000000	97.311896
1651.000000	97.293395
1650.000000	97.285980
1649.000000	97.283019
1648.000000	97.276815
1647.000000	97.269247
1646.000000	97.265726
1645.000000	97.264570
1644.000000	97.262794
1643.000000	97.261480
1642.000000	97.261914
1641.000000	97.263094
1640.000000	97.262548
1639.000000	97.259403
1638.000000	97.253389
1637.000000	97.244010
1636.000000	97.233478
1635.000000	97.228014
1634.000000	97.228870
1633.000000	97.234269
1632.000000	97.245291
1631.000000	97.260339
1630.000000	97.273837
1629.000000	97.279506
1628.000000	97.276627
1627.000000	97.271785
1626.000000	97.272294
1625.000000	97.279622
1624.000000	97.290673
1623.000000	97.302007
1622.000000	97.311478
1621.000000	97.318499
1620.000000	97.324163
1619.000000	97.330032
1618.000000	97.335392
1617.000000	97.338734
1616.000000	97.341700
1615.000000	97.348738
1614.000000	97.361853
1613.000000	97.377622
1612.000000	97.390504
1611.000000	97.398561
1610.000000	97.405083
1609.000000	97.412731
1608.000000	97.420154
1607.000000	97.425806
1606.000000	97.431681
1605.000000	97.440042
1604.000000	97.450468
1603.000000	97.462263
1602.000000	97.475486
1601.000000	97.489703
1600.000000	97.503346
1599.000000	97.514951
1598.000000	97.524504
1597.000000	97.533137
1596.000000	97.542265
1595.000000	97.552575
1594.000000	97.563595
1593.000000	97.574261
1592.000000	97.583807
1591.000000	97.592033
1590.000000	97.599093
1589.000000	97.605607
1588.000000	97.612834
1587.000000	97.622057
1586.000000	97.633187
1585.000000	97.644849
1584.000000	97.655130
1583.000000	97.663415
1582.000000	97.670430
1581.000000	97.676939
1580.000000	97.683975
1579.000000	97.693252
1578.000000	97.705173
1577.000000	97.716717
1576.000000	97.724628
1575.000000	97.729564
1574.000000	97.734958
1573.000000	97.742398
1572.000000	97.750463
1571.000000	97.757161
1570.000000	97.762101
1569.000000	97.766430
1568.000000	97.770580
1567.000000	97.775547
1566.000000	97.782171
1565.000000	97.788785
1564.000000	97.792450
1563.000000	97.793095
1562.000000	97.793747
1561.000000	97.796986
1560.000000	97.803033
1559.000000	97.813691
1558.000000	97.826286
1557.000000	97.832927
1556.000000	97.835350
1555.000000	97.837573
1554.000000	97.840380
1553.000000	97.844654
1552.000000	97.851548
1551.000000	97.861572
1550.000000	97.870770
1549.000000	97.875452
1548.000000	97.877559
1547.000000	97.883277
1546.000000	97.896395
1545.000000	97.914003
1544.000000	97.929402
1543.000000	97.938903
1542.000000	97.942920
1541.000000	97.943915
1540.000000	97.946330
1539.000000	97.951225
1538.000000	97.953578
1537.000000	97.951834
1536.000000	97.948162
1535.000000	97.942429
1534.000000	97.935940
1533.000000	97.932349
1532.000000	97.932802
1531.000000	97.934704
1530.000000	97.934880
1529.000000	97.932291
1528.000000	97.928739
1527.000000	97.926923
1526.000000	97.927228
1525.000000	97.926763
1524.000000	97.924119
1523.000000	97.922163
1522.000000	97.925130
1521.000000	97.933993
1520.000000	97.943381
1519.000000	97.950130
1518.000000	97.957186
1517.000000	97.966268
1516.000000	97.975948
1515.000000	97.983997
1514.000000	97.991077
1513.000000	97.998839
1512.000000	98.007035
1511.000000	98.013973
1510.000000	98.018933
1509.000000	98.023246
1508.000000	98.028850
1507.000000	98.036365
1506.000000	98.041649
1505.000000	98.040180
1504.000000	98.037055
1503.000000	98.039731
1502.000000	98.048315
1501.000000	98.058467
1500.000000	98.065421
1499.000000	98.067174
1498.000000	98.064963
1497.000000	98.062670
1496.000000	98.065026
1495.000000	98.071699
1494.000000	98.078524
1493.000000	98.083569
1492.000000	98.088100
1491.000000	98.094188
1490.000000	98.100951
1489.000000	98.103911
1488.000000	98.101251
1487.000000	98.096242
1486.000000	98.092618
1485.000000	98.091643
1484.000000	98.091700
1483.000000	98.092283
1482.000000	98.094200
1481.000000	98.096552
1480.000000	98.097133
1479.000000	98.095694
1478.000000	98.095367
1477.000000	98.099564
1476.000000	98.108700
1475.000000	98.119012
1474.000000	98.126400
1473.000000	98.128789
1472.000000	98.126590
1471.000000	98.121615
1470.000000	98.116035
1469.000000	98.112197
1468.000000	98.110920
1467.000000	98.110300
1466.000000	98.107162
1465.000000	98.100092
1464.000000	98.091011
1463.000000	98.083165
1462.000000	98.076821
1461.000000	98.070439
1460.000000	98.063016
1459.000000	98.055212
1458.000000	98.047354
1457.000000	98.038605
1456.000000	98.028037
1455.000000	98.017398
1454.000000	98.011395
1453.000000	98.009826
1452.000000	98.008202
1451.000000	98.004642
1450.000000	98.001268
1449.000000	98.000668
1448.000000	98.002850
1447.000000	98.004863
1446.000000	98.005186
1445.000000	98.004293
1444.000000	98.002902
1443.000000	98.001295
1442.000000	97.998006
1441.000000	97.992056
1440.000000	97.984894
1439.000000	97.979471
1438.000000	97.975372
1437.000000	97.969132
1436.000000	97.959298
1435.000000	97.948600
1434.000000	97.940706
1433.000000	97.936325
1432.000000	97.933121
1431.000000	97.928913
1430.000000	97.923159
1429.000000	97.916183
1428.000000	97.909093
1427.000000	97.902769
1426.000000	97.898076
1425.000000	97.894066
1424.000000	97.888715
1423.000000	97.881943
1422.000000	97.874649
1421.000000	97.867080
1420.000000	97.859205
1419.000000	97.853307
1418.000000	97.851142
1417.000000	97.851503
1416.000000	97.853399
1415.000000	97.855725
1414.000000	97.856215
1413.000000	97.853276
1412.000000	97.848060
1411.000000	97.843794
1410.000000	97.842340
1409.000000	97.843163
1408.000000	97.845485
1407.000000	97.848764
1406.000000	97.853441
1405.000000	97.861194
1404.000000	97.873341
1403.000000	97.888607
1402.000000	97.903160
1401.000000	97.913986
1400.000000	97.920857
1399.000000	97.925606
1398.000000	97.928292
1397.000000	97.925771
1396.000000	97.916167
1395.000000	97.904308
1394.000000	97.900612
1393.000000	97.910229
1392.000000	97.928815
1391.000000	97.948553
1390.000000	97.963699
1389.000000	97.972171
1388.000000	97.974042
1387.000000	97.969795
1386.000000	97.961394
1385.000000	97.953614
1384.000000	97.951508
1383.000000	97.956494
1382.000000	97.965211
1381.000000	97.973408
1380.000000	97.980003
1379.000000	97.986556
1378.000000	97.994555
1377.000000	98.004464
1376.000000	98.016562
1375.000000	98.031093
1374.000000	98.047651
1373.000000	98.064532
1372.000000	98.080262
1371.000000	98.095318
1370.000000	98.112017
1369.000000	98.132010
1368.000000	98.153664
1367.000000	98.172481
1366.000000	98.184826
1365.000000	98.191448
1364.000000	98.196872
1363.000000	98.205383
1362.000000	98.216996
1361.000000	98.228238
1360.000000	98.236662
1359.000000	98.242256
1358.000000	98.245875
1357.000000	98.248584
1356.000000	98.251748
1355.000000	98.256096
1354.000000	98.260901
1353.000000	98.265151
1352.000000	98.269390
1351.000000	98.274386
1350.000000	98.279939
1349.000000	98.285138
1348.000000	98.290006
1347.000000	98.295903
1346.000000	98.303020
1345.000000	98.308701
1344.000000	98.309351
1343.000000	98.304131
1342.000000	98.296239
1341.000000	98.290808
1340.000000	98.291231
1339.000000	98.296537
1338.000000	98.302373
1337.000000	98.305297
1336.000000	98.305553
1335.000000	98.305527
1334.000000	98.306616
1333.000000	98.307863
1332.000000	98.307126
1331.000000	98.303150
1330.000000	98.296814
1329.000000	98.290702
1328.000000	98.287742
1327.000000	98.289544
1326.000000	98.295344
1325.000000	98.301967
1324.000000	98.305717
1323.000000	98.305288
1322.000000	98.302789
1321.000000	98.301690
1320.000000	98.303371
1319.000000	98.305639
1318.000000	98.304990
1317.000000	98.300644
1316.000000	98.295624
1315.000000	98.293388
1314.000000	98.293993
1313.000000	98.294413
1312.000000	98.292838
1311.000000	98.291462
1310.000000	98.294023
1309.000000	98.300892
1308.000000	98.307814
1307.000000	98.309860
1306.000000	98.306422
1305.000000	98.301336
1304.000000	98.298484
1303.000000	98.298441
1302.000000	98.299612
1301.000000	98.301246
1300.000000	98.303657
1299.000000	98.306100
1298.000000	98.306454
1297.000000	98.303882
1296.000000	98.300508
1295.000000	98.299301
1294.000000	98.300726
1293.000000	98.302254
1292.000000	98.300816
1291.000000	98.295236
1290.000000	98.286765
1289.000000	98.277685
1288.000000	98.269093
1287.000000	98.260098
1286.000000	98.249558
1285.000000	98.237942
1284.000000	98.226453
1283.000000	98.215123
1282.000000	98.203592
1281.000000	98.193290
1280.000000	98.185910
1279.000000	98.179480
1278.000000	98.169503
1277.000000	98.155692
1276.000000	98.144113
1275.000000	98.139823
1274.000000	98.140101
1273.000000	98.138176
1272.000000	98.131393
1271.000000	98.121664
1270.000000	98.110116
1269.000000	98.096910
1268.000000	98.085671
1267.000000	98.081639
1266.000000	98.083755
1265.000000	98.084079
1264.000000	98.077548
1263.000000	98.067426
1262.000000	98.058192
1261.000000	98.047760
1260.000000	98.031386
1259.000000	98.010605
1258.000000	97.993262
1257.000000	97.985042
1256.000000	97.984042
1255.000000	97.983131
1254.000000	97.975790
1253.000000	97.960496
1252.000000	97.941132
1251.000000	97.923056
1250.000000	97.908233
1249.000000	97.894979
1248.000000	97.882105
1247.000000	97.870658
1246.000000	97.860578
1245.000000	97.848568
1244.000000	97.831835
1243.000000	97.812674
1242.000000	97.797066
1241.000000	97.788616
1240.000000	97.784575
1239.000000	97.777506
1238.000000	97.761218
1237.000000	97.736487
1236.000000	97.710871
1235.000000	97.691406
1234.000000	97.677437
1233.000000	97.662164
1232.000000	97.640409
1231.000000	97.612382
1230.000000	97.580885
1229.000000	97.548610
1228.000000	97.518328
1227.000000	97.491519
1226.000000	97.465093
1225.000000	97.432553
1224.000000	97.390301
1223.000000	97.341023
1222.000000	97.290321
1221.000000	97.242132
1220.000000	97.197282
1219.000000	97.153031
1218.000000	97.103540
1217.000000	97.044589
1216.000000	96.978686
1215.000000	96.911927
1214.000000	96.845369
1213.000000	96.774310
1212.000000	96.697204
1211.000000	96.619705
1210.000000	96.547313
1209.000000	96.479304
1208.000000	96.413153
1207.000000	96.349207
1206.000000	96.286176
1205.000000	96.216841
1204.000000	96.134433
1203.000000	96.041540
1202.000000	95.948554
1201.000000	95.863674
1200.000000	95.786693
1199.000000	95.711459
1198.000000	95.632434
1197.000000	95.550134
1196.000000	95.471097
1195.000000	95.400649
1194.000000	95.335452
1193.000000	95.266245
1192.000000	95.188291
1191.000000	95.105483
1190.000000	95.023824
1189.000000	94.945471
1188.000000	94.870293
1187.000000	94.797799
1186.000000	94.724645
1185.000000	94.644838
1184.000000	94.555863
1183.000000	94.461383
1182.000000	94.365066
1181.000000	94.265148
1180.000000	94.158448
1179.000000	94.046997
1178.000000	93.936648
1177.000000	93.829881
1176.000000	93.722379
1175.000000	93.606540
1174.000000	93.478228
1173.000000	93.341279
1172.000000	93.204763
1171.000000	93.074234
1170.000000	92.947100
1169.000000	92.818699
1168.000000	92.689943
1167.000000	92.565159
1166.000000	92.447070
1165.000000	92.341666
1164.000000	92.264852
1163.000000	92.233714
1162.000000	92.249688
1161.000000	92.296677
1160.000000	92.355077
1159.000000	92.410297
1158.000000	92.449442
1157.000000	92.461248
1156.000000	92.442638
1155.000000	92.398682
1154.000000	92.334714
1153.000000	92.254155
1152.000000	92.163564
1151.000000	92.071570
1150.000000	91.981455
1149.000000	91.891963
1148.000000	91.805486
1147.000000	91.726221
1146.000000	91.648950
1145.000000	91.559828
1144.000000	91.452114
1143.000000	91.334020
1142.000000	91.219038
1141.000000	91.115436
1140.000000	91.025624
1139.000000	90.945439
1138.000000	90.860929
1137.000000	90.756219
1136.000000	90.630190
1135.000000	90.499224
1134.000000	90.379845
1133.000000	90.274089
1132.000000	90.173528
1131.000000	90.069464
1130.000000	89.956710
1129.000000	89.835519
1128.000000	89.713323
1127.000000	89.598649
1126.000000	89.491508
1125.000000	89.385304
1124.000000	89.277196
1123.000000	89.168881
1122.000000	89.059073
1121.000000	88.945258
1120.000000	88.831719
1119.000000	88.724411
1118.000000	88.618330
1117.000000	88.502371
1116.000000	88.376827
1115.000000	88.253340
1114.000000	88.137206
1113.000000	88.023853
1112.000000	87.914262
1111.000000	87.817482
1110.000000	87.733130
1109.000000	87.646149
1108.000000	87.544690
1107.000000	87.430162
1106.000000	87.305517
1105.000000	87.168720
1104.000000	87.024049
1103.000000	86.885015
1102.000000	86.758117
1101.000000	86.636200
1100.000000	86.513856
1099.000000	86.395752
1098.000000	86.283707
1097.000000	86.169776
1096.000000	86.049314
1095.000000	85.927815
1094.000000	85.808388
1093.000000	85.685709
1092.000000	85.558589
1091.000000	85.435133
1090.000000	85.319521
1089.000000	85.207263
1088.000000	85.098820
1087.000000	85.003051
1086.000000	84.920896
1085.000000	84.840306
1084.000000	84.754120
1083.000000	84.669125
1082.000000	84.591427
1081.000000	84.516961
1080.000000	84.442623
1079.000000	84.372718
1078.000000	84.308413
1077.000000	84.244460
1076.000000	84.181367
1075.000000	84.126152
1074.000000	84.075709
1073.000000	84.013981
1072.000000	83.929964
1071.000000	83.823358
1070.000000	83.689535
1069.000000	83.517303
1068.000000	83.309384
1067.000000	83.089918
1066.000000	82.881685
1065.000000	82.686538
1064.000000	82.494098
1063.000000	82.295097
1062.000000	82.080630
1061.000000	81.844775
1060.000000	81.596844
1059.000000	81.358242
1058.000000	81.139572
1057.000000	80.932378
1056.000000	80.727236
1055.000000	80.525274
1054.000000	80.327845
1053.000000	80.131341
1052.000000	79.938765
1051.000000	79.760626
1050.000000	79.597736
1049.000000	79.439231
1048.000000	79.281733
1047.000000	79.131860
1046.000000	78.987503
1045.000000	78.836210
1044.000000	78.673755
1043.000000	78.505878
1042.000000	78.331229
1041.000000	78.142959
1040.000000	77.950021
1039.000000	77.776110
1038.000000	77.631982
1037.000000	77.506409
1036.000000	77.386745
1035.000000	77.269194
1034.000000	77.147229
1033.000000	77.012680
1032.000000	76.873569
1031.000000	76.750511
1030.000000	76.650614
1029.000000	76.563257
1028.000000	76.483054
1027.000000	76.415806
1026.000000	76.359754
1025.000000	76.304484
1024.000000	76.252188
1023.000000	76.216453
1022.000000	76.194734
1021.000000	76.164234
1020.000000	76.110600
1019.000000	76.040563
1018.000000	75.963279
1017.000000	75.881533
1016.000000	75.804341
1015.000000	75.743321
1014.000000	75.690133
1013.000000	75.620486
1012.000000	75.528063
1011.000000	75.434253
1010.000000	75.358879
1009.000000	75.301832
1008.000000	75.257394
1007.000000	75.224346
1006.000000	75.196412
1005.000000	75.164022
1004.000000	75.131403
1003.000000	75.112610
1002.000000	75.107535
1001.000000	75.102389
1000.000000	75.095826
999.000000	75.101694
998.000000	75.122781
997.000000	75.145394
996.000000	75.163999
995.000000	75.187512
994.000000	75.216782
993.000000	75.240749
992.000000	75.261324
991.000000	75.297862
990.000000	75.358551
989.000000	75.429365
988.000000	75.498908
987.000000	75.572879
986.000000	75.656320
985.000000	75.743397
984.000000	75.833788
983.000000	75.939239
982.000000	76.064499
981.000000	76.199643
980.000000	76.339200
979.000000	76.491802
978.000000	76.663815
977.000000	76.850137
976.000000	77.047478
975.000000	77.260131
974.000000	77.486359
973.000000	77.715369
972.000000	77.943874
971.000000	78.180836
970.000000	78.430893
969.000000	78.687494
968.000000	78.946032
967.000000	79.208553
966.000000	79.471730
965.000000	79.725823
964.000000	79.970444
963.000000	80.217437
962.000000	80.473192
961.000000	80.729907
960.000000	80.977439
959.000000	81.212471
958.000000	81.434570
957.000000	81.645084
956.000000	81.850713
955.000000	82.056476
954.000000	82.255592
953.000000	82.438789
952.000000	82.611746
951.000000	82.788619
950.000000	82.968840
949.000000	83.135809
948.000000	83.279328
947.000000	83.404765
946.000000	83.520355
945.000000	83.630661
944.000000	83.743282
943.000000	83.865502
942.000000	83.990841
941.000000	84.102866
940.000000	84.195016
939.000000	84.275003
938.000000	84.350810
937.000000	84.426860
936.000000	84.512848
935.000000	84.617952
934.000000	84.733328
933.000000	84.837512
932.000000	84.923424
931.000000	85.005377
930.000000	85.096819
929.000000	85.196666
928.000000	85.300344
927.000000	85.406701
926.000000	85.508427
925.000000	85.592400
924.000000	85.657778
923.000000	85.720914
922.000000	85.794907
921.000000	85.874698
920.000000	85.947290
919.000000	86.005661
918.000000	86.048795
917.000000	86.080341
916.000000	86.112758
915.000000	86.162371
914.000000	86.235185
913.000000	86.325325
912.000000	86.428174
911.000000	86.544595
910.000000	86.672902
909.000000	86.810939
908.000000	86.967695
907.000000	87.157843
906.000000	87.380898
905.000000	87.618450
904.000000	87.855564
903.000000	88.093034
902.000000	88.335664
901.000000	88.581516
900.000000	88.826804
899.000000	89.070309
898.000000	89.308978
897.000000	89.538297
896.000000	89.759459
895.000000	89.977825
894.000000	90.193378
893.000000	90.400814
892.000000	90.598626
891.000000	90.789482
890.000000	90.973346
889.000000	91.149923
888.000000	91.325357
887.000000	91.504668
886.000000	91.678871
885.000000	91.832273
884.000000	91.963123
883.000000	92.086611
882.000000	92.219041
881.000000	92.370944
880.000000	92.552334
879.000000	92.766180
878.000000	92.993997
877.000000	93.205411
876.000000	93.388322
875.000000	93.557791
874.000000	93.733363
873.000000	93.920570
872.000000	94.115429
871.000000	94.310931
870.000000	94.495264
869.000000	94.658827
868.000000	94.808760
867.000000	94.964966
866.000000	95.137169
865.000000	95.315803
864.000000	95.488600
863.000000	95.654844
862.000000	95.818444
861.000000	95.977531
860.000000	96.128007
859.000000	96.270590
858.000000	96.408969
857.000000	96.545806
856.000000	96.682751
855.000000	96.818212
854.000000	96.943653
853.000000	97.049597
852.000000	97.137532
851.000000	97.218819
850.000000	97.299849
849.000000	97.375869
848.000000	97.441081
847.000000	97.495595
846.000000	97.539357
845.000000	97.568633
844.000000	97.583422
843.000000	97.591024
842.000000	97.597643
841.000000	97.601892
840.000000	97.598590
839.000000	97.580971
838.000000	97.536704
837.000000	97.453074
836.000000	97.335060
835.000000	97.213168
834.000000	97.124966
833.000000	97.088206
832.000000	97.091722
831.000000	97.105566
830.000000	97.100040
829.000000	97.067866
828.000000	97.035021
827.000000	97.040040
826.000000	97.092119
825.000000	97.155917
824.000000	97.187186
823.000000	97.175767
822.000000	97.143809
821.000000	97.111812
820.000000	97.081573
819.000000	97.046117
818.000000	96.998645
817.000000	96.928419
816.000000	96.818448
815.000000	96.655526
814.000000	96.442339
813.000000	96.195113
812.000000	95.925738
811.000000	95.626084
810.000000	95.272196
809.000000	94.844407
808.000000	94.340084
807.000000	93.767767
806.000000	93.140350
805.000000	92.483376
804.000000	91.840548
803.000000	91.252080
802.000000	90.726619
801.000000	90.251140
800.000000	89.830255
799.000000	89.497107
798.000000	89.281627
797.000000	89.186695
796.000000	89.197712
795.000000	89.291772
794.000000	89.429389
793.000000	89.561049
792.000000	89.659013
791.000000	89.731598
790.000000	89.796564
789.000000	89.851028
788.000000	89.874208
787.000000	89.846982
786.000000	89.759366
785.000000	89.609968
784.000000	89.410867
783.000000	89.188669
782.000000	88.972266
781.000000	88.782281
780.000000	88.634342
779.000000	88.542298
778.000000	88.510936
777.000000	88.533496
776.000000	88.603560
775.000000	88.724386
774.000000	88.902443
773.000000	89.135384
772.000000	89.406138
771.000000	89.683784
770.000000	89.934404
769.000000	90.141880
768.000000	90.318634
767.000000	90.489071
766.000000	90.663112
765.000000	90.830839
764.000000	90.978161
763.000000	91.098715
762.000000	91.194938
761.000000	91.279501
760.000000	91.373998
759.000000	91.493889
758.000000	91.632642
757.000000	91.768467
756.000000	91.885768
755.000000	91.983168
754.000000	92.066215
753.000000	92.144582
752.000000	92.233820
751.000000	92.346285
750.000000	92.478685
