4000.000000	100.790108
3999.000000	100.790035
3998.000000	100.789943
3997.000000	100.789816
3996.000000	100.789644
3995.000000	100.789427
3994.000000	100.789178
3993.000000	100.788916
3992.000000	100.788653
3991.000000	100.788388
3990.000000	100.788108
3989.000000	100.787799
3988.000000	100.787456
3987.000000	100.787091
3986.000000	100.786728
3985.000000	100.786392
3984.000000	100.786093
3983.000000	100.785824
3982.000000	100.785556
3981.000000	100.785252
3980.000000	100.784891
3979.000000	100.784468
3978.000000	100.784006
3977.000000	100.783531
3976.000000	100.783064
3975.000000	100.782590
3974.000000	100.782070
3973.000000	100.781493
3972.000000	100.780933
3971.000000	100.780501
3970.000000	100.780265
3969.000000	100.780161
3968.000000	100.780017
3967.000000	100.779675
3966.000000	100.779120
3965.000000	100.778541
3964.000000	100.778211
3963.000000	100.778236
3962.000000	100.778376
3961.000000	100.778170
3960.000000	100.777316
3959.000000	100.775868
3958.000000	100.774144
3957.000000	100.772445
3956.000000	100.770930
3955.000000	100.769721
3954.000000	100.768982
3953.000000	100.768881
3952.000000	100.769459
3951.000000	100.770476
3950.000000	100.771396
3949.000000	100.771627
3948.000000	100.770892
3947.000000	100.769427
3946.000000	100.767874
3945.000000	100.766863
3944.000000	100.766630
3943.000000	100.766949
3942.000000	100.767281
3941.000000	100.767115
3940.000000	100.766281
3939.000000	100.765004
3938.000000	100.763718
3937.000000	100.762745
3936.000000	100.762114
3935.000000	100.761802
3934.000000	100.761976
3933.000000	100.762831
3932.000000	100.764205
3931.000000	100.765534
3930.000000	100.766345
3929.000000	100.766654
3928.000000	100.766792
3927.000000	100.766957
3926.000000	100.767007
3925.000000	100.766755
3924.000000	100.766289
3923.000000	100.765820
3922.000000	100.765425
3921.000000	100.765152
3920.000000	100.765155
3919.000000	100.765526
3918.000000	100.766085
3917.000000	100.766477
3916.000000	100.766533
3915.000000	100.766403
3914.000000	100.766349
3913.000000	100.766514
3912.000000	100.766857
3911.000000	100.767263
3910.000000	100.767606
3909.000000	100.767805
3908.000000	100.767842
3907.000000	100.767757
3906.000000	100.767656
3905.000000	100.767669
3904.000000	100.767859
3903.000000	100.768211
3902.000000	100.768672
3901.000000	100.769158
3900.000000	100.769587
3899.000000	100.769927
3898.000000	100.770215
3897.000000	100.770494
3896.000000	100.770762
3895.000000	100.771005
3894.000000	100.771199
3893.000000	100.771253
3892.000000	100.771024
3891.000000	100.770518
3890.000000	100.769901
3889.000000	100.769169
3888.000000	100.767991
3887.000000	100.766420
3886.000000	100.765505
3885.000000	100.766344
3884.000000	100.768717
3883.000000	100.770885
3882.000000	100.771188
3881.000000	100.769839
3880.000000	100.768470
3879.000000	100.767938
3878.000000	100.767467
3877.000000	100.765832
3876.000000	100.763121
3875.000000	100.761167
3874.000000	100.761731
3873.000000	100.764684
3872.000000	100.767942
3871.000000	100.769034
3870.000000	100.767196
3869.000000	100.763845
3868.000000	100.760743
3867.000000	100.758029
3866.000000	100.755425
3865.000000	100.754832
3864.000000	100.758707
3863.000000	100.766477
3862.000000	100.774684
3861.000000	100.780058
3860.000000	100.781152
3859.000000	100.777556
3858.000000	100.769313
3857.000000	100.757581
3856.000000	100.744412
3855.000000	100.732109
3854.000000	100.723038
3853.000000	100.719213
3852.000000	100.721477
3851.000000	100.727708
3850.000000	100.733522
3849.000000	100.738239
3848.000000	100.744702
3847.000000	100.753066
3846.000000	100.760396
3845.000000	100.764427
3844.000000	100.765322
3843.000000	100.764620
3842.000000	100.763485
3841.000000	100.761688
3840.000000	100.757895
3839.000000	100.751731
3838.000000	100.745008
3837.000000	100.740075
3836.000000	100.738143
3835.000000	100.739430
3834.000000	100.743160
3833.000000	100.747764
3832.000000	100.752158
3831.000000	100.756903
3830.000000	100.763304
3829.000000	100.771052
3828.000000	100.777726
3827.000000	100.781211
3826.000000	100.781979
3825.000000	100.782291
3824.000000	100.783113
3823.000000	100.782930
3822.000000	100.780047
3821.000000	100.775241
3820.000000	100.771388
3819.000000	100.770077
3818.000000	100.770140
3817.000000	100.770710
3816.000000	100.772493
3815.000000	100.775357
3814.000000	100.777777
3813.000000	100.778295
3812.000000	100.777182
3811.000000	100.776595
3810.000000	100.777881
3809.000000	100.779947
3808.000000	100.780862
3807.000000	100.779967
3806.000000	100.778363
3805.000000	100.777488
3804.000000	100.777580
3803.000000	100.778214
3802.000000	100.779242
3801.000000	100.780144
3800.000000	100.779797
3799.000000	100.777308
3798.000000	100.773028
3797.000000	100.769640
3796.000000	100.770309
3795.000000	100.775489
3794.000000	100.782589
3793.000000	100.788118
3792.000000	100.790548
3791.000000	100.790804
3790.000000	100.790834
3789.000000	100.791724
3788.000000	100.792989
3787.000000	100.793242
3786.000000	100.791421
3785.000000	100.787691
3784.000000	100.783261
3783.000000	100.779377
3782.000000	100.776575
3781.000000	100.774847
3780.000000	100.774212
3779.000000	100.774818
3778.000000	100.776502
3777.000000	100.778477
3776.000000	100.779538
3775.000000	100.778757
3774.000000	100.775933
3773.000000	100.771536
3772.000000	100.766532
3771.000000	100.762466
3770.000000	100.761037
3769.000000	100.762585
3768.000000	100.765065
3767.000000	100.765421
3766.000000	100.762765
3765.000000	100.759740
3764.000000	100.759787
3763.000000	100.763296
3762.000000	100.767006
3761.000000	100.767133
3760.000000	100.762700
3759.000000	100.755927
3758.000000	100.750122
3757.000000	100.747342
3756.000000	100.747477
3755.000000	100.747877
3754.000000	100.744032
3753.000000	100.733318
3752.000000	100.718065
3751.000000	100.703319
3750.000000	100.692137
3749.000000	100.685230
3748.000000	100.682973
3747.000000	100.682670
3746.000000	100.677411
3745.000000	100.665240
3744.000000	100.655608
3743.000000	100.659577
3742.000000	100.674357
3741.000000	100.684457
3740.000000	100.683428
3739.000000	100.679305
3738.000000	100.678185
3737.000000	100.680127
3736.000000	100.683268
3735.000000	100.684411
3734.000000	100.680540
3733.000000	100.671513
3732.000000	100.661374
3731.000000	100.654896
3730.000000	100.651462
3729.000000	100.644880
3728.000000	100.630524
3727.000000	100.610577
3726.000000	100.591968
3725.000000	100.580345
3724.000000	100.576270
3723.000000	100.576643
3722.000000	100.577615
3721.000000	100.574073
3720.000000	100.559906
3719.000000	100.532212
3718.000000	100.494600
3717.000000	100.454913
3716.000000	100.418831
3715.000000	100.385808
3714.000000	100.351326
3713.000000	100.313394
3712.000000	100.275448
3711.000000	100.241760
3710.000000	100.211550
3709.000000	100.180947
3708.000000	100.149449
3707.000000	100.120117
3706.000000	100.094867
3705.000000	100.072611
3704.000000	100.050988
3703.000000	100.029042
3702.000000	100.008212
3701.000000	99.990548
3700.000000	99.976572
3699.000000	99.965183
3698.000000	99.955450
3697.000000	99.947862
3696.000000	99.943414
3695.000000	99.940937
3694.000000	99.936439
3693.000000	99.927114
3692.000000	99.915517
3691.000000	99.907498
3690.000000	99.904896
3689.000000	99.901461
3688.000000	99.889497
3687.000000	99.870534
3686.000000	99.853903
3685.000000	99.846649
3684.000000	99.849070
3683.000000	99.855263
3682.000000	99.855727
3681.000000	99.844335
3680.000000	99.823404
3679.000000	99.800395
3678.000000	99.779431
3677.000000	99.756692
3676.000000	99.726499
3675.000000	99.690706
3674.000000	99.656563
3673.000000	99.624075
3672.000000	99.585069
3671.000000	99.537569
3670.000000	99.491020
3669.000000	99.455702
3668.000000	99.432785
3667.000000	99.415176
3666.000000	99.395890
3665.000000	99.372464
3664.000000	99.344530
3663.000000	99.313054
3662.000000	99.281117
3661.000000	99.252160
3660.000000	99.226702
3659.000000	99.201300
3658.000000	99.171714
3657.000000	99.138374
3656.000000	99.107676
3655.000000	99.085244
3654.000000	99.068648
3653.000000	99.049235
3652.000000	99.021868
3651.000000	98.989935
3650.000000	98.959541
3649.000000	98.930743
3648.000000	98.897585
3647.000000	98.858697
3646.000000	98.822577
3645.000000	98.796836
3644.000000	98.779233
3643.000000	98.763152
3642.000000	98.745257
3641.000000	98.726066
3640.000000	98.705923
3639.000000	98.683024
3638.000000	98.655871
3637.000000	98.626017
3636.000000	98.597164
3635.000000	98.572836
3634.000000	98.555240
3633.000000	98.543876
3632.000000	98.533670
3631.000000	98.516141
3630.000000	98.486234
3629.000000	98.449164
3628.000000	98.417315
3627.000000	98.397003
3626.000000	98.382814
3625.000000	98.369475
3624.000000	98.360671
3623.000000	98.361076
3622.000000	98.369702
3621.000000	98.383855
3620.000000	98.402714
3619.000000	98.425504
3618.000000	98.449474
3617.000000	98.471657
3616.000000	98.491727
3615.000000	98.512441
3614.000000	98.536999
3613.000000	98.565346
3612.000000	98.593129
3611.000000	98.614623
3610.000000	98.627456
3609.000000	98.635366
3608.000000	98.645766
3607.000000	98.663049
3606.000000	98.684681
3605.000000	98.704535
3604.000000	98.718935
3603.000000	98.729282
3602.000000	98.740606
3601.000000	98.757892
3600.000000	98.781456
3599.000000	98.805090
3598.000000	98.820026
3597.000000	98.822322
3596.000000	98.816691
3595.000000	98.812363
3594.000000	98.815022
3593.000000	98.823275
3592.000000	98.832545
3591.000000	98.840647
3590.000000	98.849364
3589.000000	98.861163
3588.000000	98.874957
3587.000000	98.885720
3586.000000	98.888522
3585.000000	98.882273
3584.000000	98.870422
3583.000000	98.858856
3582.000000	98.852088
3581.000000	98.850636
3580.000000	98.851666
3579.000000	98.852023
3578.000000	98.850663
3577.000000	98.848683
3576.000000	98.847869
3575.000000	98.849116
3574.000000	98.851813
3573.000000	98.854241
3572.000000	98.854656
3571.000000	98.852723
3570.000000	98.850485
3569.000000	98.851574
3568.000000	98.858046
3567.000000	98.867173
3566.000000	98.872670
3565.000000	98.870087
3564.000000	98.860050
3563.000000	98.847047
3562.000000	98.836262
3561.000000	98.831000
3560.000000	98.831575
3559.000000	98.835649
3558.000000	98.839975
3557.000000	98.842484
3556.000000	98.842963
3555.000000	98.842004
3554.000000	98.840045
3553.000000	98.837661
3552.000000	98.835790
3551.000000	98.834698
3550.000000	98.833222
3549.000000	98.830075
3548.000000	98.825732
3547.000000	98.822223
3546.000000	98.820868
3545.000000	98.820952
3544.000000	98.820947
3543.000000	98.820139
3542.000000	98.818767
3541.000000	98.817222
3540.000000	98.815534
3539.000000	98.813471
3538.000000	98.811054
3537.000000	98.808820
3536.000000	98.807398
3535.000000	98.806896
3534.000000	98.806758
3533.000000	98.806255
3532.000000	98.805150
3531.000000	98.803787
3530.000000	98.802662
3529.000000	98.801924
3528.000000	98.801279
3527.000000	98.800350
3526.000000	98.799035
3525.000000	98.797560
3524.000000	98.796277
3523.000000	98.795464
3522.000000	98.795218
3521.000000	98.795397
3520.000000	98.795629
3519.000000	98.795446
3518.000000	98.794507
3517.000000	98.792800
3516.000000	98.790682
3515.000000	98.788684
3514.000000	98.787182
3513.000000	98.786115
3512.000000	98.785002
3511.000000	98.783356
3510.000000	98.781163
3509.000000	98.778915
3508.000000	98.777129
3507.000000	98.775901
3506.000000	98.774983
3505.000000	98.774153
3504.000000	98.773475
3503.000000	98.773184
3502.000000	98.773289
3501.000000	98.773244
3500.000000	98.772070
3499.000000	98.769040
3498.000000	98.764364
3497.000000	98.759447
3496.000000	98.756000
3495.000000	98.754692
3494.000000	98.754861
3493.000000	98.755162
3492.000000	98.754678
3491.000000	98.753185
3490.000000	98.750652
3489.000000	98.747153
3488.000000	98.743238
3487.000000	98.739822
3486.000000	98.737413
3485.000000	98.735787
3484.000000	98.734577
3483.000000	98.733740
3482.000000	98.733022
3481.000000	98.731451
3480.000000	98.728151
3479.000000	98.723498
3478.000000	98.718742
3477.000000	98.714445
3476.000000	98.710041
3475.000000	98.705064
3474.000000	98.700132
3473.000000	98.696262
3472.000000	98.693637
3471.000000	98.691600
3470.000000	98.689545
3469.000000	98.687190
3468.000000	98.683977
3467.000000	98.678919
3466.000000	98.671505
3465.000000	98.662663
3464.000000	98.654581
3463.000000	98.649338
3462.000000	98.647529
3461.000000	98.647905
3460.000000	98.648239
3459.000000	98.647074
3458.000000	98.644790
3457.000000	98.642896
3456.000000	98.642251
3455.000000	98.642120
3454.000000	98.641061
3453.000000	98.638446
3452.000000	98.635028
3451.000000	98.632093
3450.000000	98.630284
3449.000000	98.629194
3448.000000	98.627725
3447.000000	98.624806
3446.000000	98.620145
3445.000000	98.614521
3444.000000	98.609251
3443.000000	98.605105
3442.000000	98.601858
3441.000000	98.599092
3440.000000	98.597150
3439.000000	98.596678
3438.000000	98.597260
3437.000000	98.597285
3436.000000	98.595716
3435.000000	98.593393
3434.000000	98.591761
3433.000000	98.590514
3432.000000	98.587590
3431.000000	98.581754
3430.000000	98.574248
3429.000000	98.567529
3428.000000	98.562840
3427.000000	98.559817
3426.000000	98.557971
3425.000000	98.557503
3424.000000	98.558574
3423.000000	98.560471
3422.000000	98.561878
3421.000000	98.561723
3420.000000	98.559666
3419.000000	98.556232
3418.000000	98.552686
3417.000000	98.550397
3416.000000	98.549966
3415.000000	98.550938
3414.000000	98.552318
3413.000000	98.553152
3412.000000	98.552571
3411.000000	98.549751
3410.000000	98.544445
3409.000000	98.537659
3408.000000	98.531435
3407.000000	98.527429
3406.000000	98.525797
3405.000000	98.525501
3404.000000	98.525624
3403.000000	98.526365
3402.000000	98.528555
3401.000000	98.532318
3400.000000	98.536429
3399.000000	98.539076
3398.000000	98.539199
3397.000000	98.536994
3396.000000	98.533434
3395.000000	98.529666
3394.000000	98.526773
3393.000000	98.525547
3392.000000	98.526007
3391.000000	98.527215
3390.000000	98.527977
3389.000000	98.527913
3388.000000	98.527704
3387.000000	98.528290
3386.000000	98.529971
3385.000000	98.532249
3384.000000	98.534353
3383.000000	98.535750
3382.000000	98.536229
3381.000000	98.535775
3380.000000	98.534583
3379.000000	98.533130
3378.000000	98.532025
3377.000000	98.531628
3376.000000	98.531920
3375.000000	98.532800
3374.000000	98.534367
3373.000000	98.536665
3372.000000	98.539247
3371.000000	98.541326
3370.000000	98.542381
3369.000000	98.542535
3368.000000	98.542436
3367.000000	98.542855
3366.000000	98.544219
3365.000000	98.546363
3364.000000	98.548638
3363.000000	98.550380
3362.000000	98.551436
3361.000000	98.552210
3360.000000	98.553285
3359.000000	98.554944
3358.000000	98.557002
3357.000000	98.558977
3356.000000	98.560387
3355.000000	98.561045
3354.000000	98.561230
3353.000000	98.561566
3352.000000	98.562478
3351.000000	98.563785
3350.000000	98.564951
3349.000000	98.565804
3348.000000	98.566812
3347.000000	98.568580
3346.000000	98.571244
3345.000000	98.574422
3344.000000	98.577531
3343.000000	98.580101
3342.000000	98.581928
3341.000000	98.583118
3340.000000	98.584031
3339.000000	98.585008
3338.000000	98.586104
3337.000000	98.587139
3336.000000	98.588080
3335.000000	98.589301
3334.000000	98.591304
3333.000000	98.594192
3332.000000	98.597444
3331.000000	98.600249
3330.000000	98.602236
3329.000000	98.603676
3328.000000	98.605026
3327.000000	98.606413
3326.000000	98.607728
3325.000000	98.609034
3324.000000	98.610542
3323.000000	98.612271
3322.000000	98.614012
3321.000000	98.615647
3320.000000	98.617264
3319.000000	98.618930
3318.000000	98.620541
3317.000000	98.622001
3316.000000	98.623390
3315.000000	98.624888
3314.000000	98.626573
3313.000000	98.628387
3312.000000	98.630226
3311.000000	98.632024
3310.000000	98.633778
3309.000000	98.635516
3308.000000	98.637267
3307.000000	98.639037
3306.000000	98.640815
3305.000000	98.642591
3304.000000	98.644357
3303.000000	98.646107
3302.000000	98.647843
3301.000000	98.649571
3300.000000	98.651292
3299.000000	98.653005
3298.000000	98.654709
3297.000000	98.656403
3296.000000	98.658089
3295.000000	98.659756
3294.000000	98.661392
3293.000000	98.662989
3292.000000	98.664553
3291.000000	98.666100
3290.000000	98.667653
3289.000000	98.669231
3288.000000	98.670846
3287.000000	98.672497
3286.000000	98.674168
3285.000000	98.675845
3284.000000	98.677521
3283.000000	98.679202
3282.000000	98.680897
3281.000000	98.682614
3280.000000	98.684355
3279.000000	98.686120
3278.000000	98.687908
3277.000000	98.689717
3276.000000	98.691547
3275.000000	98.693393
3274.000000	98.695256
3273.000000	98.697143
3272.000000	98.699047
3271.000000	98.700954
3270.000000	98.702867
3269.000000	98.704837
3268.000000	98.706916
3267.000000	98.709050
3266.000000	98.711063
3265.000000	98.712838
3264.000000	98.714443
3263.000000	98.716050
3262.000000	98.717725
3261.000000	98.719405
3260.000000	98.721058
3259.000000	98.722689
3258.000000	98.724201
3257.000000	98.725493
3256.000000	98.726804
3255.000000	98.728674
3254.000000	98.731399
3253.000000	98.734679
3252.000000	98.737915
3251.000000	98.740770
3250.000000	98.743247
3249.000000	98.745488
3248.000000	98.747624
3247.000000	98.749779
3246.000000	98.752090
3245.000000	98.754695
3244.000000	98.757679
3243.000000	98.760882
3242.000000	98.763830
3241.000000	98.766133
3240.000000	98.768143
3239.000000	98.770987
3238.000000	98.775620
3237.000000	98.781696
3236.000000	98.787457
3235.000000	98.791028
3234.000000	98.791852
3233.000000	98.791025
3232.000000	98.790374
3231.000000	98.791019
3230.000000	98.792921
3229.000000	98.795613
3228.000000	98.798983
3227.000000	98.803172
3226.000000	98.807881
3225.000000	98.812174
3224.000000	98.815173
3223.000000	98.816893
3222.000000	98.818315
3221.000000	98.820644
3220.000000	98.824443
3219.000000	98.829371
3218.000000	98.834650
3217.000000	98.839668
3216.000000	98.844111
3215.000000	98.847698
3214.000000	98.850114
3213.000000	98.851288
3212.000000	98.851565
3211.000000	98.851590
3210.000000	98.852270
3209.000000	98.854891
3208.000000	98.860705
3207.000000	98.869902
3206.000000	98.880888
3205.000000	98.890957
3204.000000	98.898264
3203.000000	98.903027
3202.000000	98.907034
3201.000000	98.912044
3200.000000	98.918369
3199.000000	98.924728
3198.000000	98.929435
3197.000000	98.931885
3196.000000	98.933112
3195.000000	98.935020
3194.000000	98.938814
3193.000000	98.944006
3192.000000	98.948830
3191.000000	98.951837
3190.000000	98.953315
3189.000000	98.955026
3188.000000	98.958299
3187.000000	98.962601
3186.000000	98.966444
3185.000000	98.969585
3184.000000	98.973616
3183.000000	98.980083
3182.000000	98.988789
3181.000000	98.998210
3180.000000	99.006973
3179.000000	99.014408
3178.000000	99.020085
3177.000000	99.023733
3176.000000	99.025725
3175.000000	99.027135
3174.000000	99.029145
3173.000000	99.032543
3172.000000	99.037579
3171.000000	99.043817
3170.000000	99.050197
3169.000000	99.055907
3168.000000	99.061303
3167.000000	99.067490
3166.000000	99.074887
3165.000000	99.082474
3164.000000	99.088710
3163.000000	99.092974
3162.000000	99.095788
3161.000000	99.098280
3160.000000	99.101478
3159.000000	99.105846
3158.000000	99.111211
3157.000000	99.116947
3156.000000	99.122452
3155.000000	99.127512
3154.000000	99.132196
3153.000000	99.136591
3152.000000	99.140749
3151.000000	99.144778
3150.000000	99.148806
3149.000000	99.152924
3148.000000	99.157268
3147.000000	99.161991
3146.000000	99.167024
3145.000000	99.172020
3144.000000	99.176671
3143.000000	99.181015
3142.000000	99.185329
3141.000000	99.189803
3140.000000	99.194407
3139.000000	99.199031
3138.000000	99.203649
3137.000000	99.208310
3136.000000	99.213027
3135.000000	99.217756
3134.000000	99.222468
3133.000000	99.227172
3132.000000	99.231879
3131.000000	99.236587
3130.000000	99.241300
3129.000000	99.246017
3128.000000	99.250739
3127.000000	99.255469
3126.000000	99.260208
3125.000000	99.264950
3124.000000	99.269679
3123.000000	99.274384
3122.000000	99.279064
3121.000000	99.283735
3120.000000	99.288422
3119.000000	99.293146
3118.000000	99.297908
3117.000000	99.302696
3116.000000	99.307491
3115.000000	99.312285
3114.000000	99.317078
3113.000000	99.321874
3112.000000	99.326675
3111.000000	99.331482
3110.000000	99.336296
3109.000000	99.341112
3108.000000	99.345928
3107.000000	99.350737
3106.000000	99.355536
3105.000000	99.360324
3104.000000	99.365101
3103.000000	99.369869
3102.000000	99.374635
3101.000000	99.379402
3100.000000	99.384173
3099.000000	99.388951
3098.000000	99.393735
3097.000000	99.398508
3096.000000	99.403246
3095.000000	99.407925
3094.000000	99.412525
3093.000000	99.417042
3092.000000	99.421514
3091.000000	99.426015
3090.000000	99.430613
3089.000000	99.435320
3088.000000	99.440094
3087.000000	99.444858
3086.000000	99.449497
3085.000000	99.453877
3084.000000	99.457973
3083.000000	99.461940
3082.000000	99.466004
3081.000000	99.470276
3080.000000	99.474767
3079.000000	99.479495
3078.000000	99.484458
3077.000000	99.489479
3076.000000	99.494216
3075.000000	99.498454
3074.000000	99.502267
3073.000000	99.505887
3072.000000	99.509559
3071.000000	99.513474
3070.000000	99.517667
3069.000000	99.521928
3068.000000	99.525955
3067.000000	99.529727
3066.000000	99.533610
3065.000000	99.537944
3064.000000	99.542663
3063.000000	99.547419
3062.000000	99.551959
3061.000000	99.556263
3060.000000	99.560418
3059.000000	99.564573
3058.000000	99.568933
3057.000000	99.573579
3056.000000	99.578256
3055.000000	99.582577
3054.000000	99.586482
3053.000000	99.590315
3052.000000	99.594399
3051.000000	99.598694
3050.000000	99.602965
3049.000000	99.607134
3048.000000	99.611354
3047.000000	99.615882
3046.000000	99.620962
3045.000000	99.626661
3044.000000	99.632553
3043.000000	99.637804
3042.000000	99.641917
3041.000000	99.645243
3040.000000	99.648584
3039.000000	99.652197
3038.000000	99.655678
3037.000000	99.658932
3036.000000	99.662734
3035.000000	99.667888
3034.000000	99.674257
3033.000000	99.680833
3032.000000	99.686708
3031.000000	99.691831
3030.000000	99.696865
3029.000000	99.702462
3028.000000	99.708538
3027.000000	99.714240
3026.000000	99.718777
3025.000000	99.722220
3024.000000	99.725346
3023.000000	99.728675
3022.000000	99.732109
3021.000000	99.735677
3020.000000	99.740037
3019.000000	99.745554
3018.000000	99.751203
3017.000000	99.755512
3016.000000	99.758752
3015.000000	99.763127
3014.000000	99.770375
3013.000000	99.779931
3012.000000	99.789733
3011.000000	99.798117
3010.000000	99.804371
3009.000000	99.808213
3008.000000	99.809794
3007.000000	99.810072
3006.000000	99.810432
3005.000000	99.811731
3004.000000	99.813983
3003.000000	99.817073
3002.000000	99.821566
3001.000000	99.828591
3000.000000	99.838618
2999.000000	99.850156
2998.000000	99.860122
2997.000000	99.866186
2996.000000	99.868776
2995.000000	99.870636
2994.000000	99.874536
2993.000000	99.881682
2992.000000	99.891634
2991.000000	99.902517
2990.000000	99.911311
2989.000000	99.915463
2988.000000	99.915243
2987.000000	99.913927
2986.000000	99.914887
2985.000000	99.918910
2984.000000	99.924981
2983.000000	99.932682
2982.000000	99.942179
2981.000000	99.951881
2980.000000	99.958105
2979.000000	99.958557
2978.000000	99.955452
2977.000000	99.953712
2976.000000	99.955577
2975.000000	99.958219
2974.000000	99.957688
2973.000000	99.953984
2972.000000	99.950883
2971.000000	99.951020
2970.000000	99.952782
2969.000000	99.952653
2968.000000	99.949059
2967.000000	99.942906
2966.000000	99.935470
2965.000000	99.927333
2964.000000	99.919070
2963.000000	99.911549
2962.000000	99.905435
2961.000000	99.901200
2960.000000	99.899375
2959.000000	99.899781
2958.000000	99.900808
2957.000000	99.900810
2956.000000	99.900345
2955.000000	99.901673
2954.000000	99.905549
2953.000000	99.909538
2952.000000	99.910118
2951.000000	99.905853
2950.000000	99.898283
2949.000000	99.890445
2948.000000	99.884663
2947.000000	99.880859
2946.000000	99.876741
2945.000000	99.870615
2944.000000	99.864248
2943.000000	99.861670
2942.000000	99.864554
2941.000000	99.870115
2940.000000	99.874309
2939.000000	99.875967
2938.000000	99.876219
2937.000000	99.874999
2936.000000	99.870528
2935.000000	99.862540
2934.000000	99.854224
2933.000000	99.850005
2932.000000	99.852068
2931.000000	99.859302
2930.000000	99.868519
2929.000000	99.876472
2928.000000	99.881642
2927.000000	99.884942
2926.000000	99.888826
2925.000000	99.895359
2924.000000	99.904760
2923.000000	99.915308
2922.000000	99.924490
2921.000000	99.930937
2920.000000	99.935974
2919.000000	99.943079
2918.000000	99.954961
2917.000000	99.970822
2916.000000	99.986660
2915.000000	99.998463
2914.000000	100.005234
2913.000000	100.009256
2912.000000	100.013953
2911.000000	100.021110
2910.000000	100.029445
2909.000000	100.035891
2908.000000	100.038852
2907.000000	100.040097
2906.000000	100.042811
2905.000000	100.047744
2904.000000	100.052520
2903.000000	100.055238
2902.000000	100.057486
2901.000000	100.062296
2900.000000	100.069506
2899.000000	100.075018
2898.000000	100.075514
2897.000000	100.072784
2896.000000	100.072481
2895.000000	100.078654
2894.000000	100.090192
2893.000000	100.102094
2892.000000	100.109598
2891.000000	100.111286
2890.000000	100.109254
2889.000000	100.107272
2888.000000	100.108079
2887.000000	100.111630
2886.000000	100.115834
2885.000000	100.118899
2884.000000	100.120769
2883.000000	100.122318
2882.000000	100.123780
2881.000000	100.124549
2880.000000	100.124222
2879.000000	100.123298
2878.000000	100.123030
2877.000000	100.124979
2876.000000	100.130327
2875.000000	100.138751
2874.000000	100.147813
2873.000000	100.154271
2872.000000	100.156394
2871.000000	100.154938
2870.000000	100.151948
2869.000000	100.149003
2868.000000	100.146455
2867.000000	100.143593
2866.000000	100.139282
2865.000000	100.133204
2864.000000	100.127065
2863.000000	100.124091
2862.000000	100.126366
2861.000000	100.132395
2860.000000	100.137588
2859.000000	100.137743
2858.000000	100.132600
2857.000000	100.126038
2856.000000	100.122754
2855.000000	100.124594
2854.000000	100.130154
2853.000000	100.137600
2852.000000	100.147042
2851.000000	100.159648
2850.000000	100.175109
2849.000000	100.190900
2848.000000	100.204124
2847.000000	100.213428
2846.000000	100.218910
2845.000000	100.221124
2844.000000	100.220966
2843.000000	100.220128
2842.000000	100.220788
2841.000000	100.224145
2840.000000	100.229105
2839.000000	100.232921
2838.000000	100.233936
2837.000000	100.233829
2836.000000	100.236289
2835.000000	100.242900
2834.000000	100.251076
2833.000000	100.256783
2832.000000	100.258743
2831.000000	100.258766
2830.000000	100.258787
2829.000000	100.259341
2828.000000	100.261009
2827.000000	100.265287
2826.000000	100.272786
2825.000000	100.281660
2824.000000	100.289110
2823.000000	100.294142
2822.000000	100.297906
2821.000000	100.301848
2820.000000	100.306458
2819.000000	100.311601
2818.000000	100.316989
2817.000000	100.321978
2816.000000	100.325549
2815.000000	100.326963
2814.000000	100.326329
2813.000000	100.324627
2812.000000	100.323388
2811.000000	100.323958
2810.000000	100.326715
2809.000000	100.330938
2808.000000	100.335468
2807.000000	100.339743
2806.000000	100.344058
2805.000000	100.348787
2804.000000	100.353649
2803.000000	100.357877
2802.000000	100.360879
2801.000000	100.362677
2800.000000	100.363889
2799.000000	100.365362
2798.000000	100.367661
2797.000000	100.370877
2796.000000	100.374876
2795.000000	100.379496
2794.000000	100.384296
2793.000000	100.388410
2792.000000	100.391168
2791.000000	100.392816
2790.000000	100.394216
2789.000000	100.395869
2788.000000	100.397695
2787.000000	100.399859
2786.000000	100.403131
2785.000000	100.408002
2784.000000	100.413792
2783.000000	100.419101
2782.000000	100.423079
2781.000000	100.425814
2780.000000	100.427773
2779.000000	100.429267
2778.000000	100.430418
2777.000000	100.431332
2776.000000	100.432092
2775.000000	100.432667
2774.000000	100.432975
2773.000000	100.433151
2772.000000	100.433773
2771.000000	100.435707
2770.000000	100.439493
2769.000000	100.444799
2768.000000	100.450614
2767.000000	100.456029
2766.000000	100.460858
2765.000000	100.465461
2764.000000	100.470134
2763.000000	100.474856
2762.000000	100.479353
2761.000000	100.483208
2760.000000	100.485995
2759.000000	100.487406
2758.000000	100.487405
2757.000000	100.486358
2756.000000	100.484957
2755.000000	100.483818
2754.000000	100.483075
2753.000000	100.482584
2752.000000	100.482595
2751.000000	100.483847
2750.000000	100.486680
2749.000000	100.490272
2748.000000	100.493250
2747.000000	100.495096
2746.000000	100.496573
2745.000000	100.498711
2744.000000	100.501654
2743.000000	100.504617
2742.000000	100.506680
2741.000000	100.507539
2740.000000	100.507650
2739.000000	100.507939
2738.000000	100.509199
2737.000000	100.511545
2736.000000	100.514386
2735.000000	100.516936
2734.000000	100.518797
2733.000000	100.520119
2732.000000	100.521353
2731.000000	100.522940
2730.000000	100.524994
2729.000000	100.527112
2728.000000	100.528613
2727.000000	100.529237
2726.000000	100.529575
2725.000000	100.530609
2724.000000	100.532683
2723.000000	100.535079
2722.000000	100.536690
2721.000000	100.537121
2720.000000	100.536896
2719.000000	100.536843
2718.000000	100.537284
2717.000000	100.537956
2716.000000	100.538495
2715.000000	100.538852
2714.000000	100.539301
2713.000000	100.540089
2712.000000	100.541133
2711.000000	100.542100
2710.000000	100.542836
2709.000000	100.543623
2708.000000	100.544899
2707.000000	100.546765
2706.000000	100.548797
2705.000000	100.550357
2704.000000	100.551077
2703.000000	100.551012
2702.000000	100.550550
2701.000000	100.550211
2700.000000	100.550310
2699.000000	100.550711
2698.000000	100.551029
2697.000000	100.551167
2696.000000	100.551479
2695.000000	100.552271
2694.000000	100.553284
2693.000000	100.553901
2692.000000	100.553861
2691.000000	100.553549
2690.000000	100.553546
2689.000000	100.553997
2688.000000	100.554575
2687.000000	100.554911
2686.000000	100.554939
2685.000000	100.554872
2684.000000	100.554943
2683.000000	100.555156
2682.000000	100.555288
2681.000000	100.555208
2680.000000	100.555128
2679.000000	100.555402
2678.000000	100.556109
2677.000000	100.556996
2676.000000	100.557841
2675.000000	100.558626
2674.000000	100.559306
2673.000000	100.559666
2672.000000	100.559563
2671.000000	100.559179
2670.000000	100.558902
2669.000000	100.558963
2668.000000	100.559341
2667.000000	100.559967
2666.000000	100.560832
2665.000000	100.561867
2664.000000	100.562854
2663.000000	100.563542
2662.000000	100.563826
2661.000000	100.563773
2660.000000	100.563589
2659.000000	100.563537
2658.000000	100.563838
2657.000000	100.564538
2656.000000	100.565481
2655.000000	100.566474
2654.000000	100.567465
2653.000000	100.568426
2652.000000	100.569059
2651.000000	100.568896
2650.000000	100.567856
2649.000000	100.566657
2648.000000	100.566250
2647.000000	100.566802
2646.000000	100.567493
2645.000000	100.567474
2644.000000	100.566876
2643.000000	100.566484
2642.000000	100.566517
2641.000000	100.566323
2640.000000	100.565510
2639.000000	100.564857
2638.000000	100.565516
2637.000000	100.567447
2636.000000	100.569152
2635.000000	100.569156
2634.000000	100.567420
2633.000000	100.565227
2632.000000	100.563944
2631.000000	100.564079
2630.000000	100.565339
2629.000000	100.567184
2628.000000	100.569217
2627.000000	100.571238
2626.000000	100.573183
2625.000000	100.575201
2624.000000	100.577531
2623.000000	100.579893
2622.000000	100.581032
2621.000000	100.579554
2620.000000	100.575574
2619.000000	100.571065
2618.000000	100.567804
2617.000000	100.565335
2616.000000	100.561881
2615.000000	100.556981
2614.000000	100.552224
2613.000000	100.549329
2612.000000	100.548650
2611.000000	100.549822
2610.000000	100.552616
2609.000000	100.556395
2608.000000	100.559691
2607.000000	100.561412
2606.000000	100.562095
2605.000000	100.563198
2604.000000	100.565477
2603.000000	100.568663
2602.000000	100.572172
2601.000000	100.575333
2600.000000	100.577287
2599.000000	100.577483
2598.000000	100.576335
2597.000000	100.574912
2596.000000	100.574095
2595.000000	100.574346
2594.000000	100.575881
2593.000000	100.578331
2592.000000	100.580534
2591.000000	100.581533
2590.000000	100.581671
2589.000000	100.581946
2588.000000	100.582432
2587.000000	100.582216
2586.000000	100.580983
2585.000000	100.579697
2584.000000	100.579339
2583.000000	100.579690
2582.000000	100.579849
2581.000000	100.579381
2580.000000	100.578434
2579.000000	100.577144
2578.000000	100.575557
2577.000000	100.574075
2576.000000	100.573551
2575.000000	100.574826
2574.000000	100.578209
2573.000000	100.583152
2572.000000	100.588259
2571.000000	100.591968
2570.000000	100.593565
2569.000000	100.593500
2568.000000	100.592716
2567.000000	100.591844
2566.000000	100.591179
2565.000000	100.591025
2564.000000	100.591589
2563.000000	100.592574
2562.000000	100.593324
2561.000000	100.593574
2560.000000	100.593805
2559.000000	100.594666
2558.000000	100.596207
2557.000000	100.597869
2556.000000	100.599145
2555.000000	100.600041
2554.000000	100.600837
2553.000000	100.601594
2552.000000	100.602082
2551.000000	100.602186
2550.000000	100.602170
2549.000000	100.602427
2548.000000	100.603043
2547.000000	100.603725
2546.000000	100.604114
2545.000000	100.604086
2544.000000	100.603830
2543.000000	100.603781
2542.000000	100.604398
2541.000000	100.605816
2540.000000	100.607656
2539.000000	100.609341
2538.000000	100.610640
2537.000000	100.611740
2536.000000	100.612845
2535.000000	100.613921
2534.000000	100.614879
2533.000000	100.615814
2532.000000	100.616937
2531.000000	100.618340
2530.000000	100.619892
2529.000000	100.621339
2528.000000	100.622480
2527.000000	100.623297
2526.000000	100.623958
2525.000000	100.624750
2524.000000	100.625877
2523.000000	100.627304
2522.000000	100.628799
2521.000000	100.630125
2520.000000	100.631208
2519.000000	100.632123
2518.000000	100.633022
2517.000000	100.634051
2516.000000	100.635292
2515.000000	100.636727
2514.000000	100.638277
2513.000000	100.639866
2512.000000	100.641449
2511.000000	100.642964
2510.000000	100.644331
2509.000000	100.645530
2508.000000	100.646633
2507.000000	100.647737
2506.000000	100.648898
2505.000000	100.650130
2504.000000	100.651456
2503.000000	100.652919
2502.000000	100.654533
2501.000000	100.656254
2500.000000	100.657981
2499.000000	100.659621
2498.000000	100.661157
2497.000000	100.662666
2496.000000	100.664279
2495.000000	100.666063
2494.000000	100.667952
2493.000000	100.669793
2492.000000	100.671493
2491.000000	100.673047
2490.000000	100.674453
2489.000000	100.675685
2488.000000	100.676779
2487.000000	100.677911
2486.000000	100.679305
2485.000000	100.681067
2484.000000	100.683091
2483.000000	100.685098
2482.000000	100.686836
2481.000000	100.688242
2480.000000	100.689489
2479.000000	100.690851
2478.000000	100.692457
2477.000000	100.694223
2476.000000	100.696021
2475.000000	100.697851
2474.000000	100.699785
2473.000000	100.701792
2472.000000	100.703673
2471.000000	100.705216
2470.000000	100.706430
2469.000000	100.707653
2468.000000	100.709326
2467.000000	100.711589
2466.000000	100.714079
2465.000000	100.716205
2464.000000	100.717698
2463.000000	100.718798
2462.000000	100.719986
2461.000000	100.721621
2460.000000	100.723847
2459.000000	100.726574
2458.000000	100.729409
2457.000000	100.731874
2456.000000	100.733782
2455.000000	100.735217
2454.000000	100.736140
2453.000000	100.736321
2452.000000	100.735844
2451.000000	100.735343
2450.000000	100.735398
2449.000000	100.735986
2448.000000	100.736869
2447.000000	100.738304
2446.000000	100.740798
2445.000000	100.744164
2444.000000	100.747351
2443.000000	100.749498
2442.000000	100.750824
2441.000000	100.752212
2440.000000	100.754129
2439.000000	100.756233
2438.000000	100.757910
2437.000000	100.758910
2436.000000	100.759431
2435.000000	100.759860
2434.000000	100.760505
2433.000000	100.761503
2432.000000	100.762914
2431.000000	100.764844
2430.000000	100.767392
2429.000000	100.770367
2428.000000	100.773175
2427.000000	100.775193
2426.000000	100.776227
2425.000000	100.776537
2424.000000	100.776578
2423.000000	100.776810
2422.000000	100.777573
2421.000000	100.778781
2420.000000	100.779729
2419.000000	100.779652
2418.000000	100.778718
2417.000000	100.778238
2416.000000	100.779515
2415.000000	100.782641
2414.000000	100.786411
2413.000000	100.789323
2412.000000	100.790702
2411.000000	100.790785
2410.000000	100.790269
2409.000000	100.789826
2408.000000	100.789747
2407.000000	100.789904
2406.000000	100.790054
2405.000000	100.790116
2404.000000	100.790104
2403.000000	100.789953
2402.000000	100.789697
2401.000000	100.789645
2400.000000	100.790030
2399.000000	100.790517
2398.000000	100.790403
2397.000000	100.789395
2396.000000	100.787892
2395.000000	100.786520
2394.000000	100.785674
2393.000000	100.785526
2392.000000	100.786041
2391.000000	100.786764
2390.000000	100.786917
2389.000000	100.786069
2388.000000	100.784538
2387.000000	100.783079
2386.000000	100.782205
2385.000000	100.781955
2384.000000	100.782121
2383.000000	100.782398
2382.000000	100.782411
2381.000000	100.781926
2380.000000	100.781064
2379.000000	100.780167
2378.000000	100.779424
2377.000000	100.778792
2376.000000	100.778315
2375.000000	100.778214
2374.000000	100.778536
2373.000000	100.778974
2372.000000	100.779140
2371.000000	100.778938
2370.000000	100.778511
2369.000000	100.778069
2368.000000	100.777800
2367.000000	100.777765
2366.000000	100.777840
2365.000000	100.777835
2364.000000	100.777729
2363.000000	100.777658
2362.000000	100.777621
2361.000000	100.777417
2360.000000	100.776970
2359.000000	100.776410
2358.000000	100.775961
2357.000000	100.775698
2356.000000	100.775569
2355.000000	100.775517
2354.000000	100.775478
2353.000000	100.775387
2352.000000	100.775199
2351.000000	100.774926
2350.000000	100.774635
2349.000000	100.774342
2348.000000	100.774049
2347.000000	100.773770
2346.000000	100.773541
2345.000000	100.773334
2344.000000	100.773006
2343.000000	100.772523
2342.000000	100.771971
2341.000000	100.771460
2340.000000	100.770994
2339.000000	100.770521
2338.000000	100.770032
2337.000000	100.769534
2336.000000	100.769022
2335.000000	100.768481
2334.000000	100.767908
2333.000000	100.767290
2332.000000	100.766602
2331.000000	100.765833
2330.000000	100.765045
2329.000000	100.764237
2328.000000	100.763313
2327.000000	100.762155
2326.000000	100.760805
2325.000000	100.759451
2324.000000	100.758253
2323.000000	100.757247
2322.000000	100.756326
2321.000000	100.755361
2320.000000	100.754292
2319.000000	100.753142
2318.000000	100.751945
2317.000000	100.750698
2316.000000	100.749403
2315.000000	100.748053
2314.000000	100.746693
2313.000000	100.745296
2312.000000	100.743785
2311.000000	100.742087
2310.000000	100.740386
2309.000000	100.738998
2308.000000	100.738057
2307.000000	100.737219
2306.000000	100.735958
2305.000000	100.734100
2304.000000	100.731947
2303.000000	100.729866
2302.000000	100.727987
2301.000000	100.726338
2300.000000	100.724990
2299.000000	100.723767
2298.000000	100.722174
2297.000000	100.719850
2296.000000	100.717098
2295.000000	100.714545
2294.000000	100.712376
2293.000000	100.710167
2292.000000	100.707562
2291.000000	100.704729
2290.000000	100.702066
2289.000000	100.699715
2288.000000	100.697633
2287.000000	100.695922
2286.000000	100.694759
2285.000000	100.694115
2284.000000	100.693689
2283.000000	100.693116
2282.000000	100.692023
2281.000000	100.690002
2280.000000	100.686910
2279.000000	100.683164
2278.000000	100.679556
2277.000000	100.676673
2276.000000	100.674555
2275.000000	100.672889
2274.000000	100.671358
2273.000000	100.669696
2272.000000	100.667626
2271.000000	100.664934
2270.000000	100.661683
2269.000000	100.658264
2268.000000	100.655211
2267.000000	100.652948
2266.000000	100.651598
2265.000000	100.650818
2264.000000	100.649879
2263.000000	100.648102
2262.000000	100.645404
2261.000000	100.642369
2260.000000	100.639640
2259.000000	100.637395
2258.000000	100.635496
2257.000000	100.633970
2256.000000	100.632904
2255.000000	100.631925
2254.000000	100.630317
2253.000000	100.627906
2252.000000	100.625457
2251.000000	100.623865
2250.000000	100.623208
2249.000000	100.622802
2248.000000	100.621952
2247.000000	100.620387
2246.000000	100.618227
2245.000000	100.615935
2244.000000	100.614144
2243.000000	100.613066
2242.000000	100.612147
2241.000000	100.610707
2240.000000	100.608929
2239.000000	100.607772
2238.000000	100.607886
2237.000000	100.608989
2236.000000	100.610249
2235.000000	100.610893
2234.000000	100.610446
2233.000000	100.608867
2232.000000	100.606688
2231.000000	100.604726
2230.000000	100.603472
2229.000000	100.602974
2228.000000	100.603279
2227.000000	100.604511
2226.000000	100.606306
2225.000000	100.607673
2224.000000	100.607846
2223.000000	100.607075
2222.000000	100.606304
2221.000000	100.606121
2220.000000	100.606281
2219.000000	100.606213
2218.000000	100.605846
2217.000000	100.605826
2216.000000	100.606900
2215.000000	100.609108
2214.000000	100.611590
2213.000000	100.613262
2212.000000	100.613780
2211.000000	100.613607
2210.000000	100.613357
2209.000000	100.613227
2208.000000	100.613132
2207.000000	100.613103
2206.000000	100.613286
2205.000000	100.613745
2204.000000	100.614421
2203.000000	100.615202
2202.000000	100.615945
2201.000000	100.616539
2200.000000	100.617042
2199.000000	100.617634
2198.000000	100.618376
2197.000000	100.619115
2196.000000	100.619665
2195.000000	100.620012
2194.000000	100.620298
2193.000000	100.620640
2192.000000	100.621052
2191.000000	100.621525
2190.000000	100.622077
2189.000000	100.622710
2188.000000	100.623406
2187.000000	100.624179
2186.000000	100.625030
2185.000000	100.625788
2184.000000	100.626160
2183.000000	100.626055
2182.000000	100.625865
2181.000000	100.626159
2180.000000	100.627107
2179.000000	100.628397
2178.000000	100.629638
2177.000000	100.630658
2176.000000	100.631367
2175.000000	100.631639
2174.000000	100.631485
2173.000000	100.631170
2172.000000	100.631063
2171.000000	100.631425
2170.000000	100.632301
2169.000000	100.633411
2168.000000	100.634188
2167.000000	100.634286
2166.000000	100.634126
2165.000000	100.634575
2164.000000	100.635864
2163.000000	100.637110
2162.000000	100.637261
2161.000000	100.636332
2160.000000	100.635346
2159.000000	100.635142
2158.000000	100.635646
2157.000000	100.636369
2156.000000	100.637129
2155.000000	100.638029
2154.000000	100.639071
2153.000000	100.640198
2152.000000	100.641522
2151.000000	100.643160
2150.000000	100.644882
2149.000000	100.646259
2148.000000	100.647259
2147.000000	100.648395
2146.000000	100.650072
2145.000000	100.651965
2144.000000	100.653368
2143.000000	100.654133
2142.000000	100.655041
2141.000000	100.657068
2140.000000	100.660354
2139.000000	100.664019
2138.000000	100.666980
2137.000000	100.668917
2136.000000	100.670364
2135.000000	100.671944
2134.000000	100.673645
2133.000000	100.674882
2132.000000	100.675246
2131.000000	100.675083
2130.000000	100.675349
2129.000000	100.676852
2128.000000	100.679708
2127.000000	100.683396
2126.000000	100.687135
2125.000000	100.690288
2124.000000	100.692586
2123.000000	100.694212
2122.000000	100.695685
2121.000000	100.697422
2120.000000	100.699327
2119.000000	100.700995
2118.000000	100.702329
2117.000000	100.703751
2116.000000	100.705703
2115.000000	100.708100
2114.000000	100.710480
2113.000000	100.712652
2112.000000	100.714911
2111.000000	100.717414
2110.000000	100.719691
2109.000000	100.721272
2108.000000	100.722678
2107.000000	100.725176
2106.000000	100.729254
2105.000000	100.733736
2104.000000	100.736763
2103.000000	100.737613
2102.000000	100.737263
2101.000000	100.737291
2100.000000	100.738306
2099.000000	100.739603
2098.000000	100.740184
2097.000000	100.739811
2096.000000	100.739124
2095.000000	100.739072
2094.000000	100.740368
2093.000000	100.743196
2092.000000	100.747031
2091.000000	100.750651
2090.000000	100.752770
2089.000000	100.752984
2088.000000	100.752152
2087.000000	100.751821
2086.000000	100.753207
2085.000000	100.756416
2084.000000	100.760366
2083.000000	100.763676
2082.000000	100.765940
2081.000000	100.768094
2080.000000	100.771255
2079.000000	100.775394
2078.000000	100.779662
2077.000000	100.783760
2076.000000	100.788080
2075.000000	100.792356
2074.000000	100.795086
2073.000000	100.795038
2072.000000	100.792776
2071.000000	100.790089
2070.000000	100.788167
2069.000000	100.786748
2068.000000	100.785037
2067.000000	100.783094
2066.000000	100.782316
2065.000000	100.784488
2064.000000	100.789871
2063.000000	100.796073
2062.000000	100.799420
2061.000000	100.797905
2060.000000	100.792758
2059.000000	100.787310
2058.000000	100.784184
2057.000000	100.783512
2056.000000	100.783511
2055.000000	100.782419
2054.000000	100.780120
2053.000000	100.778120
2052.000000	100.777779
2051.000000	100.778675
2050.000000	100.779158
2049.000000	100.778296
2048.000000	100.776475
2047.000000	100.774066
2046.000000	100.770631
2045.000000	100.766102
2044.000000	100.761995
2043.000000	100.760301
2042.000000	100.761191
2041.000000	100.762489
2040.000000	100.761645
2039.000000	100.757947
2038.000000	100.752694
2037.000000	100.747780
2036.000000	100.744220
2035.000000	100.741854
2034.000000	100.740201
2033.000000	100.739276
2032.000000	100.739379
2031.000000	100.740209
2030.000000	100.740617
2029.000000	100.739521
2028.000000	100.736834
2027.000000	100.733306
2026.000000	100.729662
2025.000000	100.726094
2024.000000	100.722455
2023.000000	100.718690
2022.000000	100.715145
2021.000000	100.712458
2020.000000	100.711047
2019.000000	100.710594
2018.000000	100.710051
2017.000000	100.708388
2016.000000	100.705278
2015.000000	100.701080
2014.000000	100.696473
2013.000000	100.692230
2012.000000	100.688999
2011.000000	100.686873
2010.000000	100.685293
2009.000000	100.683783
2008.000000	100.682631
2007.000000	100.682403
2006.000000	100.682890
2005.000000	100.683031
2004.000000	100.681971
2003.000000	100.679692
2002.000000	100.676591
2001.000000	100.672888
2000.000000	100.668834
1999.000000	100.665197
1998.000000	100.662975
1997.000000	100.662597
1996.000000	100.663408
1995.000000	100.664122
1994.000000	100.663972
1993.000000	100.663184
1992.000000	100.662354
1991.000000	100.661593
1990.000000	100.660513
1989.000000	100.659015
1988.000000	100.657659
1987.000000	100.657073
1986.000000	100.657258
1985.000000	100.657624
1984.000000	100.657536
1983.000000	100.656695
1982.000000	100.655218
1981.000000	100.653616
1980.000000	100.652566
1979.000000	100.652340
1978.000000	100.652521
1977.000000	100.652396
1976.000000	100.651678
1975.000000	100.650729
1974.000000	100.650113
1973.000000	100.650036
1972.000000	100.650266
1971.000000	100.650446
1970.000000	100.650410
1969.000000	100.650242
1968.000000	100.650088
1967.000000	100.649838
1966.000000	100.649097
1965.000000	100.647732
1964.000000	100.646427
1963.000000	100.646272
1962.000000	100.647557
1961.000000	100.649221
1960.000000	100.649916
1959.000000	100.649380
1958.000000	100.648393
1957.000000	100.647786
1956.000000	100.647842
1955.000000	100.648352
1954.000000	100.648763
1953.000000	100.648595
1952.000000	100.647847
1951.000000	100.646908
1950.000000	100.646037
1949.000000	100.645220
1948.000000	100.644670
1947.000000	100.644434
1946.000000	100.643704
1945.000000	100.641926
1944.000000	100.640453
1943.000000	100.641321
1942.000000	100.643654
1941.000000	100.643666
1940.000000	100.639527
1939.000000	100.634056
1938.000000	100.631295
1937.000000	100.631644
1936.000000	100.631984
1935.000000	100.629845
1934.000000	100.625657
1933.000000	100.621522
1932.000000	100.619341
1931.000000	100.620241
1930.000000	100.623786
1929.000000	100.627182
1928.000000	100.627445
1927.000000	100.623797
1926.000000	100.618009
1925.000000	100.612317
1924.000000	100.607910
1923.000000	100.605173
1922.000000	100.603154
1921.000000	100.599708
1920.000000	100.593576
1919.000000	100.585907
1918.000000	100.578728
1917.000000	100.572337
1916.000000	100.565745
1915.000000	100.559259
1914.000000	100.554710
1913.000000	100.552514
1912.000000	100.549891
1911.000000	100.543551
1910.000000	100.533151
1909.000000	100.521227
1908.000000	100.510457
1907.000000	100.501023
1906.000000	100.491789
1905.000000	100.482282
1904.000000	100.473254
1903.000000	100.465866
1902.000000	100.459762
1901.000000	100.453838
1900.000000	100.448634
1899.000000	100.445491
1898.000000	100.443653
1897.000000	100.439564
1896.000000	100.430940
1895.000000	100.420717
1894.000000	100.413582
1893.000000	100.409723
1892.000000	100.405149
1891.000000	100.397585
1890.000000	100.389185
1889.000000	100.382984
1888.000000	100.379019
1887.000000	100.375544
1886.000000	100.372080
1885.000000	100.369023
1884.000000	100.365949
1883.000000	100.362571
1882.000000	100.359970
1881.000000	100.359375
1880.000000	100.360482
1879.000000	100.361714
1878.000000	100.362077
1877.000000	100.361460
1876.000000	100.359648
1875.000000	100.357290
1874.000000	100.356509
1873.000000	100.358682
1872.000000	100.362730
1871.000000	100.366416
1870.000000	100.368445
1869.000000	100.368764
1868.000000	100.368098
1867.000000	100.367693
1866.000000	100.369028
1865.000000	100.373486
1864.000000	100.381491
1863.000000	100.391965
1862.000000	100.402860
1861.000000	100.412062
1860.000000	100.418556
1859.000000	100.423345
1858.000000	100.429055
1857.000000	100.438110
1856.000000	100.450824
1855.000000	100.464845
1854.000000	100.476665
1853.000000	100.484207
1852.000000	100.489584
1851.000000	100.497143
1850.000000	100.509126
1849.000000	100.523212
1848.000000	100.534548
1847.000000	100.541624
1846.000000	100.547885
1845.000000	100.556694
1844.000000	100.565623
1843.000000	100.569766
1842.000000	100.568127
1841.000000	100.563400
1840.000000	100.559899
1839.000000	100.561435
1838.000000	100.569002
1837.000000	100.578928
1836.000000	100.585423
1835.000000	100.586308
1834.000000	100.584421
1833.000000	100.583693
1832.000000	100.585431
1831.000000	100.588634
1830.000000	100.592882
1829.000000	100.598259
1828.000000	100.602885
1827.000000	100.604648
1826.000000	100.604634
1825.000000	100.605851
1824.000000	100.608882
1823.000000	100.611315
1822.000000	100.611612
1821.000000	100.610752
1820.000000	100.609799
1819.000000	100.608467
1818.000000	100.606831
1817.000000	100.605675
1816.000000	100.605321
1815.000000	100.605572
1814.000000	100.606354
1813.000000	100.607944
1812.000000	100.609125
1811.000000	100.607747
1810.000000	100.604095
1809.000000	100.601333
1808.000000	100.602453
1807.000000	100.607041
1806.000000	100.611795
1805.000000	100.614207
1804.000000	100.614730
1803.000000	100.615811
1802.000000	100.618886
1801.000000	100.623261
1800.000000	100.626415
1799.000000	100.626557
1798.000000	100.624642
1797.000000	100.622932
1796.000000	100.622916
1795.000000	100.624745
1794.000000	100.628200
1793.000000	100.633026
1792.000000	100.637427
1791.000000	100.639748
1790.000000	100.640493
1789.000000	100.640940
1788.000000	100.642170
1787.000000	100.645068
1786.000000	100.650647
1785.000000	100.659555
1784.000000	100.670173
1783.000000	100.678904
1782.000000	100.683190
1781.000000	100.684878
1780.000000	100.687347
1779.000000	100.691731
1778.000000	100.697280
1777.000000	100.702844
1776.000000	100.707430
1775.000000	100.709637
1774.000000	100.710134
1773.000000	100.712813
1772.000000	100.719667
1771.000000	100.727762
1770.000000	100.734671
1769.000000	100.742205
1768.000000	100.752466
1767.000000	100.762922
1766.000000	100.767964
1765.000000	100.766071
1764.000000	100.761882
1763.000000	100.761616
1762.000000	100.767092
1761.000000	100.775673
1760.000000	100.783385
1759.000000	100.787953
1758.000000	100.789252
1757.000000	100.789187
1756.000000	100.790652
1755.000000	100.793177
1754.000000	100.793847
1753.000000	100.791923
1752.000000	100.789360
1751.000000	100.787677
1750.000000	100.786839
1749.000000	100.786198
1748.000000	100.787021
1747.000000	100.790393
1746.000000	100.793686
1745.000000	100.793906
1744.000000	100.790500
1743.000000	100.785432
1742.000000	100.780577
1741.000000	100.776733
1740.000000	100.775175
1739.000000	100.777023
1738.000000	100.779828
1737.000000	100.779438
1736.000000	100.776560
1735.000000	100.775598
1734.000000	100.775383
1733.000000	100.771189
1732.000000	100.762310
1731.000000	100.751507
1730.000000	100.743092
1729.000000	100.738611
1728.000000	100.735742
1727.000000	100.731912
1726.000000	100.727043
1725.000000	100.722770
1724.000000	100.719293
1723.000000	100.716357
1722.000000	100.713214
1721.000000	100.707634
1720.000000	100.698068
1719.000000	100.684954
1718.000000	100.670007
1717.000000	100.655995
1716.000000	100.646086
1715.000000	100.640796
1714.000000	100.637468
1713.000000	100.632378
1712.000000	100.623664
1711.000000	100.612718
1710.000000	100.602381
1709.000000	100.594133
1708.000000	100.586539
1707.000000	100.577084
1706.000000	100.566040
1705.000000	100.555270
1704.000000	100.543880
1703.000000	100.527476
1702.000000	100.503538
1701.000000	100.475752
1700.000000	100.453959
1699.000000	100.443591
1698.000000	100.438029
1697.000000	100.430682
1696.000000	100.421603
1695.000000	100.412360
1694.000000	100.401980
1693.000000	100.388719
1692.000000	100.374027
1691.000000	100.360423
1690.000000	100.347530
1689.000000	100.333333
1688.000000	100.317703
1687.000000	100.301745
1686.000000	100.286699
1685.000000	100.271560
1684.000000	100.253796
1683.000000	100.235090
1682.000000	100.217743
1681.000000	100.202074
1680.000000	100.189617
1679.000000	100.180581
1678.000000	100.171813
1677.000000	100.159617
1676.000000	100.143106
1675.000000	100.125550
1674.000000	100.111329
1673.000000	100.100731
1672.000000	100.089796
1671.000000	100.074957
1670.000000	100.054861
1669.000000	100.033331
1668.000000	100.017805
1667.000000	100.010119
1666.000000	100.005035
1665.000000	99.996378
1664.000000	99.981173
1663.000000	99.961102
1662.000000	99.940693
1661.000000	99.924689
1660.000000	99.915092
1659.000000	99.910928
1658.000000	99.909080
1657.000000	99.904861
1656.000000	99.894562
1655.000000	99.878270
1654.000000	99.856439
1653.000000	99.827119
1652.000000	99.803117
1651.000000	99.795496
1650.000000	99.793050
1649.000000	99.787029
1648.000000	99.778473
1647.000000	99.768560
1646.000000	99.758442
1645.000000	99.750882
1644.000000	99.747273
1643.000000	99.746361
1642.000000	99.746102
1641.000000	99.746043
1640.000000	99.745563
1639.000000	99.741917
1638.000000	99.732713
1637.000000	99.717782
1636.000000	99.702182
1635.000000	99.695138
1634.000000	99.701414
1633.000000	99.714116
1632.000000	99.724038
1631.000000	99.728516
1630.000000	99.729640
1629.000000	99.731820
1628.000000	99.738878
1627.000000	99.750536
1626.000000	99.761853
1625.000000	99.768658
1624.000000	99.771094
1623.000000	99.773246
1622.000000	99.779232
1621.000000	99.789355
1620.000000	99.800786
1619.000000	99.811381
1618.000000	99.821042
1617.000000	99.829049
1616.000000	99.835841
1615.000000	99.843982
1614.000000	99.853620
1613.000000	99.863468
1612.000000	99.873861
1611.000000	99.884663
1610.000000	99.893977
1609.000000	99.901973
1608.000000	99.912226
1607.000000	99.927688
1606.000000	99.946745
1605.000000	99.965622
1604.000000	99.981551
1603.000000	99.993843
1602.000000	100.003896
1601.000000	100.013407
1600.000000	100.023241
1599.000000	100.033333
1598.000000	100.043530
1597.000000	100.054380
1596.000000	100.066304
1595.000000	100.078271
1594.000000	100.088260
1593.000000	100.096406
1592.000000	100.106252
1591.000000	100.121231
1590.000000	100.140299
1589.000000	100.158471
1588.000000	100.171612
1587.000000	100.179392
1586.000000	100.184146
1585.000000	100.188405
1584.000000	100.194124
1583.000000	100.201563
1582.000000	100.210520
1581.000000	100.220589
1580.000000	100.230373
1579.000000	100.238195
1578.000000	100.244668
1577.000000	100.252322
1576.000000	100.262550
1575.000000	100.275030
1574.000000	100.287554
1573.000000	100.297638
1572.000000	100.305348
1571.000000	100.312320
1570.000000	100.318392
1569.000000	100.322563
1568.000000	100.326707
1567.000000	100.332566
1566.000000	100.340646
1565.000000	100.350430
1564.000000	100.360269
1563.000000	100.367162
1562.000000	100.370065
1561.000000	100.371694
1560.000000	100.376750
1559.000000	100.382506
1558.000000	100.384338
1557.000000	100.386543
1556.000000	100.390342
1555.000000	100.393789
1554.000000	100.396241
1553.000000	100.398165
1552.000000	100.399569
1551.000000	100.402154
1550.000000	100.408731
1549.000000	100.417824
1548.000000	100.425261
1547.000000	100.429233
1546.000000	100.431979
1545.000000	100.436373
1544.000000	100.442560
1543.000000	100.448227
1542.000000	100.452224
1541.000000	100.454931
1540.000000	100.456623
1539.000000	100.458643
1538.000000	100.462970
1537.000000	100.467620
1536.000000	100.470268
1535.000000	100.472136
1534.000000	100.474663
1533.000000	100.477213
1532.000000	100.478457
1531.000000	100.478563
1530.000000	100.478537
1529.000000	100.479198
1528.000000	100.481644
1527.000000	100.486986
1526.000000	100.494860
1525.000000	100.503060
1524.000000	100.509304
1523.000000	100.513457
1522.000000	100.516554
1521.000000	100.518730
1520.000000	100.519921
1519.000000	100.520365
1518.000000	100.521703
1517.000000	100.526676
1516.000000	100.535700
1515.000000	100.545993
1514.000000	100.554581
1513.000000	100.560890
1512.000000	100.565295
1511.000000	100.568322
1510.000000	100.570873
1509.000000	100.574948
1508.000000	100.582700
1507.000000	100.592047
1506.000000	100.596821
1505.000000	100.597493
1504.000000	100.599076
1503.000000	100.602133
1502.000000	100.605851
1501.000000	100.610449
1500.000000	100.615304
1499.000000	100.618474
1498.000000	100.618825
1497.000000	100.617388
1496.000000	100.616626
1495.000000	100.618047
1494.000000	100.620186
1493.000000	100.622025
1492.000000	100.625581
1491.000000	100.633331
1490.000000	100.643592
1489.000000	100.650978
1488.000000	100.652956
1487.000000	100.652818
1486.000000	100.654691
1485.000000	100.659119
1484.000000	100.664156
1483.000000	100.667148
1482.000000	100.667900
1481.000000	100.668241
1480.000000	100.669442
1479.000000	100.670432
1478.000000	100.668986
1477.000000	100.664023
1476.000000	100.656790
1475.000000	100.650443
1474.000000	100.647395
1473.000000	100.648407
1472.000000	100.651530
1471.000000	100.654035
1470.000000	100.654524
1469.000000	100.653271
1468.000000	100.651736
1467.000000	100.651183
1466.000000	100.650984
1465.000000	100.649660
1464.000000	100.647066
1463.000000	100.644248
1462.000000	100.641480
1461.000000	100.637476
1460.000000	100.632037
1459.000000	100.626803
1458.000000	100.623935
1457.000000	100.623552
1456.000000	100.625571
1455.000000	100.628692
1454.000000	100.628225
1453.000000	100.622427
1452.000000	100.614059
1451.000000	100.607447
1450.000000	100.604183
1449.000000	100.601786
1448.000000	100.596649
1447.000000	100.588391
1446.000000	100.579489
1445.000000	100.573011
1444.000000	100.569325
1443.000000	100.567337
1442.000000	100.566475
1441.000000	100.565965
1440.000000	100.564318
1439.000000	100.560009
1438.000000	100.553854
1437.000000	100.548661
1436.000000	100.547642
1435.000000	100.549959
1434.000000	100.551428
1433.000000	100.550232
1432.000000	100.547706
1431.000000	100.544264
1430.000000	100.538062
1429.000000	100.528514
1428.000000	100.519539
1427.000000	100.516526
1426.000000	100.521348
1425.000000	100.533154
1424.000000	100.547692
1423.000000	100.558743
1422.000000	100.563177
1421.000000	100.562611
1420.000000	100.560622
1419.000000	100.559266
1418.000000	100.559508
1417.000000	100.561377
1416.000000	100.564960
1415.000000	100.570809
1414.000000	100.577835
1413.000000	100.584039
1412.000000	100.588938
1411.000000	100.593589
1410.000000	100.598441
1409.000000	100.602794
1408.000000	100.607131
1407.000000	100.613845
1406.000000	100.623947
1405.000000	100.636205
1404.000000	100.648232
1403.000000	100.658319
1402.000000	100.665877
1401.000000	100.670751
1400.000000	100.673755
1399.000000	100.676732
1398.000000	100.681496
1397.000000	100.688435
1396.000000	100.697400
1395.000000	100.707709
1394.000000	100.717363
1393.000000	100.725367
1392.000000	100.732615
1391.000000	100.740516
1390.000000	100.748801
1389.000000	100.755325
1388.000000	100.758719
1387.000000	100.760847
1386.000000	100.764344
1385.000000	100.768922
1384.000000	100.772832
1383.000000	100.775726
1382.000000	100.778341
1381.000000	100.780330
1380.000000	100.780877
1379.000000	100.780461
1378.000000	100.780727
1377.000000	100.782651
1376.000000	100.785692
1375.000000	100.788201
1374.000000	100.788084
1373.000000	100.784284
1372.000000	100.777738
1371.000000	100.771411
1370.000000	100.768544
1369.000000	100.770674
1368.000000	100.776032
1367.000000	100.780999
1366.000000	100.783202
1365.000000	100.782412
1364.000000	100.779683
1363.000000	100.776843
1362.000000	100.776220
1361.000000	100.779314
1360.000000	100.785727
1359.000000	100.793280
1358.000000	100.798883
1357.000000	100.800421
1356.000000	100.798294
1355.000000	100.794858
1354.000000	100.791969
1353.000000	100.789576
1352.000000	100.787289
1351.000000	100.786288
1350.000000	100.787416
1349.000000	100.789067
1348.000000	100.788100
1347.000000	100.784315
1346.000000	100.781702
1345.000000	100.783572
1344.000000	100.787827
1343.000000	100.789364
1342.000000	100.786806
1341.000000	100.784600
1340.000000	100.787620
1339.000000	100.794654
1338.000000	100.799615
1337.000000	100.798910
1336.000000	100.794554
1335.000000	100.790660
1334.000000	100.789296
1333.000000	100.789870
1332.000000	100.791039
1331.000000	100.792395
1330.000000	100.794584
1329.000000	100.798015
1328.000000	100.801187
1327.000000	100.801008
1326.000000	100.795770
1325.000000	100.788073
1324.000000	100.783181
1323.000000	100.784038
1322.000000	100.788685
1321.000000	100.793095
1320.000000	100.795410
1319.000000	100.796187
1318.000000	100.795644
1317.000000	100.793036
1316.000000	100.789106
1315.000000	100.786651
1314.000000	100.787259
1313.000000	100.788784
1312.000000	100.787893
1311.000000	100.784601
1310.000000	100.782617
1309.000000	100.785227
1308.000000	100.791831
1307.000000	100.798605
1306.000000	100.801805
1305.000000	100.800653
1304.000000	100.797370
1303.000000	100.794722
1302.000000	100.793086
1301.000000	100.790224
1300.000000	100.784244
1299.000000	100.776119
1298.000000	100.768634
1297.000000	100.763525
1296.000000	100.760917
1295.000000	100.760952
1294.000000	100.764176
1293.000000	100.769744
1292.000000	100.774453
1291.000000	100.774627
1290.000000	100.768738
1289.000000	100.757951
1288.000000	100.744779
1287.000000	100.731889
1286.000000	100.721577
1285.000000	100.715002
1284.000000	100.711251
1283.000000	100.707534
1282.000000	100.701247
1281.000000	100.692275
1280.000000	100.682926
1279.000000	100.675348
1278.000000	100.669762
1277.000000	100.665701
1276.000000	100.664019
1275.000000	100.666146
1274.000000	100.671574
1273.000000	100.677574
1272.000000	100.681669
1271.000000	100.683155
1270.000000	100.681912
1269.000000	100.677168
1268.000000	100.668676
1267.000000	100.658482
1266.000000	100.650354
1265.000000	100.646841
1264.000000	100.646950
1263.000000	100.646879
1262.000000	100.643489
1261.000000	100.637262
1260.000000	100.631231
1259.000000	100.626813
1258.000000	100.622310
1257.000000	100.616307
1256.000000	100.610460
1255.000000	100.606638
1254.000000	100.602664
1253.000000	100.593738
1252.000000	100.577727
1251.000000	100.556635
1250.000000	100.533668
1249.000000	100.511959
1248.000000	100.495652
1247.000000	100.487595
1246.000000	100.484354
1245.000000	100.477174
1244.000000	100.460244
1243.000000	100.435599
1242.000000	100.408405
1241.000000	100.380494
1240.000000	100.351289
1239.000000	100.322411
1238.000000	100.297318
1237.000000	100.276903
1236.000000	100.258163
1235.000000	100.237337
1234.000000	100.212888
1233.000000	100.185691
1232.000000	100.157279
1231.000000	100.127598
1230.000000	100.094233
1229.000000	100.054803
1228.000000	100.010112
1227.000000	99.963434
1226.000000	99.916521
1225.000000	99.868029
1224.000000	99.815777
1223.000000	99.757668
1222.000000	99.690286
1221.000000	99.610403
1220.000000	99.519463
1219.000000	99.423648
1218.000000	99.327552
1217.000000	99.230419
1216.000000	99.130506
1215.000000	99.029643
1214.000000	98.930575
1213.000000	98.832570
1212.000000	98.732633
1211.000000	98.629031
1210.000000	98.521381
1209.000000	98.409781
1208.000000	98.296296
1207.000000	98.185086
1206.000000	98.078927
1205.000000	97.977372
1204.000000	97.879087
1203.000000	97.782785
1202.000000	97.685221
1201.000000	97.582422
1200.000000	97.474535
1199.000000	97.366025
1198.000000	97.259865
1197.000000	97.155134
1196.000000	97.051053
1195.000000	96.948533
1194.000000	96.846367
1193.000000	96.740773
1192.000000	96.630581
1191.000000	96.518731
1190.000000	96.407558
1189.000000	96.297174
1188.000000	96.188991
1187.000000	96.084492
1186.000000	95.979015
1185.000000	95.863973
1184.000000	95.738414
1183.000000	95.611832
1182.000000	95.491243
1181.000000	95.370905
1180.000000	95.239481
1179.000000	95.092763
1178.000000	94.935120
1177.000000	94.772748
1176.000000	94.610152
1175.000000	94.449720
1174.000000	94.290016
1173.000000	94.126522
1172.000000	93.956732
1171.000000	93.782189
1170.000000	93.604759
1169.000000	93.425402
1168.000000	93.248212
1167.000000	93.081003
1166.000000	92.930597
1165.000000	92.802772
1164.000000	92.707724
1163.000000	92.658727
1162.000000	92.662392
1161.000000	92.713710
1160.000000	92.798902
1159.000000	92.896312
1158.000000	92.977065
1157.000000	93.015910
1156.000000	93.004921
1155.000000	92.952700
1154.000000	92.871366
1153.000000	92.769465
1152.000000	92.655150
1151.000000	92.536431
1150.000000	92.415414
1149.000000	92.288892
1148.000000	92.156187
1147.000000	92.020410
1146.000000	91.882466
1145.000000	91.742076
1144.000000	91.604939
1143.000000	91.479520
1142.000000	91.364946
1141.000000	91.250615
1140.000000	91.129148
1139.000000	91.001346
1138.000000	90.868023
1137.000000	90.726885
1136.000000	90.579514
1135.000000	90.432071
1134.000000	90.286699
1133.000000	90.140664
1132.000000	89.995202
1131.000000	89.855784
1130.000000	89.722182
1129.000000	89.587728
1128.000000	89.449561
1127.000000	89.310087
1126.000000	89.168094
1125.000000	89.019420
1124.000000	88.867378
1123.000000	88.721275
1122.000000	88.583013
1121.000000	88.445988
1120.000000	88.308031
1119.000000	88.173261
1118.000000	88.039878
1117.000000	87.899336
1116.000000	87.750132
1115.000000	87.600270
1114.000000	87.454264
1113.000000	87.309911
1112.000000	87.168896
1111.000000	87.036817
1110.000000	86.911735
1109.000000	86.786554
1108.000000	86.662195
1107.000000	86.543198
1106.000000	86.421814
1105.000000	86.284885
1104.000000	86.136848
1103.000000	85.996508
1102.000000	85.869234
1101.000000	85.741738
1100.000000	85.606656
1099.000000	85.471680
1098.000000	85.340004
1097.000000	85.202350
1096.000000	85.055549
1095.000000	84.910993
1094.000000	84.777192
1093.000000	84.649311
1092.000000	84.521385
1091.000000	84.394199
1090.000000	84.267611
1089.000000	84.140115
1088.000000	84.017857
1087.000000	83.908314
1086.000000	83.804903
1085.000000	83.695307
1084.000000	83.583988
1083.000000	83.486574
1082.000000	83.402608
1081.000000	83.315807
1080.000000	83.221752
1079.000000	83.132069
1078.000000	83.049280
1077.000000	82.960995
1076.000000	82.862161
1075.000000	82.758993
1074.000000	82.647234
1073.000000	82.510635
1072.000000	82.345998
1071.000000	82.167396
1070.000000	81.980616
1069.000000	81.774568
1068.000000	81.542632
1067.000000	81.290970
1066.000000	81.021897
1065.000000	80.731709
1064.000000	80.430419
1063.000000	80.141111
1062.000000	79.873546
1061.000000	79.619376
1060.000000	79.376131
1059.000000	79.151479
1058.000000	78.940553
1057.000000	78.725599
1056.000000	78.503424
1055.000000	78.287127
1054.000000	78.075162
1053.000000	77.846374
1052.000000	77.594364
1051.000000	77.338155
1050.000000	77.087248
1049.000000	76.826516
1048.000000	76.548210
1047.000000	76.266825
1046.000000	75.990148
1045.000000	75.704999
1044.000000	75.401988
1043.000000	75.089477
1042.000000	74.775970
1041.000000	74.462211
1040.000000	74.155792
1039.000000	73.867774
1038.000000	73.589304
1037.000000	73.299113
1036.000000	73.001066
1035.000000	72.726093
1034.000000	72.489835
1033.000000	72.276818
1032.000000	72.073056
1031.000000	71.885411
1030.000000	71.719829
1029.000000	71.568763
1028.000000	71.429683
1027.000000	71.309720
1026.000000	71.203870
1025.000000	71.094394
1024.000000	70.978328
1023.000000	70.869571
1022.000000	70.769414
1021.000000	70.663161
1020.000000	70.550419
1019.000000	70.448790
1018.000000	70.361213
1017.000000	70.268852
1016.000000	70.162802
1015.000000	70.054013
1014.000000	69.945581
1013.000000	69.824869
1012.000000	69.690667
1011.000000	69.559954
1010.000000	69.440552
1009.000000	69.324236
1008.000000	69.212349
1007.000000	69.119560
1006.000000	69.046014
1005.000000	68.974335
1004.000000	68.900518
1003.000000	68.839845
1002.000000	68.796715
1001.000000	68.757864
1000.000000	68.721603
999.000000	68.704370
998.000000	68.710499
997.000000	68.723543
996.000000	68.735227
995.000000	68.756136
994.000000	68.790140
993.000000	68.824348
992.000000	68.852113
991.000000	68.882101
990.000000	68.918757
989.000000	68.957091
988.000000	69.000460
987.000000	69.060295
986.000000	69.136645
985.000000	69.222947
984.000000	69.328666
983.000000	69.469580
982.000000	69.636299
981.000000	69.802003
980.000000	69.962852
979.000000	70.140548
978.000000	70.343609
977.000000	70.558265
976.000000	70.780972
975.000000	71.027565
974.000000	71.303021
973.000000	71.591353
972.000000	71.882741
971.000000	72.184414
970.000000	72.498974
969.000000	72.818342
968.000000	73.143958
967.000000	73.486483
966.000000	73.840374
965.000000	74.184546
964.000000	74.513086
963.000000	74.840083
962.000000	75.170170
961.000000	75.490709
960.000000	75.798381
959.000000	76.107329
958.000000	76.423505
957.000000	76.734089
956.000000	77.028841
955.000000	77.309951
954.000000	77.575950
953.000000	77.818375
952.000000	78.040077
951.000000	78.256078
950.000000	78.471797
949.000000	78.680043
948.000000	78.880898
947.000000	79.081302
946.000000	79.272676
945.000000	79.434229
944.000000	79.564017
943.000000	79.684354
942.000000	79.811103
941.000000	79.938890
940.000000	80.061364
939.000000	80.182722
938.000000	80.303214
937.000000	80.415733
936.000000	80.523189
935.000000	80.638120
934.000000	80.759735
933.000000	80.873249
932.000000	80.977174
931.000000	81.088459
930.000000	81.214401
929.000000	81.342177
928.000000	81.463331
927.000000	81.586284
926.000000	81.716361
925.000000	81.844106
924.000000	81.961512
923.000000	82.070839
922.000000	82.171028
921.000000	82.254862
920.000000	82.325520
919.000000	82.396406
918.000000	82.469128
917.000000	82.531836
916.000000	82.584610
915.000000	82.645562
914.000000	82.726473
913.000000	82.824499
912.000000	82.943481
911.000000	83.099365
910.000000	83.296042
909.000000	83.518452
908.000000	83.758422
907.000000	84.025329
906.000000	84.322666
905.000000	84.637061
904.000000	84.960495
903.000000	85.301952
902.000000	85.665781
901.000000	86.037757
900.000000	86.403590
899.000000	86.764907
898.000000	87.127384
897.000000	87.487989
896.000000	87.841207
895.000000	88.183324
894.000000	88.505461
893.000000	88.798318
892.000000	89.069209
891.000000	89.338869
890.000000	89.616185
889.000000	89.891518
888.000000	90.158910
887.000000	90.426235
886.000000	90.696812
885.000000	90.959529
884.000000	91.206622
883.000000	91.445504
882.000000	91.684171
881.000000	91.919702
880.000000	92.149809
879.000000	92.380711
878.000000	92.614679
877.000000	92.844938
876.000000	93.072027
875.000000	93.309888
874.000000	93.565649
873.000000	93.827294
872.000000	94.081074
871.000000	94.328889
870.000000	94.580384
869.000000	94.839156
868.000000	95.103599
867.000000	95.370324
866.000000	95.631016
865.000000	95.877016
864.000000	96.112146
863.000000	96.349692
862.000000	96.591365
861.000000	96.821993
860.000000	97.032619
859.000000	97.236382
858.000000	97.450548
857.000000	97.670735
856.000000	97.874198
855.000000	98.044316
854.000000	98.184096
853.000000	98.309879
852.000000	98.438586
851.000000	98.577149
850.000000	98.716879
849.000000	98.839638
848.000000	98.934265
847.000000	99.005664
846.000000	99.065542
845.000000	99.117586
844.000000	99.155370
843.000000	99.171912
842.000000	99.166917
841.000000	99.145038
840.000000	99.109359
839.000000	99.058288
838.000000	98.990799
837.000000	98.913886
836.000000	98.839061
835.000000	98.768903
834.000000	98.695008
833.000000	98.616398
832.000000	98.552093
831.000000	98.523424
830.000000	98.528294
829.000000	98.546497
828.000000	98.567167
827.000000	98.595041
826.000000	98.632016
825.000000	98.671594
824.000000	98.711913
823.000000	98.753991
822.000000	98.786178
821.000000	98.791276
820.000000	98.768855
819.000000	98.730383
818.000000	98.673248
817.000000	98.579076
816.000000	98.438269
815.000000	98.256101
814.000000	98.029707
813.000000	97.737929
812.000000	97.362945
811.000000	96.906002
810.000000	96.371956
809.000000	95.753986
808.000000	95.047164
807.000000	94.265658
806.000000	93.434373
805.000000	92.574672
804.000000	91.709616
803.000000	90.870732
802.000000	90.087516
801.000000	89.382431
800.000000	88.784596
799.000000	88.329767
798.000000	88.033357
797.000000	87.877858
796.000000	87.835413
795.000000	87.885796
794.000000	88.005524
793.000000	88.160968
792.000000	88.325183
791.000000	88.487150
790.000000	88.635157
789.000000	88.744000
788.000000	88.786063
787.000000	88.744572
786.000000	88.612821
785.000000	88.393670
784.000000	88.105067
783.000000	87.775429
782.000000	87.431334
781.000000	87.100822
780.000000	86.824584
779.000000	86.641896
778.000000	86.562456
777.000000	86.572514
776.000000	86.669883
775.000000	86.867851
774.000000	87.160333
773.000000	87.509426
772.000000	87.875809
771.000000	88.239499
770.000000	88.585273
769.000000	88.893710
768.000000	89.158792
767.000000	89.394108
766.000000	89.609507
765.000000	89.798398
764.000000	89.958384
763.000000	90.106839
762.000000	90.262920
761.000000	90.427420
760.000000	90.591234
759.000000	90.751257
758.000000	90.908365
757.000000	91.062236
756.000000	91.217837
755.000000	91.385573
754.000000	91.565788
753.000000	91.743386
752.000000	91.905686
751.000000	92.056189
750.000000	92.204496
