4000.000000	101.758039
3999.000000	101.756030
3998.000000	101.754587
3997.000000	101.754730
3996.000000	101.756413
3995.000000	101.758568
3994.000000	101.759944
3993.000000	101.760046
3992.000000	101.759329
3991.000000	101.758554
3990.000000	101.757926
3989.000000	101.756922
3988.000000	101.755028
3987.000000	101.752599
3986.000000	101.750972
3985.000000	101.751678
3984.000000	101.755315
3983.000000	101.760743
3982.000000	101.765266
3981.000000	101.766167
3980.000000	101.762486
3979.000000	101.755538
3978.000000	101.747885
3977.000000	101.741455
3976.000000	101.736663
3975.000000	101.733296
3974.000000	101.731738
3973.000000	101.733029
3972.000000	101.737794
3971.000000	101.745304
3970.000000	101.753528
3969.000000	101.760104
3968.000000	101.763451
3967.000000	101.763214
3966.000000	101.760173
3965.000000	101.755999
3964.000000	101.752722
3963.000000	101.751718
3962.000000	101.752730
3961.000000	101.754056
3960.000000	101.754119
3959.000000	101.752807
3958.000000	101.751079
3957.000000	101.749402
3956.000000	101.747142
3955.000000	101.743595
3954.000000	101.739198
3953.000000	101.735218
3952.000000	101.732248
3951.000000	101.729414
3950.000000	101.725379
3949.000000	101.720156
3948.000000	101.715612
3947.000000	101.713758
3946.000000	101.714794
3945.000000	101.717103
3944.000000	101.718723
3943.000000	101.718499
3942.000000	101.716002
3941.000000	101.711345
3940.000000	101.705772
3939.000000	101.701878
3938.000000	101.701973
3937.000000	101.705690
3936.000000	101.709922
3935.000000	101.711910
3934.000000	101.712329
3933.000000	101.714526
3932.000000	101.720559
3931.000000	101.728636
3930.000000	101.734965
3929.000000	101.737492
3928.000000	101.736968
3927.000000	101.735100
3926.000000	101.732717
3925.000000	101.729938
3924.000000	101.727364
3923.000000	101.725933
3922.000000	101.725563
3921.000000	101.724898
3920.000000	101.722756
3919.000000	101.719457
3918.000000	101.716532
3917.000000	101.715296
3916.000000	101.715955
3915.000000	101.717896
3914.000000	101.720247
3913.000000	101.722124
3912.000000	101.722888
3911.000000	101.722536
3910.000000	101.721804
3909.000000	101.721661
3908.000000	101.722514
3907.000000	101.723876
3906.000000	101.724701
3905.000000	101.724234
3904.000000	101.722708
3903.000000	101.721259
3902.000000	101.720925
3901.000000	101.721799
3900.000000	101.723228
3899.000000	101.724602
3898.000000	101.725851
3897.000000	101.727199
3896.000000	101.728715
3895.000000	101.730222
3894.000000	101.731409
3893.000000	101.731984
3892.000000	101.731827
3891.000000	101.731120
3890.000000	101.730222
3889.000000	101.729397
3888.000000	101.728839
3887.000000	101.728898
3886.000000	101.730005
3885.000000	101.732276
3884.000000	101.735280
3883.000000	101.738030
3882.000000	101.739371
3881.000000	101.738645
3880.000000	101.736433
3879.000000	101.734553
3878.000000	101.734440
3877.000000	101.735925
3876.000000	101.737557
3875.000000	101.737968
3874.000000	101.737005
3873.000000	101.735697
3872.000000	101.735221
3871.000000	101.736068
3870.000000	101.738121
3869.000000	101.741041
3868.000000	101.744364
3867.000000	101.747432
3866.000000	101.749761
3865.000000	101.751481
3864.000000	101.753192
3863.000000	101.755285
3862.000000	101.757278
3861.000000	101.758076
3860.000000	101.756954
3859.000000	101.754418
3858.000000	101.752291
3857.000000	101.752758
3856.000000	101.756386
3855.000000	101.760352
3854.000000	101.760597
3853.000000	101.757599
3852.000000	101.756088
3851.000000	101.757212
3850.000000	101.757536
3849.000000	101.754763
3848.000000	101.749677
3847.000000	101.744309
3846.000000	101.740065
3845.000000	101.737135
3844.000000	101.734973
3843.000000	101.733148
3842.000000	101.731712
3841.000000	101.730822
3840.000000	101.730509
3839.000000	101.731146
3838.000000	101.733462
3837.000000	101.737440
3836.000000	101.741668
3835.000000	101.744311
3834.000000	101.744419
3833.000000	101.742352
3832.000000	101.739573
3831.000000	101.737875
3830.000000	101.737911
3829.000000	101.738557
3828.000000	101.738250
3827.000000	101.737149
3826.000000	101.737435
3825.000000	101.740966
3824.000000	101.747065
3823.000000	101.752589
3822.000000	101.754388
3821.000000	101.752455
3820.000000	101.750043
3819.000000	101.749927
3818.000000	101.752038
3817.000000	101.754931
3816.000000	101.757560
3815.000000	101.759566
3814.000000	101.760728
3813.000000	101.760815
3812.000000	101.760012
3811.000000	101.758862
3810.000000	101.757528
3809.000000	101.755538
3808.000000	101.752629
3807.000000	101.749797
3806.000000	101.748845
3805.000000	101.750577
3804.000000	101.754072
3803.000000	101.757235
3802.000000	101.758205
3801.000000	101.756935
3800.000000	101.754824
3799.000000	101.752691
3798.000000	101.750238
3797.000000	101.747389
3796.000000	101.745059
3795.000000	101.744380
3794.000000	101.745458
3793.000000	101.747149
3792.000000	101.748040
3791.000000	101.747769
3790.000000	101.747179
3789.000000	101.747340
3788.000000	101.748501
3787.000000	101.749755
3786.000000	101.749723
3785.000000	101.747902
3784.000000	101.745359
3783.000000	101.743702
3782.000000	101.743517
3781.000000	101.743800
3780.000000	101.742953
3779.000000	101.740665
3778.000000	101.738376
3777.000000	101.737297
3776.000000	101.736845
3775.000000	101.735584
3774.000000	101.733017
3773.000000	101.729829
3772.000000	101.726771
3771.000000	101.724050
3770.000000	101.721992
3769.000000	101.721418
3768.000000	101.722481
3767.000000	101.723781
3766.000000	101.723850
3765.000000	101.723258
3764.000000	101.724054
3763.000000	101.726967
3762.000000	101.729840
3761.000000	101.729031
3760.000000	101.722698
3759.000000	101.713310
3758.000000	101.706262
3757.000000	101.705366
3756.000000	101.710374
3755.000000	101.718117
3754.000000	101.724656
3753.000000	101.726793
3752.000000	101.724118
3751.000000	101.720941
3750.000000	101.723747
3749.000000	101.734815
3748.000000	101.749727
3747.000000	101.760381
3746.000000	101.758886
3745.000000	101.743239
3744.000000	101.723974
3743.000000	101.715928
3742.000000	101.720552
3741.000000	101.727654
3740.000000	101.729052
3739.000000	101.722734
3738.000000	101.710223
3737.000000	101.695092
3736.000000	101.681011
3735.000000	101.668774
3734.000000	101.656193
3733.000000	101.641928
3732.000000	101.628377
3731.000000	101.619398
3730.000000	101.615821
3729.000000	101.614675
3728.000000	101.611826
3727.000000	101.604656
3726.000000	101.593661
3725.000000	101.581878
3724.000000	101.572019
3723.000000	101.564324
3722.000000	101.557131
3721.000000	101.548704
3720.000000	101.538326
3719.000000	101.526336
3718.000000	101.513295
3717.000000	101.498737
3716.000000	101.480518
3715.000000	101.455955
3714.000000	101.424178
3713.000000	101.388192
3712.000000	101.354326
3711.000000	101.327455
3710.000000	101.306056
3709.000000	101.284205
3708.000000	101.258337
3707.000000	101.230017
3706.000000	101.203188
3705.000000	101.180450
3704.000000	101.161558
3703.000000	101.144266
3702.000000	101.126518
3701.000000	101.108302
3700.000000	101.091715
3699.000000	101.079396
3698.000000	101.073337
3697.000000	101.073601
3696.000000	101.076841
3695.000000	101.077590
3694.000000	101.072566
3693.000000	101.063579
3692.000000	101.055700
3691.000000	101.052144
3690.000000	101.051033
3689.000000	101.048921
3688.000000	101.046548
3687.000000	101.047327
3686.000000	101.052050
3685.000000	101.058778
3684.000000	101.064133
3683.000000	101.063025
3682.000000	101.050726
3681.000000	101.027473
3680.000000	100.999763
3679.000000	100.975251
3678.000000	100.956386
3677.000000	100.938854
3676.000000	100.917330
3675.000000	100.892448
3674.000000	100.868450
3673.000000	100.845360
3672.000000	100.818802
3671.000000	100.785682
3670.000000	100.746899
3669.000000	100.706973
3668.000000	100.671439
3667.000000	100.642837
3666.000000	100.619019
3665.000000	100.594725
3664.000000	100.565323
3663.000000	100.531277
3662.000000	100.498448
3661.000000	100.472566
3660.000000	100.453874
3659.000000	100.437869
3658.000000	100.420551
3657.000000	100.402131
3656.000000	100.385382
3655.000000	100.370464
3654.000000	100.353315
3653.000000	100.330537
3652.000000	100.304448
3651.000000	100.281078
3650.000000	100.261907
3649.000000	100.239821
3648.000000	100.208300
3647.000000	100.171100
3646.000000	100.137314
3645.000000	100.111089
3644.000000	100.089629
3643.000000	100.068752
3642.000000	100.047999
3641.000000	100.029943
3640.000000	100.015647
3639.000000	100.002631
3638.000000	99.987625
3637.000000	99.970112
3636.000000	99.952165
3635.000000	99.935539
3634.000000	99.919656
3633.000000	99.902208
3632.000000	99.881260
3631.000000	99.856937
3630.000000	99.832034
3629.000000	99.810276
3628.000000	99.792643
3627.000000	99.776707
3626.000000	99.760097
3625.000000	99.744797
3624.000000	99.736079
3623.000000	99.736088
3622.000000	99.741902
3621.000000	99.750173
3620.000000	99.761155
3619.000000	99.776870
3618.000000	99.796919
3617.000000	99.818256
3616.000000	99.838326
3615.000000	99.856996
3614.000000	99.875258
3613.000000	99.893168
3612.000000	99.909895
3611.000000	99.924742
3610.000000	99.937363
3609.000000	99.947836
3608.000000	99.956931
3607.000000	99.965776
3606.000000	99.975358
3605.000000	99.986567
3604.000000	100.000092
3603.000000	100.015438
3602.000000	100.030620
3601.000000	100.044216
3600.000000	100.057577
3599.000000	100.073287
3598.000000	100.091069
3597.000000	100.106715
3596.000000	100.115931
3595.000000	100.118497
3594.000000	100.117910
3593.000000	100.118027
3592.000000	100.120869
3591.000000	100.126694
3590.000000	100.133964
3589.000000	100.139189
3588.000000	100.139246
3587.000000	100.135378
3586.000000	100.132343
3585.000000	100.132604
3584.000000	100.134319
3583.000000	100.135169
3582.000000	100.135415
3581.000000	100.136763
3580.000000	100.139912
3579.000000	100.144174
3578.000000	100.148718
3577.000000	100.153149
3576.000000	100.156988
3575.000000	100.159304
3574.000000	100.158861
3573.000000	100.154289
3572.000000	100.144615
3571.000000	100.130650
3570.000000	100.116080
3569.000000	100.105994
3568.000000	100.102512
3567.000000	100.102138
3566.000000	100.099634
3565.000000	100.094300
3564.000000	100.089883
3563.000000	100.089848
3562.000000	100.094302
3561.000000	100.100560
3560.000000	100.105534
3559.000000	100.107542
3558.000000	100.106481
3557.000000	100.103469
3556.000000	100.100578
3555.000000	100.099934
3554.000000	100.101957
3553.000000	100.104378
3552.000000	100.103769
3551.000000	100.098621
3550.000000	100.090600
3549.000000	100.082969
3548.000000	100.078066
3547.000000	100.076098
3546.000000	100.075734
3545.000000	100.075471
3544.000000	100.074417
3543.000000	100.072317
3542.000000	100.069497
3541.000000	100.066764
3540.000000	100.064961
3539.000000	100.064396
3538.000000	100.064786
3537.000000	100.065693
3536.000000	100.066772
3535.000000	100.067612
3534.000000	100.067870
3533.000000	100.067888
3532.000000	100.068669
3531.000000	100.070625
3530.000000	100.072389
3529.000000	100.071657
3528.000000	100.067589
3527.000000	100.062070
3526.000000	100.058119
3525.000000	100.057108
3524.000000	100.058066
3523.000000	100.059459
3522.000000	100.061100
3521.000000	100.064068
3520.000000	100.068988
3519.000000	100.074758
3518.000000	100.079016
3517.000000	100.079933
3516.000000	100.077602
3515.000000	100.073875
3514.000000	100.070717
3513.000000	100.068451
3512.000000	100.065760
3511.000000	100.061445
3510.000000	100.056183
3509.000000	100.052301
3508.000000	100.051595
3507.000000	100.053548
3506.000000	100.055863
3505.000000	100.056659
3504.000000	100.056072
3503.000000	100.055571
3502.000000	100.055782
3501.000000	100.055318
3500.000000	100.051934
3499.000000	100.044641
3498.000000	100.034793
3497.000000	100.025560
3496.000000	100.020017
3495.000000	100.019333
3494.000000	100.022392
3493.000000	100.026663
3492.000000	100.029718
3491.000000	100.030463
3490.000000	100.029521
3489.000000	100.028698
3488.000000	100.029550
3487.000000	100.031828
3486.000000	100.033449
3485.000000	100.032610
3484.000000	100.029751
3483.000000	100.026841
3482.000000	100.024626
3481.000000	100.021448
3480.000000	100.015485
3479.000000	100.007335
3478.000000	99.999568
3477.000000	99.994165
3476.000000	99.991218
3475.000000	99.989844
3474.000000	99.989229
3473.000000	99.988453
3472.000000	99.986243
3471.000000	99.981793
3470.000000	99.975757
3469.000000	99.969806
3468.000000	99.964991
3467.000000	99.960762
3466.000000	99.955803
3465.000000	99.949705
3464.000000	99.943688
3463.000000	99.939570
3462.000000	99.937955
3461.000000	99.937565
3460.000000	99.936573
3459.000000	99.934679
3458.000000	99.933509
3457.000000	99.934721
3456.000000	99.937972
3455.000000	99.940866
3454.000000	99.940979
3453.000000	99.937752
3452.000000	99.932563
3451.000000	99.927465
3450.000000	99.923687
3449.000000	99.921179
3448.000000	99.919190
3447.000000	99.917030
3446.000000	99.914453
3445.000000	99.911554
3444.000000	99.908586
3443.000000	99.905922
3442.000000	99.903966
3441.000000	99.902833
3440.000000	99.902098
3439.000000	99.900954
3438.000000	99.898835
3437.000000	99.895911
3436.000000	99.893059
3435.000000	99.891165
3434.000000	99.890388
3433.000000	99.890036
3432.000000	99.889146
3431.000000	99.887283
3430.000000	99.884692
3429.000000	99.881950
3428.000000	99.879538
3427.000000	99.877709
3426.000000	99.876570
3425.000000	99.876084
3424.000000	99.876026
3423.000000	99.876066
3422.000000	99.875902
3421.000000	99.875291
3420.000000	99.874063
3419.000000	99.872292
3418.000000	99.870443
3417.000000	99.869119
3416.000000	99.868497
3415.000000	99.868096
3414.000000	99.867290
3413.000000	99.865994
3412.000000	99.864487
3411.000000	99.862648
3410.000000	99.859904
3409.000000	99.856076
3408.000000	99.851986
3407.000000	99.848908
3406.000000	99.847599
3405.000000	99.848100
3404.000000	99.850091
3403.000000	99.853061
3402.000000	99.856166
3401.000000	99.858287
3400.000000	99.858506
3399.000000	99.856651
3398.000000	99.853503
3397.000000	99.850425
3396.000000	99.848420
3395.000000	99.847388
3394.000000	99.846456
3393.000000	99.845240
3392.000000	99.844551
3391.000000	99.845472
3390.000000	99.847923
3389.000000	99.850532
3388.000000	99.851983
3387.000000	99.852275
3386.000000	99.852422
3385.000000	99.853157
3384.000000	99.854207
3383.000000	99.854717
3382.000000	99.854073
3381.000000	99.852228
3380.000000	99.849466
3379.000000	99.846213
3378.000000	99.843190
3377.000000	99.841385
3376.000000	99.841522
3375.000000	99.843485
3374.000000	99.846319
3373.000000	99.848964
3372.000000	99.850998
3371.000000	99.852525
3370.000000	99.853618
3369.000000	99.854198
3368.000000	99.854421
3367.000000	99.854858
3366.000000	99.856045
3365.000000	99.857932
3364.000000	99.859910
3363.000000	99.861326
3362.000000	99.861955
3361.000000	99.862022
3360.000000	99.861973
3359.000000	99.862232
3358.000000	99.863002
3357.000000	99.864205
3356.000000	99.865586
3355.000000	99.866897
3354.000000	99.868053
3353.000000	99.869095
3352.000000	99.870091
3351.000000	99.871085
3350.000000	99.872107
3349.000000	99.873192
3348.000000	99.874367
3347.000000	99.875636
3346.000000	99.876978
3345.000000	99.878343
3344.000000	99.879687
3343.000000	99.881013
3342.000000	99.882349
3341.000000	99.883721
3340.000000	99.885145
3339.000000	99.886622
3338.000000	99.888139
3337.000000	99.889678
3336.000000	99.891215
3335.000000	99.892736
3334.000000	99.894232
3333.000000	99.895704
3332.000000	99.897156
3331.000000	99.898589
3330.000000	99.900009
3329.000000	99.901419
3328.000000	99.902816
3327.000000	99.904191
3326.000000	99.905519
3325.000000	99.906786
3324.000000	99.907992
3323.000000	99.909149
3322.000000	99.910265
3321.000000	99.911375
3320.000000	99.912550
3319.000000	99.913858
3318.000000	99.915276
3317.000000	99.916682
3316.000000	99.917963
3315.000000	99.919113
3314.000000	99.920229
3313.000000	99.921393
3312.000000	99.922580
3311.000000	99.923666
3310.000000	99.924520
3309.000000	99.925115
3308.000000	99.925646
3307.000000	99.926459
3306.000000	99.927789
3305.000000	99.929561
3304.000000	99.931391
3303.000000	99.932966
3302.000000	99.934333
3301.000000	99.935695
3300.000000	99.936937
3299.000000	99.937639
3298.000000	99.937671
3297.000000	99.937509
3296.000000	99.937833
3295.000000	99.938775
3294.000000	99.939831
3293.000000	99.940468
3292.000000	99.940714
3291.000000	99.941044
3290.000000	99.941827
3289.000000	99.943008
3288.000000	99.944240
3287.000000	99.945197
3286.000000	99.945798
3285.000000	99.946245
3284.000000	99.946892
3283.000000	99.947997
3282.000000	99.949615
3281.000000	99.951679
3280.000000	99.954056
3279.000000	99.956422
3278.000000	99.958213
3277.000000	99.958960
3276.000000	99.958742
3275.000000	99.958242
3274.000000	99.958271
3273.000000	99.959292
3272.000000	99.961371
3271.000000	99.964351
3270.000000	99.967885
3269.000000	99.971388
3268.000000	99.974202
3267.000000	99.975932
3266.000000	99.976705
3265.000000	99.977027
3264.000000	99.977365
3263.000000	99.977838
3262.000000	99.978312
3261.000000	99.978806
3260.000000	99.979669
3259.000000	99.981256
3258.000000	99.983601
3257.000000	99.986457
3256.000000	99.989511
3255.000000	99.992393
3254.000000	99.994628
3253.000000	99.995904
3252.000000	99.996535
3251.000000	99.997435
3250.000000	99.999366
3249.000000	100.002206
3248.000000	100.005169
3247.000000	100.007808
3246.000000	100.010657
3245.000000	100.014616
3244.000000	100.019708
3243.000000	100.024615
3242.000000	100.027833
3241.000000	100.029103
3240.000000	100.029529
3239.000000	100.030375
3238.000000	100.031831
3237.000000	100.033293
3236.000000	100.034488
3235.000000	100.035882
3234.000000	100.038031
3233.000000	100.040929
3232.000000	100.044089
3231.000000	100.047018
3230.000000	100.049569
3229.000000	100.052041
3228.000000	100.054945
3227.000000	100.058443
3226.000000	100.061952
3225.000000	100.064613
3224.000000	100.066274
3223.000000	100.067822
3222.000000	100.070323
3221.000000	100.073972
3220.000000	100.078057
3219.000000	100.081818
3218.000000	100.085131
3217.000000	100.088257
3216.000000	100.091259
3215.000000	100.093867
3214.000000	100.095822
3213.000000	100.097219
3212.000000	100.098527
3211.000000	100.100382
3210.000000	100.103345
3209.000000	100.107742
3208.000000	100.113501
3207.000000	100.119983
3206.000000	100.126055
3205.000000	100.130650
3204.000000	100.133476
3203.000000	100.135318
3202.000000	100.137575
3201.000000	100.141128
3200.000000	100.145634
3199.000000	100.149955
3198.000000	100.153357
3197.000000	100.156198
3196.000000	100.159332
3195.000000	100.162960
3194.000000	100.166347
3193.000000	100.168792
3192.000000	100.170579
3191.000000	100.172745
3190.000000	100.176012
3189.000000	100.180257
3188.000000	100.184971
3187.000000	100.189873
3186.000000	100.194984
3185.000000	100.200356
3184.000000	100.205857
3183.000000	100.211122
3182.000000	100.215700
3181.000000	100.219379
3180.000000	100.222388
3179.000000	100.225148
3178.000000	100.227782
3177.000000	100.230029
3176.000000	100.231700
3175.000000	100.233055
3174.000000	100.234746
3173.000000	100.237485
3172.000000	100.241675
3171.000000	100.247056
3170.000000	100.252671
3169.000000	100.257601
3168.000000	100.261871
3167.000000	100.266344
3166.000000	100.271672
3165.000000	100.277595
3164.000000	100.283270
3163.000000	100.288049
3162.000000	100.291794
3161.000000	100.294715
3160.000000	100.297302
3159.000000	100.300263
3158.000000	100.304114
3157.000000	100.308788
3156.000000	100.313790
3155.000000	100.318694
3154.000000	100.323416
3153.000000	100.327996
3152.000000	100.332395
3151.000000	100.336583
3150.000000	100.340671
3149.000000	100.344859
3148.000000	100.349264
3147.000000	100.353839
3146.000000	100.358399
3145.000000	100.362726
3144.000000	100.366751
3143.000000	100.370609
3142.000000	100.374541
3141.000000	100.378688
3140.000000	100.383002
3139.000000	100.387357
3138.000000	100.391658
3137.000000	100.395901
3136.000000	100.400121
3135.000000	100.404344
3134.000000	100.408579
3133.000000	100.412829
3132.000000	100.417092
3131.000000	100.421357
3130.000000	100.425609
3129.000000	100.429833
3128.000000	100.434022
3127.000000	100.438177
3126.000000	100.442325
3125.000000	100.446510
3124.000000	100.450754
3123.000000	100.455004
3122.000000	100.459145
3121.000000	100.463102
3120.000000	100.466897
3119.000000	100.470638
3118.000000	100.474447
3117.000000	100.478400
3116.000000	100.482491
3115.000000	100.486619
3114.000000	100.490657
3113.000000	100.494569
3112.000000	100.498430
3111.000000	100.502357
3110.000000	100.506430
3109.000000	100.510665
3108.000000	100.514991
3107.000000	100.519245
3106.000000	100.523245
3105.000000	100.526931
3104.000000	100.530409
3103.000000	100.533839
3102.000000	100.537321
3101.000000	100.540961
3100.000000	100.544915
3099.000000	100.549232
3098.000000	100.553652
3097.000000	100.557759
3096.000000	100.561458
3095.000000	100.565093
3094.000000	100.569035
3093.000000	100.573267
3092.000000	100.577510
3091.000000	100.581599
3090.000000	100.585601
3089.000000	100.589677
3088.000000	100.593930
3087.000000	100.598231
3086.000000	100.602153
3085.000000	100.605325
3084.000000	100.608005
3083.000000	100.610985
3082.000000	100.614666
3081.000000	100.618555
3080.000000	100.622033
3079.000000	100.625301
3078.000000	100.629068
3077.000000	100.633486
3076.000000	100.637930
3075.000000	100.641766
3074.000000	100.644858
3073.000000	100.647338
3072.000000	100.649529
3071.000000	100.652145
3070.000000	100.655853
3069.000000	100.660421
3068.000000	100.664789
3067.000000	100.668372
3066.000000	100.671657
3065.000000	100.675254
3064.000000	100.679017
3063.000000	100.682424
3062.000000	100.685230
3061.000000	100.687324
3060.000000	100.688664
3059.000000	100.689999
3058.000000	100.693006
3057.000000	100.698648
3056.000000	100.705928
3055.000000	100.712861
3054.000000	100.718480
3053.000000	100.723356
3052.000000	100.728221
3051.000000	100.733150
3050.000000	100.738061
3049.000000	100.743133
3048.000000	100.748405
3047.000000	100.753481
3046.000000	100.757941
3045.000000	100.761745
3044.000000	100.765122
3043.000000	100.768430
3042.000000	100.772208
3041.000000	100.776912
3040.000000	100.782318
3039.000000	100.787450
3038.000000	100.791546
3037.000000	100.794989
3036.000000	100.798945
3035.000000	100.804042
3034.000000	100.809663
3033.000000	100.814674
3032.000000	100.818757
3031.000000	100.822949
3030.000000	100.828728
3029.000000	100.836580
3028.000000	100.845467
3027.000000	100.853624
3026.000000	100.860200
3025.000000	100.865785
3024.000000	100.871460
3023.000000	100.877621
3022.000000	100.883849
3021.000000	100.889689
3020.000000	100.895116
3019.000000	100.900164
3018.000000	100.904671
3017.000000	100.909107
3016.000000	100.915315
3015.000000	100.925229
3014.000000	100.938325
3013.000000	100.950809
3012.000000	100.958865
3011.000000	100.962483
3010.000000	100.965480
3009.000000	100.971337
3008.000000	100.979864
3007.000000	100.988339
3006.000000	100.994628
3005.000000	100.998327
3004.000000	100.999928
3003.000000	101.000579
3002.000000	101.002620
3001.000000	101.008861
3000.000000	101.020429
2999.000000	101.035513
2998.000000	101.050424
2997.000000	101.061881
2996.000000	101.068679
2995.000000	101.072260
2994.000000	101.076081
2993.000000	101.083411
2992.000000	101.094803
2991.000000	101.107592
2990.000000	101.117957
2989.000000	101.123448
2988.000000	101.124114
2987.000000	101.122478
2986.000000	101.122627
2985.000000	101.128000
2984.000000	101.139190
2983.000000	101.154071
2982.000000	101.169896
2981.000000	101.184241
2980.000000	101.194217
2979.000000	101.197177
2978.000000	101.193718
2977.000000	101.188772
2976.000000	101.187868
2975.000000	101.192487
2974.000000	101.200006
2973.000000	101.206980
2972.000000	101.211016
2971.000000	101.210579
2970.000000	101.205066
2969.000000	101.195361
2968.000000	101.183090
2967.000000	101.169532
2966.000000	101.156355
2965.000000	101.146018
2964.000000	101.139295
2963.000000	101.133420
2962.000000	101.125212
2961.000000	101.115685
2960.000000	101.108864
2959.000000	101.106194
2958.000000	101.105010
2957.000000	101.102952
2956.000000	101.100967
2955.000000	101.100778
2954.000000	101.101972
2953.000000	101.103154
2952.000000	101.103861
2951.000000	101.103613
2950.000000	101.100879
2949.000000	101.094894
2948.000000	101.087299
2947.000000	101.080409
2946.000000	101.074985
2945.000000	101.071165
2944.000000	101.070126
2943.000000	101.072666
2942.000000	101.076845
2941.000000	101.079202
2940.000000	101.078394
2939.000000	101.076130
2938.000000	101.074479
2937.000000	101.073582
2936.000000	101.072064
2935.000000	101.068773
2934.000000	101.064169
2933.000000	101.060648
2932.000000	101.061036
2931.000000	101.065862
2930.000000	101.072237
2929.000000	101.076234
2928.000000	101.076661
2927.000000	101.076232
2926.000000	101.079413
2925.000000	101.089105
2924.000000	101.104135
2923.000000	101.118993
2922.000000	101.127504
2921.000000	101.128482
2920.000000	101.127080
2919.000000	101.129547
2918.000000	101.137326
2917.000000	101.147578
2916.000000	101.158172
2915.000000	101.169712
2914.000000	101.182618
2913.000000	101.194797
2912.000000	101.203699
2911.000000	101.209517
2910.000000	101.214953
2909.000000	101.221994
2908.000000	101.229703
2907.000000	101.235415
2906.000000	101.237715
2905.000000	101.237953
2904.000000	101.238801
2903.000000	101.241565
2902.000000	101.245434
2901.000000	101.249291
2900.000000	101.253152
2899.000000	101.257105
2898.000000	101.259817
2897.000000	101.259730
2896.000000	101.257576
2895.000000	101.256394
2894.000000	101.258444
2893.000000	101.262690
2892.000000	101.266024
2891.000000	101.266612
2890.000000	101.265502
2889.000000	101.265088
2888.000000	101.266492
2887.000000	101.268738
2886.000000	101.270359
2885.000000	101.271314
2884.000000	101.272962
2883.000000	101.276319
2882.000000	101.280681
2881.000000	101.283833
2880.000000	101.283307
2879.000000	101.277977
2878.000000	101.269526
2877.000000	101.262270
2876.000000	101.260079
2875.000000	101.262846
2874.000000	101.266652
2873.000000	101.268067
2872.000000	101.267562
2871.000000	101.267923
2870.000000	101.270280
2869.000000	101.273085
2868.000000	101.274570
2867.000000	101.274428
2866.000000	101.272682
2865.000000	101.268498
2864.000000	101.261435
2863.000000	101.253449
2862.000000	101.248171
2861.000000	101.247371
2860.000000	101.248565
2859.000000	101.247014
2858.000000	101.240838
2857.000000	101.233534
2856.000000	101.230461
2855.000000	101.233238
2854.000000	101.238658
2853.000000	101.242871
2852.000000	101.245607
2851.000000	101.249367
2850.000000	101.255701
2849.000000	101.263721
2848.000000	101.271559
2847.000000	101.277963
2846.000000	101.282552
2845.000000	101.285532
2844.000000	101.287468
2843.000000	101.288881
2842.000000	101.289992
2841.000000	101.290946
2840.000000	101.291840
2839.000000	101.292346
2838.000000	101.292101
2837.000000	101.292047
2836.000000	101.294363
2835.000000	101.300009
2834.000000	101.306973
2833.000000	101.312099
2832.000000	101.314493
2831.000000	101.315766
2830.000000	101.317277
2829.000000	101.318754
2828.000000	101.319868
2827.000000	101.321561
2826.000000	101.324837
2825.000000	101.329151
2824.000000	101.332901
2823.000000	101.335160
2822.000000	101.336290
2821.000000	101.337317
2820.000000	101.339269
2819.000000	101.342818
2818.000000	101.347882
2817.000000	101.353464
2816.000000	101.358202
2815.000000	101.361445
2814.000000	101.363536
2813.000000	101.365209
2812.000000	101.367040
2811.000000	101.369270
2810.000000	101.371961
2809.000000	101.375085
2808.000000	101.378498
2807.000000	101.381971
2806.000000	101.385309
2805.000000	101.388465
2804.000000	101.391470
2803.000000	101.394213
2802.000000	101.396446
2801.000000	101.398083
2800.000000	101.399412
2799.000000	101.400942
2798.000000	101.402969
2797.000000	101.405396
2796.000000	101.407977
2795.000000	101.410669
2794.000000	101.413624
2793.000000	101.416855
2792.000000	101.420080
2791.000000	101.422972
2790.000000	101.425465
2789.000000	101.427750
2788.000000	101.430000
2787.000000	101.432241
2786.000000	101.434536
2785.000000	101.437077
2784.000000	101.439898
2783.000000	101.442574
2782.000000	101.444536
2781.000000	101.445706
2780.000000	101.446645
2779.000000	101.448024
2778.000000	101.450069
2777.000000	101.452610
2776.000000	101.455253
2775.000000	101.457380
2774.000000	101.458378
2773.000000	101.458237
2772.000000	101.457984
2771.000000	101.458946
2770.000000	101.461502
2769.000000	101.464887
2768.000000	101.468035
2767.000000	101.470562
2766.000000	101.472634
2765.000000	101.474361
2764.000000	101.475750
2763.000000	101.477052
2762.000000	101.478743
2761.000000	101.481128
2760.000000	101.484144
2759.000000	101.487412
2758.000000	101.490298
2757.000000	101.492078
2756.000000	101.492357
2755.000000	101.491384
2754.000000	101.489876
2753.000000	101.488562
2752.000000	101.487984
2751.000000	101.488519
2750.000000	101.490231
2749.000000	101.492710
2748.000000	101.495272
2747.000000	101.497500
2746.000000	101.499475
2745.000000	101.501506
2744.000000	101.503740
2743.000000	101.505959
2742.000000	101.507613
2741.000000	101.508186
2740.000000	101.507739
2739.000000	101.507155
2738.000000	101.507564
2737.000000	101.509347
2736.000000	101.511818
2735.000000	101.513894
2734.000000	101.515064
2733.000000	101.515643
2732.000000	101.516276
2731.000000	101.517339
2730.000000	101.518700
2729.000000	101.519917
2728.000000	101.520636
2727.000000	101.520889
2726.000000	101.520965
2725.000000	101.521072
2724.000000	101.521325
2723.000000	101.521906
2722.000000	101.522895
2721.000000	101.523803
2720.000000	101.523751
2719.000000	101.522540
2718.000000	101.521352
2717.000000	101.521700
2716.000000	101.523756
2715.000000	101.526303
2714.000000	101.528367
2713.000000	101.530403
2712.000000	101.533341
2711.000000	101.536865
2710.000000	101.539426
2709.000000	101.540016
2708.000000	101.539080
2707.000000	101.537668
2706.000000	101.536327
2705.000000	101.535143
2704.000000	101.534165
2703.000000	101.533263
2702.000000	101.532091
2701.000000	101.530738
2700.000000	101.530018
2699.000000	101.530511
2698.000000	101.531653
2697.000000	101.532405
2696.000000	101.532652
2695.000000	101.533211
2694.000000	101.534472
2693.000000	101.535734
2692.000000	101.536088
2691.000000	101.535431
2690.000000	101.534392
2689.000000	101.533623
2688.000000	101.533432
2687.000000	101.533837
2686.000000	101.534611
2685.000000	101.535319
2684.000000	101.535548
2683.000000	101.535161
2682.000000	101.534327
2681.000000	101.533466
2680.000000	101.533184
2679.000000	101.533947
2678.000000	101.535632
2677.000000	101.537410
2676.000000	101.538329
2675.000000	101.538098
2674.000000	101.537147
2673.000000	101.536155
2672.000000	101.535536
2671.000000	101.535390
2670.000000	101.535742
2669.000000	101.536630
2668.000000	101.537964
2667.000000	101.539468
2666.000000	101.540825
2665.000000	101.541889
2664.000000	101.542720
2663.000000	101.543387
2662.000000	101.543767
2661.000000	101.543607
2660.000000	101.542841
2659.000000	101.541779
2658.000000	101.540983
2657.000000	101.540896
2656.000000	101.541582
2655.000000	101.542727
2654.000000	101.543843
2653.000000	101.544573
2652.000000	101.544849
2651.000000	101.544814
2650.000000	101.544603
2649.000000	101.544205
2648.000000	101.543537
2647.000000	101.542604
2646.000000	101.541640
2645.000000	101.541091
2644.000000	101.541342
2643.000000	101.542312
2642.000000	101.543300
2641.000000	101.543447
2640.000000	101.542524
2639.000000	101.541238
2638.000000	101.540668
2637.000000	101.541290
2636.000000	101.542540
2635.000000	101.543345
2634.000000	101.543222
2633.000000	101.542773
2632.000000	101.543052
2631.000000	101.544326
2630.000000	101.545672
2629.000000	101.545963
2628.000000	101.545073
2627.000000	101.543839
2626.000000	101.542961
2625.000000	101.542304
2624.000000	101.541365
2623.000000	101.539885
2622.000000	101.537823
2621.000000	101.535262
2620.000000	101.532759
2619.000000	101.531344
2618.000000	101.531554
2617.000000	101.532575
2616.000000	101.532914
2615.000000	101.532019
2614.000000	101.530648
2613.000000	101.529581
2612.000000	101.528679
2611.000000	101.527631
2610.000000	101.526998
2609.000000	101.527753
2608.000000	101.529880
2607.000000	101.532057
2606.000000	101.533030
2605.000000	101.532967
2604.000000	101.533007
2603.000000	101.533661
2602.000000	101.534213
2601.000000	101.533877
2600.000000	101.533027
2599.000000	101.532722
2598.000000	101.533220
2597.000000	101.533682
2596.000000	101.533554
2595.000000	101.533668
2594.000000	101.535452
2593.000000	101.539245
2592.000000	101.543779
2591.000000	101.547306
2590.000000	101.548957
2589.000000	101.548888
2588.000000	101.547567
2587.000000	101.545362
2586.000000	101.542777
2585.000000	101.540596
2584.000000	101.539334
2583.000000	101.538707
2582.000000	101.537942
2581.000000	101.536665
2580.000000	101.535278
2579.000000	101.534423
2578.000000	101.534353
2577.000000	101.534985
2576.000000	101.536251
2575.000000	101.538025
2574.000000	101.539789
2573.000000	101.540786
2572.000000	101.540644
2571.000000	101.539717
2570.000000	101.538794
2569.000000	101.538605
2568.000000	101.539476
2567.000000	101.541170
2566.000000	101.542982
2565.000000	101.544273
2564.000000	101.544983
2563.000000	101.545439
2562.000000	101.545620
2561.000000	101.544965
2560.000000	101.543194
2559.000000	101.541140
2558.000000	101.540396
2557.000000	101.541960
2556.000000	101.545348
2555.000000	101.548884
2554.000000	101.551011
2553.000000	101.551495
2552.000000	101.551462
2551.000000	101.552298
2550.000000	101.554294
2549.000000	101.556348
2548.000000	101.557001
2547.000000	101.555710
2546.000000	101.553145
2545.000000	101.550449
2544.000000	101.548327
2543.000000	101.546823
2542.000000	101.545752
2541.000000	101.545174
2540.000000	101.545472
2539.000000	101.547092
2538.000000	101.550186
2537.000000	101.554345
2536.000000	101.558658
2535.000000	101.562262
2534.000000	101.564954
2533.000000	101.567124
2532.000000	101.569062
2531.000000	101.570540
2530.000000	101.571256
2529.000000	101.571433
2528.000000	101.571663
2527.000000	101.572365
2526.000000	101.573790
2525.000000	101.576324
2524.000000	101.580129
2523.000000	101.584405
2522.000000	101.587648
2521.000000	101.589048
2520.000000	101.589121
2519.000000	101.588921
2518.000000	101.589074
2517.000000	101.589862
2516.000000	101.591672
2515.000000	101.594665
2514.000000	101.598173
2513.000000	101.601045
2512.000000	101.602801
2511.000000	101.603891
2510.000000	101.604973
2509.000000	101.606285
2508.000000	101.607714
2507.000000	101.609145
2506.000000	101.610574
2505.000000	101.612072
2504.000000	101.613728
2503.000000	101.615547
2502.000000	101.617409
2501.000000	101.619194
2500.000000	101.620906
2499.000000	101.622618
2498.000000	101.624368
2497.000000	101.626146
2496.000000	101.627930
2495.000000	101.629710
2494.000000	101.631476
2493.000000	101.633219
2492.000000	101.634937
2491.000000	101.636622
2490.000000	101.638224
2489.000000	101.639664
2488.000000	101.640931
2487.000000	101.642117
2486.000000	101.643372
2485.000000	101.644804
2484.000000	101.646452
2483.000000	101.648284
2482.000000	101.650175
2481.000000	101.651933
2480.000000	101.653434
2479.000000	101.654693
2478.000000	101.655816
2477.000000	101.656907
2476.000000	101.658078
2475.000000	101.659493
2474.000000	101.661278
2473.000000	101.663336
2472.000000	101.665293
2471.000000	101.666794
2470.000000	101.667762
2469.000000	101.668462
2468.000000	101.669328
2467.000000	101.670591
2466.000000	101.672096
2465.000000	101.673482
2464.000000	101.674668
2463.000000	101.676060
2462.000000	101.678134
2461.000000	101.680914
2460.000000	101.683884
2459.000000	101.686441
2458.000000	101.688340
2457.000000	101.689719
2456.000000	101.690863
2455.000000	101.691961
2454.000000	101.693031
2453.000000	101.693917
2452.000000	101.694443
2451.000000	101.694688
2450.000000	101.695088
2449.000000	101.696132
2448.000000	101.697956
2447.000000	101.700321
2446.000000	101.702884
2445.000000	101.705295
2444.000000	101.707200
2443.000000	101.708472
2442.000000	101.709427
2441.000000	101.710555
2440.000000	101.711942
2439.000000	101.713246
2438.000000	101.714344
2437.000000	101.715689
2436.000000	101.717721
2435.000000	101.720153
2434.000000	101.722200
2433.000000	101.723516
2432.000000	101.724636
2431.000000	101.726428
2430.000000	101.729245
2429.000000	101.732611
2428.000000	101.735509
2427.000000	101.737131
2426.000000	101.737456
2425.000000	101.737167
2424.000000	101.737021
2423.000000	101.737243
2422.000000	101.737676
2421.000000	101.738303
2420.000000	101.739251
2419.000000	101.740400
2418.000000	101.741404
2417.000000	101.742294
2416.000000	101.743662
2415.000000	101.745975
2414.000000	101.748965
2413.000000	101.751793
2412.000000	101.753749
2411.000000	101.754684
2410.000000	101.754758
2409.000000	101.754259
2408.000000	101.753666
2407.000000	101.753513
2406.000000	101.754042
2405.000000	101.755060
2404.000000	101.756127
2403.000000	101.756910
2402.000000	101.757416
2401.000000	101.757868
2400.000000	101.758447
2399.000000	101.759135
2398.000000	101.759823
2397.000000	101.760446
2396.000000	101.761022
2395.000000	101.761585
2394.000000	101.762142
2393.000000	101.762684
2392.000000	101.763213
2391.000000	101.763725
2390.000000	101.764211
2389.000000	101.764667
2388.000000	101.765094
2387.000000	101.765505
2386.000000	101.765910
2385.000000	101.766316
2384.000000	101.766721
2383.000000	101.767116
2382.000000	101.767491
2381.000000	101.767840
2380.000000	101.768167
2379.000000	101.768479
2378.000000	101.768779
2377.000000	101.769068
2376.000000	101.769346
2375.000000	101.769617
2374.000000	101.769886
2373.000000	101.770152
2372.000000	101.770407
2371.000000	101.770644
2370.000000	101.770860
2369.000000	101.771057
2368.000000	101.771245
2367.000000	101.771434
2366.000000	101.771627
2365.000000	101.771817
2364.000000	101.771988
2363.000000	101.772133
2362.000000	101.772245
2361.000000	101.772324
2360.000000	101.772375
2359.000000	101.772413
2358.000000	101.772453
2357.000000	101.772499
2356.000000	101.772538
2355.000000	101.772553
2354.000000	101.772532
2353.000000	101.772473
2352.000000	101.772378
2351.000000	101.772248
2350.000000	101.772089
2349.000000	101.771884
2348.000000	101.771626
2347.000000	101.771335
2346.000000	101.771085
2345.000000	101.770863
2344.000000	101.770440
2343.000000	101.769698
2342.000000	101.768726
2341.000000	101.767842
2340.000000	101.767233
2339.000000	101.766987
2338.000000	101.767099
2337.000000	101.767462
2336.000000	101.767805
2335.000000	101.767792
2334.000000	101.767018
2333.000000	101.765419
2332.000000	101.763413
2331.000000	101.761661
2330.000000	101.760531
2329.000000	101.759250
2328.000000	101.757034
2327.000000	101.753471
2326.000000	101.749521
2325.000000	101.746640
2324.000000	101.745657
2323.000000	101.746385
2322.000000	101.747476
2321.000000	101.747739
2320.000000	101.746509
2319.000000	101.744209
2318.000000	101.741882
2317.000000	101.740368
2316.000000	101.739409
2315.000000	101.737782
2314.000000	101.734813
2313.000000	101.730867
2312.000000	101.726812
2311.000000	101.722900
2310.000000	101.719246
2309.000000	101.716178
2308.000000	101.714019
2307.000000	101.712185
2306.000000	101.709679
2305.000000	101.706254
2304.000000	101.702728
2303.000000	101.699917
2302.000000	101.697842
2301.000000	101.696000
2300.000000	101.693968
2299.000000	101.691302
2298.000000	101.687613
2297.000000	101.682982
2296.000000	101.678361
2295.000000	101.674644
2294.000000	101.671841
2293.000000	101.669304
2292.000000	101.666712
2291.000000	101.664228
2290.000000	101.661894
2289.000000	101.659355
2288.000000	101.656384
2287.000000	101.653298
2286.000000	101.650574
2285.000000	101.648266
2284.000000	101.645970
2283.000000	101.643345
2282.000000	101.640389
2281.000000	101.637285
2280.000000	101.634117
2279.000000	101.630885
2278.000000	101.627669
2277.000000	101.624655
2276.000000	101.621994
2275.000000	101.619708
2274.000000	101.617674
2273.000000	101.615648
2272.000000	101.613376
2271.000000	101.610727
2270.000000	101.607826
2269.000000	101.605017
2268.000000	101.602621
2267.000000	101.600694
2266.000000	101.599071
2265.000000	101.597551
2264.000000	101.595938
2263.000000	101.593963
2262.000000	101.591388
2261.000000	101.588297
2260.000000	101.585171
2259.000000	101.582587
2258.000000	101.580834
2257.000000	101.579874
2256.000000	101.579367
2255.000000	101.578664
2254.000000	101.577072
2253.000000	101.574418
2252.000000	101.571340
2251.000000	101.568781
2250.000000	101.567124
2249.000000	101.566058
2248.000000	101.565096
2247.000000	101.563902
2246.000000	101.562175
2245.000000	101.559753
2244.000000	101.557050
2243.000000	101.554978
2242.000000	101.554083
2241.000000	101.554056
2240.000000	101.554255
2239.000000	101.554461
2238.000000	101.554805
2237.000000	101.555216
2236.000000	101.555336
2235.000000	101.554951
2234.000000	101.554184
2233.000000	101.553221
2232.000000	101.552045
2231.000000	101.550637
2230.000000	101.549374
2229.000000	101.548988
2228.000000	101.549911
2227.000000	101.551642
2226.000000	101.552931
2225.000000	101.552787
2224.000000	101.551211
2223.000000	101.549000
2222.000000	101.547051
2221.000000	101.545939
2220.000000	101.545939
2219.000000	101.546959
2218.000000	101.548441
2217.000000	101.549699
2216.000000	101.550484
2215.000000	101.550977
2214.000000	101.551307
2213.000000	101.551405
2212.000000	101.551310
2211.000000	101.551256
2210.000000	101.551369
2209.000000	101.551615
2208.000000	101.552102
2207.000000	101.553002
2206.000000	101.554170
2205.000000	101.555186
2204.000000	101.555906
2203.000000	101.556676
2202.000000	101.557880
2201.000000	101.559505
2200.000000	101.561221
2199.000000	101.562668
2198.000000	101.563654
2197.000000	101.564281
2196.000000	101.564927
2195.000000	101.565860
2194.000000	101.566899
2193.000000	101.567773
2192.000000	101.568706
2191.000000	101.570059
2190.000000	101.571402
2189.000000	101.571742
2188.000000	101.570899
2187.000000	101.569938
2186.000000	101.569755
2185.000000	101.569873
2184.000000	101.569401
2183.000000	101.568667
2182.000000	101.568941
2181.000000	101.570657
2180.000000	101.572806
2179.000000	101.574143
2178.000000	101.574402
2177.000000	101.574188
2176.000000	101.574201
2175.000000	101.574836
2174.000000	101.576291
2173.000000	101.578765
2172.000000	101.582383
2171.000000	101.586726
2170.000000	101.590501
2169.000000	101.592220
2168.000000	101.591569
2167.000000	101.589943
2166.000000	101.589291
2165.000000	101.590308
2164.000000	101.592111
2163.000000	101.593321
2162.000000	101.593042
2161.000000	101.591139
2160.000000	101.588345
2159.000000	101.586093
2158.000000	101.585476
2157.000000	101.586226
2156.000000	101.587189
2155.000000	101.587946
2154.000000	101.589310
2153.000000	101.591919
2152.000000	101.595076
2151.000000	101.597509
2150.000000	101.598907
2149.000000	101.600122
2148.000000	101.602049
2147.000000	101.604813
2146.000000	101.607931
2145.000000	101.610850
2144.000000	101.613210
2143.000000	101.614863
2142.000000	101.615883
2141.000000	101.616614
2140.000000	101.617579
2139.000000	101.619190
2138.000000	101.621443
2137.000000	101.623994
2136.000000	101.626602
2135.000000	101.629281
2134.000000	101.631790
2133.000000	101.633308
2132.000000	101.633223
2131.000000	101.632286
2130.000000	101.632353
2129.000000	101.634533
2128.000000	101.638117
2127.000000	101.641611
2126.000000	101.644469
2125.000000	101.647228
2124.000000	101.650274
2123.000000	101.653311
2122.000000	101.655979
2121.000000	101.658194
2120.000000	101.659759
2119.000000	101.660412
2118.000000	101.660549
2117.000000	101.661187
2116.000000	101.662846
2115.000000	101.665051
2114.000000	101.667428
2113.000000	101.670692
2112.000000	101.675715
2111.000000	101.681873
2110.000000	101.687234
2109.000000	101.690685
2108.000000	101.693041
2107.000000	101.695738
2106.000000	101.698899
2105.000000	101.701251
2104.000000	101.701672
2103.000000	101.700349
2102.000000	101.698766
2101.000000	101.698649
2100.000000	101.700464
2099.000000	101.702821
2098.000000	101.703841
2097.000000	101.703340
2096.000000	101.703002
2095.000000	101.704125
2094.000000	101.706103
2093.000000	101.707692
2092.000000	101.708876
2091.000000	101.710498
2090.000000	101.712671
2089.000000	101.714762
2088.000000	101.716764
2087.000000	101.719451
2086.000000	101.722934
2085.000000	101.725962
2084.000000	101.727129
2083.000000	101.726571
2082.000000	101.726309
2081.000000	101.728789
2080.000000	101.734644
2079.000000	101.741742
2078.000000	101.747015
2077.000000	101.749546
2076.000000	101.751114
2075.000000	101.753409
2074.000000	101.755775
2073.000000	101.756641
2072.000000	101.756196
2071.000000	101.756058
2070.000000	101.756703
2069.000000	101.756838
2068.000000	101.755495
2067.000000	101.753557
2066.000000	101.752852
2065.000000	101.754433
2064.000000	101.757889
2063.000000	101.761701
2062.000000	101.764076
2061.000000	101.763992
2060.000000	101.761749
2059.000000	101.758403
2058.000000	101.754807
2057.000000	101.751470
2056.000000	101.748885
2055.000000	101.747314
2054.000000	101.746410
2053.000000	101.745495
2052.000000	101.743997
2051.000000	101.741455
2050.000000	101.737824
2049.000000	101.734370
2048.000000	101.733258
2047.000000	101.734925
2046.000000	101.736472
2045.000000	101.734247
2044.000000	101.727864
2043.000000	101.720445
2042.000000	101.714905
2041.000000	101.711227
2040.000000	101.707809
2039.000000	101.704070
2038.000000	101.700937
2037.000000	101.699585
2036.000000	101.700353
2035.000000	101.702200
2034.000000	101.702859
2033.000000	101.700460
2032.000000	101.695563
2031.000000	101.690936
2030.000000	101.688647
2029.000000	101.687929
2028.000000	101.686643
2027.000000	101.684072
2026.000000	101.681194
2025.000000	101.678592
2024.000000	101.675387
2023.000000	101.670609
2022.000000	101.664743
2021.000000	101.659461
2020.000000	101.656007
2019.000000	101.654171
2018.000000	101.652551
2017.000000	101.649662
2016.000000	101.645072
2015.000000	101.639610
2014.000000	101.634494
2013.000000	101.630294
2012.000000	101.626798
2011.000000	101.623702
2010.000000	101.621130
2009.000000	101.619398
2008.000000	101.618535
2007.000000	101.618227
2006.000000	101.618080
2005.000000	101.617750
2004.000000	101.616905
2003.000000	101.615266
2002.000000	101.612684
2001.000000	101.609254
2000.000000	101.605415
1999.000000	101.602066
1998.000000	101.600246
1997.000000	101.600231
1996.000000	101.600980
1995.000000	101.600909
1994.000000	101.599432
1993.000000	101.597400
1992.000000	101.595877
1991.000000	101.594817
1990.000000	101.593480
1989.000000	101.591871
1988.000000	101.590931
1987.000000	101.591239
1986.000000	101.592226
1985.000000	101.592854
1984.000000	101.592620
1983.000000	101.591576
1982.000000	101.589858
1981.000000	101.587740
1980.000000	101.585916
1979.000000	101.585142
1978.000000	101.585447
1977.000000	101.585901
1976.000000	101.585412
1975.000000	101.583733
1974.000000	101.581577
1973.000000	101.579832
1972.000000	101.578775
1971.000000	101.578176
1970.000000	101.577842
1969.000000	101.577807
1968.000000	101.577976
1967.000000	101.577905
1966.000000	101.577307
1965.000000	101.576695
1964.000000	101.577024
1963.000000	101.578443
1962.000000	101.579696
1961.000000	101.579305
1960.000000	101.577346
1959.000000	101.575643
1958.000000	101.575961
1957.000000	101.578246
1956.000000	101.580639
1955.000000	101.580967
1954.000000	101.578335
1953.000000	101.573757
1952.000000	101.569446
1951.000000	101.566826
1950.000000	101.565343
1949.000000	101.563609
1948.000000	101.561297
1947.000000	101.559249
1946.000000	101.558005
1945.000000	101.557311
1944.000000	101.557187
1943.000000	101.558185
1942.000000	101.560002
1941.000000	101.561117
1940.000000	101.560782
1939.000000	101.560222
1938.000000	101.560797
1937.000000	101.561667
1936.000000	101.560430
1935.000000	101.555996
1934.000000	101.549874
1933.000000	101.544596
1932.000000	101.541627
1931.000000	101.540608
1930.000000	101.540070
1929.000000	101.538682
1928.000000	101.535863
1927.000000	101.531861
1926.000000	101.527078
1925.000000	101.521832
1924.000000	101.516742
1923.000000	101.512663
1922.000000	101.509894
1921.000000	101.507472
1920.000000	101.503891
1919.000000	101.498207
1918.000000	101.490210
1917.000000	101.480281
1916.000000	101.469560
1915.000000	101.460219
1914.000000	101.454805
1913.000000	101.453996
1912.000000	101.454847
1911.000000	101.452308
1910.000000	101.443613
1909.000000	101.431130
1908.000000	101.420127
1907.000000	101.413628
1906.000000	101.409843
1905.000000	101.404861
1904.000000	101.396974
1903.000000	101.387754
1902.000000	101.379721
1901.000000	101.373623
1900.000000	101.368374
1899.000000	101.363129
1898.000000	101.358001
1897.000000	101.352830
1896.000000	101.346538
1895.000000	101.338445
1894.000000	101.329861
1893.000000	101.322997
1892.000000	101.318432
1891.000000	101.314593
1890.000000	101.309794
1889.000000	101.304270
1888.000000	101.299450
1887.000000	101.295717
1886.000000	101.292164
1885.000000	101.288048
1884.000000	101.283707
1883.000000	101.280018
1882.000000	101.277648
1881.000000	101.277125
1880.000000	101.278760
1879.000000	101.281977
1878.000000	101.284633
1877.000000	101.284124
1876.000000	101.280186
1875.000000	101.275651
1874.000000	101.273679
1873.000000	101.274779
1872.000000	101.277146
1871.000000	101.279404
1870.000000	101.281811
1869.000000	101.284696
1868.000000	101.287286
1867.000000	101.289019
1866.000000	101.290933
1865.000000	101.294780
1864.000000	101.301185
1863.000000	101.309385
1862.000000	101.318549
1861.000000	101.328349
1860.000000	101.338062
1859.000000	101.346483
1858.000000	101.353710
1857.000000	101.362242
1856.000000	101.374697
1855.000000	101.390106
1854.000000	101.403555
1853.000000	101.410811
1852.000000	101.412446
1851.000000	101.413023
1850.000000	101.416362
1849.000000	101.422901
1848.000000	101.432081
1847.000000	101.444722
1846.000000	101.461342
1845.000000	101.478117
1844.000000	101.487947
1843.000000	101.488421
1842.000000	101.484327
1841.000000	101.481037
1840.000000	101.480314
1839.000000	101.481924
1838.000000	101.485005
1837.000000	101.488161
1836.000000	101.489980
1835.000000	101.490416
1834.000000	101.491117
1833.000000	101.493426
1832.000000	101.496615
1831.000000	101.498845
1830.000000	101.499408
1829.000000	101.499745
1828.000000	101.501484
1827.000000	101.504479
1826.000000	101.507635
1825.000000	101.510214
1824.000000	101.512505
1823.000000	101.515063
1822.000000	101.517496
1821.000000	101.518693
1820.000000	101.518172
1819.000000	101.516897
1818.000000	101.516107
1817.000000	101.516053
1816.000000	101.516288
1815.000000	101.516665
1814.000000	101.517533
1813.000000	101.518452
1812.000000	101.518006
1811.000000	101.515365
1810.000000	101.511700
1809.000000	101.509588
1808.000000	101.510605
1807.000000	101.514067
1806.000000	101.517845
1805.000000	101.520122
1804.000000	101.521005
1803.000000	101.522546
1802.000000	101.526988
1801.000000	101.533643
1800.000000	101.538620
1799.000000	101.539042
1798.000000	101.536440
1797.000000	101.535141
1796.000000	101.537830
1795.000000	101.543736
1794.000000	101.550331
1793.000000	101.555332
1792.000000	101.558195
1791.000000	101.560367
1790.000000	101.563145
1789.000000	101.566229
1788.000000	101.568681
1787.000000	101.570519
1786.000000	101.573276
1785.000000	101.578522
1784.000000	101.585399
1783.000000	101.591017
1782.000000	101.594491
1781.000000	101.598268
1780.000000	101.605482
1779.000000	101.616106
1778.000000	101.626658
1777.000000	101.634107
1776.000000	101.638253
1775.000000	101.641511
1774.000000	101.646616
1773.000000	101.653585
1772.000000	101.659731
1771.000000	101.664365
1770.000000	101.670018
1769.000000	101.678622
1768.000000	101.689069
1767.000000	101.697718
1766.000000	101.702207
1765.000000	101.703717
1764.000000	101.705316
1763.000000	101.709051
1762.000000	101.714373
1761.000000	101.718998
1760.000000	101.721623
1759.000000	101.722374
1758.000000	101.722073
1757.000000	101.722198
1756.000000	101.724103
1755.000000	101.727934
1754.000000	101.732045
1753.000000	101.734104
1752.000000	101.732475
1751.000000	101.728046
1750.000000	101.724689
1749.000000	101.726322
1748.000000	101.732815
1747.000000	101.739971
1746.000000	101.743598
1745.000000	101.742299
1744.000000	101.738042
1743.000000	101.734130
1742.000000	101.732407
1741.000000	101.732593
1740.000000	101.733436
1739.000000	101.733593
1738.000000	101.732766
1737.000000	101.731910
1736.000000	101.732193
1735.000000	101.732573
1734.000000	101.727992
1733.000000	101.717353
1732.000000	101.706835
1731.000000	101.700532
1730.000000	101.698154
1729.000000	101.698872
1728.000000	101.702005
1727.000000	101.706013
1726.000000	101.708243
1725.000000	101.706369
1724.000000	101.700801
1723.000000	101.694020
1722.000000	101.687369
1721.000000	101.680302
1720.000000	101.671831
1719.000000	101.661459
1718.000000	101.648639
1717.000000	101.634888
1716.000000	101.624385
1715.000000	101.618775
1714.000000	101.615575
1713.000000	101.611982
1712.000000	101.607387
1711.000000	101.602573
1710.000000	101.597974
1709.000000	101.593159
1708.000000	101.587104
1707.000000	101.578520
1706.000000	101.565916
1705.000000	101.549918
1704.000000	101.533555
1703.000000	101.518159
1702.000000	101.502382
1701.000000	101.485093
1700.000000	101.469481
1699.000000	101.459999
1698.000000	101.454815
1697.000000	101.448405
1696.000000	101.437724
1695.000000	101.424419
1694.000000	101.411716
1693.000000	101.400047
1692.000000	101.388130
1691.000000	101.375213
1690.000000	101.361674
1689.000000	101.348463
1688.000000	101.336428
1687.000000	101.326034
1686.000000	101.316901
1685.000000	101.306342
1684.000000	101.290880
1683.000000	101.272528
1682.000000	101.256237
1681.000000	101.243567
1680.000000	101.234128
1679.000000	101.226590
1678.000000	101.218487
1677.000000	101.207191
1676.000000	101.191653
1675.000000	101.174530
1674.000000	101.160640
1673.000000	101.151402
1672.000000	101.144171
1671.000000	101.134829
1670.000000	101.120187
1669.000000	101.101916
1668.000000	101.085558
1667.000000	101.073684
1666.000000	101.064089
1665.000000	101.053854
1664.000000	101.042669
1663.000000	101.032056
1662.000000	101.022230
1661.000000	101.011392
1660.000000	100.998892
1659.000000	100.986722
1658.000000	100.976158
1657.000000	100.965661
1656.000000	100.952444
1655.000000	100.936173
1654.000000	100.917062
1653.000000	100.896748
1652.000000	100.883335
1651.000000	100.879932
1650.000000	100.881412
1649.000000	100.881859
1648.000000	100.877312
1647.000000	100.868292
1646.000000	100.858044
1645.000000	100.847667
1644.000000	100.836597
1643.000000	100.826545
1642.000000	100.820791
1641.000000	100.820131
1640.000000	100.820953
1639.000000	100.818701
1638.000000	100.811746
1637.000000	100.802361
1636.000000	100.794930
1635.000000	100.793779
1634.000000	100.798039
1633.000000	100.802421
1632.000000	100.802844
1631.000000	100.798451
1630.000000	100.793012
1629.000000	100.793163
1628.000000	100.802407
1627.000000	100.816702
1626.000000	100.828781
1625.000000	100.835316
1624.000000	100.837785
1623.000000	100.838452
1622.000000	100.838296
1621.000000	100.837834
1620.000000	100.837705
1619.000000	100.838497
1618.000000	100.840575
1617.000000	100.844990
1616.000000	100.853574
1615.000000	100.865655
1614.000000	100.876966
1613.000000	100.884443
1612.000000	100.889315
1611.000000	100.894631
1610.000000	100.901308
1609.000000	100.908316
1608.000000	100.916599
1607.000000	100.928565
1606.000000	100.943479
1605.000000	100.956677
1604.000000	100.964976
1603.000000	100.970497
1602.000000	100.977350
1601.000000	100.986834
1600.000000	100.997353
1599.000000	101.007582
1598.000000	101.017798
1597.000000	101.028886
1596.000000	101.041373
1595.000000	101.054793
1594.000000	101.067603
1593.000000	101.078486
1592.000000	101.087864
1591.000000	101.097296
1590.000000	101.107237
1589.000000	101.116242
1588.000000	101.122715
1587.000000	101.126673
1586.000000	101.129594
1585.000000	101.133550
1584.000000	101.140230
1583.000000	101.150585
1582.000000	101.163918
1581.000000	101.177499
1580.000000	101.188274
1579.000000	101.195129
1578.000000	101.199598
1577.000000	101.205450
1576.000000	101.216316
1575.000000	101.231119
1574.000000	101.244898
1573.000000	101.254518
1572.000000	101.260433
1571.000000	101.265050
1570.000000	101.270067
1569.000000	101.275330
1568.000000	101.280553
1567.000000	101.286616
1566.000000	101.294008
1565.000000	101.301548
1564.000000	101.307346
1563.000000	101.310971
1562.000000	101.314264
1561.000000	101.320251
1560.000000	101.331311
1559.000000	101.341269
1558.000000	101.344215
1557.000000	101.343639
1556.000000	101.343492
1555.000000	101.345508
1554.000000	101.349767
1553.000000	101.353893
1552.000000	101.355802
1551.000000	101.356216
1550.000000	101.357613
1549.000000	101.361619
1548.000000	101.367674
1547.000000	101.374801
1546.000000	101.382604
1545.000000	101.389654
1544.000000	101.393435
1543.000000	101.392969
1542.000000	101.389750
1541.000000	101.386720
1540.000000	101.386889
1539.000000	101.391319
1538.000000	101.397053
1537.000000	101.400786
1536.000000	101.402014
1535.000000	101.402447
1534.000000	101.404806
1533.000000	101.408595
1532.000000	101.410079
1531.000000	101.407233
1530.000000	101.401603
1529.000000	101.396593
1528.000000	101.394773
1527.000000	101.396246
1526.000000	101.399206
1525.000000	101.401773
1524.000000	101.403694
1523.000000	101.406353
1522.000000	101.410964
1521.000000	101.417190
1520.000000	101.424153
1519.000000	101.431984
1518.000000	101.440886
1517.000000	101.449390
1516.000000	101.455427
1515.000000	101.458797
1514.000000	101.461341
1513.000000	101.464792
1512.000000	101.469774
1511.000000	101.475781
1510.000000	101.482133
1509.000000	101.488365
1508.000000	101.493848
1507.000000	101.496808
1506.000000	101.498154
1505.000000	101.499987
1504.000000	101.502005
1503.000000	101.503432
1502.000000	101.503741
1501.000000	101.503455
1500.000000	101.503940
1499.000000	101.506527
1498.000000	101.511955
1497.000000	101.519506
1496.000000	101.526922
1495.000000	101.531913
1494.000000	101.533973
1493.000000	101.534106
1492.000000	101.534205
1491.000000	101.536443
1490.000000	101.541568
1489.000000	101.548048
1488.000000	101.553773
1487.000000	101.557770
1486.000000	101.560020
1485.000000	101.560841
1484.000000	101.560453
1483.000000	101.559712
1482.000000	101.559719
1481.000000	101.560535
1480.000000	101.560753
1479.000000	101.558818
1478.000000	101.554745
1477.000000	101.550355
1476.000000	101.548105
1475.000000	101.549044
1474.000000	101.552521
1473.000000	101.556518
1472.000000	101.558667
1471.000000	101.557799
1470.000000	101.554265
1469.000000	101.549781
1468.000000	101.547036
1467.000000	101.547969
1466.000000	101.551669
1465.000000	101.554172
1464.000000	101.552856
1463.000000	101.549846
1462.000000	101.548099
1461.000000	101.548075
1460.000000	101.548616
1459.000000	101.548805
1458.000000	101.547631
1457.000000	101.543921
1456.000000	101.539932
1455.000000	101.539513
1454.000000	101.542524
1453.000000	101.545105
1452.000000	101.543936
1451.000000	101.539252
1450.000000	101.533641
1449.000000	101.528220
1448.000000	101.521795
1447.000000	101.513846
1446.000000	101.506807
1445.000000	101.503133
1444.000000	101.502849
1443.000000	101.504072
1442.000000	101.504525
1441.000000	101.503488
1440.000000	101.501996
1439.000000	101.501634
1438.000000	101.502717
1437.000000	101.503322
1436.000000	101.501488
1435.000000	101.498739
1434.000000	101.497608
1433.000000	101.498283
1432.000000	101.499123
1431.000000	101.497768
1430.000000	101.492714
1429.000000	101.485151
1428.000000	101.478468
1427.000000	101.475343
1426.000000	101.476900
1425.000000	101.482933
1424.000000	101.491832
1423.000000	101.501036
1422.000000	101.508637
1421.000000	101.514548
1420.000000	101.518737
1419.000000	101.519987
1418.000000	101.519547
1417.000000	101.522092
1416.000000	101.530133
1415.000000	101.541430
1414.000000	101.551579
1413.000000	101.558794
1412.000000	101.566055
1411.000000	101.576857
1410.000000	101.590059
1409.000000	101.601559
1408.000000	101.609974
1407.000000	101.617197
1406.000000	101.624631
1405.000000	101.631022
1404.000000	101.634918
1403.000000	101.636936
1402.000000	101.637886
1401.000000	101.637650
1400.000000	101.637160
1399.000000	101.639860
1398.000000	101.648741
1397.000000	101.662976
1396.000000	101.679010
1395.000000	101.692749
1394.000000	101.701473
1393.000000	101.705628
1392.000000	101.708510
1391.000000	101.713271
1390.000000	101.720120
1389.000000	101.726673
1388.000000	101.731448
1387.000000	101.736438
1386.000000	101.744408
1385.000000	101.754502
1384.000000	101.763363
1383.000000	101.768730
1382.000000	101.769793
1381.000000	101.766409
1380.000000	101.759876
1379.000000	101.753771
1378.000000	101.751556
1377.000000	101.753100
1376.000000	101.755418
1375.000000	101.756266
1374.000000	101.755460
1373.000000	101.753260
1372.000000	101.750217
1371.000000	101.748518
1370.000000	101.750576
1369.000000	101.755166
1368.000000	101.757806
1367.000000	101.756461
1366.000000	101.753803
1365.000000	101.752677
1364.000000	101.752222
1363.000000	101.750419
1362.000000	101.748641
1361.000000	101.750144
1360.000000	101.755040
1359.000000	101.760359
1358.000000	101.763680
1357.000000	101.764469
1356.000000	101.763070
1355.000000	101.760194
1354.000000	101.757271
1353.000000	101.755759
1352.000000	101.755905
1351.000000	101.756599
1350.000000	101.756600
1349.000000	101.755269
1348.000000	101.752844
1347.000000	101.750564
1346.000000	101.749904
1345.000000	101.751138
1344.000000	101.753048
1343.000000	101.754609
1342.000000	101.756291
1341.000000	101.758988
1340.000000	101.762131
1339.000000	101.763956
1338.000000	101.763510
1337.000000	101.761468
1336.000000	101.759107
1335.000000	101.757235
1334.000000	101.755980
1333.000000	101.755264
1332.000000	101.755620
1331.000000	101.758200
1330.000000	101.763222
1329.000000	101.768547
1328.000000	101.770986
1327.000000	101.769341
1326.000000	101.765389
1325.000000	101.761478
1324.000000	101.758226
1323.000000	101.755311
1322.000000	101.753358
1321.000000	101.753687
1320.000000	101.756375
1319.000000	101.759530
1318.000000	101.760895
1317.000000	101.759989
1316.000000	101.758418
1315.000000	101.758050
1314.000000	101.758754
1313.000000	101.758248
1312.000000	101.754904
1311.000000	101.750511
1310.000000	101.749216
1309.000000	101.753337
1308.000000	101.760763
1307.000000	101.766614
1306.000000	101.767411
1305.000000	101.763785
1304.000000	101.759794
1303.000000	101.759259
1302.000000	101.761749
1301.000000	101.762543
1300.000000	101.757788
1299.000000	101.749446
1298.000000	101.743608
1297.000000	101.743397
1296.000000	101.745597
1295.000000	101.745531
1294.000000	101.743224
1293.000000	101.742417
1292.000000	101.744308
1291.000000	101.745123
1290.000000	101.740604
1289.000000	101.730688
1288.000000	101.718568
1287.000000	101.706735
1286.000000	101.695613
1285.000000	101.685318
1284.000000	101.676490
1283.000000	101.668961
1282.000000	101.661362
1281.000000	101.653193
1280.000000	101.646117
1279.000000	101.641985
1278.000000	101.640476
1277.000000	101.640113
1276.000000	101.640774
1275.000000	101.643345
1274.000000	101.647182
1273.000000	101.649914
1272.000000	101.650022
1271.000000	101.647918
1270.000000	101.644030
1269.000000	101.637707
1268.000000	101.629192
1267.000000	101.621374
1266.000000	101.617974
1265.000000	101.620061
1264.000000	101.624882
1263.000000	101.627898
1262.000000	101.626154
1261.000000	101.620456
1260.000000	101.614044
1259.000000	101.608190
1258.000000	101.599880
1257.000000	101.585810
1256.000000	101.568224
1255.000000	101.554079
1254.000000	101.547224
1253.000000	101.543253
1252.000000	101.533645
1251.000000	101.514061
1250.000000	101.488024
1249.000000	101.463683
1248.000000	101.447357
1247.000000	101.438715
1246.000000	101.431549
1245.000000	101.420321
1244.000000	101.405665
1243.000000	101.391533
1242.000000	101.377452
1241.000000	101.357281
1240.000000	101.327029
1239.000000	101.290907
1238.000000	101.257642
1237.000000	101.232635
1236.000000	101.215281
1235.000000	101.201385
1234.000000	101.185728
1233.000000	101.164127
1232.000000	101.135621
1231.000000	101.102248
1230.000000	101.065501
1229.000000	101.024187
1228.000000	100.976892
1227.000000	100.925107
1226.000000	100.872338
1225.000000	100.820763
1224.000000	100.769256
1223.000000	100.713207
1222.000000	100.646361
1221.000000	100.565593
1220.000000	100.474872
1219.000000	100.382168
1218.000000	100.291350
1217.000000	100.199813
1216.000000	100.104688
1215.000000	100.007049
1214.000000	99.908095
1213.000000	99.805533
1212.000000	99.696801
1211.000000	99.582577
1210.000000	99.464590
1209.000000	99.343710
1208.000000	99.223185
1207.000000	99.109721
1206.000000	99.007314
1205.000000	98.912693
1204.000000	98.819640
1203.000000	98.724435
1202.000000	98.624803
1201.000000	98.517966
1200.000000	98.403757
1199.000000	98.287199
1198.000000	98.174687
1197.000000	98.068997
1196.000000	97.969170
1195.000000	97.872152
1194.000000	97.773415
1193.000000	97.669492
1192.000000	97.561126
1191.000000	97.451019
1190.000000	97.339046
1189.000000	97.224231
1188.000000	97.110263
1187.000000	97.001768
1186.000000	96.894470
1185.000000	96.777494
1184.000000	96.648055
1183.000000	96.515826
1182.000000	96.388675
1181.000000	96.261432
1180.000000	96.124034
1179.000000	95.974312
1178.000000	95.816984
1177.000000	95.655581
1176.000000	95.491617
1175.000000	95.327490
1174.000000	95.164202
1173.000000	94.999121
1172.000000	94.830425
1171.000000	94.660642
1170.000000	94.492315
1169.000000	94.323787
1168.000000	94.152734
1167.000000	93.981308
1166.000000	93.816992
1165.000000	93.673190
1164.000000	93.569331
1163.000000	93.522758
1162.000000	93.536561
1161.000000	93.598306
1160.000000	93.688894
1159.000000	93.785958
1158.000000	93.862301
1157.000000	93.894357
1156.000000	93.876151
1155.000000	93.818370
1154.000000	93.733074
1153.000000	93.626426
1152.000000	93.506074
1151.000000	93.383575
1150.000000	93.263933
1149.000000	93.141603
1148.000000	93.012299
1147.000000	92.880949
1146.000000	92.753363
1145.000000	92.628196
1144.000000	92.502473
1143.000000	92.377302
1142.000000	92.252728
1141.000000	92.124284
1140.000000	91.990327
1139.000000	91.856342
1138.000000	91.726530
1137.000000	91.596671
1136.000000	91.460139
1135.000000	91.316225
1134.000000	91.169323
1133.000000	91.024781
1132.000000	90.887314
1131.000000	90.757579
1130.000000	90.629055
1129.000000	90.494882
1128.000000	90.357674
1127.000000	90.224653
1126.000000	90.094106
1125.000000	89.957326
1124.000000	89.814044
1123.000000	89.673445
1122.000000	89.537781
1121.000000	89.397951
1120.000000	89.249753
1119.000000	89.102193
1118.000000	88.963676
1117.000000	88.831073
1116.000000	88.698319
1115.000000	88.565732
1114.000000	88.435514
1113.000000	88.307107
1112.000000	88.181324
1111.000000	88.060313
1110.000000	87.941294
1109.000000	87.819621
1108.000000	87.697747
1107.000000	87.579739
1106.000000	87.458619
1105.000000	87.323675
1104.000000	87.179974
1103.000000	87.044864
1102.000000	86.924272
1101.000000	86.808343
1100.000000	86.690901
1099.000000	86.575672
1098.000000	86.461082
1097.000000	86.337562
1096.000000	86.204883
1095.000000	86.075843
1094.000000	85.957955
1093.000000	85.846084
1092.000000	85.735979
1091.000000	85.629708
1090.000000	85.525761
1089.000000	85.419991
1088.000000	85.317642
1087.000000	85.227400
1086.000000	85.143106
1085.000000	85.050431
1084.000000	84.952370
1083.000000	84.867013
1082.000000	84.797125
1081.000000	84.723522
1080.000000	84.633814
1079.000000	84.537436
1078.000000	84.446564
1077.000000	84.360426
1076.000000	84.273835
1075.000000	84.183070
1074.000000	84.078681
1073.000000	83.949831
1072.000000	83.799476
1071.000000	83.639245
1070.000000	83.468173
1069.000000	83.273988
1068.000000	83.054526
1067.000000	82.817103
1066.000000	82.557195
1065.000000	82.262445
1064.000000	81.941777
1063.000000	81.627235
1062.000000	81.341035
1061.000000	81.081609
1060.000000	80.844252
1059.000000	80.629256
1058.000000	80.425385
1057.000000	80.213181
1056.000000	79.992738
1055.000000	79.783346
1054.000000	79.588191
1053.000000	79.384901
1052.000000	79.160147
1051.000000	78.926125
1050.000000	78.690295
1049.000000	78.437984
1048.000000	78.160011
1047.000000	77.869365
1046.000000	77.577960
1045.000000	77.282749
1044.000000	76.983190
1043.000000	76.686954
1042.000000	76.391054
1041.000000	76.082690
1040.000000	75.766556
1039.000000	75.465744
1038.000000	75.187808
1037.000000	74.917040
1036.000000	74.648995
1035.000000	74.403902
1034.000000	74.193888
1033.000000	74.004341
1032.000000	73.820509
1031.000000	73.648432
1030.000000	73.497151
1029.000000	73.362688
1028.000000	73.240440
1027.000000	73.132353
1026.000000	73.033555
1025.000000	72.933129
1024.000000	72.834318
1023.000000	72.751628
1022.000000	72.683133
1021.000000	72.608711
1020.000000	72.519767
1019.000000	72.426629
1018.000000	72.333858
1017.000000	72.234908
1016.000000	72.134416
1015.000000	72.047507
1014.000000	71.971391
1013.000000	71.884611
1012.000000	71.780109
1011.000000	71.673076
1010.000000	71.572262
1009.000000	71.471340
1008.000000	71.372898
1007.000000	71.291986
1006.000000	71.229602
1005.000000	71.170356
1004.000000	71.112111
1003.000000	71.070193
1002.000000	71.046927
1001.000000	71.026022
1000.000000	71.003616
999.000000	70.996149
998.000000	71.010153
997.000000	71.032348
996.000000	71.057057
995.000000	71.095293
994.000000	71.147999
993.000000	71.197435
992.000000	71.234838
991.000000	71.272348
990.000000	71.319253
989.000000	71.370659
988.000000	71.427174
987.000000	71.502218
986.000000	71.602137
985.000000	71.720382
984.000000	71.855552
983.000000	72.012700
982.000000	72.184029
981.000000	72.353215
980.000000	72.523045
979.000000	72.714367
978.000000	72.934678
977.000000	73.172382
976.000000	73.423810
975.000000	73.698656
974.000000	73.994379
973.000000	74.292962
972.000000	74.589908
971.000000	74.901195
970.000000	75.234738
969.000000	75.578539
968.000000	75.922478
967.000000	76.268332
966.000000	76.613162
965.000000	76.946959
964.000000	77.272987
963.000000	77.607306
962.000000	77.951412
961.000000	78.287194
960.000000	78.605192
959.000000	78.916141
958.000000	79.228046
957.000000	79.532770
956.000000	79.822321
955.000000	80.098355
954.000000	80.359033
953.000000	80.596417
952.000000	80.814576
951.000000	81.031977
950.000000	81.257786
949.000000	81.481209
948.000000	81.689546
947.000000	81.879970
946.000000	82.049710
945.000000	82.193336
944.000000	82.316813
943.000000	82.438448
942.000000	82.569114
941.000000	82.704349
940.000000	82.838267
939.000000	82.969499
938.000000	83.092400
937.000000	83.200946
936.000000	83.304365
935.000000	83.420722
934.000000	83.551553
933.000000	83.680995
932.000000	83.802227
931.000000	83.924626
930.000000	84.051858
929.000000	84.174692
928.000000	84.291177
927.000000	84.412590
926.000000	84.541686
925.000000	84.664437
924.000000	84.771354
923.000000	84.869126
922.000000	84.963923
921.000000	85.050957
920.000000	85.128174
919.000000	85.203040
918.000000	85.278058
917.000000	85.346074
916.000000	85.407440
915.000000	85.476303
914.000000	85.563884
913.000000	85.671645
912.000000	85.805123
911.000000	85.975167
910.000000	86.179222
909.000000	86.401034
908.000000	86.636282
907.000000	86.898442
906.000000	87.191444
905.000000	87.498101
904.000000	87.806355
903.000000	88.127075
902.000000	88.471999
901.000000	88.830614
900.000000	89.183025
899.000000	89.523440
898.000000	89.857978
897.000000	90.188575
896.000000	90.509883
895.000000	90.815302
894.000000	91.099420
893.000000	91.362230
892.000000	91.615872
891.000000	91.877973
890.000000	92.152815
889.000000	92.427718
888.000000	92.691481
887.000000	92.945433
886.000000	93.192568
885.000000	93.428647
884.000000	93.651073
883.000000	93.865595
882.000000	94.076679
881.000000	94.281130
880.000000	94.478718
879.000000	94.679155
878.000000	94.889939
877.000000	95.105822
876.000000	95.318587
875.000000	95.529170
874.000000	95.742638
873.000000	95.959015
872.000000	96.176588
871.000000	96.397785
870.000000	96.625058
869.000000	96.856158
868.000000	97.088347
867.000000	97.321682
866.000000	97.554094
865.000000	97.779242
864.000000	97.993515
863.000000	98.200115
862.000000	98.402465
861.000000	98.598563
860.000000	98.785774
859.000000	98.966008
858.000000	99.141054
857.000000	99.306533
856.000000	99.456068
855.000000	99.590309
854.000000	99.718470
853.000000	99.850784
852.000000	99.989609
851.000000	100.125590
850.000000	100.242253
849.000000	100.328416
848.000000	100.388376
847.000000	100.437691
846.000000	100.487303
845.000000	100.533980
844.000000	100.567098
843.000000	100.580750
842.000000	100.576662
841.000000	100.558209
840.000000	100.525445
839.000000	100.476331
838.000000	100.411116
837.000000	100.334022
836.000000	100.250146
835.000000	100.162339
834.000000	100.074328
833.000000	99.996540
832.000000	99.942684
831.000000	99.916554
830.000000	99.907488
829.000000	99.904866
828.000000	99.911320
827.000000	99.933326
826.000000	99.965297
825.000000	99.995701
824.000000	100.024088
823.000000	100.056386
822.000000	100.085781
821.000000	100.093844
820.000000	100.068343
819.000000	100.006236
818.000000	99.903382
817.000000	99.756492
816.000000	99.574216
815.000000	99.370946
814.000000	99.144785
813.000000	98.871726
812.000000	98.525154
811.000000	98.091719
810.000000	97.566520
809.000000	96.946111
808.000000	96.234029
807.000000	95.444729
806.000000	94.596404
805.000000	93.709523
804.000000	92.817388
803.000000	91.964633
802.000000	91.186424
801.000000	90.500800
800.000000	89.926339
799.000000	89.489026
798.000000	89.201685
797.000000	89.052000
796.000000	89.018392
795.000000	89.081131
794.000000	89.211286
793.000000	89.368209
792.000000	89.520455
791.000000	89.658263
790.000000	89.778222
789.000000	89.866168
788.000000	89.901092
787.000000	89.866535
786.000000	89.753700
785.000000	89.562423
784.000000	89.303968
783.000000	88.997393
782.000000	88.663442
781.000000	88.329912
780.000000	88.039003
779.000000	87.833514
778.000000	87.733459
777.000000	87.738060
776.000000	87.846708
775.000000	88.058976
774.000000	88.355384
773.000000	88.700061
772.000000	89.066273
771.000000	89.442291
770.000000	89.811981
769.000000	90.150433
768.000000	90.443857
767.000000	90.697182
766.000000	90.917304
765.000000	91.104173
764.000000	91.263782
763.000000	91.415188
762.000000	91.576128
761.000000	91.750360
760.000000	91.932837
759.000000	92.117796
758.000000	92.299425
757.000000	92.474393
756.000000	92.646147
755.000000	92.818976
754.000000	92.988740
753.000000	93.148673
752.000000	93.301611
751.000000	93.455394
750.000000	93.609209
