4000.000000	100.313177
3999.000000	100.312960
3998.000000	100.312820
3997.000000	100.312766
3996.000000	100.312665
3995.000000	100.312358
3994.000000	100.311867
3993.000000	100.311482
3992.000000	100.311584
3991.000000	100.312353
3990.000000	100.313584
3989.000000	100.314711
3988.000000	100.315206
3987.000000	100.314912
3986.000000	100.314065
3985.000000	100.313227
3984.000000	100.312969
3983.000000	100.313465
3982.000000	100.314365
3981.000000	100.314964
3980.000000	100.314704
3979.000000	100.313505
3978.000000	100.311777
3977.000000	100.310186
3976.000000	100.309170
3975.000000	100.308704
3974.000000	100.308452
3973.000000	100.308206
3972.000000	100.308155
3971.000000	100.308632
3970.000000	100.309608
3969.000000	100.310504
3968.000000	100.310623
3967.000000	100.309755
3966.000000	100.308414
3965.000000	100.307520
3964.000000	100.307718
3963.000000	100.308932
3962.000000	100.310373
3961.000000	100.311122
3960.000000	100.310801
3959.000000	100.309706
3958.000000	100.308407
3957.000000	100.307254
3956.000000	100.306287
3955.000000	100.305479
3954.000000	100.304906
3953.000000	100.304647
3952.000000	100.304536
3951.000000	100.304056
3950.000000	100.302606
3949.000000	100.300058
3948.000000	100.297156
3947.000000	100.295197
3946.000000	100.295019
3945.000000	100.296387
3944.000000	100.298044
3943.000000	100.298563
3942.000000	100.297331
3941.000000	100.294775
3940.000000	100.291987
3939.000000	100.289994
3938.000000	100.289298
3937.000000	100.289848
3936.000000	100.291219
3935.000000	100.292964
3934.000000	100.294862
3933.000000	100.296775
3932.000000	100.298333
3931.000000	100.298967
3930.000000	100.298450
3929.000000	100.297289
3928.000000	100.296447
3927.000000	100.296522
3926.000000	100.297220
3925.000000	100.297636
3924.000000	100.297200
3923.000000	100.296186
3922.000000	100.295267
3921.000000	100.294768
3920.000000	100.294535
3919.000000	100.294313
3918.000000	100.293995
3917.000000	100.293573
3916.000000	100.293098
3915.000000	100.292775
3914.000000	100.292958
3913.000000	100.293821
3912.000000	100.295007
3911.000000	100.295769
3910.000000	100.295622
3909.000000	100.294853
3908.000000	100.294312
3907.000000	100.294488
3906.000000	100.294838
3905.000000	100.294189
3904.000000	100.292014
3903.000000	100.289424
3902.000000	100.288404
3901.000000	100.289913
3900.000000	100.292916
3899.000000	100.295377
3898.000000	100.296329
3897.000000	100.296285
3896.000000	100.296156
3895.000000	100.296239
3894.000000	100.296178
3893.000000	100.295467
3892.000000	100.293922
3891.000000	100.291906
3890.000000	100.290120
3889.000000	100.289156
3888.000000	100.289160
3887.000000	100.289972
3886.000000	100.291243
3885.000000	100.292290
3884.000000	100.292487
3883.000000	100.291873
3882.000000	100.290843
3881.000000	100.289464
3880.000000	100.287431
3879.000000	100.284586
3878.000000	100.281398
3877.000000	100.278825
3876.000000	100.278089
3875.000000	100.280191
3874.000000	100.284935
3873.000000	100.291020
3872.000000	100.297010
3871.000000	100.301562
3870.000000	100.303526
3869.000000	100.302970
3868.000000	100.301643
3867.000000	100.301561
3866.000000	100.303246
3865.000000	100.305647
3864.000000	100.307383
3863.000000	100.308118
3862.000000	100.308650
3861.000000	100.309485
3860.000000	100.309849
3859.000000	100.308572
3858.000000	100.305405
3857.000000	100.301299
3856.000000	100.297981
3855.000000	100.297152
3854.000000	100.299186
3853.000000	100.302376
3852.000000	100.304489
3851.000000	100.305337
3850.000000	100.305830
3849.000000	100.306328
3848.000000	100.306712
3847.000000	100.306838
3846.000000	100.306800
3845.000000	100.306908
3844.000000	100.307430
3843.000000	100.308323
3842.000000	100.309255
3841.000000	100.309877
3840.000000	100.310102
3839.000000	100.310133
3838.000000	100.310272
3837.000000	100.310660
3836.000000	100.311208
3835.000000	100.311752
3834.000000	100.312173
3833.000000	100.312437
3832.000000	100.312570
3831.000000	100.312612
3830.000000	100.312620
3829.000000	100.312655
3828.000000	100.312754
3827.000000	100.312919
3826.000000	100.313114
3825.000000	100.313301
3824.000000	100.313453
3823.000000	100.313566
3822.000000	100.313646
3821.000000	100.313699
3820.000000	100.313727
3819.000000	100.313743
3818.000000	100.313776
3817.000000	100.313848
3816.000000	100.313936
3815.000000	100.313977
3814.000000	100.313926
3813.000000	100.313789
3812.000000	100.313613
3811.000000	100.313469
3810.000000	100.313406
3809.000000	100.313408
3808.000000	100.313350
3807.000000	100.313117
3806.000000	100.312768
3805.000000	100.312545
3804.000000	100.312678
3803.000000	100.313195
3802.000000	100.313700
3801.000000	100.313665
3800.000000	100.312943
3799.000000	100.311942
3798.000000	100.311041
3797.000000	100.310179
3796.000000	100.309185
3795.000000	100.308212
3794.000000	100.307695
3793.000000	100.307851
3792.000000	100.308426
3791.000000	100.308962
3790.000000	100.309223
3789.000000	100.309330
3788.000000	100.309517
3787.000000	100.309757
3786.000000	100.309675
3785.000000	100.308869
3784.000000	100.307270
3783.000000	100.305151
3782.000000	100.302868
3781.000000	100.300716
3780.000000	100.299077
3779.000000	100.298503
3778.000000	100.299429
3777.000000	100.301702
3776.000000	100.304261
3775.000000	100.305598
3774.000000	100.304887
3773.000000	100.302734
3772.000000	100.300739
3771.000000	100.300242
3770.000000	100.301243
3769.000000	100.302452
3768.000000	100.302554
3767.000000	100.301391
3766.000000	100.300144
3765.000000	100.300631
3764.000000	100.303883
3763.000000	100.308945
3762.000000	100.312932
3761.000000	100.312738
3760.000000	100.307595
3759.000000	100.299937
3758.000000	100.293379
3757.000000	100.289987
3756.000000	100.289402
3755.000000	100.289836
3754.000000	100.289497
3753.000000	100.287427
3752.000000	100.283581
3751.000000	100.278498
3750.000000	100.273531
3749.000000	100.270943
3748.000000	100.271522
3747.000000	100.272773
3746.000000	100.271807
3745.000000	100.269301
3744.000000	100.269341
3743.000000	100.273882
3742.000000	100.279923
3741.000000	100.283124
3740.000000	100.281720
3739.000000	100.277011
3738.000000	100.272397
3737.000000	100.270530
3736.000000	100.268519
3735.000000	100.259178
3734.000000	100.240359
3733.000000	100.219863
3732.000000	100.207645
3731.000000	100.206196
3730.000000	100.210678
3729.000000	100.214328
3728.000000	100.212218
3727.000000	100.202458
3726.000000	100.186547
3725.000000	100.168488
3724.000000	100.152518
3723.000000	100.140770
3722.000000	100.132166
3721.000000	100.123283
3720.000000	100.110943
3719.000000	100.094631
3718.000000	100.076356
3717.000000	100.058218
3716.000000	100.040412
3715.000000	100.021981
3714.000000	100.003241
3713.000000	99.986922
3712.000000	99.975383
3711.000000	99.966032
3710.000000	99.952724
3709.000000	99.932381
3708.000000	99.906914
3707.000000	99.880236
3706.000000	99.855749
3705.000000	99.834747
3704.000000	99.815826
3703.000000	99.796273
3702.000000	99.774648
3701.000000	99.752605
3700.000000	99.734790
3699.000000	99.726527
3698.000000	99.729843
3697.000000	99.740608
3696.000000	99.749642
3695.000000	99.748378
3694.000000	99.734977
3693.000000	99.715254
3692.000000	99.698523
3691.000000	99.691674
3690.000000	99.694700
3689.000000	99.700948
3688.000000	99.703616
3687.000000	99.702029
3686.000000	99.699455
3685.000000	99.698119
3684.000000	99.697583
3683.000000	99.695495
3682.000000	99.690185
3681.000000	99.682240
3680.000000	99.672656
3679.000000	99.660614
3678.000000	99.644427
3677.000000	99.624430
3676.000000	99.604207
3675.000000	99.586495
3674.000000	99.570029
3673.000000	99.552257
3672.000000	99.530201
3671.000000	99.502927
3670.000000	99.473582
3669.000000	99.445328
3668.000000	99.419446
3667.000000	99.395546
3666.000000	99.371072
3665.000000	99.344167
3664.000000	99.316146
3663.000000	99.290155
3662.000000	99.268239
3661.000000	99.249177
3660.000000	99.229174
3659.000000	99.205707
3658.000000	99.181337
3657.000000	99.162808
3656.000000	99.154247
3655.000000	99.152072
3654.000000	99.149306
3653.000000	99.142720
3652.000000	99.134312
3651.000000	99.127597
3650.000000	99.121101
3649.000000	99.106269
3648.000000	99.077775
3647.000000	99.042410
3646.000000	99.010560
3645.000000	98.986022
3644.000000	98.967680
3643.000000	98.953168
3642.000000	98.939140
3641.000000	98.922213
3640.000000	98.901875
3639.000000	98.881390
3638.000000	98.864285
3637.000000	98.850675
3636.000000	98.838156
3635.000000	98.825390
3634.000000	98.813367
3633.000000	98.803027
3632.000000	98.793178
3631.000000	98.781204
3630.000000	98.765168
3629.000000	98.744963
3628.000000	98.721700
3627.000000	98.699007
3626.000000	98.682404
3625.000000	98.674364
3624.000000	98.674174
3623.000000	98.679432
3622.000000	98.687343
3621.000000	98.697424
3620.000000	98.711923
3619.000000	98.732303
3618.000000	98.756015
3617.000000	98.778364
3616.000000	98.795902
3615.000000	98.808360
3614.000000	98.819220
3613.000000	98.832729
3612.000000	98.849566
3611.000000	98.866027
3610.000000	98.877202
3609.000000	98.881140
3608.000000	98.880345
3607.000000	98.879128
3606.000000	98.880417
3605.000000	98.884657
3604.000000	98.890672
3603.000000	98.897963
3602.000000	98.907838
3601.000000	98.922127
3600.000000	98.940968
3599.000000	98.961633
3598.000000	98.979399
3597.000000	98.990200
3596.000000	98.993423
3595.000000	98.992128
3594.000000	98.990262
3593.000000	98.990091
3592.000000	98.992386
3591.000000	98.997604
3590.000000	99.005770
3589.000000	99.014786
3588.000000	99.019937
3587.000000	99.017556
3586.000000	99.009626
3585.000000	99.001816
3584.000000	98.996900
3583.000000	98.994295
3582.000000	98.994253
3581.000000	98.998270
3580.000000	99.006297
3579.000000	99.015538
3578.000000	99.022350
3577.000000	99.024844
3576.000000	99.023635
3575.000000	99.020514
3574.000000	99.016647
3573.000000	99.011818
3572.000000	99.005404
3571.000000	98.998277
3570.000000	98.993612
3569.000000	98.994821
3568.000000	99.001473
3567.000000	99.007958
3566.000000	99.008986
3565.000000	99.005440
3564.000000	99.001383
3563.000000	98.998376
3562.000000	98.995611
3561.000000	98.992679
3560.000000	98.990331
3559.000000	98.989486
3558.000000	98.990458
3557.000000	98.993026
3556.000000	98.996573
3555.000000	99.000192
3554.000000	99.003253
3553.000000	99.006054
3552.000000	99.009187
3551.000000	99.011922
3550.000000	99.012003
3549.000000	99.007794
3548.000000	99.000528
3547.000000	98.994001
3546.000000	98.991302
3545.000000	98.992181
3544.000000	98.993971
3543.000000	98.994339
3542.000000	98.992783
3541.000000	98.989993
3540.000000	98.986561
3539.000000	98.982548
3538.000000	98.978137
3537.000000	98.974246
3536.000000	98.971923
3535.000000	98.971335
3534.000000	98.971827
3533.000000	98.973001
3532.000000	98.975179
3531.000000	98.978359
3530.000000	98.981126
3529.000000	98.981403
3528.000000	98.978550
3527.000000	98.974280
3526.000000	98.971258
3525.000000	98.971010
3524.000000	98.973371
3523.000000	98.977408
3522.000000	98.982505
3521.000000	98.988620
3520.000000	98.995477
3519.000000	99.001643
3518.000000	99.004958
3517.000000	99.004365
3516.000000	99.001233
3515.000000	98.998402
3514.000000	98.997503
3513.000000	98.997534
3512.000000	98.996283
3511.000000	98.992759
3510.000000	98.988159
3509.000000	98.984819
3508.000000	98.984380
3507.000000	98.986812
3506.000000	98.990677
3505.000000	98.994281
3504.000000	98.996854
3503.000000	98.998628
3502.000000	98.999986
3501.000000	99.000796
3500.000000	99.000538
3499.000000	98.998808
3498.000000	98.995650
3497.000000	98.991795
3496.000000	98.988753
3495.000000	98.988129
3494.000000	98.990294
3493.000000	98.993803
3492.000000	98.996438
3491.000000	98.997065
3490.000000	98.996222
3489.000000	98.995097
3488.000000	98.994214
3487.000000	98.993094
3486.000000	98.990978
3485.000000	98.987796
3484.000000	98.984484
3483.000000	98.982320
3482.000000	98.981697
3481.000000	98.981644
3480.000000	98.980765
3479.000000	98.978623
3478.000000	98.975894
3477.000000	98.973371
3476.000000	98.971210
3475.000000	98.969269
3474.000000	98.967672
3473.000000	98.966629
3472.000000	98.965945
3471.000000	98.965068
3470.000000	98.963598
3469.000000	98.961530
3468.000000	98.959039
3467.000000	98.956299
3466.000000	98.953527
3465.000000	98.951043
3464.000000	98.949093
3463.000000	98.947654
3462.000000	98.946444
3461.000000	98.945105
3460.000000	98.943454
3459.000000	98.941595
3458.000000	98.939805
3457.000000	98.938301
3456.000000	98.937080
3455.000000	98.935934
3454.000000	98.934580
3453.000000	98.932840
3452.000000	98.930744
3451.000000	98.928572
3450.000000	98.926701
3449.000000	98.925347
3448.000000	98.924422
3447.000000	98.923555
3446.000000	98.922362
3445.000000	98.920720
3444.000000	98.918748
3443.000000	98.916639
3442.000000	98.914583
3441.000000	98.912766
3440.000000	98.911260
3439.000000	98.909859
3438.000000	98.908207
3437.000000	98.906281
3436.000000	98.904672
3435.000000	98.904119
3434.000000	98.904721
3433.000000	98.905568
3432.000000	98.905349
3431.000000	98.903421
3430.000000	98.900191
3429.000000	98.896753
3428.000000	98.894138
3427.000000	98.892931
3426.000000	98.893243
3425.000000	98.894687
3424.000000	98.896505
3423.000000	98.898009
3422.000000	98.898837
3421.000000	98.898739
3420.000000	98.897496
3419.000000	98.895451
3418.000000	98.893835
3417.000000	98.893884
3416.000000	98.895478
3415.000000	98.897049
3414.000000	98.897022
3413.000000	98.894992
3412.000000	98.891415
3411.000000	98.886725
3410.000000	98.881284
3409.000000	98.875936
3408.000000	98.871979
3407.000000	98.870329
3406.000000	98.870889
3405.000000	98.872780
3404.000000	98.875168
3403.000000	98.877756
3402.000000	98.880431
3401.000000	98.882517
3400.000000	98.882694
3399.000000	98.880053
3398.000000	98.875223
3397.000000	98.870211
3396.000000	98.866704
3395.000000	98.864834
3394.000000	98.863809
3393.000000	98.863264
3392.000000	98.863662
3391.000000	98.865445
3390.000000	98.868317
3389.000000	98.871477
3388.000000	98.874312
3387.000000	98.876812
3386.000000	98.879261
3385.000000	98.881610
3384.000000	98.883274
3383.000000	98.883630
3382.000000	98.882651
3381.000000	98.880920
3380.000000	98.879075
3379.000000	98.877504
3378.000000	98.876598
3377.000000	98.876873
3376.000000	98.878492
3375.000000	98.880758
3374.000000	98.882526
3373.000000	98.883252
3372.000000	98.883387
3371.000000	98.883755
3370.000000	98.884744
3369.000000	98.886156
3368.000000	98.887614
3367.000000	98.888913
3366.000000	98.890058
3365.000000	98.891121
3364.000000	98.892132
3363.000000	98.893039
3362.000000	98.893751
3361.000000	98.894272
3360.000000	98.894805
3359.000000	98.895653
3358.000000	98.896958
3357.000000	98.898557
3356.000000	98.900029
3355.000000	98.901052
3354.000000	98.901634
3353.000000	98.902020
3352.000000	98.902532
3351.000000	98.903317
3350.000000	98.904310
3349.000000	98.905348
3348.000000	98.906369
3347.000000	98.907494
3346.000000	98.908844
3345.000000	98.910347
3344.000000	98.911753
3343.000000	98.912864
3342.000000	98.913702
3341.000000	98.914469
3340.000000	98.915378
3339.000000	98.916477
3338.000000	98.917596
3337.000000	98.918419
3336.000000	98.918723
3335.000000	98.918627
3334.000000	98.918611
3333.000000	98.919114
3332.000000	98.920172
3331.000000	98.921394
3330.000000	98.922339
3329.000000	98.922889
3328.000000	98.923227
3327.000000	98.923657
3326.000000	98.924477
3325.000000	98.925830
3324.000000	98.927482
3323.000000	98.928875
3322.000000	98.929621
3321.000000	98.929871
3320.000000	98.930080
3319.000000	98.930414
3318.000000	98.930599
3317.000000	98.930385
3316.000000	98.929930
3315.000000	98.929686
3314.000000	98.929991
3313.000000	98.930810
3312.000000	98.931767
3311.000000	98.932342
3310.000000	98.932141
3309.000000	98.931108
3308.000000	98.929678
3307.000000	98.928611
3306.000000	98.928451
3305.000000	98.929075
3304.000000	98.929783
3303.000000	98.929984
3302.000000	98.929789
3301.000000	98.929724
3300.000000	98.929938
3299.000000	98.929989
3298.000000	98.929481
3297.000000	98.928683
3296.000000	98.928293
3295.000000	98.928639
3294.000000	98.929327
3293.000000	98.929646
3292.000000	98.929332
3291.000000	98.928868
3290.000000	98.929049
3289.000000	98.930227
3288.000000	98.932060
3287.000000	98.933764
3286.000000	98.934687
3285.000000	98.934646
3284.000000	98.933897
3283.000000	98.933058
3282.000000	98.932842
3281.000000	98.933599
3280.000000	98.935056
3279.000000	98.936551
3278.000000	98.937685
3277.000000	98.938605
3276.000000	98.939606
3275.000000	98.940689
3274.000000	98.941629
3273.000000	98.942362
3272.000000	98.943133
3271.000000	98.944274
3270.000000	98.945929
3269.000000	98.947928
3268.000000	98.949773
3267.000000	98.950901
3266.000000	98.951140
3265.000000	98.950918
3264.000000	98.950905
3263.000000	98.951414
3262.000000	98.952289
3261.000000	98.953225
3260.000000	98.953996
3259.000000	98.954434
3258.000000	98.954477
3257.000000	98.954393
3256.000000	98.954790
3255.000000	98.956155
3254.000000	98.958444
3253.000000	98.961119
3252.000000	98.963480
3251.000000	98.965099
3250.000000	98.966057
3249.000000	98.966913
3248.000000	98.968242
3247.000000	98.970023
3246.000000	98.971623
3245.000000	98.972486
3244.000000	98.972725
3243.000000	98.972989
3242.000000	98.973861
3241.000000	98.975484
3240.000000	98.977644
3239.000000	98.979877
3238.000000	98.981589
3237.000000	98.982419
3236.000000	98.982606
3235.000000	98.982900
3234.000000	98.983846
3233.000000	98.985214
3232.000000	98.986270
3231.000000	98.986591
3230.000000	98.986534
3229.000000	98.986941
3228.000000	98.988471
3227.000000	98.991198
3226.000000	98.994616
3225.000000	98.997916
3224.000000	99.000413
3223.000000	99.001924
3222.000000	99.002860
3221.000000	99.003879
3220.000000	99.005335
3219.000000	99.007138
3218.000000	99.009184
3217.000000	99.011709
3216.000000	99.014951
3215.000000	99.018546
3214.000000	99.021560
3213.000000	99.023258
3212.000000	99.023700
3211.000000	99.023627
3210.000000	99.023896
3209.000000	99.025126
3208.000000	99.027666
3207.000000	99.031488
3206.000000	99.036034
3205.000000	99.040443
3204.000000	99.044109
3203.000000	99.047030
3202.000000	99.049654
3201.000000	99.052503
3200.000000	99.055916
3199.000000	99.059895
3198.000000	99.063963
3197.000000	99.067280
3196.000000	99.069126
3195.000000	99.069459
3194.000000	99.069081
3193.000000	99.069173
3192.000000	99.070459
3191.000000	99.072729
3190.000000	99.075111
3189.000000	99.076952
3188.000000	99.078445
3187.000000	99.080342
3186.000000	99.083109
3185.000000	99.086568
3184.000000	99.090341
3183.000000	99.094310
3182.000000	99.098552
3181.000000	99.103025
3180.000000	99.107469
3179.000000	99.111522
3178.000000	99.114733
3177.000000	99.116671
3176.000000	99.117329
3175.000000	99.117474
3174.000000	99.118392
3173.000000	99.120953
3172.000000	99.125010
3171.000000	99.129634
3170.000000	99.133946
3169.000000	99.137814
3168.000000	99.141690
3167.000000	99.145884
3166.000000	99.150096
3165.000000	99.153647
3164.000000	99.156257
3163.000000	99.158353
3162.000000	99.160622
3161.000000	99.163390
3160.000000	99.166496
3159.000000	99.169664
3158.000000	99.172771
3157.000000	99.175824
3156.000000	99.178865
3155.000000	99.181936
3154.000000	99.185063
3153.000000	99.188231
3152.000000	99.191412
3151.000000	99.194591
3150.000000	99.197768
3149.000000	99.200945
3148.000000	99.204118
3147.000000	99.207279
3146.000000	99.210422
3145.000000	99.213537
3144.000000	99.216620
3143.000000	99.219675
3142.000000	99.222712
3141.000000	99.225744
3140.000000	99.228771
3139.000000	99.231789
3138.000000	99.234794
3137.000000	99.237791
3136.000000	99.240791
3135.000000	99.243799
3134.000000	99.246809
3133.000000	99.249804
3132.000000	99.252764
3131.000000	99.255673
3130.000000	99.258525
3129.000000	99.261327
3128.000000	99.264100
3127.000000	99.266869
3126.000000	99.269648
3125.000000	99.272443
3124.000000	99.275242
3123.000000	99.278032
3122.000000	99.280806
3121.000000	99.283567
3120.000000	99.286330
3119.000000	99.289107
3118.000000	99.291901
3117.000000	99.294707
3116.000000	99.297511
3115.000000	99.300302
3114.000000	99.303073
3113.000000	99.305824
3112.000000	99.308558
3111.000000	99.311277
3110.000000	99.313981
3109.000000	99.316668
3108.000000	99.319333
3107.000000	99.321972
3106.000000	99.324588
3105.000000	99.327188
3104.000000	99.329778
3103.000000	99.332363
3102.000000	99.334946
3101.000000	99.337531
3100.000000	99.340122
3099.000000	99.342722
3098.000000	99.345331
3097.000000	99.347947
3096.000000	99.350567
3095.000000	99.353181
3094.000000	99.355779
3093.000000	99.358354
3092.000000	99.360909
3091.000000	99.363457
3090.000000	99.366018
3089.000000	99.368601
3088.000000	99.371206
3087.000000	99.373851
3086.000000	99.376566
3085.000000	99.379331
3084.000000	99.382070
3083.000000	99.384731
3082.000000	99.387350
3081.000000	99.389972
3080.000000	99.392608
3079.000000	99.395310
3078.000000	99.398140
3077.000000	99.401041
3076.000000	99.403824
3075.000000	99.406361
3074.000000	99.408734
3073.000000	99.411117
3072.000000	99.413639
3071.000000	99.416349
3070.000000	99.419209
3069.000000	99.422087
3068.000000	99.424850
3067.000000	99.427516
3066.000000	99.430263
3065.000000	99.433219
3064.000000	99.436325
3063.000000	99.439457
3062.000000	99.442598
3061.000000	99.445808
3060.000000	99.449102
3059.000000	99.452438
3058.000000	99.455764
3057.000000	99.459027
3056.000000	99.462160
3055.000000	99.465102
3054.000000	99.467877
3053.000000	99.470637
3052.000000	99.473594
3051.000000	99.476903
3050.000000	99.480614
3049.000000	99.484623
3048.000000	99.488645
3047.000000	99.492383
3046.000000	99.495769
3045.000000	99.499044
3044.000000	99.502543
3043.000000	99.506365
3042.000000	99.510354
3041.000000	99.514343
3040.000000	99.518266
3039.000000	99.521992
3038.000000	99.525294
3037.000000	99.528252
3036.000000	99.531527
3035.000000	99.535846
3034.000000	99.541141
3033.000000	99.546326
3032.000000	99.550278
3031.000000	99.553034
3030.000000	99.555949
3029.000000	99.560361
3028.000000	99.566279
3027.000000	99.572629
3026.000000	99.578682
3025.000000	99.584531
3024.000000	99.589997
3023.000000	99.594085
3022.000000	99.596221
3021.000000	99.597410
3020.000000	99.599186
3019.000000	99.601702
3018.000000	99.604043
3017.000000	99.606334
3016.000000	99.610151
3015.000000	99.616510
3014.000000	99.624767
3013.000000	99.634035
3012.000000	99.644568
3011.000000	99.656585
3010.000000	99.668289
3009.000000	99.676432
3008.000000	99.679335
3007.000000	99.678837
3006.000000	99.678615
3005.000000	99.680452
3004.000000	99.682890
3003.000000	99.684051
3002.000000	99.685039
3001.000000	99.689306
3000.000000	99.698673
2999.000000	99.711176
2998.000000	99.723093
2997.000000	99.732242
2996.000000	99.739046
2995.000000	99.745650
2994.000000	99.754611
2993.000000	99.767296
2992.000000	99.782523
2991.000000	99.797276
2990.000000	99.809084
2989.000000	99.817113
2988.000000	99.821278
2987.000000	99.822058
2986.000000	99.821930
2985.000000	99.824988
2984.000000	99.833424
2983.000000	99.845360
2982.000000	99.857104
2981.000000	99.866336
2980.000000	99.872343
2979.000000	99.875107
2978.000000	99.876092
2977.000000	99.878489
2976.000000	99.884182
2975.000000	99.891054
2974.000000	99.895379
2973.000000	99.896314
2972.000000	99.895995
2971.000000	99.895586
2970.000000	99.893328
2969.000000	99.886638
2968.000000	99.874411
2967.000000	99.857487
2966.000000	99.838676
2965.000000	99.822300
2964.000000	99.811724
2963.000000	99.806756
2962.000000	99.804354
2961.000000	99.801649
2960.000000	99.797314
2959.000000	99.791138
2958.000000	99.784703
2957.000000	99.781979
2956.000000	99.786040
2955.000000	99.794144
2954.000000	99.798456
2953.000000	99.793741
2952.000000	99.783099
2951.000000	99.774727
2950.000000	99.773761
2949.000000	99.778319
2948.000000	99.782412
2947.000000	99.781561
2946.000000	99.776528
2945.000000	99.772554
2944.000000	99.774524
2943.000000	99.782033
2942.000000	99.789507
2941.000000	99.791991
2940.000000	99.790231
2939.000000	99.789073
2938.000000	99.791504
2937.000000	99.795669
2936.000000	99.797479
2935.000000	99.794868
2934.000000	99.789222
2933.000000	99.783887
2932.000000	99.781971
2931.000000	99.784886
2930.000000	99.791795
2929.000000	99.800171
2928.000000	99.807503
2927.000000	99.812871
2926.000000	99.817029
2925.000000	99.821285
2924.000000	99.826582
2923.000000	99.833342
2922.000000	99.841352
2921.000000	99.849485
2920.000000	99.856261
2919.000000	99.861421
2918.000000	99.866481
2917.000000	99.872800
2916.000000	99.879336
2915.000000	99.883427
2914.000000	99.883891
2913.000000	99.882152
2912.000000	99.880126
2911.000000	99.878355
2910.000000	99.877128
2909.000000	99.877858
2908.000000	99.881778
2907.000000	99.887905
2906.000000	99.893646
2905.000000	99.897387
2904.000000	99.899583
2903.000000	99.901790
2902.000000	99.905539
2901.000000	99.911644
2900.000000	99.919172
2899.000000	99.925302
2898.000000	99.927491
2897.000000	99.926051
2896.000000	99.923839
2895.000000	99.923438
2894.000000	99.925335
2893.000000	99.928383
2892.000000	99.930716
2891.000000	99.930471
2890.000000	99.927280
2889.000000	99.923469
2888.000000	99.922287
2887.000000	99.924223
2886.000000	99.926396
2885.000000	99.926152
2884.000000	99.924044
2883.000000	99.922451
2882.000000	99.922361
2881.000000	99.922715
2880.000000	99.922184
2879.000000	99.920271
2878.000000	99.917112
2877.000000	99.913585
2876.000000	99.911592
2875.000000	99.912966
2874.000000	99.917661
2873.000000	99.923420
2872.000000	99.927472
2871.000000	99.928459
2870.000000	99.926851
2869.000000	99.924347
2868.000000	99.922919
2867.000000	99.923567
2866.000000	99.925418
2865.000000	99.926231
2864.000000	99.924238
2863.000000	99.919544
2862.000000	99.913827
2861.000000	99.908814
2860.000000	99.905017
2859.000000	99.902008
2858.000000	99.899703
2857.000000	99.898917
2856.000000	99.900347
2855.000000	99.903374
2854.000000	99.906434
2853.000000	99.908726
2852.000000	99.910957
2851.000000	99.914142
2850.000000	99.918135
2849.000000	99.921618
2848.000000	99.923313
2847.000000	99.923073
2846.000000	99.921988
2845.000000	99.921535
2844.000000	99.922362
2843.000000	99.923820
2842.000000	99.924856
2841.000000	99.925181
2840.000000	99.925228
2839.000000	99.925234
2838.000000	99.925161
2837.000000	99.925542
2836.000000	99.927374
2835.000000	99.930725
2834.000000	99.934193
2833.000000	99.936324
2832.000000	99.937188
2831.000000	99.937911
2830.000000	99.939157
2829.000000	99.940759
2828.000000	99.942556
2827.000000	99.944760
2826.000000	99.947453
2825.000000	99.950266
2824.000000	99.952722
2823.000000	99.954631
2822.000000	99.956048
2821.000000	99.957185
2820.000000	99.958449
2819.000000	99.960261
2818.000000	99.962687
2817.000000	99.965358
2816.000000	99.967761
2815.000000	99.969640
2814.000000	99.971026
2813.000000	99.972081
2812.000000	99.973067
2811.000000	99.974330
2810.000000	99.976168
2809.000000	99.978640
2808.000000	99.981503
2807.000000	99.984378
2806.000000	99.986959
2805.000000	99.989104
2804.000000	99.990877
2803.000000	99.992534
2802.000000	99.994323
2801.000000	99.996266
2800.000000	99.998177
2799.000000	99.999894
2798.000000	100.001403
2797.000000	100.002797
2796.000000	100.004285
2795.000000	100.006278
2794.000000	100.009192
2793.000000	100.012971
2792.000000	100.016880
2791.000000	100.020052
2790.000000	100.022189
2789.000000	100.023573
2788.000000	100.024608
2787.000000	100.025683
2786.000000	100.027405
2785.000000	100.030371
2784.000000	100.034356
2783.000000	100.038057
2782.000000	100.040191
2781.000000	100.040742
2780.000000	100.040859
2779.000000	100.041591
2778.000000	100.043053
2777.000000	100.044786
2776.000000	100.046278
2775.000000	100.046943
2774.000000	100.046201
2773.000000	100.044189
2772.000000	100.042255
2771.000000	100.042080
2770.000000	100.044282
2769.000000	100.048250
2768.000000	100.053111
2767.000000	100.058339
2766.000000	100.063338
2765.000000	100.067181
2764.000000	100.069370
2763.000000	100.070648
2762.000000	100.072439
2761.000000	100.075294
2760.000000	100.078269
2759.000000	100.079953
2758.000000	100.079755
2757.000000	100.078149
2756.000000	100.076089
2755.000000	100.074390
2754.000000	100.073417
2753.000000	100.073135
2752.000000	100.073581
2751.000000	100.075335
2750.000000	100.079115
2749.000000	100.084603
2748.000000	100.090022
2747.000000	100.093587
2746.000000	100.095349
2745.000000	100.096930
2744.000000	100.099346
2743.000000	100.101596
2742.000000	100.101948
2741.000000	100.100128
2740.000000	100.097710
2739.000000	100.096551
2738.000000	100.097094
2737.000000	100.098307
2736.000000	100.098899
2735.000000	100.098467
2734.000000	100.097616
2733.000000	100.097177
2732.000000	100.097534
2731.000000	100.098687
2730.000000	100.100535
2729.000000	100.102799
2728.000000	100.104817
2727.000000	100.105956
2726.000000	100.106352
2725.000000	100.106833
2724.000000	100.107964
2723.000000	100.109379
2722.000000	100.110239
2721.000000	100.110207
2720.000000	100.109766
2719.000000	100.109709
2718.000000	100.110420
2717.000000	100.111630
2716.000000	100.112761
2715.000000	100.113494
2714.000000	100.114083
2713.000000	100.115011
2712.000000	100.116330
2711.000000	100.117520
2710.000000	100.118109
2709.000000	100.118214
2708.000000	100.118284
2707.000000	100.118525
2706.000000	100.118759
2705.000000	100.118798
2704.000000	100.118690
2703.000000	100.118604
2702.000000	100.118640
2701.000000	100.118810
2700.000000	100.119062
2699.000000	100.119310
2698.000000	100.119498
2697.000000	100.119655
2696.000000	100.119849
2695.000000	100.120108
2694.000000	100.120404
2693.000000	100.120682
2692.000000	100.120903
2691.000000	100.121067
2690.000000	100.121204
2689.000000	100.121342
2688.000000	100.121486
2687.000000	100.121626
2686.000000	100.121752
2685.000000	100.121866
2684.000000	100.121983
2683.000000	100.122120
2682.000000	100.122283
2681.000000	100.122469
2680.000000	100.122673
2679.000000	100.122883
2678.000000	100.123086
2677.000000	100.123266
2676.000000	100.123415
2675.000000	100.123533
2674.000000	100.123636
2673.000000	100.123739
2672.000000	100.123852
2671.000000	100.123974
2670.000000	100.124102
2669.000000	100.124232
2668.000000	100.124365
2667.000000	100.124509
2666.000000	100.124672
2665.000000	100.124863
2664.000000	100.125079
2663.000000	100.125310
2662.000000	100.125538
2661.000000	100.125749
2660.000000	100.125940
2659.000000	100.126115
2658.000000	100.126281
2657.000000	100.126443
2656.000000	100.126602
2655.000000	100.126756
2654.000000	100.126890
2653.000000	100.126991
2652.000000	100.127034
2651.000000	100.126983
2650.000000	100.126825
2649.000000	100.126629
2648.000000	100.126519
2647.000000	100.126553
2646.000000	100.126646
2645.000000	100.126648
2644.000000	100.126517
2643.000000	100.126318
2642.000000	100.126077
2641.000000	100.125738
2640.000000	100.125272
2639.000000	100.124749
2638.000000	100.124261
2637.000000	100.123799
2636.000000	100.123268
2635.000000	100.122677
2634.000000	100.122309
2633.000000	100.122582
2632.000000	100.123641
2631.000000	100.125047
2630.000000	100.125966
2629.000000	100.125873
2628.000000	100.124901
2627.000000	100.123592
2626.000000	100.122372
2625.000000	100.121461
2624.000000	100.121088
2623.000000	100.121354
2622.000000	100.121837
2621.000000	100.121751
2620.000000	100.120761
2619.000000	100.119359
2618.000000	100.118251
2617.000000	100.117469
2616.000000	100.116466
2615.000000	100.114963
2614.000000	100.113252
2613.000000	100.111588
2612.000000	100.109830
2611.000000	100.108059
2610.000000	100.107138
2609.000000	100.107993
2608.000000	100.110357
2607.000000	100.112691
2606.000000	100.113719
2605.000000	100.113659
2604.000000	100.113606
2603.000000	100.114052
2602.000000	100.114466
2601.000000	100.114271
2600.000000	100.113713
2599.000000	100.113530
2598.000000	100.113956
2597.000000	100.114416
2596.000000	100.114303
2595.000000	100.113891
2594.000000	100.114157
2593.000000	100.115581
2592.000000	100.117387
2591.000000	100.118298
2590.000000	100.117947
2589.000000	100.117095
2588.000000	100.116437
2587.000000	100.115795
2586.000000	100.114750
2585.000000	100.113432
2584.000000	100.112284
2583.000000	100.111537
2582.000000	100.111230
2581.000000	100.111359
2580.000000	100.111584
2579.000000	100.111192
2578.000000	100.109935
2577.000000	100.108715
2576.000000	100.108792
2575.000000	100.110346
2574.000000	100.112265
2573.000000	100.113322
2572.000000	100.113278
2571.000000	100.112783
2570.000000	100.112671
2569.000000	100.113435
2568.000000	100.115059
2567.000000	100.117083
2566.000000	100.118897
2565.000000	100.120130
2564.000000	100.120738
2563.000000	100.120845
2562.000000	100.120678
2561.000000	100.120611
2560.000000	100.121033
2559.000000	100.122062
2558.000000	100.123397
2557.000000	100.124502
2556.000000	100.124969
2555.000000	100.124790
2554.000000	100.124352
2553.000000	100.124121
2552.000000	100.124219
2551.000000	100.124408
2550.000000	100.124537
2549.000000	100.124841
2548.000000	100.125647
2547.000000	100.126913
2546.000000	100.128225
2545.000000	100.129193
2544.000000	100.129722
2543.000000	100.129923
2542.000000	100.129967
2541.000000	100.130071
2540.000000	100.130452
2539.000000	100.131221
2538.000000	100.132335
2537.000000	100.133663
2536.000000	100.135039
2535.000000	100.136280
2534.000000	100.137256
2533.000000	100.137960
2532.000000	100.138497
2531.000000	100.139019
2530.000000	100.139649
2529.000000	100.140439
2528.000000	100.141318
2527.000000	100.142141
2526.000000	100.142860
2525.000000	100.143612
2524.000000	100.144561
2523.000000	100.145648
2522.000000	100.146611
2521.000000	100.147300
2520.000000	100.147827
2519.000000	100.148417
2518.000000	100.149155
2517.000000	100.150048
2516.000000	100.151135
2515.000000	100.152402
2514.000000	100.153701
2513.000000	100.154867
2512.000000	100.155911
2511.000000	100.156965
2510.000000	100.158079
2509.000000	100.159175
2508.000000	100.160180
2507.000000	100.161103
2506.000000	100.162008
2505.000000	100.162960
2504.000000	100.163999
2503.000000	100.165127
2502.000000	100.166312
2501.000000	100.167525
2500.000000	100.168757
2499.000000	100.170003
2498.000000	100.171248
2497.000000	100.172492
2496.000000	100.173762
2495.000000	100.175081
2494.000000	100.176443
2493.000000	100.177812
2492.000000	100.179153
2491.000000	100.180455
2490.000000	100.181719
2489.000000	100.182960
2488.000000	100.184211
2487.000000	100.185508
2486.000000	100.186864
2485.000000	100.188262
2484.000000	100.189685
2483.000000	100.191127
2482.000000	100.192587
2481.000000	100.194059
2480.000000	100.195532
2479.000000	100.196994
2478.000000	100.198440
2477.000000	100.199877
2476.000000	100.201313
2475.000000	100.202763
2474.000000	100.204234
2473.000000	100.205727
2472.000000	100.207235
2471.000000	100.208755
2470.000000	100.210288
2469.000000	100.211840
2468.000000	100.213419
2467.000000	100.215032
2466.000000	100.216688
2465.000000	100.218382
2464.000000	100.220099
2463.000000	100.221821
2462.000000	100.223541
2461.000000	100.225274
2460.000000	100.227040
2459.000000	100.228838
2458.000000	100.230647
2457.000000	100.232439
2456.000000	100.234196
2455.000000	100.235899
2454.000000	100.237516
2453.000000	100.239024
2452.000000	100.240465
2451.000000	100.241923
2450.000000	100.243430
2449.000000	100.244922
2448.000000	100.246381
2447.000000	100.247959
2446.000000	100.249831
2445.000000	100.251906
2444.000000	100.253833
2443.000000	100.255377
2442.000000	100.256688
2441.000000	100.258087
2440.000000	100.259626
2439.000000	100.261074
2438.000000	100.262330
2437.000000	100.263600
2436.000000	100.265066
2435.000000	100.266566
2434.000000	100.267786
2433.000000	100.268727
2432.000000	100.269855
2431.000000	100.271745
2430.000000	100.274530
2429.000000	100.277664
2428.000000	100.280231
2427.000000	100.281766
2426.000000	100.282670
2425.000000	100.283690
2424.000000	100.285079
2423.000000	100.286513
2422.000000	100.287686
2421.000000	100.288556
2420.000000	100.289067
2419.000000	100.289058
2418.000000	100.288640
2417.000000	100.288380
2416.000000	100.288858
2415.000000	100.290163
2414.000000	100.291928
2413.000000	100.293600
2412.000000	100.294670
2411.000000	100.294852
2410.000000	100.294297
2409.000000	100.293623
2408.000000	100.293509
2407.000000	100.294226
2406.000000	100.295623
2405.000000	100.297334
2404.000000	100.298873
2403.000000	100.299735
2402.000000	100.299811
2401.000000	100.299506
2400.000000	100.299348
2399.000000	100.299400
2398.000000	100.299301
2397.000000	100.298829
2396.000000	100.298167
2395.000000	100.297638
2394.000000	100.297441
2393.000000	100.297613
2392.000000	100.297994
2391.000000	100.298316
2390.000000	100.298407
2389.000000	100.298317
2388.000000	100.298186
2387.000000	100.298082
2386.000000	100.297986
2385.000000	100.297867
2384.000000	100.297721
2383.000000	100.297545
2382.000000	100.297342
2381.000000	100.297121
2380.000000	100.296885
2379.000000	100.296636
2378.000000	100.296379
2377.000000	100.296117
2376.000000	100.295857
2375.000000	100.295608
2374.000000	100.295371
2373.000000	100.295139
2372.000000	100.294902
2371.000000	100.294658
2370.000000	100.294415
2369.000000	100.294178
2368.000000	100.293946
2367.000000	100.293710
2366.000000	100.293455
2365.000000	100.293174
2364.000000	100.292865
2363.000000	100.292527
2362.000000	100.292157
2361.000000	100.291753
2360.000000	100.291324
2359.000000	100.290892
2358.000000	100.290482
2357.000000	100.290102
2356.000000	100.289743
2355.000000	100.289379
2354.000000	100.288986
2353.000000	100.288555
2352.000000	100.288090
2351.000000	100.287604
2350.000000	100.287101
2349.000000	100.286577
2348.000000	100.286023
2347.000000	100.285431
2346.000000	100.284797
2345.000000	100.284118
2344.000000	100.283396
2343.000000	100.282639
2342.000000	100.281864
2341.000000	100.281095
2340.000000	100.280340
2339.000000	100.279594
2338.000000	100.278844
2337.000000	100.278073
2336.000000	100.277277
2335.000000	100.276455
2334.000000	100.275604
2333.000000	100.274719
2332.000000	100.273798
2331.000000	100.272838
2330.000000	100.271846
2329.000000	100.270824
2328.000000	100.269762
2327.000000	100.268646
2326.000000	100.267471
2325.000000	100.266244
2324.000000	100.264985
2323.000000	100.263706
2322.000000	100.262414
2321.000000	100.261117
2320.000000	100.259806
2319.000000	100.258473
2318.000000	100.257141
2317.000000	100.255851
2316.000000	100.254604
2315.000000	100.253250
2314.000000	100.251633
2313.000000	100.249724
2312.000000	100.247647
2311.000000	100.245567
2310.000000	100.243651
2309.000000	100.242002
2308.000000	100.240626
2307.000000	100.239300
2306.000000	100.237783
2305.000000	100.236048
2304.000000	100.234289
2303.000000	100.232675
2302.000000	100.231279
2301.000000	100.230129
2300.000000	100.229203
2299.000000	100.228222
2298.000000	100.226759
2297.000000	100.224614
2296.000000	100.222086
2295.000000	100.219691
2294.000000	100.217689
2293.000000	100.215949
2292.000000	100.214223
2291.000000	100.212385
2290.000000	100.210474
2289.000000	100.208594
2288.000000	100.206799
2287.000000	100.205032
2286.000000	100.203152
2285.000000	100.201102
2284.000000	100.199013
2283.000000	100.197121
2282.000000	100.195496
2281.000000	100.193966
2280.000000	100.192255
2279.000000	100.190301
2278.000000	100.188360
2277.000000	100.186744
2276.000000	100.185469
2275.000000	100.184279
2274.000000	100.183038
2273.000000	100.181911
2272.000000	100.181002
2271.000000	100.179945
2270.000000	100.178214
2269.000000	100.175777
2268.000000	100.173219
2267.000000	100.171169
2266.000000	100.169839
2265.000000	100.169078
2264.000000	100.168451
2263.000000	100.167210
2262.000000	100.164667
2261.000000	100.160856
2260.000000	100.156668
2259.000000	100.153181
2258.000000	100.150974
2257.000000	100.150117
2256.000000	100.150283
2255.000000	100.150694
2254.000000	100.150474
2253.000000	100.149479
2252.000000	100.148458
2251.000000	100.148103
2250.000000	100.148201
2249.000000	100.147895
2248.000000	100.146521
2247.000000	100.143953
2246.000000	100.140439
2245.000000	100.136451
2244.000000	100.132557
2243.000000	100.129218
2242.000000	100.126747
2241.000000	100.125371
2240.000000	100.125032
2239.000000	100.125141
2238.000000	100.125047
2237.000000	100.124902
2236.000000	100.125514
2235.000000	100.127093
2234.000000	100.128573
2233.000000	100.128570
2232.000000	100.126830
2231.000000	100.124485
2230.000000	100.123069
2229.000000	100.123384
2228.000000	100.125130
2227.000000	100.127271
2226.000000	100.128742
2225.000000	100.129028
2224.000000	100.128178
2223.000000	100.126617
2222.000000	100.125147
2221.000000	100.124744
2220.000000	100.125789
2219.000000	100.127492
2218.000000	100.128556
2217.000000	100.128631
2216.000000	100.128602
2215.000000	100.129342
2214.000000	100.130698
2213.000000	100.131973
2212.000000	100.132859
2211.000000	100.133412
2210.000000	100.133503
2209.000000	100.132912
2208.000000	100.131878
2207.000000	100.131076
2206.000000	100.130943
2205.000000	100.131424
2204.000000	100.132363
2203.000000	100.133733
2202.000000	100.135381
2201.000000	100.136878
2200.000000	100.137850
2199.000000	100.138335
2198.000000	100.138701
2197.000000	100.139307
2196.000000	100.140267
2195.000000	100.141434
2194.000000	100.142534
2193.000000	100.143363
2192.000000	100.143921
2191.000000	100.144348
2190.000000	100.144710
2189.000000	100.144983
2188.000000	100.145265
2187.000000	100.145827
2186.000000	100.146766
2185.000000	100.147650
2184.000000	100.147849
2183.000000	100.147325
2182.000000	100.146882
2181.000000	100.147273
2180.000000	100.148248
2179.000000	100.148883
2178.000000	100.148843
2177.000000	100.148833
2176.000000	100.149586
2175.000000	100.150979
2174.000000	100.152480
2173.000000	100.154076
2172.000000	100.156161
2171.000000	100.158627
2170.000000	100.160652
2169.000000	100.161518
2168.000000	100.161239
2167.000000	100.160441
2166.000000	100.159924
2165.000000	100.160310
2164.000000	100.161774
2163.000000	100.163896
2162.000000	100.165907
2161.000000	100.167253
2160.000000	100.167764
2159.000000	100.167421
2158.000000	100.166342
2157.000000	100.165032
2156.000000	100.164217
2155.000000	100.164259
2154.000000	100.165080
2153.000000	100.166644
2152.000000	100.169050
2151.000000	100.171952
2150.000000	100.174500
2149.000000	100.176212
2148.000000	100.177486
2147.000000	100.178964
2146.000000	100.180710
2145.000000	100.182318
2144.000000	100.183572
2143.000000	100.184608
2142.000000	100.185609
2141.000000	100.186653
2140.000000	100.187795
2139.000000	100.188973
2138.000000	100.189939
2137.000000	100.190562
2136.000000	100.191158
2135.000000	100.192276
2134.000000	100.194171
2133.000000	100.196651
2132.000000	100.199300
2131.000000	100.201759
2130.000000	100.203792
2129.000000	100.205320
2128.000000	100.206539
2127.000000	100.207885
2126.000000	100.209697
2125.000000	100.211867
2124.000000	100.213931
2123.000000	100.215581
2122.000000	100.217022
2121.000000	100.218677
2120.000000	100.220624
2119.000000	100.222532
2118.000000	100.224135
2117.000000	100.225516
2116.000000	100.226881
2115.000000	100.228302
2114.000000	100.229817
2113.000000	100.231600
2112.000000	100.233782
2111.000000	100.236223
2110.000000	100.238595
2109.000000	100.240709
2108.000000	100.242665
2107.000000	100.244665
2106.000000	100.246728
2105.000000	100.248669
2104.000000	100.250291
2103.000000	100.251570
2102.000000	100.252808
2101.000000	100.254646
2100.000000	100.257631
2099.000000	100.261450
2098.000000	100.264832
2097.000000	100.266678
2096.000000	100.266987
2095.000000	100.266691
2094.000000	100.266897
2093.000000	100.268283
2092.000000	100.270559
2091.000000	100.272245
2090.000000	100.271944
2089.000000	100.270330
2088.000000	100.269900
2087.000000	100.272059
2086.000000	100.275510
2085.000000	100.278163
2084.000000	100.279578
2083.000000	100.280538
2082.000000	100.281524
2081.000000	100.282933
2080.000000	100.285568
2079.000000	100.289290
2078.000000	100.292260
2077.000000	100.293324
2076.000000	100.294195
2075.000000	100.297157
2074.000000	100.301277
2073.000000	100.303337
2072.000000	100.302409
2071.000000	100.301120
2070.000000	100.302035
2069.000000	100.304723
2068.000000	100.307219
2067.000000	100.308775
2066.000000	100.310138
2065.000000	100.312141
2064.000000	100.314832
2063.000000	100.317570
2062.000000	100.319449
2061.000000	100.319747
2060.000000	100.318016
2059.000000	100.313962
2058.000000	100.307963
2057.000000	100.301890
2056.000000	100.298276
2055.000000	100.297862
2054.000000	100.298913
2053.000000	100.299562
2052.000000	100.299554
2051.000000	100.298865
2050.000000	100.296419
2049.000000	100.291851
2048.000000	100.287112
2047.000000	100.284248
2046.000000	100.282401
2045.000000	100.279171
2044.000000	100.274433
2043.000000	100.270517
2042.000000	100.268642
2041.000000	100.267357
2040.000000	100.265016
2039.000000	100.262056
2038.000000	100.259937
2037.000000	100.259048
2036.000000	100.258533
2035.000000	100.257470
2034.000000	100.255554
2033.000000	100.253033
2032.000000	100.250496
2031.000000	100.248546
2030.000000	100.247303
2029.000000	100.246234
2028.000000	100.244514
2027.000000	100.241592
2026.000000	100.237559
2025.000000	100.233086
2024.000000	100.228889
2023.000000	100.225230
2022.000000	100.222104
2021.000000	100.219706
2020.000000	100.218280
2019.000000	100.217524
2018.000000	100.216507
2017.000000	100.214507
2016.000000	100.211674
2015.000000	100.208765
2014.000000	100.206352
2013.000000	100.204349
2012.000000	100.202254
2011.000000	100.199689
2010.000000	100.196745
2009.000000	100.193945
2008.000000	100.191866
2007.000000	100.190682
2006.000000	100.189996
2005.000000	100.189109
2004.000000	100.187542
2003.000000	100.185268
2002.000000	100.182595
2001.000000	100.179983
2000.000000	100.177787
1999.000000	100.176008
1998.000000	100.174373
1997.000000	100.172761
1996.000000	100.171388
1995.000000	100.170410
1994.000000	100.169564
1993.000000	100.168440
1992.000000	100.167027
1991.000000	100.165686
1990.000000	100.164629
1989.000000	100.163735
1988.000000	100.162877
1987.000000	100.162131
1986.000000	100.161604
1985.000000	100.161247
1984.000000	100.160844
1983.000000	100.160141
1982.000000	100.159033
1981.000000	100.157694
1980.000000	100.156506
1979.000000	100.155715
1978.000000	100.155198
1977.000000	100.154568
1976.000000	100.153546
1975.000000	100.152190
1974.000000	100.150854
1973.000000	100.149884
1972.000000	100.149375
1971.000000	100.149188
1970.000000	100.149095
1969.000000	100.148934
1968.000000	100.148635
1967.000000	100.148172
1966.000000	100.147579
1965.000000	100.147012
1964.000000	100.146636
1963.000000	100.146340
1962.000000	100.145665
1961.000000	100.144268
1960.000000	100.142469
1959.000000	100.141135
1958.000000	100.140948
1957.000000	100.141880
1956.000000	100.143162
1955.000000	100.143630
1954.000000	100.142313
1953.000000	100.139162
1952.000000	100.135378
1951.000000	100.132673
1950.000000	100.131962
1949.000000	100.132852
1948.000000	100.134062
1947.000000	100.134185
1946.000000	100.132520
1945.000000	100.129810
1944.000000	100.127912
1943.000000	100.127943
1942.000000	100.128933
1941.000000	100.129200
1940.000000	100.128439
1939.000000	100.127478
1938.000000	100.126698
1937.000000	100.125615
1936.000000	100.123855
1935.000000	100.121535
1934.000000	100.118655
1933.000000	100.115289
1932.000000	100.112331
1931.000000	100.110896
1930.000000	100.110845
1929.000000	100.110868
1928.000000	100.109960
1927.000000	100.107818
1926.000000	100.104118
1925.000000	100.098691
1924.000000	100.092528
1923.000000	100.087181
1922.000000	100.083074
1921.000000	100.079538
1920.000000	100.076510
1919.000000	100.074632
1918.000000	100.073137
1917.000000	100.069748
1916.000000	100.063611
1915.000000	100.056109
1914.000000	100.048979
1913.000000	100.042734
1912.000000	100.036719
1911.000000	100.029892
1910.000000	100.021428
1909.000000	100.011944
1908.000000	100.004062
1907.000000	99.999839
1906.000000	99.997679
1905.000000	99.993526
1904.000000	99.985590
1903.000000	99.976055
1902.000000	99.967763
1901.000000	99.961474
1900.000000	99.957072
1899.000000	99.954672
1898.000000	99.952825
1897.000000	99.947779
1896.000000	99.937219
1895.000000	99.923896
1894.000000	99.913256
1893.000000	99.907919
1892.000000	99.906586
1891.000000	99.906932
1890.000000	99.906879
1889.000000	99.904610
1888.000000	99.900061
1887.000000	99.895195
1886.000000	99.891675
1885.000000	99.888922
1884.000000	99.885190
1883.000000	99.880583
1882.000000	99.877167
1881.000000	99.876029
1880.000000	99.875976
1879.000000	99.875349
1878.000000	99.873759
1877.000000	99.871626
1876.000000	99.869461
1875.000000	99.868117
1874.000000	99.868383
1873.000000	99.869756
1872.000000	99.870656
1871.000000	99.870172
1870.000000	99.868695
1869.000000	99.867048
1868.000000	99.866518
1867.000000	99.868958
1866.000000	99.875130
1865.000000	99.884238
1864.000000	99.894716
1863.000000	99.904740
1862.000000	99.912900
1861.000000	99.918915
1860.000000	99.923857
1859.000000	99.929508
1858.000000	99.937136
1857.000000	99.946773
1856.000000	99.957429
1855.000000	99.967471
1854.000000	99.975021
1853.000000	99.979535
1852.000000	99.983238
1851.000000	99.989222
1850.000000	99.997674
1849.000000	100.005267
1848.000000	100.009791
1847.000000	100.014190
1846.000000	100.023879
1845.000000	100.039605
1844.000000	100.054398
1843.000000	100.061075
1842.000000	100.059270
1841.000000	100.052791
1840.000000	100.046274
1839.000000	100.043644
1838.000000	100.046429
1837.000000	100.052515
1836.000000	100.057673
1835.000000	100.059206
1834.000000	100.057726
1833.000000	100.055479
1832.000000	100.053981
1831.000000	100.053615
1830.000000	100.054689
1829.000000	100.057698
1828.000000	100.061852
1827.000000	100.064932
1826.000000	100.066163
1825.000000	100.067051
1824.000000	100.069250
1823.000000	100.072462
1822.000000	100.074658
1821.000000	100.074318
1820.000000	100.071726
1819.000000	100.068624
1818.000000	100.066969
1817.000000	100.067690
1816.000000	100.070523
1815.000000	100.074596
1814.000000	100.078730
1813.000000	100.081288
1812.000000	100.080611
1811.000000	100.076781
1810.000000	100.072629
1809.000000	100.071615
1808.000000	100.074782
1807.000000	100.080324
1806.000000	100.085338
1805.000000	100.087803
1804.000000	100.087602
1803.000000	100.086358
1802.000000	100.086294
1801.000000	100.088643
1800.000000	100.092503
1799.000000	100.095469
1798.000000	100.095679
1797.000000	100.093369
1796.000000	100.090722
1795.000000	100.090250
1794.000000	100.093219
1793.000000	100.098828
1792.000000	100.104561
1791.000000	100.108830
1790.000000	100.111963
1789.000000	100.114613
1788.000000	100.117730
1787.000000	100.122346
1786.000000	100.128532
1785.000000	100.135186
1784.000000	100.140951
1783.000000	100.144949
1782.000000	100.147071
1781.000000	100.148505
1780.000000	100.151263
1779.000000	100.156594
1778.000000	100.163515
1777.000000	100.169907
1776.000000	100.175099
1775.000000	100.180641
1774.000000	100.188588
1773.000000	100.198218
1772.000000	100.205786
1771.000000	100.210395
1770.000000	100.215119
1769.000000	100.221966
1768.000000	100.230309
1767.000000	100.237371
1766.000000	100.240838
1765.000000	100.240873
1764.000000	100.239632
1763.000000	100.239562
1762.000000	100.241980
1761.000000	100.247041
1760.000000	100.253493
1759.000000	100.259271
1758.000000	100.263832
1757.000000	100.268397
1756.000000	100.273747
1755.000000	100.278672
1754.000000	100.281024
1753.000000	100.280169
1752.000000	100.276695
1751.000000	100.270929
1750.000000	100.264210
1749.000000	100.259964
1748.000000	100.261382
1747.000000	100.268157
1746.000000	100.276167
1745.000000	100.280988
1744.000000	100.281503
1743.000000	100.280261
1742.000000	100.280783
1741.000000	100.284502
1740.000000	100.289623
1739.000000	100.292558
1738.000000	100.291159
1737.000000	100.286420
1736.000000	100.282256
1735.000000	100.281981
1734.000000	100.282709
1733.000000	100.280694
1732.000000	100.276621
1731.000000	100.270481
1730.000000	100.263497
1729.000000	100.257758
1728.000000	100.255170
1727.000000	100.256355
1726.000000	100.259885
1725.000000	100.262915
1724.000000	100.263197
1723.000000	100.260821
1722.000000	100.256717
1721.000000	100.250791
1720.000000	100.242851
1719.000000	100.233787
1718.000000	100.224741
1717.000000	100.217263
1716.000000	100.212967
1715.000000	100.210039
1714.000000	100.205044
1713.000000	100.196959
1712.000000	100.187875
1711.000000	100.181261
1710.000000	100.178701
1709.000000	100.178039
1708.000000	100.175311
1707.000000	100.168528
1706.000000	100.158505
1705.000000	100.147042
1704.000000	100.135086
1703.000000	100.121997
1702.000000	100.108104
1701.000000	100.095793
1700.000000	100.087310
1699.000000	100.082424
1698.000000	100.077457
1697.000000	100.070039
1696.000000	100.062049
1695.000000	100.055499
1694.000000	100.049338
1693.000000	100.040646
1692.000000	100.029479
1691.000000	100.017659
1690.000000	100.006163
1689.000000	99.995482
1688.000000	99.986304
1687.000000	99.978870
1686.000000	99.972428
1685.000000	99.964414
1684.000000	99.952538
1683.000000	99.939848
1682.000000	99.929392
1681.000000	99.920021
1680.000000	99.911896
1679.000000	99.905583
1678.000000	99.900227
1677.000000	99.894058
1676.000000	99.886024
1675.000000	99.877010
1674.000000	99.869102
1673.000000	99.862492
1672.000000	99.855277
1671.000000	99.845905
1670.000000	99.834154
1669.000000	99.822221
1668.000000	99.813094
1667.000000	99.806729
1666.000000	99.801033
1665.000000	99.794752
1664.000000	99.787423
1663.000000	99.778464
1662.000000	99.767940
1661.000000	99.757593
1660.000000	99.749221
1659.000000	99.743532
1658.000000	99.739471
1657.000000	99.734447
1656.000000	99.726306
1655.000000	99.715092
1654.000000	99.700393
1653.000000	99.683784
1652.000000	99.677067
1651.000000	99.680386
1650.000000	99.680891
1649.000000	99.677736
1648.000000	99.671656
1647.000000	99.661889
1646.000000	99.651111
1645.000000	99.643750
1644.000000	99.638178
1643.000000	99.632808
1642.000000	99.629421
1641.000000	99.629069
1640.000000	99.630324
1639.000000	99.630837
1638.000000	99.628759
1637.000000	99.622309
1636.000000	99.611282
1635.000000	99.603038
1634.000000	99.604636
1633.000000	99.609798
1632.000000	99.610962
1631.000000	99.608204
1630.000000	99.605287
1629.000000	99.606075
1628.000000	99.611697
1627.000000	99.619794
1626.000000	99.626501
1625.000000	99.629425
1624.000000	99.628667
1623.000000	99.626529
1622.000000	99.626378
1621.000000	99.629191
1620.000000	99.633157
1619.000000	99.637739
1618.000000	99.643680
1617.000000	99.650156
1616.000000	99.656027
1615.000000	99.661357
1614.000000	99.664974
1613.000000	99.667049
1612.000000	99.670000
1611.000000	99.674662
1610.000000	99.679562
1609.000000	99.683952
1608.000000	99.689779
1607.000000	99.699456
1606.000000	99.712687
1605.000000	99.726452
1604.000000	99.737506
1603.000000	99.744818
1602.000000	99.750151
1601.000000	99.756107
1600.000000	99.763393
1599.000000	99.770541
1598.000000	99.776472
1597.000000	99.782504
1596.000000	99.790959
1595.000000	99.802028
1594.000000	99.813142
1593.000000	99.821999
1592.000000	99.828980
1591.000000	99.835813
1590.000000	99.842918
1589.000000	99.849070
1588.000000	99.853497
1587.000000	99.857222
1586.000000	99.862175
1585.000000	99.869450
1584.000000	99.878283
1583.000000	99.886636
1582.000000	99.893190
1581.000000	99.898284
1580.000000	99.902811
1579.000000	99.907119
1578.000000	99.911434
1577.000000	99.915994
1576.000000	99.921293
1575.000000	99.928478
1574.000000	99.936755
1573.000000	99.944271
1572.000000	99.951587
1571.000000	99.958651
1570.000000	99.962657
1569.000000	99.963070
1568.000000	99.963940
1567.000000	99.966841
1566.000000	99.969853
1565.000000	99.971778
1564.000000	99.973449
1563.000000	99.976411
1562.000000	99.981804
1561.000000	99.991007
1560.000000	100.004524
1559.000000	100.013284
1558.000000	100.014773
1557.000000	100.017618
1556.000000	100.016342
1555.000000	100.011219
1554.000000	100.007439
1553.000000	100.007247
1552.000000	100.009459
1551.000000	100.012861
1550.000000	100.017094
1549.000000	100.021038
1548.000000	100.023559
1547.000000	100.025004
1546.000000	100.027535
1545.000000	100.032131
1544.000000	100.036483
1543.000000	100.038142
1542.000000	100.037834
1541.000000	100.038471
1540.000000	100.041972
1539.000000	100.049011
1538.000000	100.055780
1537.000000	100.055355
1536.000000	100.048568
1535.000000	100.040346
1534.000000	100.033139
1533.000000	100.026838
1532.000000	100.021977
1531.000000	100.018736
1530.000000	100.017025
1529.000000	100.017584
1528.000000	100.019622
1527.000000	100.020662
1526.000000	100.019297
1525.000000	100.016591
1524.000000	100.014055
1523.000000	100.012829
1522.000000	100.013651
1521.000000	100.017062
1520.000000	100.023479
1519.000000	100.030493
1518.000000	100.036458
1517.000000	100.043401
1516.000000	100.053098
1515.000000	100.064799
1514.000000	100.075464
1513.000000	100.083197
1512.000000	100.087910
1511.000000	100.090149
1510.000000	100.091393
1509.000000	100.093306
1508.000000	100.095251
1507.000000	100.092455
1506.000000	100.088553
1505.000000	100.091723
1504.000000	100.095901
1503.000000	100.097493
1502.000000	100.099201
1501.000000	100.101694
1500.000000	100.103404
1499.000000	100.103684
1498.000000	100.104783
1497.000000	100.108677
1496.000000	100.113613
1495.000000	100.116350
1494.000000	100.116250
1493.000000	100.115643
1492.000000	100.116984
1491.000000	100.120057
1490.000000	100.122710
1489.000000	100.124881
1488.000000	100.128416
1487.000000	100.133544
1486.000000	100.139124
1485.000000	100.144227
1484.000000	100.148221
1483.000000	100.150312
1482.000000	100.150181
1481.000000	100.148731
1480.000000	100.147527
1479.000000	100.147108
1478.000000	100.146921
1477.000000	100.146591
1476.000000	100.146733
1475.000000	100.148644
1474.000000	100.152955
1473.000000	100.158276
1472.000000	100.162158
1471.000000	100.163504
1470.000000	100.162114
1469.000000	100.159244
1468.000000	100.157959
1467.000000	100.160230
1466.000000	100.165091
1465.000000	100.169626
1464.000000	100.172154
1463.000000	100.173004
1462.000000	100.172290
1461.000000	100.170662
1460.000000	100.169950
1459.000000	100.171321
1458.000000	100.172477
1457.000000	100.170004
1456.000000	100.167609
1455.000000	100.168086
1454.000000	100.167403
1453.000000	100.165241
1452.000000	100.163895
1451.000000	100.164184
1450.000000	100.164532
1449.000000	100.162542
1448.000000	100.156977
1447.000000	100.148333
1446.000000	100.138334
1445.000000	100.129546
1444.000000	100.125026
1443.000000	100.126092
1442.000000	100.129675
1441.000000	100.130685
1440.000000	100.127572
1439.000000	100.123299
1438.000000	100.121059
1437.000000	100.119933
1436.000000	100.117731
1435.000000	100.115537
1434.000000	100.114305
1433.000000	100.113647
1432.000000	100.113080
1431.000000	100.111036
1430.000000	100.106178
1429.000000	100.100055
1428.000000	100.096531
1427.000000	100.098001
1426.000000	100.103970
1425.000000	100.112513
1424.000000	100.120852
1423.000000	100.126477
1422.000000	100.128552
1421.000000	100.127964
1420.000000	100.126164
1419.000000	100.123698
1418.000000	100.122242
1417.000000	100.124226
1416.000000	100.129840
1415.000000	100.138505
1414.000000	100.149043
1413.000000	100.159881
1412.000000	100.170330
1411.000000	100.179844
1410.000000	100.187159
1409.000000	100.191949
1408.000000	100.196305
1407.000000	100.202254
1406.000000	100.208128
1405.000000	100.210171
1404.000000	100.208277
1403.000000	100.206591
1402.000000	100.207642
1401.000000	100.210371
1400.000000	100.213399
1399.000000	100.217553
1398.000000	100.225096
1397.000000	100.236872
1396.000000	100.251787
1395.000000	100.267244
1394.000000	100.279391
1393.000000	100.285793
1392.000000	100.287573
1391.000000	100.288761
1390.000000	100.292862
1389.000000	100.299499
1388.000000	100.305217
1387.000000	100.307871
1386.000000	100.309058
1385.000000	100.311127
1384.000000	100.314407
1383.000000	100.317841
1382.000000	100.319655
1381.000000	100.318423
1380.000000	100.314931
1379.000000	100.312191
1378.000000	100.312459
1377.000000	100.314634
1376.000000	100.315418
1375.000000	100.312315
1374.000000	100.305605
1373.000000	100.298058
1372.000000	100.292368
1371.000000	100.289751
1370.000000	100.290417
1369.000000	100.293418
1368.000000	100.296977
1367.000000	100.299892
1366.000000	100.301908
1365.000000	100.302731
1364.000000	100.301671
1363.000000	100.299113
1362.000000	100.298066
1361.000000	100.301871
1360.000000	100.310132
1359.000000	100.318764
1358.000000	100.323450
1357.000000	100.322693
1356.000000	100.318455
1355.000000	100.314021
1354.000000	100.311257
1353.000000	100.310204
1352.000000	100.310594
1351.000000	100.312192
1350.000000	100.313566
1349.000000	100.312618
1348.000000	100.309274
1347.000000	100.306403
1346.000000	100.307073
1345.000000	100.311431
1344.000000	100.316875
1343.000000	100.320652
1342.000000	100.321663
1341.000000	100.320367
1340.000000	100.317891
1339.000000	100.315031
1338.000000	100.311779
1337.000000	100.308365
1336.000000	100.306679
1335.000000	100.308910
1334.000000	100.314159
1333.000000	100.318397
1332.000000	100.319059
1331.000000	100.318085
1330.000000	100.318837
1329.000000	100.321238
1328.000000	100.322039
1327.000000	100.319272
1326.000000	100.314513
1325.000000	100.310979
1324.000000	100.310639
1323.000000	100.312970
1322.000000	100.315414
1321.000000	100.315042
1320.000000	100.310832
1319.000000	100.304652
1318.000000	100.299722
1317.000000	100.298215
1316.000000	100.300606
1315.000000	100.306164
1314.000000	100.312833
1313.000000	100.317675
1312.000000	100.319127
1311.000000	100.318506
1310.000000	100.318201
1309.000000	100.318836
1308.000000	100.319150
1307.000000	100.318009
1306.000000	100.315477
1305.000000	100.312441
1304.000000	100.310079
1303.000000	100.309169
1302.000000	100.309081
1301.000000	100.308041
1300.000000	100.305325
1299.000000	100.302392
1298.000000	100.300619
1297.000000	100.298732
1296.000000	100.294357
1295.000000	100.287904
1294.000000	100.282988
1293.000000	100.282182
1292.000000	100.283434
1291.000000	100.281616
1290.000000	100.273409
1289.000000	100.260374
1288.000000	100.247510
1287.000000	100.238812
1286.000000	100.234236
1285.000000	100.230916
1284.000000	100.226507
1283.000000	100.220277
1282.000000	100.211662
1281.000000	100.200268
1280.000000	100.188445
1279.000000	100.181675
1278.000000	100.183791
1277.000000	100.192173
1276.000000	100.199433
1275.000000	100.200217
1274.000000	100.195495
1273.000000	100.190389
1272.000000	100.188537
1271.000000	100.188334
1270.000000	100.184393
1269.000000	100.173386
1268.000000	100.158702
1267.000000	100.148229
1266.000000	100.146775
1265.000000	100.151715
1264.000000	100.156719
1263.000000	100.157890
1262.000000	100.154884
1261.000000	100.148159
1260.000000	100.138059
1259.000000	100.126326
1258.000000	100.115948
1257.000000	100.108551
1256.000000	100.102819
1255.000000	100.095882
1254.000000	100.085869
1253.000000	100.073063
1252.000000	100.058731
1251.000000	100.043110
1250.000000	100.025381
1249.000000	100.006171
1248.000000	99.988722
1247.000000	99.975615
1246.000000	99.965048
1245.000000	99.952862
1244.000000	99.937881
1243.000000	99.922163
1242.000000	99.905719
1241.000000	99.884753
1240.000000	99.857020
1239.000000	99.826108
1238.000000	99.797981
1237.000000	99.774915
1236.000000	99.754801
1235.000000	99.734923
1234.000000	99.714582
1233.000000	99.694903
1232.000000	99.676830
1231.000000	99.657972
1230.000000	99.631479
1229.000000	99.590922
1228.000000	99.537502
1227.000000	99.480178
1226.000000	99.427003
1225.000000	99.377747
1224.000000	99.325957
1223.000000	99.265551
1222.000000	99.194038
1221.000000	99.112499
1220.000000	99.025056
1219.000000	98.936436
1218.000000	98.848024
1217.000000	98.757858
1216.000000	98.665124
1215.000000	98.571514
1214.000000	98.477175
1213.000000	98.379184
1212.000000	98.275865
1211.000000	98.169088
1210.000000	98.060630
1209.000000	97.950081
1208.000000	97.838032
1207.000000	97.727115
1206.000000	97.618300
1205.000000	97.510894
1204.000000	97.407513
1203.000000	97.312809
1202.000000	97.224665
1201.000000	97.132873
1200.000000	97.030329
1199.000000	96.920893
1198.000000	96.813198
1197.000000	96.711372
1196.000000	96.614691
1195.000000	96.520926
1194.000000	96.426581
1193.000000	96.328599
1192.000000	96.228696
1191.000000	96.131425
1190.000000	96.036083
1189.000000	95.936422
1188.000000	95.830630
1187.000000	95.724714
1186.000000	95.622584
1185.000000	95.519680
1184.000000	95.410617
1183.000000	95.296142
1182.000000	95.177520
1181.000000	95.050906
1180.000000	94.913631
1179.000000	94.770445
1178.000000	94.626925
1177.000000	94.481587
1176.000000	94.331110
1175.000000	94.178851
1174.000000	94.031067
1173.000000	93.887639
1172.000000	93.742610
1171.000000	93.591600
1170.000000	93.434269
1169.000000	93.272753
1168.000000	93.112361
1167.000000	92.961280
1166.000000	92.826457
1165.000000	92.713233
1164.000000	92.630973
1163.000000	92.592986
1162.000000	92.606282
1161.000000	92.664175
1160.000000	92.749272
1159.000000	92.838471
1158.000000	92.906063
1157.000000	92.931686
1156.000000	92.910281
1155.000000	92.851016
1154.000000	92.765348
1153.000000	92.660218
1152.000000	92.542637
1151.000000	92.421992
1150.000000	92.302876
1149.000000	92.181782
1148.000000	92.055418
1147.000000	91.927045
1146.000000	91.801161
1145.000000	91.677777
1144.000000	91.555646
1143.000000	91.435388
1142.000000	91.316059
1141.000000	91.194530
1140.000000	91.071479
1139.000000	90.951937
1138.000000	90.836647
1137.000000	90.718924
1136.000000	90.593373
1135.000000	90.462040
1134.000000	90.329308
1133.000000	90.196547
1132.000000	90.064291
1131.000000	89.933886
1130.000000	89.805043
1129.000000	89.677285
1128.000000	89.553874
1127.000000	89.437054
1126.000000	89.319831
1125.000000	89.191822
1124.000000	89.054029
1123.000000	88.918202
1122.000000	88.790428
1121.000000	88.665467
1120.000000	88.538813
1119.000000	88.413024
1118.000000	88.289201
1117.000000	88.163533
1116.000000	88.036141
1115.000000	87.913139
1114.000000	87.796526
1113.000000	87.681572
1112.000000	87.566160
1111.000000	87.452301
1110.000000	87.338244
1109.000000	87.221066
1108.000000	87.106083
1107.000000	86.999615
1106.000000	86.893438
1105.000000	86.772915
1104.000000	86.640995
1103.000000	86.516166
1102.000000	86.404689
1101.000000	86.293936
1100.000000	86.176573
1099.000000	86.061614
1098.000000	85.954724
1097.000000	85.846467
1096.000000	85.729976
1095.000000	85.614767
1094.000000	85.512941
1093.000000	85.423784
1092.000000	85.339413
1091.000000	85.254341
1090.000000	85.164203
1089.000000	85.066769
1088.000000	84.968787
1087.000000	84.880745
1086.000000	84.802332
1085.000000	84.724870
1084.000000	84.648296
1083.000000	84.581037
1082.000000	84.522427
1081.000000	84.461608
1080.000000	84.395691
1079.000000	84.332657
1078.000000	84.274202
1077.000000	84.212244
1076.000000	84.144429
1075.000000	84.075799
1074.000000	84.002784
1073.000000	83.912627
1072.000000	83.800754
1071.000000	83.672063
1070.000000	83.524105
1069.000000	83.346943
1068.000000	83.141203
1067.000000	82.917791
1066.000000	82.677474
1065.000000	82.410714
1064.000000	82.122376
1063.000000	81.837607
1062.000000	81.577581
1061.000000	81.346081
1060.000000	81.141546
1059.000000	80.960900
1058.000000	80.788715
1057.000000	80.606230
1056.000000	80.416945
1055.000000	80.241676
1054.000000	80.082402
1053.000000	79.913200
1052.000000	79.715119
1051.000000	79.497578
1050.000000	79.275460
1049.000000	79.049215
1048.000000	78.819002
1047.000000	78.593043
1046.000000	78.370000
1045.000000	78.134843
1044.000000	77.881189
1043.000000	77.620231
1042.000000	77.363136
1041.000000	77.112319
1040.000000	76.872056
1039.000000	76.646859
1038.000000	76.426896
1037.000000	76.197980
1036.000000	75.969428
1035.000000	75.767821
1034.000000	75.599711
1033.000000	75.445539
1032.000000	75.294488
1031.000000	75.159297
1030.000000	75.049746
1029.000000	74.957020
1028.000000	74.872355
1027.000000	74.798493
1026.000000	74.735400
1025.000000	74.675898
1024.000000	74.620386
1023.000000	74.574624
1022.000000	74.530058
1021.000000	74.469023
1020.000000	74.392418
1019.000000	74.319565
1018.000000	74.258769
1017.000000	74.201145
1016.000000	74.143325
1015.000000	74.090175
1014.000000	74.034310
1013.000000	73.960878
1012.000000	73.875666
1011.000000	73.801457
1010.000000	73.743546
1009.000000	73.685794
1008.000000	73.623518
1007.000000	73.571948
1006.000000	73.537654
1005.000000	73.509906
1004.000000	73.485598
1003.000000	73.475047
1002.000000	73.477200
1001.000000	73.476943
1000.000000	73.474559
999.000000	73.491446
998.000000	73.537891
997.000000	73.598557
996.000000	73.656585
995.000000	73.710300
994.000000	73.761213
993.000000	73.808513
992.000000	73.860454
991.000000	73.929108
990.000000	74.010209
989.000000	74.089608
988.000000	74.170912
987.000000	74.273087
986.000000	74.399729
985.000000	74.535692
984.000000	74.675140
983.000000	74.826833
982.000000	74.990114
981.000000	75.153767
980.000000	75.322627
979.000000	75.518050
978.000000	75.747149
977.000000	75.996762
976.000000	76.260483
975.000000	76.544291
974.000000	76.841318
973.000000	77.130258
972.000000	77.406957
971.000000	77.691601
970.000000	77.996394
969.000000	78.310366
968.000000	78.622985
967.000000	78.937786
966.000000	79.254226
965.000000	79.560552
964.000000	79.855093
963.000000	80.152967
962.000000	80.461421
961.000000	80.768000
960.000000	81.062004
959.000000	81.348111
958.000000	81.629930
957.000000	81.899330
956.000000	82.151937
955.000000	82.395730
954.000000	82.634383
953.000000	82.857974
952.000000	83.059762
951.000000	83.247500
950.000000	83.429801
949.000000	83.605011
948.000000	83.771081
947.000000	83.932253
946.000000	84.087892
945.000000	84.227586
944.000000	84.345226
943.000000	84.447714
942.000000	84.545163
941.000000	84.643240
940.000000	84.747774
939.000000	84.863575
938.000000	84.985076
937.000000	85.100909
936.000000	85.209935
935.000000	85.319945
934.000000	85.430605
933.000000	85.533554
932.000000	85.629650
931.000000	85.728276
930.000000	85.828517
929.000000	85.920542
928.000000	86.008066
927.000000	86.108439
926.000000	86.225326
925.000000	86.341834
924.000000	86.447005
923.000000	86.548348
922.000000	86.650003
921.000000	86.739070
920.000000	86.805112
919.000000	86.856628
918.000000	86.907330
917.000000	86.960921
916.000000	87.019064
915.000000	87.089772
914.000000	87.178082
913.000000	87.281441
912.000000	87.401834
911.000000	87.548260
910.000000	87.720607
909.000000	87.907014
908.000000	88.104410
907.000000	88.324710
906.000000	88.572588
905.000000	88.834944
904.000000	89.101930
903.000000	89.381171
902.000000	89.679400
901.000000	89.985571
900.000000	90.284761
899.000000	90.576177
898.000000	90.865050
897.000000	91.147432
896.000000	91.414592
895.000000	91.664038
894.000000	91.897258
893.000000	92.115427
892.000000	92.325418
891.000000	92.540118
890.000000	92.763291
889.000000	92.982649
888.000000	93.186576
887.000000	93.379368
886.000000	93.571902
885.000000	93.765882
884.000000	93.956403
883.000000	94.142214
882.000000	94.323978
881.000000	94.499274
880.000000	94.667957
879.000000	94.835560
878.000000	95.003715
877.000000	95.165958
876.000000	95.322100
875.000000	95.487329
874.000000	95.675343
873.000000	95.879120
872.000000	96.079153
871.000000	96.265098
870.000000	96.440306
869.000000	96.611470
868.000000	96.783812
867.000000	96.961630
866.000000	97.143772
865.000000	97.321639
864.000000	97.489253
863.000000	97.651209
862.000000	97.812956
861.000000	97.968268
860.000000	98.107086
859.000000	98.232912
858.000000	98.360618
857.000000	98.496409
856.000000	98.630852
855.000000	98.754552
854.000000	98.870913
853.000000	98.987745
852.000000	99.102896
851.000000	99.205135
850.000000	99.286696
849.000000	99.350346
848.000000	99.405747
847.000000	99.461756
846.000000	99.519750
845.000000	99.570917
844.000000	99.601558
843.000000	99.604589
842.000000	99.585875
841.000000	99.556919
840.000000	99.522040
839.000000	99.476192
838.000000	99.415606
837.000000	99.346135
836.000000	99.278354
835.000000	99.218259
834.000000	99.168271
833.000000	99.135215
832.000000	99.127867
831.000000	99.142228
830.000000	99.157620
829.000000	99.156989
828.000000	99.146963
827.000000	99.147821
826.000000	99.166276
825.000000	99.189527
824.000000	99.204605
823.000000	99.209487
822.000000	99.204205
821.000000	99.184991
820.000000	99.149278
819.000000	99.094466
818.000000	99.010898
817.000000	98.887933
816.000000	98.728767
815.000000	98.547133
814.000000	98.343780
813.000000	98.095841
812.000000	97.775888
811.000000	97.372907
810.000000	96.888224
809.000000	96.320848
808.000000	95.668486
807.000000	94.938754
806.000000	94.150432
805.000000	93.328129
804.000000	92.503346
803.000000	91.714281
802.000000	90.995076
801.000000	90.369326
800.000000	89.856957
799.000000	89.475509
798.000000	89.229093
797.000000	89.108138
796.000000	89.103148
795.000000	89.202808
794.000000	89.374715
793.000000	89.567595
792.000000	89.742958
791.000000	89.892281
790.000000	90.016966
789.000000	90.105247
788.000000	90.136901
787.000000	90.098709
786.000000	89.985948
785.000000	89.797987
784.000000	89.542596
783.000000	89.240383
782.000000	88.919876
781.000000	88.613534
780.000000	88.359453
779.000000	88.194068
778.000000	88.135702
777.000000	88.182964
776.000000	88.330093
775.000000	88.570212
774.000000	88.881245
773.000000	89.225171
772.000000	89.569345
771.000000	89.899944
770.000000	90.213242
769.000000	90.505985
768.000000	90.777139
767.000000	91.027002
766.000000	91.250481
765.000000	91.441587
764.000000	91.607175
763.000000	91.764678
762.000000	91.922546
761.000000	92.074327
760.000000	92.215820
759.000000	92.355621
758.000000	92.502703
757.000000	92.654796
756.000000	92.806157
755.000000	92.957635
754.000000	93.112441
753.000000	93.269742
752.000000	93.427611
751.000000	93.584830
750.000000	93.736099
